cm-1,A
4000.0,0.014169510141607944
3999.0,0.014124642691606404
3998.0,0.014124642691606404
3997.0,0.014124642691606404
3996.0,0.014079779876432497
3995.0,0.014079779876432497
3994.0,0.014079779876432497
3993.0,0.014124642691606404
3992.0,0.014169510141607944
3991.0,0.014214382227394795
3990.0,0.014259258949925524
3989.0,0.014304140310157809
3988.0,0.014304140310157809
3987.0,0.014349026309051105
3986.0,0.014438812226654996
3985.0,0.0144837121472845
3984.0,0.0144837121472845
3983.0,0.014393916947563534
3982.0,0.014214382227394795
3981.0,0.014079779876432497
3980.0,0.013990068146738865
3979.0,0.01403492169512921
3978.0,0.014124642691606404
3977.0,0.014169510141607944
3976.0,0.014169510141607944
3975.0,0.014124642691606404
3974.0,0.01403492169512921
3973.0,0.013945219230304673
3972.0,0.013900374944870508
3971.0,0.013900374944870508
3970.0,0.013900374944870508
3969.0,0.013945219230304673
3968.0,0.014079779876432497
3967.0,0.014169510141607944
3966.0,0.014259258949925524
3965.0,0.014349026309051105
3964.0,0.014438812226654996
3963.0,0.0144837121472845
3962.0,0.0144837121472845
3961.0,0.014438812226654996
3960.0,0.014349026309051105
3959.0,0.014349026309051105
3958.0,0.014349026309051105
3957.0,0.014349026309051105
3956.0,0.014393916947563534
3955.0,0.014393916947563534
3954.0,0.014349026309051105
3953.0,0.014259258949925524
3952.0,0.014214382227394795
3951.0,0.014169510141607944
3950.0,0.014214382227394795
3949.0,0.014259258949925524
3948.0,0.014304140310157809
3947.0,0.014438812226654996
3946.0,0.01452861671041239
3945.0,0.014573525916998342
3944.0,0.01452861671041239
3943.0,0.014393916947563534
3942.0,0.014259258949925524
3941.0,0.014259258949925524
3940.0,0.014259258949925524
3939.0,0.014214382227394795
3938.0,0.014169510141607944
3937.0,0.014169510141607944
3936.0,0.014259258949925524
3935.0,0.014349026309051105
3934.0,0.014393916947563534
3933.0,0.014393916947563534
3932.0,0.014438812226654996
3931.0,0.014438812226654996
3930.0,0.014438812226654996
3929.0,0.014393916947563534
3928.0,0.014438812226654996
3927.0,0.014438812226654996
3926.0,0.014393916947563534
3925.0,0.014393916947563534
3924.0,0.014393916947563534
3923.0,0.0144837121472845
3922.0,0.01452861671041239
3921.0,0.014438812226654996
3920.0,0.014393916947563534
3919.0,0.014393916947563534
3918.0,0.014393916947563534
3917.0,0.014304140310157809
3916.0,0.014214382227394795
3915.0,0.014169510141607944
3914.0,0.014169510141607944
3913.0,0.014169510141607944
3912.0,0.014124642691606404
3911.0,0.014124642691606404
3910.0,0.014124642691606404
3909.0,0.014214382227394795
3908.0,0.014349026309051105
3907.0,0.014573525916998342
3906.0,0.014663358264387139
3905.0,0.014708281407112
3904.0,0.014798141635428141
3903.0,0.014977917890464765
3902.0,0.015202742910707112
3901.0,0.015292705517326866
3900.0,0.015202742910707112
3899.0,0.015022873584506602
3898.0,0.014843078722943437
3897.0,0.014753209197138295
3896.0,0.014663358264387139
3895.0,0.014663358264387139
3894.0,0.014708281407112
3893.0,0.014708281407112
3892.0,0.0144837121472845
3891.0,0.014169510141607944
3890.0,0.014079779876432497
3889.0,0.014304140310157809
3888.0,0.014618439768003144
3887.0,0.01452861671041239
3886.0,0.014259258949925524
3885.0,0.014259258949925524
3884.0,0.014708281407112
3883.0,0.015202742910707112
3882.0,0.015292705517326866
3881.0,0.014932966849499074
3880.0,0.0144837121472845
3879.0,0.014259258949925524
3878.0,0.014304140310157809
3877.0,0.01452861671041239
3876.0,0.01452861671041239
3875.0,0.014304140310157809
3874.0,0.014214382227394795
3873.0,0.014438812226654996
3872.0,0.014708281407112
3871.0,0.014573525916998342
3870.0,0.014169510141607944
3869.0,0.014079779876432497
3868.0,0.014393916947563534
3867.0,0.014753209197138295
3866.0,0.014798141635428141
3865.0,0.014618439768003144
3864.0,0.014663358264387139
3863.0,0.014753209197138295
3862.0,0.014663358264387139
3861.0,0.014438812226654996
3860.0,0.014124642691606404
3859.0,0.01385553528947936
3858.0,0.013676222949234651
3857.0,0.013765869865004277
3856.0,0.01403492169512921
3855.0,0.014079779876432497
3854.0,0.013990068146738865
3853.0,0.014124642691606404
3852.0,0.014349026309051105
3851.0,0.014618439768003144
3850.0,0.014753209197138295
3849.0,0.014798141635428141
3848.0,0.014753209197138295
3847.0,0.014798141635428141
3846.0,0.014843078722943437
3845.0,0.014798141635428141
3844.0,0.014708281407112
3843.0,0.014618439768003144
3842.0,0.014663358264387139
3841.0,0.014618439768003144
3840.0,0.0144837121472845
3839.0,0.014304140310157809
3838.0,0.014259258949925524
3837.0,0.014349026309051105
3836.0,0.014573525916998342
3835.0,0.014843078722943437
3834.0,0.015022873584506602
3833.0,0.014932966849499074
3832.0,0.014708281407112
3831.0,0.014618439768003144
3830.0,0.014753209197138295
3829.0,0.015022873584506602
3828.0,0.015022873584506602
3827.0,0.014753209197138295
3826.0,0.014438812226654996
3825.0,0.0144837121472845
3824.0,0.014753209197138295
3823.0,0.014753209197138295
3822.0,0.014438812226654996
3821.0,0.014214382227394795
3820.0,0.014304140310157809
3819.0,0.014663358264387139
3818.0,0.014843078722943437
3817.0,0.01452861671041239
3816.0,0.014214382227394795
3815.0,0.014304140310157809
3814.0,0.014663358264387139
3813.0,0.014888020460646079
3812.0,0.014798141635428141
3811.0,0.014573525916998342
3810.0,0.014573525916998342
3809.0,0.01452861671041239
3808.0,0.014214382227394795
3807.0,0.01381070026317599
3806.0,0.013631406429727155
3805.0,0.013945219230304673
3804.0,0.014349026309051105
3803.0,0.014438812226654996
3802.0,0.014349026309051105
3801.0,0.0144837121472845
3800.0,0.014932966849499074
3799.0,0.01538268676325183
3798.0,0.015517693597737248
3797.0,0.015337693809893471
3796.0,0.015112798935672522
3795.0,0.015022873584506602
3794.0,0.014977917890464765
3793.0,0.014888020460646079
3792.0,0.014753209197138295
3791.0,0.014708281407112
3790.0,0.014753209197138295
3789.0,0.014843078722943437
3788.0,0.014977917890464765
3787.0,0.015157768594724175
3786.0,0.015292705517326866
3785.0,0.015292705517326866
3784.0,0.015247721884586563
3783.0,0.015292705517326866
3782.0,0.015292705517326866
3781.0,0.015247721884586563
3780.0,0.015112798935672522
3779.0,0.015067833932588037
3778.0,0.015112798935672522
3777.0,0.015157768594724175
3776.0,0.015067833932588037
3775.0,0.014888020460646079
3774.0,0.014843078722943437
3773.0,0.014977917890464765
3772.0,0.015067833932588037
3771.0,0.014932966849499074
3770.0,0.014798141635428141
3769.0,0.014843078722943437
3768.0,0.015112798935672522
3767.0,0.015247721884586563
3766.0,0.015202742910707112
3765.0,0.015022873584506602
3764.0,0.014977917890464765
3763.0,0.015112798935672522
3762.0,0.015157768594724175
3761.0,0.015067833932588037
3760.0,0.015067833932588037
3759.0,0.015247721884586563
3758.0,0.015337693809893471
3757.0,0.015202742910707112
3756.0,0.014977917890464765
3755.0,0.014753209197138295
3754.0,0.014393916947563534
3753.0,0.013945219230304673
3752.0,0.013765869865004277
3751.0,0.013990068146738865
3750.0,0.014079779876432497
3749.0,0.013945219230304673
3748.0,0.014169510141607944
3747.0,0.014753209197138295
3746.0,0.015022873584506602
3745.0,0.014753209197138295
3744.0,0.014663358264387139
3743.0,0.015022873584506602
3742.0,0.01547268665620738
3741.0,0.015562705203923999
3740.0,0.015427684378367834
3739.0,0.01538268676325183
3738.0,0.01538268676325183
3737.0,0.015247721884586563
3736.0,0.015067833932588037
3735.0,0.015202742910707112
3734.0,0.01547268665620738
3733.0,0.01547268665620738
3732.0,0.015202742910707112
3731.0,0.015022873584506602
3730.0,0.015067833932588037
3729.0,0.015157768594724175
3728.0,0.015112798935672522
3727.0,0.015022873584506602
3726.0,0.015157768594724175
3725.0,0.01547268665620738
3724.0,0.015697768020096703
3723.0,0.015697768020096703
3722.0,0.015517693597737248
3721.0,0.015337693809893471
3720.0,0.015157768594724175
3719.0,0.015022873584506602
3718.0,0.014798141635428141
3717.0,0.014708281407112
3716.0,0.014798141635428141
3715.0,0.014977917890464765
3714.0,0.015067833932588037
3713.0,0.015067833932588037
3712.0,0.015202742910707112
3711.0,0.015427684378367834
3710.0,0.015517693597737248
3709.0,0.01547268665620738
3708.0,0.01538268676325183
3707.0,0.015247721884586563
3706.0,0.015292705517326866
3705.0,0.01538268676325183
3704.0,0.01547268665620738
3703.0,0.015517693597737248
3702.0,0.015517693597737248
3701.0,0.01547268665620738
3700.0,0.01547268665620738
3699.0,0.01547268665620738
3698.0,0.01538268676325183
3697.0,0.015202742910707112
3696.0,0.015067833932588037
3695.0,0.015067833932588037
3694.0,0.015112798935672522
3693.0,0.015112798935672522
3692.0,0.015157768594724175
3691.0,0.015292705517326866
3690.0,0.01538268676325183
3689.0,0.015292705517326866
3688.0,0.015202742910707112
3687.0,0.015292705517326866
3686.0,0.015517693597737248
3685.0,0.015652742414136167
3684.0,0.015607721475734415
3683.0,0.015562705203923999
3682.0,0.015562705203923999
3681.0,0.015427684378367834
3680.0,0.015292705517326866
3679.0,0.01538268676325183
3678.0,0.015742798294583915
3677.0,0.015922966097169144
3676.0,0.015877917138889863
3675.0,0.01578783323856614
3674.0,0.015877917138889863
3673.0,0.016238439713835096
3672.0,0.016373712875465518
3671.0,0.016103208673694303
3670.0,0.015922966097169144
3669.0,0.016013078034810446
3668.0,0.016193358021584725
3667.0,0.01628352608625061
3666.0,0.016238439713835096
3665.0,0.016193358021584725
3664.0,0.016148281008528276
3663.0,0.016148281008528276
3662.0,0.016058141016111804
3661.0,0.016013078034810446
3660.0,0.016103208673694303
3659.0,0.01632861713980338
3658.0,0.016509028184833463
3657.0,0.016554142658660398
3656.0,0.016418813294209356
3655.0,0.016373712875465518
3654.0,0.016554142658660398
3653.0,0.016689514205884493
3652.0,0.016644385668211692
3651.0,0.016509028184833463
3650.0,0.016915227262211507
3649.0,0.01768353030793479
3648.0,0.018045555530026514
3647.0,0.01800028587012159
3646.0,0.01781925440359733
3645.0,0.01768353030793479
3644.0,0.017547848615010242
3643.0,0.017412209298337533
3642.0,0.01727661233145472
3641.0,0.01727661233145472
3640.0,0.017321806616515723
3639.0,0.017367005605150476
3638.0,0.017367005605150476
3637.0,0.017502630802287644
3636.0,0.017547848615010242
3635.0,0.017457417697056554
3634.0,0.017321806616515723
3633.0,0.017321806616515723
3632.0,0.017638298366853045
3631.0,0.017909760704207134
3630.0,0.017955020928509757
3629.0,0.018045555530026514
3628.0,0.018226681372252695
3627.0,0.01831727262871463
3626.0,0.01831727262871463
3625.0,0.018226681372252695
3624.0,0.018181392829336396
3623.0,0.01840788278591865
3622.0,0.018906576854070378
3621.0,0.019315025636685412
3620.0,0.01954210772389997
3619.0,0.01949668180660491
3618.0,0.019360432556262852
3617.0,0.019315025636685412
3616.0,0.01940584422377989
3615.0,0.01954210772389997
3614.0,0.01958753839310856
3613.0,0.019632973815224997
3612.0,0.019678413991243593
3611.0,0.019723858922159776
3610.0,0.019723858922159776
3609.0,0.019723858922159776
3608.0,0.019769308608968306
3607.0,0.01990568621470623
3606.0,0.01995115493504329
3605.0,0.01995115493504329
3604.0,0.019996628416253603
3603.0,0.020087589665283012
3602.0,0.02022406727031445
3601.0,0.020406104151069693
3600.0,0.02058821736556471
3599.0,0.020770406977844713
3598.0,0.020861530453190058
3597.0,0.020907099361673565
3596.0,0.020907099361673565
3595.0,0.020907099361673565
3594.0,0.020907099361673565
3593.0,0.020907099361673565
3592.0,0.020907099361673565
3591.0,0.0209982515252789
3590.0,0.0211806132671577
3589.0,0.02140867317992523
3588.0,0.02168250325324883
3587.0,0.021956506090037076
3586.0,0.022093572362881675
3585.0,0.02200219004126036
3584.0,0.021910826943857264
3583.0,0.021865152601710403
3582.0,0.021910826943857264
3581.0,0.02204787879853809
3580.0,0.0221849739168134
3579.0,0.02227639471115217
3578.0,0.02227639471115217
3577.0,0.02227639471115217
3576.0,0.022230681908425698
3575.0,0.02227639471115217
3574.0,0.022322112326006227
3573.0,0.022413561996148967
3572.0,0.022642270454698687
3571.0,0.02291687968414724
3570.0,0.02314585342378117
3569.0,0.023283295636617574
3568.0,0.023466619608062178
3567.0,0.023741750742954926
3566.0,0.023925268380126097
3565.0,0.023879381700184332
3564.0,0.023695883447997224
3563.0,0.023466619608062178
3562.0,0.023374947949272418
3561.0,0.02342078135989012
3560.0,0.02355831062115543
3559.0,0.023695883447997224
3558.0,0.023787622882622816
3557.0,0.023787622882622816
3556.0,0.023787622882622816
3555.0,0.023833499868024743
3554.0,0.023879381700184332
3553.0,0.024017056287453542
3552.0,0.024154774532432866
3551.0,0.024292536462819925
3550.0,0.024430342106337877
3549.0,0.024568191490736968
3548.0,0.024660115394541604
3547.0,0.02475205875931885
3546.0,0.02484402159331056
3545.0,0.024936003904763915
3544.0,0.02498200236711723
3543.0,0.025028005701930978
3542.0,0.025028005701930978
3541.0,0.024936003904763915
3540.0,0.024798037742147727
3539.0,0.02475205875931885
3538.0,0.02484402159331056
3537.0,0.02498200236711723
3536.0,0.02512002699306959
3535.0,0.025258095499050004
3534.0,0.025350165561278004
3533.0,0.02539620791296726
3532.0,0.02544225514642018
3531.0,0.025488307262671706
3530.0,0.02558042614771394
3529.0,0.025718641122169483
3528.0,0.025949097207122573
3527.0,0.026225806029419818
3526.0,0.026456531467510258
3525.0,0.02654885597506529
3524.0,0.026502691267936695
3523.0,0.026410376572743033
3522.0,0.02636422658259252
3521.0,0.02636422658259252
3520.0,0.026456531467510258
3519.0,0.026595025589939425
3518.0,0.026733563891471412
3517.0,0.026733563891471412
3516.0,0.026733563891471412
3515.0,0.02682594731702781
3514.0,0.02696455931306696
3513.0,0.027149444152769986
3512.0,0.027288159452933503
3511.0,0.027334407733889066
3510.0,0.027288159452933503
3509.0,0.02724191609646076
3508.0,0.027149444152769986
3507.0,0.027056991894431892
3506.0,0.027056991894431892
3505.0,0.027149444152769986
3504.0,0.02738066094037661
3503.0,0.0277045713888604
3502.0,0.027936083991977778
3501.0,0.028028723600243666
3500.0,0.02798240132598462
3499.0,0.027889771597169544
3498.0,0.027750864037404455
3497.0,0.0277045713888604
3496.0,0.027750864037404455
3495.0,0.027843464140506313
3494.0,0.027936083991977778
3493.0,0.02798240132598462
3492.0,0.02798240132598462
3491.0,0.028028723600243666
3490.0,0.028075050815808744
3489.0,0.028214062120885508
3488.0,0.02839947976994095
3487.0,0.02849221828874393
3486.0,0.02849221828874393
3485.0,0.02839947976994095
3484.0,0.028353117935693284
3483.0,0.028353117935693284
3482.0,0.02839947976994095
3481.0,0.028538594975413334
3480.0,0.02863136320857662
3479.0,0.02872415126189476
3478.0,0.028770552723758724
3477.0,0.028863370523193765
3476.0,0.028956208163971375
3475.0,0.029095501846216454
3474.0,0.029188389127482228
3473.0,0.029281296279810798
3472.0,0.02932775731028059
3471.0,0.02942069428514915
3470.0,0.029467170231675777
3469.0,0.029513651152349718
3468.0,0.029513651152349718
3467.0,0.029467170231675777
3466.0,0.02942069428514915
3465.0,0.029374223311705583
3464.0,0.029374223311705583
3463.0,0.02932775731028059
3462.0,0.029374223311705583
3461.0,0.02942069428514915
3460.0,0.029513651152349718
3459.0,0.02960662792039992
3458.0,0.02969962459782227
3457.0,0.029792641193145286
3456.0,0.029978734171634214
3455.0,0.030118356253500123
3454.0,0.03025802323714588
3453.0,0.03025802323714588
3452.0,0.03025802323714588
3451.0,0.03025802323714588
3450.0,0.030351159519274695
3449.0,0.030490901403433135
3448.0,0.03063068826647264
3447.0,0.03063068826647264
3446.0,0.030537492025363155
3445.0,0.030490901403433135
3444.0,0.03058408764601861
3443.0,0.0307239045110681
3442.0,0.030957032694186815
3441.0,0.031143625385307683
3440.0,0.03128362253321426
3439.0,0.03137697904301118
3438.0,0.03142366482450232
3437.0,0.03147035562516054
3436.0,0.03147035562516054
3435.0,0.03151705144606498
3434.0,0.031563752288295444
3433.0,0.03161045815293173
3432.0,0.031657169041054534
3431.0,0.031657169041054534
3430.0,0.031563752288295444
3429.0,0.03147035562516054
3428.0,0.03137697904301118
3427.0,0.03137697904301118
3426.0,0.03137697904301118
3425.0,0.03147035562516054
3424.0,0.031657169041054534
3423.0,0.03179733185715028
3422.0,0.031984286006358165
3421.0,0.03207779326948268
3420.0,0.032124554451966825
3419.0,0.03217132066984485
3418.0,0.032124554451966825
3417.0,0.032124554451966825
3416.0,0.03217132066984485
3415.0,0.032218091924200776
3414.0,0.03226486821611996
3413.0,0.032218091924200776
3412.0,0.03217132066984485
3411.0,0.03217132066984485
3410.0,0.032218091924200776
3409.0,0.032311649546687526
3408.0,0.03245202378113787
3407.0,0.032545631817259224
3406.0,0.03263926003405038
3405.0,0.032686081712916426
3404.0,0.03263926003405038
3403.0,0.032592443402527316
3402.0,0.032545631817259224
3401.0,0.032545631817259224
3400.0,0.032592443402527316
3399.0,0.032686081712916426
3398.0,0.03273290844021437
3397.0,0.03273290844021437
3396.0,0.03273290844021437
3395.0,0.03273290844021437
3394.0,0.03273290844021437
3393.0,0.03277974021703267
3392.0,0.032873418923587305
3391.0,0.0329671178412978
3390.0,0.033060836978886954
3389.0,0.03310770413286357
3388.0,0.03310770413286357
3387.0,0.033154576345083564
3386.0,0.03310770413286357
3385.0,0.033060836978886954
3384.0,0.032920265855503006
3383.0,0.03277974021703267
3382.0,0.03273290844021437
3381.0,0.03282657704446046
3380.0,0.0329671178412978
3379.0,0.03310770413286357
3378.0,0.033154576345083564
3377.0,0.033154576345083564
3376.0,0.033154576345083564
3375.0,0.03310770413286357
3374.0,0.03301397488206215
3373.0,0.0329671178412978
3372.0,0.032920265855503006
3371.0,0.032920265855503006
3370.0,0.03301397488206215
3369.0,0.033060836978886954
3368.0,0.03301397488206215
3367.0,0.0329671178412978
3366.0,0.032873418923587305
3365.0,0.03282657704446046
3364.0,0.03282657704446046
3363.0,0.032873418923587305
3362.0,0.0329671178412978
3361.0,0.033060836978886954
3360.0,0.033154576345083564
3359.0,0.033201453616638954
3358.0,0.033201453616638954
3357.0,0.033154576345083564
3356.0,0.03310770413286357
3355.0,0.03301397488206215
3354.0,0.0329671178412978
3353.0,0.032920265855503006
3352.0,0.032873418923587305
3351.0,0.032920265855503006
3350.0,0.03301397488206215
3349.0,0.033060836978886954
3348.0,0.03310770413286357
3347.0,0.033154576345083564
3346.0,0.03310770413286357
3345.0,0.03301397488206215
3344.0,0.0329671178412978
3343.0,0.032920265855503006
3342.0,0.032920265855503006
3341.0,0.032920265855503006
3340.0,0.032873418923587305
3339.0,0.03277974021703267
3338.0,0.032686081712916426
3337.0,0.032592443402527316
3336.0,0.032545631817259224
3335.0,0.03249882527715853
3334.0,0.03249882527715853
3333.0,0.032545631817259224
3332.0,0.032592443402527316
3331.0,0.032686081712916426
3330.0,0.032686081712916426
3329.0,0.03263926003405038
3328.0,0.032545631817259224
3327.0,0.032545631817259224
3326.0,0.032592443402527316
3325.0,0.032592443402527316
3324.0,0.032545631817259224
3323.0,0.03245202378113787
3322.0,0.03235843591698884
3321.0,0.03235843591698884
3320.0,0.032311649546687526
3319.0,0.03226486821611996
3318.0,0.03217132066984485
3317.0,0.03207779326948268
3316.0,0.032031037121307726
3315.0,0.032031037121307726
3314.0,0.032031037121307726
3313.0,0.032031037121307726
3312.0,0.032031037121307726
3311.0,0.03207779326948268
3310.0,0.032124554451966825
3309.0,0.03217132066984485
3308.0,0.032124554451966825
3307.0,0.031984286006358165
3306.0,0.03189079887180224
3305.0,0.03184406285002961
3304.0,0.03189079887180224
3303.0,0.03189079887180224
3302.0,0.03189079887180224
3301.0,0.03184406285002961
3300.0,0.03175060589208267
3299.0,0.031657169041054534
3298.0,0.031563752288295444
3297.0,0.03151705144606498
3296.0,0.03142366482450232
3295.0,0.03137697904301118
3294.0,0.03128362253321426
3293.0,0.03133029827960798
3292.0,0.03147035562516054
3291.0,0.031657169041054534
3290.0,0.03170388495374454
3289.0,0.031657169041054534
3288.0,0.031563752288295444
3287.0,0.03142366482450232
3286.0,0.03128362253321426
3285.0,0.031190286087141805
3284.0,0.031143625385307683
3283.0,0.031096969696171817
3282.0,0.031096969696171817
3281.0,0.031096969696171817
3280.0,0.031096969696171817
3279.0,0.03105031901865729
3278.0,0.031096969696171817
3277.0,0.031190286087141805
3276.0,0.03133029827960798
3275.0,0.03147035562516054
3274.0,0.03161045815293173
3273.0,0.03161045815293173
3272.0,0.03147035562516054
3271.0,0.031236951802751545
3270.0,0.031096969696171817
3269.0,0.031003673351687855
3268.0,0.031003673351687855
3267.0,0.031003673351687855
3266.0,0.031003673351687855
3265.0,0.030957032694186815
3264.0,0.030863766403287585
3263.0,0.030770520137356927
3262.0,0.0307239045110681
3261.0,0.0307239045110681
3260.0,0.030770520137356927
3259.0,0.03081714076773867
3258.0,0.030910397045078586
3257.0,0.030863766403287585
3256.0,0.03081714076773867
3255.0,0.030770520137356927
3254.0,0.0307239045110681
3253.0,0.030770520137356927
3252.0,0.030770520137356927
3251.0,0.0307239045110681
3250.0,0.0307239045110681
3249.0,0.0307239045110681
3248.0,0.0307239045110681
3247.0,0.03063068826647264
3246.0,0.030444315779156517
3245.0,0.03025802323714588
3244.0,0.030071810571884017
3243.0,0.029978734171634214
3242.0,0.029978734171634214
3241.0,0.029978734171634214
3240.0,0.029978734171634214
3239.0,0.03002526987828502
3238.0,0.030071810571884017
3237.0,0.030118356253500123
3236.0,0.030118356253500123
3235.0,0.03002526987828502
3234.0,0.029978734171634214
3233.0,0.029978734171634214
3232.0,0.03002526987828502
3231.0,0.030071810571884017
3230.0,0.030071810571884017
3229.0,0.03002526987828502
3228.0,0.03002526987828502
3227.0,0.029932203450862893
3226.0,0.029839156962686353
3225.0,0.02969962459782227
3224.0,0.02960662792039992
3223.0,0.029560137048236124
3222.0,0.029513651152349718
3221.0,0.029513651152349718
3220.0,0.029467170231675777
3219.0,0.029374223311705583
3218.0,0.029281296279810798
3217.0,0.029234840219232394
3216.0,0.029281296279810798
3215.0,0.02932775731028059
3214.0,0.02932775731028059
3213.0,0.02932775731028059
3212.0,0.029281296279810798
3211.0,0.029281296279810798
3210.0,0.029281296279810798
3209.0,0.02932775731028059
3208.0,0.029281296279810798
3207.0,0.029188389127482228
3206.0,0.02904906565457588
3205.0,0.02890978686288448
3204.0,0.028816959143838528
3203.0,0.028816959143838528
3202.0,0.028770552723758724
3201.0,0.02872415126189476
3200.0,0.02863136320857662
3199.0,0.028538594975413334
3198.0,0.02849221828874393
3197.0,0.028445846553939003
3196.0,0.02839947976994095
3195.0,0.028353117935693284
3194.0,0.028306761050139073
3193.0,0.02826040911222183
3192.0,0.028214062120885508
3191.0,0.02812138297373412
3190.0,0.028028723600243666
3189.0,0.027889771597169544
3188.0,0.027843464140506313
3187.0,0.027843464140506313
3186.0,0.027797161620935595
3185.0,0.027750864037404455
3184.0,0.027612000892527133
3183.0,0.027565723042634938
3182.0,0.02751945012352408
3181.0,0.027565723042634938
3180.0,0.027612000892527133
3179.0,0.027612000892527133
3178.0,0.02751945012352408
3177.0,0.02738066094037661
3176.0,0.02724191609646076
3175.0,0.027149444152769986
3174.0,0.02710321556345563
3173.0,0.027056991894431892
3172.0,0.027056991894431892
3171.0,0.027010773144651168
3170.0,0.02696455931306696
3169.0,0.02691835039863255
3168.0,0.026872146400301444
3167.0,0.02677975314776626
3166.0,0.026733563891471412
3165.0,0.026687379547098322
3164.0,0.02664120011360227
3163.0,0.02664120011360227
3162.0,0.02664120011360227
3161.0,0.02664120011360227
3160.0,0.02664120011360227
3159.0,0.02664120011360227
3158.0,0.026595025589939425
3157.0,0.02654885597506529
3156.0,0.026456531467510258
3155.0,0.026410376572743033
3154.0,0.026318081496016443
3153.0,0.026225806029419818
3152.0,0.02613355016462182
3151.0,0.026041313893296225
3150.0,0.025995203102585407
3149.0,0.025995203102585407
3148.0,0.025949097207122573
3147.0,0.025810808881832736
3146.0,0.025672564576383117
3145.0,0.02558042614771394
3144.0,0.02553436426275746
3143.0,0.025488307262671706
3142.0,0.02539620791296726
3141.0,0.025304128090317013
3140.0,0.02516604495145991
3139.0,0.025028005701930978
3138.0,0.024936003904763915
3137.0,0.024936003904763915
3136.0,0.024936003904763915
3135.0,0.024890010313838973
3134.0,0.02484402159331056
3133.0,0.024798037742147727
3132.0,0.02475205875931885
3131.0,0.024706084643793647
3130.0,0.02475205875931885
3129.0,0.024798037742147727
3128.0,0.02475205875931885
3127.0,0.024660115394541604
3126.0,0.024476287039668643
3125.0,0.024338466818941473
3124.0,0.024246610963712723
3123.0,0.024200690320592466
3122.0,0.024200690320592466
3121.0,0.024154774532432866
3120.0,0.02406295751688936
3119.0,0.023971159908874107
3118.0,0.023879381700184332
3117.0,0.023879381700184332
3116.0,0.023879381700184332
3115.0,0.023971159908874107
3114.0,0.02406295751688936
3113.0,0.024154774532432866
3112.0,0.024338466818941473
3111.0,0.024476287039668643
3110.0,0.024660115394541604
3109.0,0.024798037742147727
3108.0,0.024890010313838973
3107.0,0.025028005701930978
3106.0,0.025074013910237447
3105.0,0.02512002699306959
3104.0,0.02512002699306959
3103.0,0.02512002699306959
3102.0,0.025074013910237447
3101.0,0.025028005701930978
3100.0,0.024936003904763915
3099.0,0.024798037742147727
3098.0,0.024660115394541604
3097.0,0.024568191490736968
3096.0,0.024476287039668643
3095.0,0.024476287039668643
3094.0,0.024522236834125355
3093.0,0.024660115394541604
3092.0,0.024936003904763915
3091.0,0.025304128090317013
3090.0,0.025810808881832736
3089.0,0.026456531467510258
3088.0,0.027149444152769986
3087.0,0.027936083991977778
3086.0,0.028677754757187035
3085.0,0.02932775731028059
3084.0,0.029792641193145286
3083.0,0.030071810571884017
3082.0,0.030118356253500123
3081.0,0.029932203450862893
3080.0,0.029560137048236124
3079.0,0.02904906565457588
3078.0,0.02858497661500481
3077.0,0.028167720075074953
3076.0,0.027843464140506313
3075.0,0.027612000892527133
3074.0,0.02747318213414429
3073.0,0.02738066094037661
3072.0,0.027426919073445077
3071.0,0.02751945012352408
3070.0,0.0277045713888604
3069.0,0.028075050815808744
3068.0,0.02863136320857662
3067.0,0.02932775731028059
3066.0,0.030118356253500123
3065.0,0.030910397045078586
3064.0,0.03170388495374454
3063.0,0.03240522732811035
3062.0,0.03301397488206215
3061.0,0.03352973627071565
3060.0,0.0338113190438627
3059.0,0.0338113190438627
3058.0,0.033482823553208085
3057.0,0.032920265855503006
3056.0,0.032218091924200776
3055.0,0.03151705144606498
3054.0,0.030863766403287585
3053.0,0.030164906924202484
3052.0,0.029467170231675777
3051.0,0.028770552723758724
3050.0,0.028167720075074953
3049.0,0.027658283674251827
3048.0,0.027334407733889066
3047.0,0.02710321556345563
3046.0,0.02691835039863255
3045.0,0.026733563891471412
3044.0,0.02664120011360227
3043.0,0.02664120011360227
3042.0,0.026733563891471412
3041.0,0.027010773144651168
3040.0,0.02738066094037661
3039.0,0.027797161620935595
3038.0,0.02826040911222183
3037.0,0.028863370523193765
3036.0,0.029792641193145286
3035.0,0.030957032694186815
3034.0,0.03245202378113787
3033.0,0.03409308450480819
3032.0,0.03592902944204468
3031.0,0.03791491948264003
3030.0,0.039909932095080425
3029.0,0.04181850243505214
3028.0,0.04344740808260106
3027.0,0.04469717723830824
3026.0,0.045516282844447975
3025.0,0.04570923829887308
3024.0,0.04527520902093718
3023.0,0.04421607108308856
3022.0,0.04272802000705722
3021.0,0.041006334969674096
3020.0,0.03919637508823026
3019.0,0.03744126420403626
3018.0,0.03578752703018084
3017.0,0.03428102975577918
3016.0,0.0329671178412978
3015.0,0.03179733185715028
3014.0,0.03081714076773867
3013.0,0.03002526987828502
3012.0,0.02942069428514915
3011.0,0.028956208163971375
3010.0,0.02863136320857662
3009.0,0.02839947976994095
3008.0,0.028306761050139073
3007.0,0.028353117935693284
3006.0,0.02849221828874393
3005.0,0.028677754757187035
3004.0,0.028816959143838528
3003.0,0.02890978686288448
3002.0,0.02890978686288448
3001.0,0.028816959143838528
3000.0,0.02858497661500481
2999.0,0.028167720075074953
2998.0,0.027612000892527133
2997.0,0.027010773144651168
2996.0,0.026456531467510258
2995.0,0.025902996205869
2994.0,0.02553436426275746
2993.0,0.025258095499050004
2992.0,0.025028005701930978
2991.0,0.02484402159331056
2990.0,0.024568191490736968
2989.0,0.024292536462819925
2988.0,0.02406295751688936
2987.0,0.023879381700184332
2986.0,0.023833499868024743
2985.0,0.023833499868024743
2984.0,0.023787622882622816
2983.0,0.023741750742954926
2982.0,0.02365002099672653
2981.0,0.02355831062115543
2980.0,0.023466619608062178
2979.0,0.023374947949272418
2978.0,0.023329119375188556
2977.0,0.023374947949272418
2976.0,0.02342078135989012
2975.0,0.023466619608062178
2974.0,0.023466619608062178
2973.0,0.023466619608062178
2972.0,0.02351246269481
2971.0,0.02355831062115543
2970.0,0.02365002099672653
2969.0,0.023787622882622816
2968.0,0.023925268380126097
2967.0,0.024108863598207186
2966.0,0.024246610963712723
2965.0,0.02438440203310499
2964.0,0.024522236834125355
2963.0,0.024706084643793647
2962.0,0.024890010313838973
2961.0,0.025074013910237447
2960.0,0.025304128090317013
2959.0,0.025488307262671706
2958.0,0.02562649291857677
2957.0,0.025764722556973707
2956.0,0.025949097207122573
2955.0,0.026225806029419818
2954.0,0.02654885597506529
2953.0,0.026872146400301444
2952.0,0.02724191609646076
2951.0,0.027565723042634938
2950.0,0.027889771597169544
2949.0,0.028306761050139073
2948.0,0.028770552723758724
2947.0,0.029281296279810798
2946.0,0.029885677714903025
2945.0,0.030490901403433135
2944.0,0.031190286087141805
2943.0,0.03193753992355086
2942.0,0.03273290844021437
2941.0,0.03362357691107709
2940.0,0.03456310022373987
2939.0,0.03559892883726867
2938.0,0.03668448861388862
2937.0,0.03791491948264003
2936.0,0.039338992729018196
2935.0,0.04081545726880842
2934.0,0.04229695845116854
2933.0,0.0437835307566099
2932.0,0.04513062893352182
2931.0,0.04643358574299339
2930.0,0.047691990337874746
2929.0,0.048954051864180226
2928.0,0.05021979163799939
2927.0,0.05139145012356372
2926.0,0.05232126006306337
2925.0,0.05310580489767336
2924.0,0.05369514500652506
2923.0,0.05413767551038262
2922.0,0.05433450056786593
2921.0,0.05443294655761144
2920.0,0.05443294655761144
2919.0,0.05433450056786593
2918.0,0.054186873412661596
2917.0,0.05399011523423525
2916.0,0.053646002773725554
2915.0,0.05325306496641513
2914.0,0.05271335532220167
2913.0,0.05212534510230182
2912.0,0.05144033789103841
2911.0,0.050805225762017736
2910.0,0.050171041064686284
2909.0,0.04953778109440221
2908.0,0.04885683989244738
2907.0,0.04817696468408794
2906.0,0.04744970610179822
2905.0,0.04677202844014605
2904.0,0.04609540658654021
2903.0,0.04541983725624266
2902.0,0.04474531717982
2901.0,0.04397571771932274
2900.0,0.04325545471730896
2899.0,0.04248848854552012
2898.0,0.04181850243505214
2897.0,0.041149548320321694
2896.0,0.040529297924893015
2895.0,0.039909932095080425
2894.0,0.03929144831144349
2893.0,0.038816290187564384
2892.0,0.03838909190871931
2891.0,0.03800971255993524
2890.0,0.037583306554248797
2889.0,0.03720463014276687
2888.0,0.036779013477011624
2887.0,0.036401037402758574
2886.0,0.03602339000339416
2885.0,0.03559892883726867
2884.0,0.03517488211661135
2883.0,0.03484535401307465
2882.0,0.034516075754861264
2881.0,0.03423403581731388
2880.0,0.03399914237121604
2879.0,0.03371743783253667
2878.0,0.033482823553208085
2877.0,0.0332483359486222
2876.0,0.033060836978886954
2875.0,0.032920265855503006
2874.0,0.03273290844021437
2873.0,0.03263926003405038
2872.0,0.03249882527715853
2871.0,0.03245202378113787
2870.0,0.03235843591698884
2869.0,0.03235843591698884
2868.0,0.03240522732811035
2867.0,0.03249882527715853
2866.0,0.03263926003405038
2865.0,0.032873418923587305
2864.0,0.03310770413286357
2863.0,0.03338901331806565
2862.0,0.03376437590141812
2861.0,0.03414006319292828
2860.0,0.03465716443937783
2859.0,0.03522197797762394
2858.0,0.03583468937826462
2857.0,0.03649550058570927
2856.0,0.037062711569998186
2855.0,0.03753595394209874
2854.0,0.03800971255993524
2853.0,0.03838909190871931
2852.0,0.03876880295533702
2851.0,0.03905380426616856
2850.0,0.03924390909822728
2849.0,0.03929144831144349
2848.0,0.03919637508823026
2847.0,0.038958783046687984
2846.0,0.03862637240519895
2845.0,0.038151940981675736
2844.0,0.03753595394209874
2843.0,0.036873558918095295
2842.0,0.036117771071222604
2841.0,0.03531618502395939
2840.0,0.034516075754861264
2839.0,0.03371743783253667
2838.0,0.032920265855503006
2837.0,0.032124554451966825
2836.0,0.03137697904301118
2835.0,0.03067729388779794
2834.0,0.030118356253500123
2833.0,0.02960662792039992
2832.0,0.029234840219232394
2831.0,0.028956208163971375
2830.0,0.02872415126189476
2829.0,0.028538594975413334
2828.0,0.028306761050139073
2827.0,0.02812138297373412
2826.0,0.027889771597169544
2825.0,0.027658283674251827
2824.0,0.027426919073445077
2823.0,0.027288159452933503
2822.0,0.027149444152769986
2821.0,0.027056991894431892
2820.0,0.027010773144651168
2819.0,0.02691835039863255
2818.0,0.02682594731702781
2817.0,0.026733563891471412
2816.0,0.026595025589939425
2815.0,0.026502691267936695
2814.0,0.026410376572743033
2813.0,0.02636422658259252
2812.0,0.026318081496016443
2811.0,0.026271941311972746
2810.0,0.02617967564731627
2809.0,0.026087429580295085
2808.0,0.026041313893296225
2807.0,0.025995203102585407
2806.0,0.025949097207122573
2805.0,0.025949097207122573
2804.0,0.025902996205869
2803.0,0.025856900097785074
2802.0,0.025810808881832736
2801.0,0.025718641122169483
2800.0,0.02562649291857677
2799.0,0.02558042614771394
2798.0,0.025488307262671706
2797.0,0.02539620791296726
2796.0,0.025304128090317013
2795.0,0.02521206778644225
2794.0,0.02516604495145991
2793.0,0.02516604495145991
2792.0,0.02516604495145991
2791.0,0.02512002699306959
2790.0,0.025028005701930978
2789.0,0.024936003904763915
2788.0,0.024890010313838973
2787.0,0.02484402159331056
2786.0,0.024798037742147727
2785.0,0.024798037742147727
2784.0,0.02475205875931885
2783.0,0.02475205875931885
2782.0,0.024706084643793647
2781.0,0.024706084643793647
2780.0,0.024660115394541604
2779.0,0.024660115394541604
2778.0,0.02461415101053266
2777.0,0.024476287039668643
2776.0,0.024430342106337877
2775.0,0.02438440203310499
2774.0,0.024430342106337877
2773.0,0.024476287039668643
2772.0,0.024430342106337877
2771.0,0.02438440203310499
2770.0,0.024292536462819925
2769.0,0.024292536462819925
2768.0,0.024292536462819925
2767.0,0.024292536462819925
2766.0,0.024246610963712723
2765.0,0.024154774532432866
2764.0,0.024108863598207186
2763.0,0.024017056287453542
2762.0,0.024017056287453542
2761.0,0.02406295751688936
2760.0,0.024017056287453542
2759.0,0.023971159908874107
2758.0,0.023879381700184332
2757.0,0.023787622882622816
2756.0,0.023695883447997224
2755.0,0.02365002099672653
2754.0,0.023604163388120325
2753.0,0.02355831062115543
2752.0,0.02355831062115543
2751.0,0.02355831062115543
2750.0,0.02355831062115543
2749.0,0.02355831062115543
2748.0,0.02351246269481
2747.0,0.02351246269481
2746.0,0.02351246269481
2745.0,0.02351246269481
2744.0,0.02355831062115543
2743.0,0.02355831062115543
2742.0,0.02355831062115543
2741.0,0.023466619608062178
2740.0,0.02342078135989012
2739.0,0.023374947949272418
2738.0,0.02342078135989012
2737.0,0.023466619608062178
2736.0,0.02351246269481
2735.0,0.02342078135989012
2734.0,0.023283295636617574
2733.0,0.02314585342378117
2732.0,0.02314585342378117
2731.0,0.023191662661933732
2730.0,0.023237476732539397
2729.0,0.023329119375188556
2728.0,0.023329119375188556
2727.0,0.023237476732539397
2726.0,0.023191662661933732
2725.0,0.023191662661933732
2724.0,0.023191662661933732
2723.0,0.023237476732539397
2722.0,0.023283295636617574
2721.0,0.023283295636617574
2720.0,0.023283295636617574
2719.0,0.023191662661933732
2718.0,0.02314585342378117
2717.0,0.023100049017062307
2716.0,0.023100049017062307
2715.0,0.023100049017062307
2714.0,0.02314585342378117
2713.0,0.023191662661933732
2712.0,0.023191662661933732
2711.0,0.02314585342378117
2710.0,0.023100049017062307
2709.0,0.02300845469384938
2708.0,0.02291687968414724
2707.0,0.02291687968414724
2706.0,0.02291687968414724
2705.0,0.02291687968414724
2704.0,0.02291687968414724
2703.0,0.02291687968414724
2702.0,0.022871099419317753
2701.0,0.022871099419317753
2700.0,0.02282532397981263
2699.0,0.02282532397981263
2698.0,0.022871099419317753
2697.0,0.022871099419317753
2696.0,0.022871099419317753
2695.0,0.02282532397981263
2694.0,0.02277955336461468
2693.0,0.022688026603074007
2692.0,0.022688026603074007
2691.0,0.022733787572707387
2690.0,0.02277955336461468
2689.0,0.02277955336461468
2688.0,0.02277955336461468
2687.0,0.022733787572707387
2686.0,0.022733787572707387
2685.0,0.022688026603074007
2684.0,0.022688026603074007
2683.0,0.022642270454698687
2682.0,0.022642270454698687
2681.0,0.022642270454698687
2680.0,0.022688026603074007
2679.0,0.022688026603074007
2678.0,0.022642270454698687
2677.0,0.02259651912656535
2676.0,0.022505030926963654
2675.0,0.022505030926963654
2674.0,0.022505030926963654
2673.0,0.02255077261765881
2672.0,0.02255077261765881
2671.0,0.022505030926963654
2670.0,0.022505030926963654
2669.0,0.02255077261765881
2668.0,0.02255077261765881
2667.0,0.022505030926963654
2666.0,0.02245929405346514
2665.0,0.022413561996148967
2664.0,0.022367834754000393
2663.0,0.022367834754000393
2662.0,0.022367834754000393
2661.0,0.022367834754000393
2660.0,0.022322112326006227
2659.0,0.022322112326006227
2658.0,0.02227639471115217
2657.0,0.02227639471115217
2656.0,0.02227639471115217
2655.0,0.022230681908425698
2654.0,0.0221849739168134
2653.0,0.0221849739168134
2652.0,0.022139270735302752
2651.0,0.022139270735302752
2650.0,0.0221849739168134
2649.0,0.022230681908425698
2648.0,0.02227639471115217
2647.0,0.022322112326006227
2646.0,0.022322112326006227
2645.0,0.022322112326006227
2644.0,0.02227639471115217
2643.0,0.02227639471115217
2642.0,0.022230681908425698
2641.0,0.0221849739168134
2640.0,0.022093572362881675
2639.0,0.02204787879853809
2638.0,0.02204787879853809
2637.0,0.022093572362881675
2636.0,0.022093572362881675
2635.0,0.022093572362881675
2634.0,0.022093572362881675
2633.0,0.022139270735302752
2632.0,0.022139270735302752
2631.0,0.022139270735302752
2630.0,0.02204787879853809
2629.0,0.02200219004126036
2628.0,0.021956506090037076
2627.0,0.021910826943857264
2626.0,0.021956506090037076
2625.0,0.02200219004126036
2624.0,0.02200219004126036
2623.0,0.02200219004126036
2622.0,0.021865152601710403
2621.0,0.021728158389364705
2620.0,0.021636852916117055
2619.0,0.02159120737696063
2618.0,0.021636852916117055
2617.0,0.02168250325324883
2616.0,0.021728158389364705
2615.0,0.021773818325474092
2614.0,0.021819483062586187
2613.0,0.021819483062586187
2612.0,0.021728158389364705
2611.0,0.02168250325324883
2610.0,0.021636852916117055
2609.0,0.02168250325324883
2608.0,0.021773818325474092
2607.0,0.021865152601710403
2606.0,0.021910826943857264
2605.0,0.021865152601710403
2604.0,0.021865152601710403
2603.0,0.021865152601710403
2602.0,0.021910826943857264
2601.0,0.021865152601710403
2600.0,0.021865152601710403
2599.0,0.021865152601710403
2598.0,0.021865152601710403
2597.0,0.021819483062586187
2596.0,0.021819483062586187
2595.0,0.021728158389364705
2594.0,0.02168250325324883
2593.0,0.021636852916117055
2592.0,0.02168250325324883
2591.0,0.021728158389364705
2590.0,0.02168250325324883
2589.0,0.021636852916117055
2588.0,0.021545566634771474
2587.0,0.021499930688540836
2586.0,0.021499930688540836
2585.0,0.021499930688540836
2584.0,0.021545566634771474
2583.0,0.02159120737696063
2582.0,0.021636852916117055
2581.0,0.02168250325324883
2580.0,0.021728158389364705
2579.0,0.02168250325324883
2578.0,0.021636852916117055
2577.0,0.02159120737696063
2576.0,0.021545566634771474
2575.0,0.021499930688540836
2574.0,0.0214542995372613
2573.0,0.02140867317992523
2572.0,0.021363051615525652
2571.0,0.021317434843055594
2570.0,0.021317434843055594
2569.0,0.021317434843055594
2568.0,0.021317434843055594
2567.0,0.021271822861508305
2566.0,0.021271822861508305
2565.0,0.021271822861508305
2564.0,0.021271822861508305
2563.0,0.021317434843055594
2562.0,0.021317434843055594
2561.0,0.021363051615525652
2560.0,0.02140867317992523
2559.0,0.021363051615525652
2558.0,0.021363051615525652
2557.0,0.021317434843055594
2556.0,0.021317434843055594
2555.0,0.021363051615525652
2554.0,0.02140867317992523
2553.0,0.0214542995372613
2552.0,0.0214542995372613
2551.0,0.02140867317992523
2550.0,0.021363051615525652
2549.0,0.021317434843055594
2548.0,0.021317434843055594
2547.0,0.021317434843055594
2546.0,0.021271822861508305
2545.0,0.02122621566987748
2544.0,0.0211806132671577
2543.0,0.0211806132671577
2542.0,0.02122621566987748
2541.0,0.02122621566987748
2540.0,0.0211806132671577
2539.0,0.0211806132671577
2538.0,0.021135015652343103
2537.0,0.021135015652343103
2536.0,0.021135015652343103
2535.0,0.0211806132671577
2534.0,0.02122621566987748
2533.0,0.021271822861508305
2532.0,0.021271822861508305
2531.0,0.02122621566987748
2530.0,0.0211806132671577
2529.0,0.021135015652343103
2528.0,0.021135015652343103
2527.0,0.021135015652343103
2526.0,0.021135015652343103
2525.0,0.021089422824428272
2524.0,0.021089422824428272
2523.0,0.021043834782408455
2522.0,0.021043834782408455
2521.0,0.021089422824428272
2520.0,0.0211806132671577
2519.0,0.02122621566987748
2518.0,0.02122621566987748
2517.0,0.0211806132671577
2516.0,0.021135015652343103
2515.0,0.021089422824428272
2514.0,0.021135015652343103
2513.0,0.0211806132671577
2512.0,0.02122621566987748
2511.0,0.021271822861508305
2510.0,0.021271822861508305
2509.0,0.021271822861508305
2508.0,0.02122621566987748
2507.0,0.021135015652343103
2506.0,0.021043834782408455
2505.0,0.020952673052035298
2504.0,0.020952673052035298
2503.0,0.020907099361673565
2502.0,0.020861530453190058
2501.0,0.020907099361673565
2500.0,0.020952673052035298
2499.0,0.021043834782408455
2498.0,0.021135015652343103
2497.0,0.0211806132671577
2496.0,0.0211806132671577
2495.0,0.021135015652343103
2494.0,0.021089422824428272
2493.0,0.021043834782408455
2492.0,0.0209982515252789
2491.0,0.020952673052035298
2490.0,0.020952673052035298
2489.0,0.020952673052035298
2488.0,0.020952673052035298
2487.0,0.020907099361673565
2486.0,0.020907099361673565
2485.0,0.020861530453190058
2484.0,0.02081596632558158
2483.0,0.02081596632558158
2482.0,0.02081596632558158
2481.0,0.02081596632558158
2480.0,0.020861530453190058
2479.0,0.020861530453190058
2478.0,0.020861530453190058
2477.0,0.020861530453190058
2476.0,0.02081596632558158
2475.0,0.02081596632558158
2474.0,0.02081596632558158
2473.0,0.020861530453190058
2472.0,0.020907099361673565
2471.0,0.0209982515252789
2470.0,0.021043834782408455
2469.0,0.0209982515252789
2468.0,0.020952673052035298
2467.0,0.020907099361673565
2466.0,0.020861530453190058
2465.0,0.020861530453190058
2464.0,0.02081596632558158
2463.0,0.02081596632558158
2462.0,0.02081596632558158
2461.0,0.02081596632558158
2460.0,0.02081596632558158
2459.0,0.02081596632558158
2458.0,0.02081596632558158
2457.0,0.020770406977844713
2456.0,0.020724852408976924
2455.0,0.02067930261797568
2454.0,0.020633757603838898
2453.0,0.020633757603838898
2452.0,0.020633757603838898
2451.0,0.02067930261797568
2450.0,0.020724852408976924
2449.0,0.020724852408976924
2448.0,0.02067930261797568
2447.0,0.020633757603838898
2446.0,0.02058821736556471
2445.0,0.020542681902151694
2444.0,0.020542681902151694
2443.0,0.020542681902151694
2442.0,0.020542681902151694
2441.0,0.020542681902151694
2440.0,0.02058821736556471
2439.0,0.02058821736556471
2438.0,0.02058821736556471
2437.0,0.020542681902151694
2436.0,0.02058821736556471
2435.0,0.02058821736556471
2434.0,0.020633757603838898
2433.0,0.02058821736556471
2432.0,0.02058821736556471
2431.0,0.020542681902151694
2430.0,0.020497151212598652
2429.0,0.020497151212598652
2428.0,0.020497151212598652
2427.0,0.020406104151069693
2426.0,0.02036058777709271
2425.0,0.02036058777709271
2424.0,0.020406104151069693
2423.0,0.020497151212598652
2422.0,0.02058821736556471
2421.0,0.020633757603838898
2420.0,0.020633757603838898
2419.0,0.020633757603838898
2418.0,0.020633757603838898
2417.0,0.020633757603838898
2416.0,0.020633757603838898
2415.0,0.02058821736556471
2414.0,0.020542681902151694
2413.0,0.020542681902151694
2412.0,0.02058821736556471
2411.0,0.020633757603838898
2410.0,0.020633757603838898
2409.0,0.02067930261797568
2408.0,0.02067930261797568
2407.0,0.020633757603838898
2406.0,0.020633757603838898
2405.0,0.020633757603838898
2404.0,0.020633757603838898
2403.0,0.020633757603838898
2402.0,0.020633757603838898
2401.0,0.02058821736556471
2400.0,0.020542681902151694
2399.0,0.020542681902151694
2398.0,0.020542681902151694
2397.0,0.02058821736556471
2396.0,0.02058821736556471
2395.0,0.020633757603838898
2394.0,0.02067930261797568
2393.0,0.020724852408976924
2392.0,0.020770406977844713
2391.0,0.020724852408976924
2390.0,0.02067930261797568
2389.0,0.02058821736556471
2388.0,0.02045162529590483
2387.0,0.02026956933771462
2386.0,0.020087589665283012
2385.0,0.01990568621470623
2384.0,0.019860222254245663
2383.0,0.01990568621470623
2382.0,0.01995115493504329
2381.0,0.020087589665283012
2380.0,0.020178569969774962
2379.0,0.020315076172974234
2378.0,0.020497151212598652
2377.0,0.02058821736556471
2376.0,0.020497151212598652
2375.0,0.02013307743509718
2374.0,0.019632973815224997
2373.0,0.019178833355664393
2372.0,0.018906576854070378
2371.0,0.018815862601645694
2370.0,0.01899731005860028
2369.0,0.01949668180660491
2368.0,0.02026956933771462
2367.0,0.020861530453190058
2366.0,0.021043834782408455
2365.0,0.02081596632558158
2364.0,0.02026956933771462
2363.0,0.0192242260373785
2362.0,0.01768353030793479
2361.0,0.01628352608625061
2360.0,0.015877917138889863
2359.0,0.016824927962187042
2358.0,0.018770512579999288
2357.0,0.02067930261797568
2356.0,0.02168250325324883
2355.0,0.02159120737696063
2354.0,0.021043834782408455
2353.0,0.020907099361673565
2352.0,0.021135015652343103
2351.0,0.021271822861508305
2350.0,0.0209982515252789
2349.0,0.020542681902151694
2348.0,0.02013307743509718
2347.0,0.019723858922159776
2346.0,0.019315025636685412
2345.0,0.018951941086827073
2344.0,0.018951941086827073
2343.0,0.019451260640229506
2342.0,0.020315076172974234
2341.0,0.021043834782408455
2340.0,0.021089422824428272
2339.0,0.02045162529590483
2338.0,0.019632973815224997
2337.0,0.0192242260373785
2336.0,0.019360432556262852
2335.0,0.01990568621470623
2334.0,0.02058821736556471
2333.0,0.021043834782408455
2332.0,0.021043834782408455
2331.0,0.02067930261797568
2330.0,0.02022406727031445
2329.0,0.019814763052665052
2328.0,0.01949668180660491
2327.0,0.019360432556262852
2326.0,0.019360432556262852
2325.0,0.01954210772389997
2324.0,0.019723858922159776
2323.0,0.019860222254245663
2322.0,0.01995115493504329
2321.0,0.01995115493504329
2320.0,0.01990568621470623
2319.0,0.01990568621470623
2318.0,0.02004210665933459
2317.0,0.02022406727031445
2316.0,0.02036058777709271
2315.0,0.02026956933771462
2314.0,0.019996628416253603
2313.0,0.019723858922159776
2312.0,0.01954210772389997
2311.0,0.019451260640229506
2310.0,0.019451260640229506
2309.0,0.01949668180660491
2308.0,0.01954210772389997
2307.0,0.019632973815224997
2306.0,0.019723858922159776
2305.0,0.019769308608968306
2304.0,0.019814763052665052
2303.0,0.019769308608968306
2302.0,0.019723858922159776
2301.0,0.019678413991243593
2300.0,0.019678413991243593
2299.0,0.019678413991243593
2298.0,0.019678413991243593
2297.0,0.019723858922159776
2296.0,0.019723858922159776
2295.0,0.019723858922159776
2294.0,0.019769308608968306
2293.0,0.019860222254245663
2292.0,0.019996628416253603
2291.0,0.02004210665933459
2290.0,0.020087589665283012
2289.0,0.02013307743509718
2288.0,0.020178569969774962
2287.0,0.02026956933771462
2286.0,0.02036058777709271
2285.0,0.02045162529590483
2284.0,0.020497151212598652
2283.0,0.020497151212598652
2282.0,0.020497151212598652
2281.0,0.020497151212598652
2280.0,0.02045162529590483
2279.0,0.020406104151069693
2278.0,0.02036058777709271
2277.0,0.020315076172974234
2276.0,0.02026956933771462
2275.0,0.02026956933771462
2274.0,0.02026956933771462
2273.0,0.02026956933771462
2272.0,0.020315076172974234
2271.0,0.02036058777709271
2270.0,0.02036058777709271
2269.0,0.020406104151069693
2268.0,0.020406104151069693
2267.0,0.02045162529590483
2266.0,0.020406104151069693
2265.0,0.02036058777709271
2264.0,0.02036058777709271
2263.0,0.02036058777709271
2262.0,0.020406104151069693
2261.0,0.02045162529590483
2260.0,0.02045162529590483
2259.0,0.020406104151069693
2258.0,0.020315076172974234
2257.0,0.020315076172974234
2256.0,0.020406104151069693
2255.0,0.020497151212598652
2254.0,0.020542681902151694
2253.0,0.02058821736556471
2252.0,0.020633757603838898
2251.0,0.020633757603838898
2250.0,0.020633757603838898
2249.0,0.02058821736556471
2248.0,0.020497151212598652
2247.0,0.02045162529590483
2246.0,0.02045162529590483
2245.0,0.020497151212598652
2244.0,0.02058821736556471
2243.0,0.020633757603838898
2242.0,0.020633757603838898
2241.0,0.020542681902151694
2240.0,0.020406104151069693
2239.0,0.02036058777709271
2238.0,0.02036058777709271
2237.0,0.020406104151069693
2236.0,0.020497151212598652
2235.0,0.020542681902151694
2234.0,0.02058821736556471
2233.0,0.02058821736556471
2232.0,0.02058821736556471
2231.0,0.020542681902151694
2230.0,0.020497151212598652
2229.0,0.02045162529590483
2228.0,0.020406104151069693
2227.0,0.020406104151069693
2226.0,0.02045162529590483
2225.0,0.020497151212598652
2224.0,0.020497151212598652
2223.0,0.020497151212598652
2222.0,0.020497151212598652
2221.0,0.02058821736556471
2220.0,0.02067930261797568
2219.0,0.020724852408976924
2218.0,0.02067930261797568
2217.0,0.020633757603838898
2216.0,0.02058821736556471
2215.0,0.020497151212598652
2214.0,0.020497151212598652
2213.0,0.020542681902151694
2212.0,0.02058821736556471
2211.0,0.020633757603838898
2210.0,0.020633757603838898
2209.0,0.020633757603838898
2208.0,0.020633757603838898
2207.0,0.020633757603838898
2206.0,0.02058821736556471
2205.0,0.020497151212598652
2204.0,0.020406104151069693
2203.0,0.02036058777709271
2202.0,0.020315076172974234
2201.0,0.02036058777709271
2200.0,0.020406104151069693
2199.0,0.02045162529590483
2198.0,0.020497151212598652
2197.0,0.020542681902151694
2196.0,0.02058821736556471
2195.0,0.02058821736556471
2194.0,0.020497151212598652
2193.0,0.02045162529590483
2192.0,0.020406104151069693
2191.0,0.02036058777709271
2190.0,0.02036058777709271
2189.0,0.02036058777709271
2188.0,0.020406104151069693
2187.0,0.02045162529590483
2186.0,0.020542681902151694
2185.0,0.02058821736556471
2184.0,0.02058821736556471
2183.0,0.020542681902151694
2182.0,0.020542681902151694
2181.0,0.020542681902151694
2180.0,0.020542681902151694
2179.0,0.020542681902151694
2178.0,0.02058821736556471
2177.0,0.020542681902151694
2176.0,0.020542681902151694
2175.0,0.020542681902151694
2174.0,0.020497151212598652
2173.0,0.020497151212598652
2172.0,0.020497151212598652
2171.0,0.020542681902151694
2170.0,0.020542681902151694
2169.0,0.02058821736556471
2168.0,0.02058821736556471
2167.0,0.02058821736556471
2166.0,0.02058821736556471
2165.0,0.020497151212598652
2164.0,0.02045162529590483
2163.0,0.020406104151069693
2162.0,0.02045162529590483
2161.0,0.020497151212598652
2160.0,0.020497151212598652
2159.0,0.020497151212598652
2158.0,0.020497151212598652
2157.0,0.02045162529590483
2156.0,0.020406104151069693
2155.0,0.020406104151069693
2154.0,0.020406104151069693
2153.0,0.02045162529590483
2152.0,0.020542681902151694
2151.0,0.02058821736556471
2150.0,0.020633757603838898
2149.0,0.020633757603838898
2148.0,0.02058821736556471
2147.0,0.020542681902151694
2146.0,0.020497151212598652
2145.0,0.02045162529590483
2144.0,0.02045162529590483
2143.0,0.02045162529590483
2142.0,0.02045162529590483
2141.0,0.02045162529590483
2140.0,0.02045162529590483
2139.0,0.020497151212598652
2138.0,0.020497151212598652
2137.0,0.02045162529590483
2136.0,0.020406104151069693
2135.0,0.020406104151069693
2134.0,0.02045162529590483
2133.0,0.02058821736556471
2132.0,0.020633757603838898
2131.0,0.020633757603838898
2130.0,0.020542681902151694
2129.0,0.020406104151069693
2128.0,0.020315076172974234
2127.0,0.020315076172974234
2126.0,0.02036058777709271
2125.0,0.020406104151069693
2124.0,0.02045162529590483
2123.0,0.02045162529590483
2122.0,0.02045162529590483
2121.0,0.020406104151069693
2120.0,0.020406104151069693
2119.0,0.020406104151069693
2118.0,0.020406104151069693
2117.0,0.020406104151069693
2116.0,0.020406104151069693
2115.0,0.02036058777709271
2114.0,0.02036058777709271
2113.0,0.02036058777709271
2112.0,0.02036058777709271
2111.0,0.02036058777709271
2110.0,0.02036058777709271
2109.0,0.020315076172974234
2108.0,0.02022406727031445
2107.0,0.02013307743509718
2106.0,0.02013307743509718
2105.0,0.02013307743509718
2104.0,0.020178569969774962
2103.0,0.02022406727031445
2102.0,0.02026956933771462
2101.0,0.02026956933771462
2100.0,0.02026956933771462
2099.0,0.02022406727031445
2098.0,0.020178569969774962
2097.0,0.020178569969774962
2096.0,0.02013307743509718
2095.0,0.02013307743509718
2094.0,0.020178569969774962
2093.0,0.02022406727031445
2092.0,0.02022406727031445
2091.0,0.02022406727031445
2090.0,0.02022406727031445
2089.0,0.02022406727031445
2088.0,0.02022406727031445
2087.0,0.02026956933771462
2086.0,0.020315076172974234
2085.0,0.02036058777709271
2084.0,0.02036058777709271
2083.0,0.020315076172974234
2082.0,0.02026956933771462
2081.0,0.02022406727031445
2080.0,0.020178569969774962
2079.0,0.020178569969774962
2078.0,0.020178569969774962
2077.0,0.020178569969774962
2076.0,0.02022406727031445
2075.0,0.02022406727031445
2074.0,0.02022406727031445
2073.0,0.020178569969774962
2072.0,0.02013307743509718
2071.0,0.02013307743509718
2070.0,0.02013307743509718
2069.0,0.020087589665283012
2068.0,0.020087589665283012
2067.0,0.020087589665283012
2066.0,0.02013307743509718
2065.0,0.020178569969774962
2064.0,0.02022406727031445
2063.0,0.020178569969774962
2062.0,0.02013307743509718
2061.0,0.02013307743509718
2060.0,0.020087589665283012
2059.0,0.020087589665283012
2058.0,0.02013307743509718
2057.0,0.020178569969774962
2056.0,0.020178569969774962
2055.0,0.020178569969774962
2054.0,0.02013307743509718
2053.0,0.02004210665933459
2052.0,0.02004210665933459
2051.0,0.019996628416253603
2050.0,0.02004210665933459
2049.0,0.02004210665933459
2048.0,0.02004210665933459
2047.0,0.02004210665933459
2046.0,0.02004210665933459
2045.0,0.020087589665283012
2044.0,0.02013307743509718
2043.0,0.020178569969774962
2042.0,0.020178569969774962
2041.0,0.020178569969774962
2040.0,0.02013307743509718
2039.0,0.020087589665283012
2038.0,0.02004210665933459
2037.0,0.02004210665933459
2036.0,0.02004210665933459
2035.0,0.02004210665933459
2034.0,0.019996628416253603
2033.0,0.01995115493504329
2032.0,0.01990568621470623
2031.0,0.01990568621470623
2030.0,0.01990568621470623
2029.0,0.01990568621470623
2028.0,0.01990568621470623
2027.0,0.01995115493504329
2026.0,0.01990568621470623
2025.0,0.01990568621470623
2024.0,0.01995115493504329
2023.0,0.02004210665933459
2022.0,0.020087589665283012
2021.0,0.02013307743509718
2020.0,0.020087589665283012
2019.0,0.019996628416253603
2018.0,0.01995115493504329
2017.0,0.01995115493504329
2016.0,0.01990568621470623
2015.0,0.01990568621470623
2014.0,0.01990568621470623
2013.0,0.01995115493504329
2012.0,0.019996628416253603
2011.0,0.019996628416253603
2010.0,0.01995115493504329
2009.0,0.01995115493504329
2008.0,0.01995115493504329
2007.0,0.01995115493504329
2006.0,0.019860222254245663
2005.0,0.019814763052665052
2004.0,0.019769308608968306
2003.0,0.019814763052665052
2002.0,0.019860222254245663
2001.0,0.01995115493504329
2000.0,0.01995115493504329
1999.0,0.019860222254245663
1998.0,0.019769308608968306
1997.0,0.019723858922159776
1996.0,0.019723858922159776
1995.0,0.019814763052665052
1994.0,0.019860222254245663
1993.0,0.01995115493504329
1992.0,0.019996628416253603
1991.0,0.02004210665933459
1990.0,0.020087589665283012
1989.0,0.020087589665283012
1988.0,0.02004210665933459
1987.0,0.01995115493504329
1986.0,0.01990568621470623
1985.0,0.019860222254245663
1984.0,0.019860222254245663
1983.0,0.01990568621470623
1982.0,0.01995115493504329
1981.0,0.01995115493504329
1980.0,0.01995115493504329
1979.0,0.01990568621470623
1978.0,0.019814763052665052
1977.0,0.019769308608968306
1976.0,0.019769308608968306
1975.0,0.019814763052665052
1974.0,0.01995115493504329
1973.0,0.02004210665933459
1972.0,0.02013307743509718
1971.0,0.02022406727031445
1970.0,0.02026956933771462
1969.0,0.020315076172974234
1968.0,0.020406104151069693
1967.0,0.020497151212598652
1966.0,0.02058821736556471
1965.0,0.020724852408976924
1964.0,0.020907099361673565
1963.0,0.021089422824428272
1962.0,0.021271822861508305
1961.0,0.021363051615525652
1960.0,0.021363051615525652
1959.0,0.02140867317992523
1958.0,0.0214542995372613
1957.0,0.021499930688540836
1956.0,0.02159120737696063
1955.0,0.021773818325474092
1954.0,0.021956506090037076
1953.0,0.022093572362881675
1952.0,0.02227639471115217
1951.0,0.022413561996148967
1950.0,0.02255077261765881
1949.0,0.022688026603074007
1948.0,0.022871099419317753
1947.0,0.023054249440757957
1946.0,0.023283295636617574
1945.0,0.02342078135989012
1944.0,0.023604163388120325
1943.0,0.023741750742954926
1942.0,0.023787622882622816
1941.0,0.023741750742954926
1940.0,0.023604163388120325
1939.0,0.02342078135989012
1938.0,0.023237476732539397
1937.0,0.023054249440757957
1936.0,0.02282532397981263
1935.0,0.02259651912656535
1934.0,0.022367834754000393
1933.0,0.0221849739168134
1932.0,0.021956506090037076
1931.0,0.021819483062586187
1930.0,0.021636852916117055
1929.0,0.021499930688540836
1928.0,0.021363051615525652
1927.0,0.02122621566987748
1926.0,0.021135015652343103
1925.0,0.0209982515252789
1924.0,0.020861530453190058
1923.0,0.020724852408976924
1922.0,0.020633757603838898
1921.0,0.02058821736556471
1920.0,0.020542681902151694
1919.0,0.02045162529590483
1918.0,0.020315076172974234
1917.0,0.02022406727031445
1916.0,0.020178569969774962
1915.0,0.02013307743509718
1914.0,0.020087589665283012
1913.0,0.020087589665283012
1912.0,0.020087589665283012
1911.0,0.020087589665283012
1910.0,0.020087589665283012
1909.0,0.02004210665933459
1908.0,0.01995115493504329
1907.0,0.01990568621470623
1906.0,0.01990568621470623
1905.0,0.01995115493504329
1904.0,0.019996628416253603
1903.0,0.02004210665933459
1902.0,0.02013307743509718
1901.0,0.020178569969774962
1900.0,0.020178569969774962
1899.0,0.020178569969774962
1898.0,0.02022406727031445
1897.0,0.020315076172974234
1896.0,0.02045162529590483
1895.0,0.020542681902151694
1894.0,0.020633757603838898
1893.0,0.02067930261797568
1892.0,0.020770406977844713
1891.0,0.020907099361673565
1890.0,0.021089422824428272
1889.0,0.021317434843055594
1888.0,0.021499930688540836
1887.0,0.021545566634771474
1886.0,0.021545566634771474
1885.0,0.021545566634771474
1884.0,0.021545566634771474
1883.0,0.021636852916117055
1882.0,0.021773818325474092
1881.0,0.021910826943857264
1880.0,0.02200219004126036
1879.0,0.022093572362881675
1878.0,0.022139270735302752
1877.0,0.0221849739168134
1876.0,0.022230681908425698
1875.0,0.02227639471115217
1874.0,0.022367834754000393
1873.0,0.02245929405346514
1872.0,0.022505030926963654
1871.0,0.02245929405346514
1870.0,0.022413561996148967
1869.0,0.02245929405346514
1868.0,0.02255077261765881
1867.0,0.022642270454698687
1866.0,0.02259651912656535
1865.0,0.022505030926963654
1864.0,0.022322112326006227
1863.0,0.022139270735302752
1862.0,0.021910826943857264
1861.0,0.021773818325474092
1860.0,0.02159120737696063
1859.0,0.02140867317992523
1858.0,0.02122621566987748
1857.0,0.021089422824428272
1856.0,0.0209982515252789
1855.0,0.020861530453190058
1854.0,0.02067930261797568
1853.0,0.020497151212598652
1852.0,0.020315076172974234
1851.0,0.02022406727031445
1850.0,0.02022406727031445
1849.0,0.020178569969774962
1848.0,0.02013307743509718
1847.0,0.020087589665283012
1846.0,0.02004210665933459
1845.0,0.01995115493504329
1844.0,0.019860222254245663
1843.0,0.019814763052665052
1842.0,0.019769308608968306
1841.0,0.019723858922159776
1840.0,0.019678413991243593
1839.0,0.019632973815224997
1838.0,0.019678413991243593
1837.0,0.019723858922159776
1836.0,0.019769308608968306
1835.0,0.019723858922159776
1834.0,0.019678413991243593
1833.0,0.019678413991243593
1832.0,0.019723858922159776
1831.0,0.019814763052665052
1830.0,0.019860222254245663
1829.0,0.01995115493504329
1828.0,0.02004210665933459
1827.0,0.020087589665283012
1826.0,0.02013307743509718
1825.0,0.02022406727031445
1824.0,0.020315076172974234
1823.0,0.02036058777709271
1822.0,0.020406104151069693
1821.0,0.02045162529590483
1820.0,0.020542681902151694
1819.0,0.02058821736556471
1818.0,0.020633757603838898
1817.0,0.020724852408976924
1816.0,0.02081596632558158
1815.0,0.020952673052035298
1814.0,0.021089422824428272
1813.0,0.021271822861508305
1812.0,0.02140867317992523
1811.0,0.02159120737696063
1810.0,0.021728158389364705
1809.0,0.021910826943857264
1808.0,0.02200219004126036
1807.0,0.02204787879853809
1806.0,0.02204787879853809
1805.0,0.022093572362881675
1804.0,0.0221849739168134
1803.0,0.022322112326006227
1802.0,0.022413561996148967
1801.0,0.022505030926963654
1800.0,0.02255077261765881
1799.0,0.02245929405346514
1798.0,0.022322112326006227
1797.0,0.0221849739168134
1796.0,0.02204787879853809
1795.0,0.021910826943857264
1794.0,0.02168250325324883
1793.0,0.021499930688540836
1792.0,0.021271822861508305
1791.0,0.021043834782408455
1790.0,0.02081596632558158
1789.0,0.020633757603838898
1788.0,0.02045162529590483
1787.0,0.020315076172974234
1786.0,0.020178569969774962
1785.0,0.02004210665933459
1784.0,0.019996628416253603
1783.0,0.01995115493504329
1782.0,0.019996628416253603
1781.0,0.02004210665933459
1780.0,0.02004210665933459
1779.0,0.01995115493504329
1778.0,0.01990568621470623
1777.0,0.019860222254245663
1776.0,0.019860222254245663
1775.0,0.01995115493504329
1774.0,0.01995115493504329
1773.0,0.019860222254245663
1772.0,0.019814763052665052
1771.0,0.019814763052665052
1770.0,0.019814763052665052
1769.0,0.019769308608968306
1768.0,0.019678413991243593
1767.0,0.019632973815224997
1766.0,0.01954210772389997
1765.0,0.01958753839310856
1764.0,0.019632973815224997
1763.0,0.019678413991243593
1762.0,0.019678413991243593
1761.0,0.019723858922159776
1760.0,0.01990568621470623
1759.0,0.020087589665283012
1758.0,0.020315076172974234
1757.0,0.02045162529590483
1756.0,0.020542681902151694
1755.0,0.020633757603838898
1754.0,0.020724852408976924
1753.0,0.020770406977844713
1752.0,0.020952673052035298
1751.0,0.02122621566987748
1750.0,0.021545566634771474
1749.0,0.021819483062586187
1748.0,0.02200219004126036
1747.0,0.02204787879853809
1746.0,0.021956506090037076
1745.0,0.021910826943857264
1744.0,0.021956506090037076
1743.0,0.021956506090037076
1742.0,0.021910826943857264
1741.0,0.021773818325474092
1740.0,0.021636852916117055
1739.0,0.0214542995372613
1738.0,0.021363051615525652
1737.0,0.021363051615525652
1736.0,0.021317434843055594
1735.0,0.021089422824428272
1734.0,0.0209982515252789
1733.0,0.0209982515252789
1732.0,0.021043834782408455
1731.0,0.021043834782408455
1730.0,0.021043834782408455
1729.0,0.020907099361673565
1728.0,0.02081596632558158
1727.0,0.020724852408976924
1726.0,0.020633757603838898
1725.0,0.02058821736556471
1724.0,0.020497151212598652
1723.0,0.020406104151069693
1722.0,0.020315076172974234
1721.0,0.020315076172974234
1720.0,0.020406104151069693
1719.0,0.02036058777709271
1718.0,0.02036058777709271
1717.0,0.020542681902151694
1716.0,0.02067930261797568
1715.0,0.020724852408976924
1714.0,0.020770406977844713
1713.0,0.02081596632558158
1712.0,0.02081596632558158
1711.0,0.020724852408976924
1710.0,0.02067930261797568
1709.0,0.020724852408976924
1708.0,0.020770406977844713
1707.0,0.020861530453190058
1706.0,0.02081596632558158
1705.0,0.02081596632558158
1704.0,0.020861530453190058
1703.0,0.020907099361673565
1702.0,0.020952673052035298
1701.0,0.02081596632558158
1700.0,0.02081596632558158
1699.0,0.020952673052035298
1698.0,0.021271822861508305
1697.0,0.021636852916117055
1696.0,0.021773818325474092
1695.0,0.021728158389364705
1694.0,0.02168250325324883
1693.0,0.021865152601710403
1692.0,0.022093572362881675
1691.0,0.02227639471115217
1690.0,0.022367834754000393
1689.0,0.022505030926963654
1688.0,0.022642270454698687
1687.0,0.02282532397981263
1686.0,0.02296266477531872
1685.0,0.023191662661933732
1684.0,0.023741750742954926
1683.0,0.02406295751688936
1682.0,0.024154774532432866
1681.0,0.024292536462819925
1680.0,0.024430342106337877
1679.0,0.024522236834125355
1678.0,0.024568191490736968
1677.0,0.02461415101053266
1676.0,0.024706084643793647
1675.0,0.024890010313838973
1674.0,0.025074013910237447
1673.0,0.02521206778644225
1672.0,0.02544225514642018
1671.0,0.025718641122169483
1670.0,0.026087429580295085
1669.0,0.026318081496016443
1668.0,0.02636422658259252
1667.0,0.026318081496016443
1666.0,0.026271941311972746
1665.0,0.026271941311972746
1664.0,0.026271941311972746
1663.0,0.026456531467510258
1662.0,0.026595025589939425
1661.0,0.026687379547098322
1660.0,0.026687379547098322
1659.0,0.02664120011360227
1658.0,0.026595025589939425
1657.0,0.026502691267936695
1656.0,0.02654885597506529
1655.0,0.02654885597506529
1654.0,0.026456531467510258
1653.0,0.026733563891471412
1652.0,0.026687379547098322
1651.0,0.026595025589939425
1650.0,0.026733563891471412
1649.0,0.02691835039863255
1648.0,0.027056991894431892
1647.0,0.027149444152769986
1646.0,0.02710321556345563
1645.0,0.02682594731702781
1644.0,0.026595025589939425
1643.0,0.026502691267936695
1642.0,0.026456531467510258
1641.0,0.026410376572743033
1640.0,0.026318081496016443
1639.0,0.026225806029419818
1638.0,0.02613355016462182
1637.0,0.026087429580295085
1636.0,0.02617967564731627
1635.0,0.026318081496016443
1634.0,0.026271941311972746
1633.0,0.02617967564731627
1632.0,0.02617967564731627
1631.0,0.02617967564731627
1630.0,0.02617967564731627
1629.0,0.02617967564731627
1628.0,0.02613355016462182
1627.0,0.026041313893296225
1626.0,0.025995203102585407
1625.0,0.025902996205869
1624.0,0.025856900097785074
1623.0,0.025856900097785074
1622.0,0.025718641122169483
1621.0,0.02553436426275746
1620.0,0.025304128090317013
1619.0,0.02516604495145991
1618.0,0.025074013910237447
1617.0,0.02498200236711723
1616.0,0.025028005701930978
1615.0,0.02512002699306959
1614.0,0.02521206778644225
1613.0,0.025350165561278004
1612.0,0.02562649291857677
1611.0,0.02613355016462182
1610.0,0.027149444152769986
1609.0,0.028677754757187035
1608.0,0.030770520137356927
1607.0,0.03338901331806565
1606.0,0.03630659476198117
1605.0,0.03952922246570112
1604.0,0.04287180232318688
1603.0,0.04599883231842972
1602.0,0.048128442871635535
1601.0,0.048808242065293994
1600.0,0.04807992647970649
1599.0,0.04624030826677128
1598.0,0.043735497301724546
1597.0,0.041006334969674096
1596.0,0.03848398855105106
1595.0,0.03625938114211591
1594.0,0.03442204208947208
1593.0,0.032873418923587305
1592.0,0.03161045815293173
1591.0,0.03063068826647264
1590.0,0.029885677714903025
1589.0,0.029467170231675777
1588.0,0.029513651152349718
1587.0,0.029978734171634214
1586.0,0.03081714076773867
1585.0,0.03170388495374454
1584.0,0.03235843591698884
1583.0,0.03249882527715853
1582.0,0.03189079887180224
1581.0,0.03058408764601861
1580.0,0.029141943003497595
1579.0,0.027889771597169544
1578.0,0.02682594731702781
1577.0,0.025810808881832736
1576.0,0.025028005701930978
1575.0,0.024522236834125355
1574.0,0.024108863598207186
1573.0,0.023879381700184332
1572.0,0.02365002099672653
1571.0,0.023329119375188556
1570.0,0.02300845469384938
1569.0,0.022733787572707387
1568.0,0.022505030926963654
1567.0,0.022367834754000393
1566.0,0.022230681908425698
1565.0,0.02200219004126036
1564.0,0.021773818325474092
1563.0,0.02159120737696063
1562.0,0.021499930688540836
1561.0,0.021317434843055594
1560.0,0.020907099361673565
1559.0,0.021089422824428272
1558.0,0.02140867317992523
1557.0,0.021271822861508305
1556.0,0.021317434843055594
1555.0,0.0214542995372613
1554.0,0.021499930688540836
1553.0,0.021499930688540836
1552.0,0.021545566634771474
1551.0,0.021636852916117055
1550.0,0.021728158389364705
1549.0,0.021773818325474092
1548.0,0.021819483062586187
1547.0,0.021819483062586187
1546.0,0.021865152601710403
1545.0,0.021865152601710403
1544.0,0.021956506090037076
1543.0,0.02204787879853809
1542.0,0.02204787879853809
1541.0,0.02200219004126036
1540.0,0.02204787879853809
1539.0,0.021773818325474092
1538.0,0.021317434843055594
1537.0,0.021043834782408455
1536.0,0.020952673052035298
1535.0,0.020907099361673565
1534.0,0.020770406977844713
1533.0,0.020633757603838898
1532.0,0.02045162529590483
1531.0,0.020178569969774962
1530.0,0.01990568621470623
1529.0,0.019723858922159776
1528.0,0.019632973815224997
1527.0,0.01954210772389997
1526.0,0.019315025636685412
1525.0,0.0190880622231564
1524.0,0.018951941086827073
1523.0,0.018906576854070378
1522.0,0.018725167293411005
1521.0,0.018498511851753108
1520.0,0.01831727262871463
1519.0,0.018271974638383703
1518.0,0.018271974638383703
1517.0,0.018181392829336396
1516.0,0.01809082990920774
1515.0,0.017909760704207134
1514.0,0.017728766960431575
1513.0,0.01759307113620534
1512.0,0.017547848615010242
1511.0,0.01759307113620534
1510.0,0.01768353030793479
1509.0,0.01781925440359733
1508.0,0.01800028587012159
1507.0,0.018045555530026514
1506.0,0.01768353030793479
1505.0,0.01727661233145472
1504.0,0.017412209298337533
1503.0,0.017909760704207134
1502.0,0.018679826740892747
1501.0,0.01990568621470623
1500.0,0.02200219004126036
1499.0,0.025764722556973707
1498.0,0.03263926003405038
1497.0,0.044071843103049346
1496.0,0.05814087347462649
1495.0,0.07063217075990047
1494.0,0.079094395835976
1493.0,0.08328292240118751
1492.0,0.08280969148843575
1491.0,0.07727454200674
1490.0,0.06803388527182741
1489.0,0.058836539841526925
1488.0,0.05173378011970464
1487.0,0.04638525830935958
1486.0,0.04215336629184985
1485.0,0.03886378261277468
1484.0,0.03616496929785207
1483.0,0.0338113190438627
1482.0,0.03184406285002961
1481.0,0.03030458888152676
1480.0,0.029141943003497595
1479.0,0.02812138297373412
1478.0,0.02724191609646076
1477.0,0.02654885597506529
1476.0,0.025995203102585407
1475.0,0.02539620791296726
1474.0,0.024936003904763915
1473.0,0.024798037742147727
1472.0,0.02484402159331056
1471.0,0.024706084643793647
1470.0,0.024568191490736968
1469.0,0.024568191490736968
1468.0,0.024706084643793647
1467.0,0.024706084643793647
1466.0,0.024706084643793647
1465.0,0.024798037742147727
1464.0,0.024936003904763915
1463.0,0.02498200236711723
1462.0,0.025074013910237447
1461.0,0.02539620791296726
1460.0,0.026225806029419818
1459.0,0.028306761050139073
1458.0,0.034516075754861264
1457.0,0.04682039893436585
1456.0,0.060081579630943294
1455.0,0.07022356719509815
1454.0,0.07805354577058976
1453.0,0.0838620168928248
1452.0,0.08666307406737683
1451.0,0.08592141461088798
1450.0,0.08265206237222844
1449.0,0.07836553894629472
1448.0,0.07406940213152868
1447.0,0.07032568205141221
1446.0,0.06712054217620067
1445.0,0.06419054619006714
1444.0,0.06128018521761747
1443.0,0.0583891978463662
1442.0,0.055764156206519866
1441.0,0.053449489430144714
1440.0,0.05139145012356372
1439.0,0.04939177521576932
1438.0,0.047352830241056854
1437.0,0.04513062893352182
1436.0,0.04301563225723992
1435.0,0.041197296600497646
1434.0,0.03962436858984186
1433.0,0.03824678581321739
1432.0,0.03682628362474838
1431.0,0.03555179208333925
1430.0,0.03442204208947208
1429.0,0.03343591590268957
1428.0,0.032592443402527316
1427.0,0.03189079887180224
1426.0,0.03133029827960798
1425.0,0.030770520137356927
1424.0,0.03030458888152676
1423.0,0.029932203450862893
1422.0,0.029560137048236124
1421.0,0.029141943003497595
1420.0,0.028770552723758724
1419.0,0.028538594975413334
1418.0,0.028353117935693284
1417.0,0.028075050815808744
1416.0,0.027797161620935595
1415.0,0.027565723042634938
1414.0,0.027288159452933503
1413.0,0.027010773144651168
1412.0,0.02677975314776626
1411.0,0.026595025589939425
1410.0,0.026410376572743033
1409.0,0.02617967564731627
1408.0,0.025995203102585407
1407.0,0.025810808881832736
1406.0,0.025672564576383117
1405.0,0.02553436426275746
1404.0,0.02544225514642018
1403.0,0.025304128090317013
1402.0,0.02521206778644225
1401.0,0.02512002699306959
1400.0,0.025028005701930978
1399.0,0.025074013910237447
1398.0,0.02516604495145991
1397.0,0.02521206778644225
1396.0,0.025258095499050004
1395.0,0.025350165561278004
1394.0,0.02544225514642018
1393.0,0.02558042614771394
1392.0,0.025810808881832736
1391.0,0.026087429580295085
1390.0,0.026456531467510258
1389.0,0.02682594731702781
1388.0,0.027334407733889066
1387.0,0.02798240132598462
1386.0,0.02858497661500481
1385.0,0.029095501846216454
1384.0,0.029513651152349718
1383.0,0.029978734171634214
1382.0,0.030490901403433135
1381.0,0.031003673351687855
1380.0,0.03161045815293173
1379.0,0.03217132066984485
1378.0,0.03273290844021437
1377.0,0.033154576345083564
1376.0,0.03362357691107709
1375.0,0.03414006319292828
1374.0,0.034516075754861264
1373.0,0.03465716443937783
1372.0,0.03456310022373987
1371.0,0.03442204208947208
1370.0,0.03428102975577918
1369.0,0.034187046963396917
1368.0,0.034046110897937076
1367.0,0.033905220553829274
1366.0,0.03376437590141812
1365.0,0.03367050483612166
1364.0,0.03362357691107709
1363.0,0.03352973627071565
1362.0,0.03334211579824231
1361.0,0.03301397488206215
1360.0,0.032592443402527316
1359.0,0.03226486821611996
1358.0,0.03193753992355086
1357.0,0.03170388495374454
1356.0,0.03151705144606498
1355.0,0.03137697904301118
1354.0,0.031236951802751545
1353.0,0.031143625385307683
1352.0,0.03105031901865729
1351.0,0.030957032694186815
1350.0,0.030863766403287585
1349.0,0.0307239045110681
1348.0,0.03063068826647264
1347.0,0.030444315779156517
1346.0,0.030211462585061133
1345.0,0.029932203450862893
1344.0,0.029653123769906697
1343.0,0.029374223311705583
1342.0,0.029188389127482228
1341.0,0.029002634427514717
1340.0,0.028816959143838528
1339.0,0.02872415126189476
1338.0,0.02872415126189476
1337.0,0.02872415126189476
1336.0,0.028770552723758724
1335.0,0.02890978686288448
1334.0,0.029095501846216454
1333.0,0.02932775731028059
1332.0,0.02960662792039992
1331.0,0.029885677714903025
1330.0,0.030118356253500123
1329.0,0.03030458888152676
1328.0,0.030397735151460825
1327.0,0.030397735151460825
1326.0,0.03030458888152676
1325.0,0.030164906924202484
1324.0,0.029978734171634214
1323.0,0.029839156962686353
1322.0,0.02969962459782227
1321.0,0.029560137048236124
1320.0,0.029560137048236124
1319.0,0.02960662792039992
1318.0,0.029746130405213123
1317.0,0.029885677714903025
1316.0,0.03002526987828502
1315.0,0.030164906924202484
1314.0,0.03030458888152676
1313.0,0.030444315779156517
1312.0,0.030490901403433135
1311.0,0.030490901403433135
1310.0,0.030444315779156517
1309.0,0.030351159519274695
1308.0,0.030211462585061133
1307.0,0.03002526987828502
1306.0,0.029792641193145286
1305.0,0.029513651152349718
1304.0,0.029281296279810798
1303.0,0.02904906565457588
1302.0,0.028816959143838528
1301.0,0.028538594975413334
1300.0,0.028306761050139073
1299.0,0.028075050815808744
1298.0,0.027889771597169544
1297.0,0.027797161620935595
1296.0,0.027750864037404455
1295.0,0.0277045713888604
1294.0,0.027612000892527133
1293.0,0.02751945012352408
1292.0,0.02738066094037661
1291.0,0.027288159452933503
1290.0,0.027149444152769986
1289.0,0.027010773144651168
1288.0,0.026872146400301444
1287.0,0.026733563891471412
1286.0,0.02664120011360227
1285.0,0.026595025589939425
1284.0,0.026595025589939425
1283.0,0.026595025589939425
1282.0,0.026595025589939425
1281.0,0.026595025589939425
1280.0,0.026502691267936695
1279.0,0.026410376572743033
1278.0,0.026271941311972746
1277.0,0.026087429580295085
1276.0,0.025949097207122573
1275.0,0.025810808881832736
1274.0,0.025672564576383117
1273.0,0.02553436426275746
1272.0,0.02539620791296726
1271.0,0.025304128090317013
1270.0,0.025258095499050004
1269.0,0.02516604495145991
1268.0,0.025074013910237447
1267.0,0.02498200236711723
1266.0,0.024936003904763915
1265.0,0.024890010313838973
1264.0,0.02484402159331056
1263.0,0.024798037742147727
1262.0,0.024798037742147727
1261.0,0.02475205875931885
1260.0,0.024660115394541604
1259.0,0.024660115394541604
1258.0,0.02461415101053266
1257.0,0.02461415101053266
1256.0,0.02461415101053266
1255.0,0.024568191490736968
1254.0,0.02461415101053266
1253.0,0.02461415101053266
1252.0,0.024660115394541604
1251.0,0.02475205875931885
1250.0,0.02484402159331056
1249.0,0.024936003904763915
1248.0,0.025028005701930978
1247.0,0.025074013910237447
1246.0,0.02512002699306959
1245.0,0.02512002699306959
1244.0,0.02512002699306959
1243.0,0.02512002699306959
1242.0,0.02512002699306959
1241.0,0.02512002699306959
1240.0,0.02512002699306959
1239.0,0.02516604495145991
1238.0,0.02521206778644225
1237.0,0.025258095499050004
1236.0,0.025258095499050004
1235.0,0.025304128090317013
1234.0,0.02539620791296726
1233.0,0.02553436426275746
1232.0,0.02562649291857677
1231.0,0.025764722556973707
1230.0,0.025856900097785074
1229.0,0.025949097207122573
1228.0,0.026087429580295085
1227.0,0.026225806029419818
1226.0,0.026456531467510258
1225.0,0.026687379547098322
1224.0,0.02691835039863255
1223.0,0.02710321556345563
1222.0,0.02724191609646076
1221.0,0.02738066094037661
1220.0,0.027612000892527133
1219.0,0.027797161620935595
1218.0,0.028028723600243666
1217.0,0.028167720075074953
1216.0,0.028353117935693284
1215.0,0.02858497661500481
1214.0,0.028863370523193765
1213.0,0.029234840219232394
1212.0,0.02960662792039992
1211.0,0.029978734171634214
1210.0,0.030397735151460825
1209.0,0.030863766403287585
1208.0,0.03133029827960798
1207.0,0.03189079887180224
1206.0,0.03235843591698884
1205.0,0.032873418923587305
1204.0,0.033482823553208085
1203.0,0.03414006319292828
1202.0,0.03489241415094413
1201.0,0.03559892883726867
1200.0,0.03621217265444465
1199.0,0.036731748473764814
1198.0,0.037251946641359446
1197.0,0.03777276864991497
1196.0,0.038341651362284734
1195.0,0.038958783046687984
1194.0,0.03962436858984186
1193.0,0.040243327009005014
1192.0,0.04086316882962593
1191.0,0.041436116778032606
1190.0,0.042057664554595586
1189.0,0.04272802000705722
1188.0,0.043495409683302455
1187.0,0.04440844959427559
1186.0,0.045516282844447975
1185.0,0.04677202844014605
1184.0,0.048128442871635535
1183.0,0.04953778109440221
1182.0,0.050707598587974356
1181.0,0.0515870342213991
1180.0,0.05207638016827354
1179.0,0.05227227303668425
1178.0,0.05222329153526162
1177.0,0.05207638016827354
1176.0,0.05197846685889629
1175.0,0.05192951848105887
1174.0,0.05197846685889629
1173.0,0.052027420754219955
1172.0,0.05217431555754937
1171.0,0.05237025261564554
1170.0,0.05261529831525902
1169.0,0.05290953578037816
1168.0,0.053203972728539606
1167.0,0.05354773498692689
1166.0,0.053842605077627725
1165.0,0.05413767551038262
1164.0,0.05443294655761144
1163.0,0.05477768336465916
1162.0,0.055172003656783764
1161.0,0.05566540802921782
1160.0,0.056406567231630955
1159.0,0.05734718830678798
1158.0,0.05843887976392925
1157.0,0.05948351506743288
1156.0,0.06038092104330195
1155.0,0.06098022355133348
1154.0,0.06118017497378969
1153.0,0.06093025007657582
1152.0,0.06028111764589528
1151.0,0.05938391766259232
1150.0,0.0583891978463662
1149.0,0.057396751157843484
1148.0,0.05655495097496965
1147.0,0.055764156206519866
1146.0,0.055172003656783764
1145.0,0.05462990550969615
1144.0,0.054186873412661596
1143.0,0.05374429280060267
1142.0,0.05325306496641513
1141.0,0.052762392129333646
1140.0,0.05222329153526162
1139.0,0.05173378011970464
1138.0,0.05129369109514803
1137.0,0.050902874887084115
1136.0,0.05051241005349638
1135.0,0.05012229596312534
1134.0,0.04978123335813667
1133.0,0.04944043838819989
1132.0,0.04909991063361274
1131.0,0.048808242065293994
1130.0,0.04851676924770687
1129.0,0.048225491918274965
1128.0,0.04803141550708934
1127.0,0.0478374257855374
1126.0,0.04774046340917959
1125.0,0.047691990337874746
1124.0,0.047643522676209304
1123.0,0.047595060422975566
1122.0,0.04754660357696672
1121.0,0.047595060422975566
1120.0,0.04774046340917959
1119.0,0.047885915093007325
1118.0,0.04803141550708934
1117.0,0.04817696468408794
1116.0,0.04832256265669943
1115.0,0.048468209457651845
1114.0,0.0486139051197072
1113.0,0.04871106272232795
1112.0,0.04871106272232795
1111.0,0.04871106272232795
1110.0,0.0486139051197072
1109.0,0.048468209457651845
1108.0,0.04827402457540786
1107.0,0.048128442871635535
1106.0,0.047934409814949674
1105.0,0.04774046340917959
1104.0,0.04754660357696672
1103.0,0.047352830241056854
1102.0,0.04720755695590784
1101.0,0.047062332249019345
1100.0,0.0469171560879138
1099.0,0.04686877481655505
1098.0,0.04677202844014605
1097.0,0.04667530361081473
1096.0,0.04653025674659861
1095.0,0.04633693625290869
1094.0,0.04609540658654021
1093.0,0.04580574818413763
1092.0,0.045516282844447975
1091.0,0.045323413081356456
1090.0,0.04522701031028298
1089.0,0.04508244626504121
1088.0,0.044937930324967956
1087.0,0.044793462458058375
1086.0,0.04469717723830824
1085.0,0.04469717723830824
1084.0,0.04474531717982
1083.0,0.04484161307420642
1082.0,0.044937930324967956
1081.0,0.044937930324967956
1080.0,0.044986096961949995
1079.0,0.044986096961949995
1078.0,0.04508244626504121
1077.0,0.04527520902093718
1076.0,0.045564513671517703
1075.0,0.04599883231842972
1074.0,0.046481918555007384
1073.0,0.04701393480294458
1072.0,0.047595060422975566
1071.0,0.04807992647970649
1070.0,0.04827402457540786
1069.0,0.04817696468408794
1068.0,0.0478374257855374
1067.0,0.04725597598510167
1066.0,0.04653025674659861
1065.0,0.04570923829887308
1064.0,0.04484161307420642
1063.0,0.04397571771932274
1062.0,0.04301563225723992
1061.0,0.04210551278710151
1060.0,0.041197296600497646
1059.0,0.04038628892895613
1058.0,0.03962436858984186
1057.0,0.03905380426616856
1056.0,0.03848398855105106
1055.0,0.038057116858612794
1054.0,0.037583306554248797
1053.0,0.0371573187987575
1052.0,0.03668448861388862
1051.0,0.03635381351515665
1050.0,0.0360705779734416
1049.0,0.03583468937826462
1048.0,0.03559892883726867
1047.0,0.03526907894637077
1046.0,0.03489241415094413
1045.0,0.03461012978487776
1044.0,0.03437503289075727
1043.0,0.03423403581731388
1042.0,0.03409308450480819
1041.0,0.03409308450480819
1040.0,0.03423403581731388
1039.0,0.03461012978487776
1038.0,0.03531618502395939
1037.0,0.03644826642590382
1036.0,0.03824678581321739
1035.0,0.040672354027829094
1034.0,0.04363944632667782
1033.0,0.04701393480294458
1032.0,0.05051241005349638
1031.0,0.053842605077627725
1030.0,0.05680236993107379
1029.0,0.058936011780097886
1028.0,0.05993198626064755
1027.0,0.05963295401433477
1026.0,0.05824018618530458
1025.0,0.056159373598738904
1024.0,0.053842605077627725
1023.0,0.051684859310652254
1022.0,0.04982994019179987
1021.0,0.04832256265669943
1020.0,0.047062332249019345
1019.0,0.045902279520810385
1018.0,0.044793462458058375
1017.0,0.043735497301724546
1016.0,0.04282386959515394
1015.0,0.04200982159316968
1014.0,0.04124505013091051
1013.0,0.04057697805689475
1012.0,0.040005161671583744
1011.0,0.03952922246570112
1010.0,0.03910132267333921
1009.0,0.03876880295533702
1008.0,0.03862637240519895
1007.0,0.038673844065289176
1006.0,0.038958783046687984
1005.0,0.03929144831144349
1004.0,0.03952922246570112
1003.0,0.03943409718180235
1002.0,0.03886378261277468
1001.0,0.03791491948264003
1000.0,0.03682628362474838
999.0,0.03583468937826462
998.0,0.03503362516890207
997.0,0.034469056377139484
996.0,0.03399914237121604
995.0,0.03357665405630694
994.0,0.0332483359486222
993.0,0.0329671178412978
992.0,0.03273290844021437
991.0,0.032592443402527316
990.0,0.032545631817259224
989.0,0.032545631817259224
988.0,0.032592443402527316
987.0,0.03263926003405038
986.0,0.03277974021703267
985.0,0.03301397488206215
984.0,0.0332483359486222
983.0,0.03343591590268957
982.0,0.03362357691107709
981.0,0.03376437590141812
980.0,0.0338113190438627
979.0,0.03371743783253667
978.0,0.03352973627071565
977.0,0.033154576345083564
976.0,0.03273290844021437
975.0,0.03235843591698884
974.0,0.031984286006358165
973.0,0.03170388495374454
972.0,0.03161045815293173
971.0,0.031657169041054534
970.0,0.03184406285002961
969.0,0.032124554451966825
968.0,0.032545631817259224
967.0,0.033060836978886954
966.0,0.03352973627071565
965.0,0.0338113190438627
964.0,0.0338113190438627
963.0,0.03357665405630694
962.0,0.03310770413286357
961.0,0.03245202378113787
960.0,0.031657169041054534
959.0,0.030863766403287585
958.0,0.03025802323714588
957.0,0.029792641193145286
956.0,0.029467170231675777
955.0,0.029141943003497595
954.0,0.028770552723758724
953.0,0.028445846553939003
952.0,0.02826040911222183
951.0,0.028167720075074953
950.0,0.02826040911222183
949.0,0.02839947976994095
948.0,0.02863136320857662
947.0,0.028956208163971375
946.0,0.029281296279810798
945.0,0.029513651152349718
944.0,0.029653123769906697
943.0,0.029746130405213123
942.0,0.029792641193145286
941.0,0.029746130405213123
940.0,0.029653123769906697
939.0,0.029467170231675777
938.0,0.029141943003497595
937.0,0.028770552723758724
936.0,0.028353117935693284
935.0,0.028028723600243666
934.0,0.0277045713888604
933.0,0.027426919073445077
932.0,0.027149444152769986
931.0,0.026872146400301444
930.0,0.02664120011360227
929.0,0.026502691267936695
928.0,0.026456531467510258
927.0,0.026456531467510258
926.0,0.02654885597506529
925.0,0.02664120011360227
924.0,0.026733563891471412
923.0,0.02691835039863255
922.0,0.02710321556345563
921.0,0.027288159452933503
920.0,0.027565723042634938
919.0,0.027936083991977778
918.0,0.028445846553939003
917.0,0.029095501846216454
916.0,0.029978734171634214
915.0,0.031096969696171817
914.0,0.032545631817259224
913.0,0.034187046963396917
912.0,0.03597620715996652
911.0,0.03772539537668518
910.0,0.03938654235209116
909.0,0.04086316882962593
908.0,0.04210551278710151
907.0,0.042967683653061695
906.0,0.04325545471730896
905.0,0.04301563225723992
904.0,0.04224908912272074
903.0,0.040958607678906356
902.0,0.03924390909822728
901.0,0.037299268295658994
900.0,0.035363296211498474
899.0,0.03367050483612166
898.0,0.03226486821611996
897.0,0.031143625385307683
896.0,0.030211462585061133
895.0,0.02942069428514915
894.0,0.028677754757187035
893.0,0.02798240132598462
892.0,0.02747318213414429
891.0,0.027149444152769986
890.0,0.026872146400301444
889.0,0.026595025589939425
888.0,0.026271941311972746
887.0,0.026041313893296225
886.0,0.025856900097785074
885.0,0.025672564576383117
884.0,0.02553436426275746
883.0,0.02544225514642018
882.0,0.02539620791296726
881.0,0.025304128090317013
880.0,0.02521206778644225
879.0,0.02512002699306959
878.0,0.025074013910237447
877.0,0.025028005701930978
876.0,0.024936003904763915
875.0,0.024890010313838973
874.0,0.02484402159331056
873.0,0.024706084643793647
872.0,0.024522236834125355
871.0,0.024292536462819925
870.0,0.024108863598207186
869.0,0.023925268380126097
868.0,0.023787622882622816
867.0,0.023741750742954926
866.0,0.023741750742954926
865.0,0.02365002099672653
864.0,0.02355831062115543
863.0,0.02351246269481
862.0,0.02355831062115543
861.0,0.02355831062115543
860.0,0.02351246269481
859.0,0.023466619608062178
858.0,0.023374947949272418
857.0,0.023329119375188556
856.0,0.023329119375188556
855.0,0.023329119375188556
854.0,0.02342078135989012
853.0,0.02365002099672653
852.0,0.023971159908874107
851.0,0.02438440203310499
850.0,0.024936003904763915
849.0,0.02553436426275746
848.0,0.026225806029419818
847.0,0.02691835039863255
846.0,0.027565723042634938
845.0,0.028028723600243666
844.0,0.028445846553939003
843.0,0.02872415126189476
842.0,0.028956208163971375
841.0,0.02904906565457588
840.0,0.02890978686288448
839.0,0.02839947976994095
838.0,0.027658283674251827
837.0,0.026733563891471412
836.0,0.025810808881832736
835.0,0.024890010313838973
834.0,0.023971159908874107
833.0,0.023100049017062307
832.0,0.02227639471115217
831.0,0.02159120737696063
830.0,0.021089422824428272
829.0,0.020770406977844713
828.0,0.020497151212598652
827.0,0.020178569969774962
826.0,0.019814763052665052
825.0,0.01949668180660491
824.0,0.019269623464054586
823.0,0.0192242260373785
822.0,0.019178833355664393
821.0,0.019178833355664393
820.0,0.0190880622231564
819.0,0.01899731005860028
818.0,0.018906576854070378
817.0,0.018815862601645694
816.0,0.018861217359339655
815.0,0.019042683770379876
814.0,0.0192242260373785
813.0,0.019315025636685412
812.0,0.019269623464054586
811.0,0.0192242260373785
810.0,0.019178833355664393
809.0,0.019178833355664393
808.0,0.019178833355664393
807.0,0.019178833355664393
806.0,0.019178833355664393
805.0,0.0192242260373785
804.0,0.0192242260373785
803.0,0.0192242260373785
802.0,0.019178833355664393
801.0,0.0190880622231564
800.0,0.0190880622231564
799.0,0.0192242260373785
798.0,0.01954210772389997
797.0,0.01995115493504329
796.0,0.02026956933771462
795.0,0.02058821736556471
794.0,0.02081596632558158
793.0,0.021089422824428272
792.0,0.02140867317992523
791.0,0.021728158389364705
790.0,0.02200219004126036
789.0,0.022367834754000393
788.0,0.02291687968414724
787.0,0.02365002099672653
786.0,0.024430342106337877
785.0,0.025028005701930978
784.0,0.02558042614771394
783.0,0.026271941311972746
782.0,0.027288159452933503
781.0,0.02872415126189476
780.0,0.030444315779156517
779.0,0.032311649546687526
778.0,0.03428102975577918
777.0,0.03644826642590382
776.0,0.03905380426616856
775.0,0.04210551278710151
774.0,0.0454680573730859
773.0,0.049148541111453614
772.0,0.05305672930217464
771.0,0.057198533682059516
770.0,0.06148027482350815
769.0,0.06590573164451952
768.0,0.07042782092345012
767.0,0.0748426728241014
766.0,0.07914650387874067
765.0,0.08333553545860273
764.0,0.08751223866767632
763.0,0.0917295005042762
762.0,0.09598811640261173
761.0,0.10034361969436434
760.0,0.1047432468551055
759.0,0.10890877353227624
758.0,0.11232644754555254
757.0,0.11492161585077598
756.0,0.11690664142431006
755.0,0.11821604440661537
754.0,0.11884367892443626
753.0,0.11912926746757657
752.0,0.11941504393502012
751.0,0.12004441487725082
750.0,0.1207320431753871
749.0,0.12124847982699793
748.0,0.1213058996038916
747.0,0.12050271275057156
746.0,0.1183871275216517
745.0,0.1148084593931522
744.0,0.11002636159600376
743.0,0.10441172433373724
742.0,0.09826930827078129
741.0,0.09210516458371698
740.0,0.08618614761628329
739.0,0.08071265949561734
738.0,0.07546228222451012
737.0,0.07032568205141221
736.0,0.06509774167768612
735.0,0.05983228596592505
734.0,0.05458065739693696
733.0,0.04958646063061889
732.0,0.04513062893352182
731.0,0.041340572947066834
730.0,0.038151940981675736
729.0,0.03550466044490741
728.0,0.0332483359486222
727.0,0.031236951802751545
726.0,0.02942069428514915
725.0,0.027797161620935595
724.0,0.02654885597506529
723.0,0.02558042614771394
722.0,0.02461415101053266
721.0,0.02342078135989012
720.0,0.0221849739168134
719.0,0.021043834782408455
718.0,0.02022406727031445
717.0,0.019723858922159776
716.0,0.01954210772389997
715.0,0.019678413991243593
714.0,0.020315076172974234
713.0,0.021773818325474092
712.0,0.02461415101053266
711.0,0.029141943003497595
710.0,0.035646070707806565
709.0,0.044360346976747955
708.0,0.05541863577307371
707.0,0.06879647454924775
706.0,0.08433639649422697
705.0,0.10215306842042837
704.0,0.12245589228405596
703.0,0.14514763758216587
702.0,0.16973219906635828
701.0,0.19599694527038736
700.0,0.22380748525292793
699.0,0.2523551806717519
698.0,0.2795099315499485
697.0,0.30189945437661003
696.0,0.3154239126115448
695.0,0.3164126824272331
694.0,0.3041682271733077
693.0,0.2819968317329824
692.0,0.2548471049230996
691.0,0.22709180502872828
690.0,0.20134935455473113
689.0,0.17920761891179637
688.0,0.16127680996862814
687.0,0.14739803066176504
686.0,0.13685565374733244
685.0,0.12883586719705065
684.0,0.12234075588839133
683.0,0.11679296664760996
682.0,0.1117081546434846
681.0,0.10707101764479421
680.0,0.10275789719463457
679.0,0.09859617317474823
678.0,0.09452793807529569
677.0,0.09092559859909577
676.0,0.0881502035005799
675.0,0.08602728844902896
674.0,0.08402008585977572
673.0,0.08207457793525874
672.0,0.08060807322614072
671.0,0.07998108397108505
670.0,0.07977228854307139
669.0,0.07925073872429178
668.0,0.07779372256098371
667.0,0.07551395626608493
666.0,0.07288638806623937
665.0,0.07042782092345012
664.0,0.06823711151882228
663.0,0.06646209802829528
662.0,0.06519865825346338
661.0,0.06419054619006714
660.0,0.06343599486473406
659.0,0.06268275223750575
658.0,0.061880730805688344
657.0,0.06108018775522828
656.0,0.06068046892176193
655.0,0.06063052992534024
654.0,0.06048074738138154
653.0,0.05948351506743288
652.0,0.0575950591438934
651.0,0.05551732784983132
650.0,0.05403929642243144
649.0,0.053646002773725554
648.0,0.05389176956309405
647.0,0.05399011523423525
646.0,0.05325306496641513
645.0,0.05222329153526162
644.0,0.05163594401163074
643.0,0.05163594401163074
642.0,0.05148923116234294
641.0,0.05085404758005607
640.0,0.050171041064686284
639.0,0.050171041064686284
638.0,0.05119595406718891
637.0,0.05330216275425803
636.0,0.05655495097496965
635.0,0.06048074738138154
634.0,0.06338573802478864
633.0,0.06434161389936577
632.0,0.06378795567975115
631.0,0.06283329628496737
630.0,0.06193081377661436
629.0,0.06123017721688262
628.0,0.06068046892176193
627.0,0.06028111764589528
626.0,0.05978244440026481
625.0,0.05943371350990989
624.0,0.05963295401433477
623.0,0.060430831344098435
622.0,0.0611301784870133
621.0,0.06143024377893891
620.0,0.061580354206806964
619.0,0.061830653609679764
618.0,0.06193081377661436
617.0,0.061780582187257016
616.0,0.06133019897732073
615.0,0.060430831344098435
614.0,0.058786812414678646
613.0,0.05670338543334519
612.0,0.05507339001378431
611.0,0.054679159207724926
610.0,0.055270639696704205
609.0,0.05650548409389744
608.0,0.058190526991161784
607.0,0.05998184499233683
606.0,0.06108018775522828
605.0,0.06123017721688262
604.0,0.06103020277710969
603.0,0.060730413661268745
602.0,0.05998184499233683
601.0,0.05908526241971446
600.0,0.058836539841526925
