cm-1,A
4000.0,0.007534852191956709
3999.0,0.0075790439479759275
3998.0,0.0075790439479759275
3997.0,0.00762324020119709
3996.0,0.00762324020119709
3995.0,0.00762324020119709
3994.0,0.00762324020119709
3993.0,0.007667440952535687
3992.0,0.007711646202907652
3991.0,0.007800070204414977
3990.0,0.007844288957383316
3989.0,0.007844288957383316
3988.0,0.007888512213050314
3987.0,0.007932739972333236
3986.0,0.007976972236149349
3985.0,0.007976972236149349
3984.0,0.007932739972333236
3983.0,0.007932739972333236
3982.0,0.007888512213050314
3981.0,0.007888512213050314
3980.0,0.007800070204414977
3979.0,0.007711646202907652
3978.0,0.00762324020119709
3977.0,0.007534852191956709
3976.0,0.007534852191956709
3975.0,0.00762324020119709
3974.0,0.007667440952535687
3973.0,0.007667440952535687
3972.0,0.00762324020119709
3971.0,0.007534852191956709
3970.0,0.007490664932224611
3969.0,0.007534852191956709
3968.0,0.00762324020119709
3967.0,0.007711646202907652
3966.0,0.007755855953228474
3965.0,0.007755855953228474
3964.0,0.007711646202907652
3963.0,0.007667440952535687
3962.0,0.007667440952535687
3961.0,0.007667440952535687
3960.0,0.007667440952535687
3959.0,0.00762324020119709
3958.0,0.007534852191956709
3957.0,0.007534852191956709
3956.0,0.007534852191956709
3955.0,0.00762324020119709
3954.0,0.007711646202907652
3953.0,0.007755855953228474
3952.0,0.007711646202907652
3951.0,0.00762324020119709
3950.0,0.0074464821678643656
3949.0,0.007313960837872058
3948.0,0.007225635744644521
3947.0,0.007269796045857202
3946.0,0.007358130121602358
3945.0,0.007490664932224611
3944.0,0.00762324020119709
3943.0,0.007667440952535687
3942.0,0.007711646202907652
3941.0,0.007755855953228474
3940.0,0.007800070204414977
3939.0,0.007844288957383316
3938.0,0.007800070204414977
3937.0,0.007667440952535687
3936.0,0.00762324020119709
3935.0,0.007534852191956709
3934.0,0.007490664932224611
3933.0,0.0074464821678643656
3932.0,0.007402303897961815
3931.0,0.007358130121602358
3930.0,0.007313960837872058
3929.0,0.007313960837872058
3928.0,0.007313960837872058
3927.0,0.007402303897961815
3926.0,0.007490664932224611
3925.0,0.0075790439479759275
3924.0,0.0075790439479759275
3923.0,0.0075790439479759275
3922.0,0.0075790439479759275
3921.0,0.00762324020119709
3920.0,0.007667440952535687
3919.0,0.007711646202907652
3918.0,0.007800070204414977
3917.0,0.007800070204414977
3916.0,0.007800070204414977
3915.0,0.007844288957383316
3914.0,0.007932739972333236
3913.0,0.007976972236149349
3912.0,0.007932739972333236
3911.0,0.007844288957383316
3910.0,0.007711646202907652
3909.0,0.007534852191956709
3908.0,0.0074464821678643656
3907.0,0.007358130121602358
3906.0,0.007313960837872058
3905.0,0.007358130121602358
3904.0,0.007358130121602358
3903.0,0.007358130121602358
3902.0,0.007358130121602358
3901.0,0.0074464821678643656
3900.0,0.007534852191956709
3899.0,0.0075790439479759275
3898.0,0.00762324020119709
3897.0,0.007667440952535687
3896.0,0.007667440952535687
3895.0,0.007667440952535687
3894.0,0.007667440952535687
3893.0,0.007711646202907652
3892.0,0.007667440952535687
3891.0,0.0075790439479759275
3890.0,0.007490664932224611
3889.0,0.007534852191956709
3888.0,0.007667440952535687
3887.0,0.007711646202907652
3886.0,0.007667440952535687
3885.0,0.007490664932224611
3884.0,0.007402303897961815
3883.0,0.0074464821678643656
3882.0,0.007534852191956709
3881.0,0.0075790439479759275
3880.0,0.007490664932224611
3879.0,0.0074464821678643656
3878.0,0.007490664932224611
3877.0,0.0075790439479759275
3876.0,0.0075790439479759275
3875.0,0.0074464821678643656
3874.0,0.007313960837872058
3873.0,0.007313960837872058
3872.0,0.0074464821678643656
3871.0,0.007534852191956709
3870.0,0.007402303897961815
3869.0,0.007269796045857202
3868.0,0.007313960837872058
3867.0,0.007490664932224611
3866.0,0.007534852191956709
3865.0,0.0074464821678643656
3864.0,0.007358130121602358
3863.0,0.007313960837872058
3862.0,0.007358130121602358
3861.0,0.0074464821678643656
3860.0,0.007534852191956709
3859.0,0.007534852191956709
3858.0,0.007490664932224611
3857.0,0.0074464821678643656
3856.0,0.007402303897961815
3855.0,0.007534852191956709
3854.0,0.007667440952535687
3853.0,0.007490664932224611
3852.0,0.007269796045857202
3851.0,0.007313960837872058
3850.0,0.0074464821678643656
3849.0,0.007490664932224611
3848.0,0.0074464821678643656
3847.0,0.007358130121602358
3846.0,0.007313960837872058
3845.0,0.007269796045857202
3844.0,0.007181479933320523
3843.0,0.007093181776687496
3842.0,0.007049039429553483
3841.0,0.007093181776687496
3840.0,0.007225635744644521
3839.0,0.007358130121602358
3838.0,0.007402303897961815
3837.0,0.0074464821678643656
3836.0,0.0074464821678643656
3835.0,0.007534852191956709
3834.0,0.0075790439479759275
3833.0,0.0075790439479759275
3832.0,0.0075790439479759275
3831.0,0.007534852191956709
3830.0,0.007534852191956709
3829.0,0.007534852191956709
3828.0,0.007490664932224611
3827.0,0.007358130121602358
3826.0,0.007181479933320523
3825.0,0.007093181776687496
3824.0,0.007225635744644521
3823.0,0.0074464821678643656
3822.0,0.007667440952535687
3821.0,0.007667440952535687
3820.0,0.007534852191956709
3819.0,0.007490664932224611
3818.0,0.007534852191956709
3817.0,0.007402303897961815
3816.0,0.007225635744644521
3815.0,0.007181479933320523
3814.0,0.007313960837872058
3813.0,0.007534852191956709
3812.0,0.00762324020119709
3811.0,0.0075790439479759275
3810.0,0.007490664932224611
3809.0,0.007490664932224611
3808.0,0.0074464821678643656
3807.0,0.007358130121602358
3806.0,0.007269796045857202
3805.0,0.007313960837872058
3804.0,0.0074464821678643656
3803.0,0.0075790439479759275
3802.0,0.007534852191956709
3801.0,0.007358130121602358
3800.0,0.007225635744644521
3799.0,0.007269796045857202
3798.0,0.007402303897961815
3797.0,0.007402303897961815
3796.0,0.007402303897961815
3795.0,0.0074464821678643656
3794.0,0.0075790439479759275
3793.0,0.007711646202907652
3792.0,0.007711646202907652
3791.0,0.007667440952535687
3790.0,0.00762324020119709
3789.0,0.007534852191956709
3788.0,0.0074464821678643656
3787.0,0.007358130121602358
3786.0,0.007313960837872058
3785.0,0.007313960837872058
3784.0,0.007313960837872058
3783.0,0.007358130121602358
3782.0,0.007402303897961815
3781.0,0.0074464821678643656
3780.0,0.0074464821678643656
3779.0,0.007402303897961815
3778.0,0.007402303897961815
3777.0,0.0074464821678643656
3776.0,0.007534852191956709
3775.0,0.007534852191956709
3774.0,0.007534852191956709
3773.0,0.0075790439479759275
3772.0,0.0075790439479759275
3771.0,0.0075790439479759275
3770.0,0.007534852191956709
3769.0,0.0074464821678643656
3768.0,0.007490664932224611
3767.0,0.0075790439479759275
3766.0,0.00762324020119709
3765.0,0.007534852191956709
3764.0,0.007490664932224611
3763.0,0.0074464821678643656
3762.0,0.0074464821678643656
3761.0,0.007402303897961815
3760.0,0.007402303897961815
3759.0,0.007402303897961815
3758.0,0.007402303897961815
3757.0,0.007402303897961815
3756.0,0.007402303897961815
3755.0,0.007490664932224611
3754.0,0.007534852191956709
3753.0,0.0075790439479759275
3752.0,0.007667440952535687
3751.0,0.00762324020119709
3750.0,0.0074464821678643656
3749.0,0.007225635744644521
3748.0,0.007225635744644521
3747.0,0.007358130121602358
3746.0,0.007490664932224611
3745.0,0.0074464821678643656
3744.0,0.007137328610972382
3743.0,0.006916639301937977
3742.0,0.006872514894289861
3741.0,0.006872514894289861
3740.0,0.006696062080525422
3739.0,0.006519680930003435
3738.0,0.006387442061109638
3737.0,0.006343371384537999
3736.0,0.006343371384537999
3735.0,0.006431517210272464
3734.0,0.006607862550997545
3733.0,0.006784279525863024
3732.0,0.006916639301937977
3731.0,0.007004901568658406
3730.0,0.007049039429553483
3729.0,0.007093181776687496
3728.0,0.007181479933320523
3727.0,0.007181479933320523
3726.0,0.007137328610972382
3725.0,0.007137328610972382
3724.0,0.007181479933320523
3723.0,0.007181479933320523
3722.0,0.007225635744644521
3721.0,0.007269796045857202
3720.0,0.007358130121602358
3719.0,0.0074464821678643656
3718.0,0.0074464821678643656
3717.0,0.007402303897961815
3716.0,0.007402303897961815
3715.0,0.007402303897961815
3714.0,0.007402303897961815
3713.0,0.007402303897961815
3712.0,0.007534852191956709
3711.0,0.007711646202907652
3710.0,0.007888512213050314
3709.0,0.008021209005416363
3708.0,0.008109696063975047
3707.0,0.008153946355103248
3706.0,0.008198201155356077
3705.0,0.008198201155356077
3704.0,0.008286724286910463
3703.0,0.008330992620051436
3702.0,0.008330992620051436
3701.0,0.008330992620051436
3700.0,0.008375265465994541
3699.0,0.008463824699968647
3698.0,0.008552401996197112
3697.0,0.008596697419959609
3696.0,0.008596697419959609
3695.0,0.008685301823389224
3694.0,0.008773924307505121
3693.0,0.008906891951112605
3692.0,0.008995559669244813
3691.0,0.009128595198514056
3690.0,0.009350411681145587
3689.0,0.009616741093766423
3688.0,0.009838807101520963
3687.0,0.010105436281226954
3686.0,0.01037222925484893
3685.0,0.010550182333308289
3684.0,0.010639186223752484
3683.0,0.010639186223752484
3682.0,0.010683695010048622
3681.0,0.010683695010048622
3680.0,0.010639186223752484
3679.0,0.010683695010048622
3678.0,0.010906307389674463
3677.0,0.011351874764248926
3676.0,0.011664044143949504
3675.0,0.011708658092512314
3674.0,0.011708658092512314
3673.0,0.011931796607364653
3672.0,0.012289056869694281
3671.0,0.01264661126420652
3670.0,0.012959713020733288
3669.0,0.01322826573375524
3668.0,0.013452186585275916
3667.0,0.013765869865004277
3666.0,0.013990068146738865
3665.0,0.014124642691606404
3664.0,0.014304140310157809
3663.0,0.01452861671041239
3662.0,0.014708281407112
3661.0,0.014888020460646079
3660.0,0.015067833932588037
3659.0,0.015337693809893471
3658.0,0.015697768020096703
3657.0,0.016148281008528276
3656.0,0.016509028184833463
3655.0,0.01677978535189717
3654.0,0.017005545341335804
3653.0,0.017231422748988034
3652.0,0.017502630802287644
3651.0,0.017864505196230507
3650.0,0.018362575344230914
3649.0,0.018770512579999288
3648.0,0.01899731005860028
3647.0,0.019315025636685412
3646.0,0.019723858922159776
3645.0,0.02013307743509718
3644.0,0.020542681902151694
3643.0,0.020907099361673565
3642.0,0.021271822861508305
3641.0,0.021636852916117055
3640.0,0.02204787879853809
3639.0,0.022413561996148967
3638.0,0.02277955336461468
3637.0,0.02314585342378117
3636.0,0.02351246269481
3635.0,0.023925268380126097
3634.0,0.024292536462819925
3633.0,0.02461415101053266
3632.0,0.025028005701930978
3631.0,0.02553436426275746
3630.0,0.026318081496016443
3629.0,0.027195677663422346
3628.0,0.027843464140506313
3627.0,0.02839947976994095
3626.0,0.028956208163971375
3625.0,0.029467170231675777
3624.0,0.029792641193145286
3623.0,0.030118356253500123
3622.0,0.030490901403433135
3621.0,0.031096969696171817
3620.0,0.03189079887180224
3619.0,0.032592443402527316
3618.0,0.033201453616638954
3617.0,0.03367050483612166
3616.0,0.03414006319292828
3615.0,0.03465716443937783
3614.0,0.03526907894637077
3613.0,0.03588185684851508
3612.0,0.03644826642590382
3611.0,0.0369681249461018
3610.0,0.037488606492403154
3609.0,0.038057116858612794
3608.0,0.038721320914956836
3607.0,0.03929144831144349
3606.0,0.039767126871487646
3605.0,0.040243327009005014
3604.0,0.04072004986906119
3603.0,0.041197296600497646
3602.0,0.04167506835594681
3601.0,0.042201225070002124
3600.0,0.04263219156847242
3599.0,0.043063586155803746
3598.0,0.04344740808260106
3597.0,0.0439276630048171
3596.0,0.04450467081587295
3595.0,0.0451788169482068
3594.0,0.04585401117045196
3593.0,0.04643358574299339
3592.0,0.04686877481655505
3591.0,0.04720755695590784
3590.0,0.04749815213697639
3589.0,0.047885915093007325
3588.0,0.04851676924770687
3587.0,0.049245818406496555
3586.0,0.049927370249842395
3585.0,0.05051241005349638
3584.0,0.05100054597304693
3583.0,0.05144033789103841
3582.0,0.0518316382728683
3581.0,0.05227227303668425
3580.0,0.052762392129333646
3579.0,0.053203972728539606
3578.0,0.05369514500652506
3577.0,0.054186873412661596
3576.0,0.054728418492290265
3575.0,0.055270639696704205
3574.0,0.05586292684190197
3573.0,0.05635711724787096
3572.0,0.0567528748621382
3571.0,0.057000406633959555
3570.0,0.057198533682059516
3569.0,0.057396751157843484
3568.0,0.05779345772290467
3567.0,0.0583891978463662
3566.0,0.05908526241971446
3565.0,0.05983228596592505
3564.0,0.060530669156469985
3563.0,0.0611301784870133
3562.0,0.061680456657844385
3561.0,0.06218131530164395
3560.0,0.06263258248271053
3559.0,0.0630843190547461
3558.0,0.06353652599525317
3557.0,0.06403953101083348
3556.0,0.06449273417528723
3555.0,0.06494641076893504
3554.0,0.0653500770992892
3553.0,0.06570359318059427
3552.0,0.06615853710127872
3551.0,0.06661395809694559
3550.0,0.06712054217620067
3549.0,0.0676277178520861
3548.0,0.06823711151882228
3547.0,0.06879647454924775
3546.0,0.06935655895783555
3545.0,0.06986635415888243
3544.0,0.07037674848475972
3543.0,0.07093887591523451
3542.0,0.07145053299833615
3541.0,0.07191154033502922
3540.0,0.07237303755504598
3539.0,0.07278366940873537
3538.0,0.0732460948102629
3537.0,0.07370901311513656
3536.0,0.07427547306393745
3535.0,0.0748426728241014
3534.0,0.07535895258283709
3533.0,0.07582412969807906
3532.0,0.07628980560343712
3531.0,0.07675598136972361
3530.0,0.07727454200674
3529.0,0.07779372256098371
3528.0,0.07831352451639795
3527.0,0.07872981449018734
3526.0,0.079094395835976
3525.0,0.07956359344924135
3524.0,0.08008551934056851
3523.0,0.08071265949561734
3522.0,0.08139308485501817
3521.0,0.08202211740709164
3520.0,0.08259953204474924
3519.0,0.08317771540408803
3518.0,0.08370400543686918
3517.0,0.08417821237960132
3516.0,0.08470571697731355
3515.0,0.08512818245994969
3514.0,0.08560394787021397
3513.0,0.08602728844902896
3512.0,0.08655704514060414
3511.0,0.08714052483764512
3510.0,0.0877779434675845
3509.0,0.08836306687055773
3508.0,0.08889568219596411
3507.0,0.08937559511079884
3506.0,0.08980263003399913
3505.0,0.09033701484598189
3504.0,0.09087205801073917
3503.0,0.09146136782804049
3502.0,0.09210516458371698
3501.0,0.09269615116603047
3500.0,0.09323411045927221
3499.0,0.0937727369476411
3498.0,0.09425807260839858
3497.0,0.09479797133768142
3496.0,0.09533854208447545
3495.0,0.09587978652380036
3494.0,0.0964759355287379
3493.0,0.09701860020249709
3492.0,0.09761631556752848
3491.0,0.09810596802617932
3490.0,0.09865067458435761
3489.0,0.09919606518963042
3488.0,0.09979678698310646
3487.0,0.10039834085387778
3486.0,0.10094593200182911
3485.0,0.10149421446564144
3484.0,0.10204318999304807
3483.0,0.10275789719463457
3482.0,0.10347378251044459
3481.0,0.10419084983086901
3480.0,0.10485381062400778
3479.0,0.10535169620648288
3478.0,0.10585015323207791
3477.0,0.1063491830140364
3476.0,0.10690433390377163
3475.0,0.10746019534136453
3474.0,0.10807246577932506
3473.0,0.10874138309586101
3472.0,0.10946720807225518
3471.0,0.11013827874181148
3470.0,0.11069829749368965
3469.0,0.11125903931710734
3468.0,0.11182050608167504
3467.0,0.11232644754555254
3466.0,0.11288929687511629
3465.0,0.11345287660889425
3464.0,0.11407366019856902
3463.0,0.11475189221861393
3462.0,0.11543118508166672
3461.0,0.11611154211151953
3460.0,0.11679296664760996
3459.0,0.11730473761840288
3458.0,0.11781711236973003
3457.0,0.1183871275216517
3456.0,0.1190150095132465
3455.0,0.11970100857424737
3454.0,0.1203880929341492
3453.0,0.12101887660626365
3452.0,0.12165057778222454
3451.0,0.12211057462851604
3450.0,0.12262865413022594
3449.0,0.12314735239865637
3448.0,0.12378215940835768
3447.0,0.1244757360506914
3446.0,0.12517042212027807
3445.0,0.12592425477696523
3444.0,0.12656313677796316
3443.0,0.12726117252733116
3442.0,0.12796033202671375
3441.0,0.12866061890013913
3440.0,0.12930354201075
3439.0,0.12994741830645506
3438.0,0.1305922506177981
3437.0,0.13123804178794973
3436.0,0.1318847946727828
3435.0,0.13259144347720886
3434.0,0.13318119707395182
3433.0,0.13371266091580503
3432.0,0.13430394008392943
3431.0,0.13489602535887202
3430.0,0.13554825284181704
3429.0,0.13626089265478303
3428.0,0.1369151746796402
3427.0,0.1375704438939911
3426.0,0.13816700234205515
3425.0,0.1387643813659596
3424.0,0.1394224487555844
3423.0,0.14002155835797914
3422.0,0.14068153490288382
3421.0,0.1413425159091921
3420.0,0.14200450443907608
3419.0,0.14266750356873148
3418.0,0.1432711096171173
3417.0,0.14393604666690019
3416.0,0.14454141961396383
3415.0,0.14520830594601453
3414.0,0.14581545616639335
3413.0,0.14642345638035836
3412.0,0.14703230897118158
3411.0,0.1475810070629986
3410.0,0.1480693213597324
3409.0,0.14861933203440336
3408.0,0.14923127307111983
3407.0,0.14984407757790774
3406.0,0.15045774799498335
3405.0,0.15101079374883275
3404.0,0.1515645446685292
3403.0,0.15205736115477642
3402.0,0.15255073750082726
3401.0,0.15304467498017615
3400.0,0.15360102696532518
3399.0,0.1540961611012175
3398.0,0.15465386258859137
3397.0,0.15521228117215347
3396.0,0.15570925674565683
3395.0,0.15614457737683884
3394.0,0.1565803347950816
3393.0,0.15714123755470633
3392.0,0.1576404266693252
3391.0,0.1582027011256446
3390.0,0.158765704493959
3389.0,0.15926676538819318
3388.0,0.15970566838856382
3387.0,0.1600822243213189
3386.0,0.16039627052916305
3385.0,0.16077342598656452
3384.0,0.16115090926274478
3383.0,0.16152872092807113
3382.0,0.16184381524785207
3381.0,0.16222223044626682
3380.0,0.1626009756579776
3379.0,0.16298005145909156
3378.0,0.16329620091026875
3377.0,0.16361258067358908
3376.0,0.16386585053462532
3375.0,0.16411926818260536
3374.0,0.1644362483309032
3373.0,0.16475346000368907
3372.0,0.16513442009996204
3371.0,0.16538857927731287
3370.0,0.16564288728159493
3369.0,0.16583371605737995
3368.0,0.16602462872009371
3367.0,0.166151950468852
3366.0,0.16627930955536674
3365.0,0.16640670600154372
3364.0,0.16659787076814148
3363.0,0.1667891197173912
3362.0,0.16698045292346864
3361.0,0.16710805524020933
3360.0,0.16717187046064663
3359.0,0.16729952903943257
3358.0,0.1673633724032968
3357.0,0.16742722515382025
3356.0,0.1674910872937636
3355.0,0.1675549588258891
3354.0,0.167618839752959
3353.0,0.16768273007773837
3352.0,0.16781053893148679
3351.0,0.16787445746599094
3350.0,0.16793838540927308
3349.0,0.16787445746599094
3348.0,0.16774662980299215
3347.0,0.16768273007773837
3346.0,0.167618839752959
3345.0,0.16768273007773837
3344.0,0.16781053893148679
3343.0,0.16787445746599094
3342.0,0.16781053893148679
3341.0,0.167618839752959
3340.0,0.1673633724032968
3339.0,0.16717187046064663
3338.0,0.16698045292346864
3337.0,0.16685288808721488
3336.0,0.1667891197173912
3335.0,0.1666616110606025
3334.0,0.16653413982930765
3333.0,0.16627930955536674
3332.0,0.16602462872009371
3331.0,0.1657700971483227
3330.0,0.16557929631846746
3329.0,0.16545214231905137
3328.0,0.16532502553725603
3327.0,0.16513442009996204
3326.0,0.16488040957545036
3325.0,0.1646899991309374
3324.0,0.16449967213268124
3323.0,0.16437283379010226
3322.0,0.16418264570652719
3321.0,0.16399254087446846
3320.0,0.1637391971415132
3319.0,0.16342272515935097
3318.0,0.16304326294044946
3317.0,0.16272729749769965
3316.0,0.16247469055039865
3315.0,0.16234844215360744
3314.0,0.16215913834447737
3313.0,0.16203298163134527
3312.0,0.1619068615544017
3311.0,0.16165473122400909
3310.0,0.16133977401105848
3309.0,0.16102504504453208
3308.0,0.1607105439938532
3307.0,0.16039627052916305
3306.0,0.160145015398115
3305.0,0.15989390554324223
3304.0,0.15958022226351387
3303.0,0.15926676538819318
3302.0,0.1588909155318461
3301.0,0.15857795559764076
3300.0,0.1582027011256446
3299.0,0.15789023655938994
3298.0,0.15757799664235028
3297.0,0.15720360482441986
3296.0,0.15689185800039307
3295.0,0.15664262156204445
3294.0,0.15639352807548912
3293.0,0.15614457737683884
3292.0,0.15589576930248672
3291.0,0.15564710368910672
3290.0,0.15539858037365328
3289.0,0.15515019919336104
3288.0,0.15490195998574308
3287.0,0.1545918603782066
3286.0,0.15428198203334142
3285.0,0.15403423845451636
3284.0,0.1538485234711846
3283.0,0.15372475758778692
3282.0,0.1535391748706676
3281.0,0.15323004646278116
3280.0,0.15292113793428452
3279.0,0.15255073750082726
3278.0,0.15224231160766877
3277.0,0.1519957285027318
3276.0,0.15181088300860135
3275.0,0.15162611615539823
3274.0,0.1515029819096334
3273.0,0.1514414278762366
3272.0,0.1513798825658661
3271.0,0.15119529894819617
3270.0,0.15101079374883275
3269.0,0.15082636690117335
3268.0,0.15064201833870117
3267.0,0.15051916275601385
3266.0,0.1503963419175529
3265.0,0.15033494452126717
3264.0,0.1502121757623145
3263.0,0.15002808767114995
3262.0,0.14990540561329913
3261.0,0.14966014541652073
3260.0,0.1494762911210057
3259.0,0.14929251462546267
3258.0,0.14917004015146906
3257.0,0.1490476002065071
3256.0,0.1489251947711132
3255.0,0.14880282382583943
3254.0,0.14874165128092476
3253.0,0.14874165128092476
3252.0,0.14868048735125483
3251.0,0.14861933203440336
3250.0,0.14843591773651155
3249.0,0.1482525808667361
3248.0,0.1480693213597324
3247.0,0.1478861391502384
3246.0,0.14764201633217278
3245.0,0.14745901423020125
3244.0,0.1472760892087941
3243.0,0.14709324120304634
3242.0,0.14691047014813452
3241.0,0.14672777597931685
3240.0,0.14648430324307138
3239.0,0.14624096692523136
3238.0,0.1459369881335788
3237.0,0.1456332219591303
3236.0,0.14539036190420496
3235.0,0.14514763758216587
3234.0,0.14502632627358292
3233.0,0.1447838052666366
3232.0,0.14454141961396383
3231.0,0.1441175699639643
3230.0,0.14363367634075197
3229.0,0.14315032127482774
3228.0,0.14266750356873148
3227.0,0.14230574221345038
3226.0,0.141884067809934
3225.0,0.1414628024303608
3224.0,0.14110204276799654
3223.0,0.14068153490288382
3222.0,0.14026143380285316
3221.0,0.13990167030148193
3220.0,0.1394224487555844
3219.0,0.13900356324280416
3218.0,0.1385253311428314
3217.0,0.1381073096085541
3216.0,0.13768969004572962
3215.0,0.13727247168202528
3214.0,0.1367961409713705
3213.0,0.13632033212410222
3212.0,0.13578566953867033
3211.0,0.1352516643703412
3210.0,0.13471831500438958
3209.0,0.13424477592854833
3208.0,0.13383085236622927
3207.0,0.13335827943396006
3206.0,0.13288622016802298
3205.0,0.13235576609690147
3204.0,0.13182595914036166
3203.0,0.13135556160517425
3202.0,0.1308269726783169
3201.0,0.1302990263261221
3200.0,0.12971317100740865
3199.0,0.12912810493225724
3198.0,0.12854382597704617
3197.0,0.1280186461566306
3196.0,0.1275523522109867
3195.0,0.1270865583796048
3194.0,0.12656313677796316
3193.0,0.12598229613781387
3192.0,0.12546020292898974
3191.0,0.1249387366082999
3190.0,0.12441789567211425
3189.0,0.12383991517437187
3188.0,0.1233203895807995
3187.0,0.12274386688641381
3186.0,0.12216810850710624
3185.0,0.12159311241900439
3184.0,0.12096149476276286
3183.0,0.1203880929341492
3182.0,0.11975822410451964
3181.0,0.11912926746757657
3180.0,0.11850122038501709
3179.0,0.11787408022996826
3178.0,0.11730473761840288
3177.0,0.116736140415026
3176.0,0.11622503864474187
3175.0,0.1157145376603248
3174.0,0.11514801725400226
3173.0,0.1145256971708426
3172.0,0.11396072443355765
3171.0,0.1133401021387972
3170.0,0.11272036546997688
3169.0,0.11215773489264302
3168.0,0.11153968196461372
3167.0,0.11092250734993603
3166.0,0.11036219959333216
3165.0,0.10980261378997125
3164.0,0.10918790104487552
3163.0,0.10862982530385179
3162.0,0.10807246577932506
3161.0,0.10746019534136453
3160.0,0.10690433390377163
3159.0,0.10623823794205656
3158.0,0.10562854614376227
3157.0,0.10501970907203151
3156.0,0.10441172433373724
3155.0,0.10391491457671487
3154.0,0.1033635694704158
3153.0,0.10281292341984649
3152.0,0.10226297465457268
3151.0,0.10165883427249067
3150.0,0.10105553313349058
3149.0,0.10045306890913297
3148.0,0.09990609845660159
3147.0,0.09941441335003853
3146.0,0.0989778267519208
3145.0,0.09848719087006019
3144.0,0.09799710864927058
3143.0,0.09739886933346864
3142.0,0.09674718310604158
3141.0,0.096150661903319
3140.0,0.09560907998763835
3139.0,0.09506817260434741
3138.0,0.09452793807529569
3137.0,0.09398837472858723
3136.0,0.09344948089854999
3135.0,0.09291125492570451
3134.0,0.09231997575758011
3133.0,0.0917831469106074
3132.0,0.09119340059432579
3131.0,0.09060445403289452
3130.0,0.0900163050601559
3129.0,0.08937559511079884
3128.0,0.08878910686244668
3127.0,0.08825662214406838
3126.0,0.08772478950118767
3125.0,0.0872466963286771
3124.0,0.08682216600953208
3123.0,0.0862920860195171
3122.0,0.08581556657675371
3121.0,0.08528671302637614
3120.0,0.08475850269380558
3119.0,0.08428366205400617
3118.0,0.08380934001946239
3117.0,0.08328292240118751
3116.0,0.08275714209253371
3115.0,0.08223199755224364
3114.0,0.08165507103772507
3113.0,0.08113125661901543
3112.0,0.08066036321258663
3111.0,0.08018997982980403
3110.0,0.07966792846041071
3109.0,0.07919861817434581
3108.0,0.07862570458152551
3107.0,0.07810552907089763
3106.0,0.07758597585436577
3105.0,0.07706704344478843
3104.0,0.07665234350217442
3103.0,0.07618627890881036
3102.0,0.07577241873988227
3101.0,0.07535895258283709
3100.0,0.07499749231902242
3099.0,0.07458476291575367
3098.0,0.07417242537525759
3097.0,0.07376047895413773
3096.0,0.07340034609297241
3095.0,0.07293775650699996
3094.0,0.07252697900472405
3093.0,0.07211658966929302
3092.0,0.07170658776779781
3091.0,0.07129697256940304
3090.0,0.07088774334533943
3089.0,0.07042782092345012
3088.0,0.0699173666076287
3087.0,0.06940751155740177
3086.0,0.06894915322260897
3085.0,0.0684912781333824
3084.0,0.0680846829187538
3083.0,0.0676277178520861
3082.0,0.06722192993944942
3081.0,0.06681652082538614
3080.0,0.06646209802829528
3079.0,0.06605739725873905
3078.0,0.0655520510510299
3077.0,0.06504729218214189
3076.0,0.06454311928839007
3075.0,0.06408986356949264
3074.0,0.0636873663378068
3073.0,0.06328524178879635
3072.0,0.06293368798257193
3071.0,0.06253226035662252
3070.0,0.06218131530164395
3069.0,0.061780582187257016
3068.0,0.061380218497318895
3067.0,0.06098022355133348
3066.0,0.06058059667068294
3065.0,0.060131455540490375
3064.0,0.05973260855398799
3063.0,0.05928434309333741
3062.0,0.0588862729628985
3061.0,0.058538260652670315
3060.0,0.05824018618530458
3059.0,0.05789269101064454
3058.0,0.05749589383191922
3057.0,0.0571489934456626
3056.0,0.05680236993107379
3055.0,0.05650548409389744
3054.0,0.05610995175152733
3053.0,0.055764156206519866
3052.0,0.05536929814372171
3051.0,0.0549747987575373
3050.0,0.05462990550969615
3049.0,0.05423607688882637
3048.0,0.053842605077627725
3047.0,0.0534986094304124
3046.0,0.05310580489767336
3045.0,0.05281143447390635
3044.0,0.052468254304406825
3043.0,0.05217431555754937
3042.0,0.05178270644002936
3041.0,0.05148923116234294
3040.0,0.05119595406718891
3039.0,0.05095170768433621
3038.0,0.05065879322950262
3037.0,0.050317309204795935
3036.0,0.04997609347667353
3035.0,0.04953778109440221
3034.0,0.049148541111453614
3033.0,0.048808242065293994
3032.0,0.048468209457651845
3031.0,0.048128442871635535
3030.0,0.04774046340917959
3029.0,0.04744970610179822
3028.0,0.04711073508906982
3027.0,0.04682039893436585
3026.0,0.04653025674659861
3025.0,0.046192002334692894
3024.0,0.045902279520810385
3023.0,0.045564513671517703
3022.0,0.045323413081356456
3021.0,0.04503426894157925
3020.0,0.04474531717982
3019.0,0.04440844959427559
3018.0,0.044071843103049346
3017.0,0.043735497301724546
3016.0,0.04344740808260106
3015.0,0.04315950984076644
3014.0,0.04287180232318688
3013.0,0.04263219156847242
3012.0,0.042344833056508824
3011.0,0.042057664554595586
3010.0,0.0417706858116178
3009.0,0.041483896576958834
3008.0,0.041197296600497646
3007.0,0.04086316882962593
3006.0,0.040529297924893015
3005.0,0.04014804520039483
3004.0,0.03981472339538916
3003.0,0.03957679292217042
3002.0,0.039338992729018196
3001.0,0.03914884628031379
3000.0,0.038958783046687984
2999.0,0.038673844065289176
2998.0,0.03838909190871931
2997.0,0.03810452633214956
2996.0,0.03782014709123227
2995.0,0.03753595394209874
2994.0,0.037299268295658994
2993.0,0.037062711569998186
2992.0,0.03682628362474838
2991.0,0.03663723389626394
2990.0,0.036401037402758574
2989.0,0.03616496929785207
2988.0,0.03597620715996652
2987.0,0.035740369803151095
2986.0,0.03555179208333925
2985.0,0.03531618502395939
2984.0,0.03512779136222477
2983.0,0.03498654972775217
2982.0,0.03489241415094413
2981.0,0.03479829897408804
2980.0,0.03475124903287918
2979.0,0.03470420418834386
2978.0,0.03461012978487776
2977.0,0.034516075754861264
2976.0,0.034469056377139484
2975.0,0.034469056377139484
2974.0,0.034516075754861264
2973.0,0.03461012978487776
2972.0,0.03475124903287918
2971.0,0.03498654972775217
2970.0,0.03526907894637077
2969.0,0.03555179208333925
2968.0,0.03583468937826462
2967.0,0.03616496929785207
2966.0,0.036542739883292485
2965.0,0.036873558918095295
2964.0,0.0371573187987575
2963.0,0.03744126420403626
2962.0,0.03763066432997886
2961.0,0.03786753070176463
2960.0,0.03810452633214956
2959.0,0.03829421599749461
2958.0,0.03848398855105106
2957.0,0.03857890593355173
2956.0,0.03862637240519895
2955.0,0.03857890593355173
2954.0,0.038436537637930535
2953.0,0.03829421599749461
2952.0,0.038199360808321536
2951.0,0.038151940981675736
2950.0,0.03824678581321739
2949.0,0.038436537637930535
2948.0,0.03876880295533702
2947.0,0.03924390909822728
2946.0,0.039909932095080425
2945.0,0.04081545726880842
2944.0,0.04196198390166317
2943.0,0.0433514207947967
2942.0,0.04484161307420642
2941.0,0.04657860031896477
2940.0,0.04841965509660828
2939.0,0.050463626623857394
2938.0,0.05261529831525902
2937.0,0.0549255115212699
2936.0,0.05734718830678798
2935.0,0.05998184499233683
2934.0,0.06278310913729457
2933.0,0.06575411897692884
2932.0,0.0690000580438479
2931.0,0.07247565912497134
2930.0,0.07618627890881036
2929.0,0.08018997982980403
2928.0,0.08449463824562353
2927.0,0.08916223500731646
2926.0,0.09425807260839858
2925.0,0.09990609845660159
2924.0,0.10601643278815298
2923.0,0.11272036546997688
2922.0,0.11987267778337518
2921.0,0.12737762097471172
2920.0,0.13501453934020602
2919.0,0.14212497447643746
2918.0,0.1480693213597324
2917.0,0.15187248943212528
2916.0,0.15304467498017615
2915.0,0.15125681810431635
2914.0,0.14691047014813452
2913.0,0.1409217752530305
2912.0,0.13418561983203192
2911.0,0.12743585690934855
2910.0,0.12119106764079435
2909.0,0.11554450392951199
2908.0,0.11058623595729111
2907.0,0.1062937069352865
2906.0,0.10259286033841963
2905.0,0.09935981601739963
2904.0,0.09658441423091357
2903.0,0.09409623378338305
2902.0,0.09189045960744768
2901.0,0.08985603893548699
2900.0,0.08804381092731295
2899.0,0.08634506491338012
2898.0,0.08470571697731355
2897.0,0.08301995267961781
2896.0,0.08144546944972642
2895.0,0.07982447798997727
2894.0,0.07820951434181311
2893.0,0.07660053384128362
2892.0,0.07489427319033615
2891.0,0.07319468988839395
2890.0,0.07150173187630915
2889.0,0.06981534770138009
2888.0,0.0680846829187538
2887.0,0.06641148980334699
2886.0,0.06474471821595262
2885.0,0.06313454102437754
2884.0,0.06153031163235467
2883.0,0.05993198626064755
2882.0,0.0583891978463662
2881.0,0.05690137699451481
2880.0,0.05546797900801881
2879.0,0.05403929642243144
2878.0,0.052762392129333646
2877.0,0.0515870342213991
2876.0,0.0506099933550872
2875.0,0.04968383607539972
2874.0,0.048954051864180226
2873.0,0.04827402457540786
2872.0,0.047643522676209304
2871.0,0.047062332249019345
2870.0,0.04657860031896477
2869.0,0.046143701775014145
2868.0,0.04585401117045196
2867.0,0.04575749056067524
2866.0,0.04599883231842972
2865.0,0.04653025674659861
2864.0,0.04740126547022694
2863.0,0.04871106272232795
2862.0,0.050414848673348
2861.0,0.05256627811294923
2860.0,0.055270639696704205
2859.0,0.05868737463933793
2858.0,0.06283329628496737
2857.0,0.06793230779927839
2856.0,0.07401789967289685
2855.0,0.0812359689720008
2854.0,0.08980263003399913
2853.0,0.09957824654226233
2852.0,0.11019424813191447
2851.0,0.12056003400478299
2850.0,0.12889429901441463
2849.0,0.13341732293645103
2848.0,0.13318119707395182
2847.0,0.12836869546244634
2846.0,0.12044539906102569
2845.0,0.11109074073646874
2844.0,0.10171372141087698
2843.0,0.09307265269104414
2842.0,0.08549817717268593
2841.0,0.07893810920972144
2840.0,0.07340034609297241
2839.0,0.06874559358358656
2838.0,0.06489597884855036
2837.0,0.061580354206806964
2836.0,0.058786812414678646
2835.0,0.05630767289398331
2834.0,0.054088483180726676
2833.0,0.05217431555754937
2832.0,0.05051241005349638
2831.0,0.04909991063361274
2830.0,0.0478374257855374
2829.0,0.04667530361081473
2828.0,0.045660991397539874
2827.0,0.04469717723830824
2826.0,0.0437835307566099
2825.0,0.042967683653061695
2824.0,0.042201225070002124
2823.0,0.04153168163305643
2822.0,0.04081545726880842
2821.0,0.04019568349166214
2820.0,0.03967194946985697
2819.0,0.03914884628031379
2818.0,0.03862637240519895
2817.0,0.038151940981675736
2816.0,0.03772539537668518
2815.0,0.037251946641359446
2814.0,0.03682628362474838
2813.0,0.036401037402758574
2812.0,0.03597620715996652
2811.0,0.03559892883726867
2810.0,0.03522197797762394
2809.0,0.03489241415094413
2808.0,0.034516075754861264
2807.0,0.034187046963396917
2806.0,0.0338113190438627
2805.0,0.033482823553208085
2804.0,0.033201453616638954
2803.0,0.032873418923587305
2802.0,0.032592443402527316
2801.0,0.032311649546687526
2800.0,0.032031037121307726
2799.0,0.03175060589208267
2798.0,0.03151705144606498
2797.0,0.03128362253321426
2796.0,0.031096969696171817
2795.0,0.030910397045078586
2794.0,0.03067729388779794
2793.0,0.030397735151460825
2792.0,0.030118356253500123
2791.0,0.029839156962686353
2790.0,0.02960662792039992
2789.0,0.02942069428514915
2788.0,0.029234840219232394
2787.0,0.02904906565457588
2786.0,0.028816959143838528
2785.0,0.02863136320857662
2784.0,0.028445846553939003
2783.0,0.02826040911222183
2782.0,0.028075050815808744
2781.0,0.027936083991977778
2780.0,0.027750864037404455
2779.0,0.027565723042634938
2778.0,0.02738066094037661
2777.0,0.02724191609646076
2776.0,0.02710321556345563
2775.0,0.02696455931306696
2774.0,0.02682594731702781
2773.0,0.026687379547098322
2772.0,0.02654885597506529
2771.0,0.026410376572743033
2770.0,0.026318081496016443
2769.0,0.02613355016462182
2768.0,0.025995203102585407
2767.0,0.025810808881832736
2766.0,0.025672564576383117
2765.0,0.02558042614771394
2764.0,0.02553436426275746
2763.0,0.025488307262671706
2762.0,0.02539620791296726
2761.0,0.025304128090317013
2760.0,0.02516604495145991
2759.0,0.025028005701930978
2758.0,0.024890010313838973
2757.0,0.02475205875931885
2756.0,0.02461415101053266
2755.0,0.024476287039668643
2754.0,0.02438440203310499
2753.0,0.024292536462819925
2752.0,0.024200690320592466
2751.0,0.024154774532432866
2750.0,0.024108863598207186
2749.0,0.02406295751688936
2748.0,0.023971159908874107
2747.0,0.023925268380126097
2746.0,0.023879381700184332
2745.0,0.023833499868024743
2744.0,0.023741750742954926
2743.0,0.023695883447997224
2742.0,0.023604163388120325
2741.0,0.023604163388120325
2740.0,0.02355831062115543
2739.0,0.02355831062115543
2738.0,0.023466619608062178
2737.0,0.023374947949272418
2736.0,0.023283295636617574
2735.0,0.02314585342378117
2734.0,0.023054249440757957
2733.0,0.02296266477531872
2732.0,0.02291687968414724
2731.0,0.02282532397981263
2730.0,0.022733787572707387
2729.0,0.022688026603074007
2728.0,0.022642270454698687
2727.0,0.02255077261765881
2726.0,0.02245929405346514
2725.0,0.022413561996148967
2724.0,0.022322112326006227
2723.0,0.022230681908425698
2722.0,0.0221849739168134
2721.0,0.022093572362881675
2720.0,0.02200219004126036
2719.0,0.021865152601710403
2718.0,0.021773818325474092
2717.0,0.021728158389364705
2716.0,0.02168250325324883
2715.0,0.02168250325324883
2714.0,0.021636852916117055
2713.0,0.021545566634771474
2712.0,0.02140867317992523
2711.0,0.021271822861508305
2710.0,0.0211806132671577
2709.0,0.021089422824428272
2708.0,0.021089422824428272
2707.0,0.021089422824428272
2706.0,0.021089422824428272
2705.0,0.021089422824428272
2704.0,0.0209982515252789
2703.0,0.020907099361673565
2702.0,0.020770406977844713
2701.0,0.02067930261797568
2700.0,0.020633757603838898
2699.0,0.02058821736556471
2698.0,0.020542681902151694
2697.0,0.020497151212598652
2696.0,0.020497151212598652
2695.0,0.020497151212598652
2694.0,0.020497151212598652
2693.0,0.020497151212598652
2692.0,0.02045162529590483
2691.0,0.020406104151069693
2690.0,0.02036058777709271
2689.0,0.02026956933771462
2688.0,0.02022406727031445
2687.0,0.020178569969774962
2686.0,0.02013307743509718
2685.0,0.02013307743509718
2684.0,0.02013307743509718
2683.0,0.02013307743509718
2682.0,0.020087589665283012
2681.0,0.02004210665933459
2680.0,0.019996628416253603
2679.0,0.01995115493504329
2678.0,0.01990568621470623
2677.0,0.019860222254245663
2676.0,0.019860222254245663
2675.0,0.019860222254245663
2674.0,0.019814763052665052
2673.0,0.019769308608968306
2672.0,0.019723858922159776
2671.0,0.019723858922159776
2670.0,0.019769308608968306
2669.0,0.019814763052665052
2668.0,0.019769308608968306
2667.0,0.019723858922159776
2666.0,0.019678413991243593
2665.0,0.019632973815224997
2664.0,0.01958753839310856
2663.0,0.01954210772389997
2662.0,0.01949668180660491
2661.0,0.019451260640229506
2660.0,0.019451260640229506
2659.0,0.019451260640229506
2658.0,0.01940584422377989
2657.0,0.019360432556262852
2656.0,0.019315025636685412
2655.0,0.019269623464054586
2654.0,0.0192242260373785
2653.0,0.019178833355664393
2652.0,0.019133445417920836
2651.0,0.0190880622231564
2650.0,0.019042683770379876
2649.0,0.01899731005860028
2648.0,0.018951941086827073
2647.0,0.018951941086827073
2646.0,0.018951941086827073
2645.0,0.01899731005860028
2644.0,0.018951941086827073
2643.0,0.018951941086827073
2642.0,0.018906576854070378
2641.0,0.018906576854070378
2640.0,0.018906576854070378
2639.0,0.018906576854070378
2638.0,0.018906576854070378
2637.0,0.018861217359339655
2636.0,0.018861217359339655
2635.0,0.018815862601645694
2634.0,0.018770512579999288
2633.0,0.018725167293411005
2632.0,0.018634490921455527
2631.0,0.01858915983411169
2630.0,0.018543833477873584
2629.0,0.018498511851753108
2628.0,0.01845319495476394
2627.0,0.01831727262871463
2626.0,0.018226681372252695
2625.0,0.018181392829336396
2624.0,0.018226681372252695
2623.0,0.018271974638383703
2622.0,0.018271974638383703
2621.0,0.018271974638383703
2620.0,0.018271974638383703
2619.0,0.018226681372252695
2618.0,0.018136109008649592
2617.0,0.018045555530026514
2616.0,0.017909760704207134
2615.0,0.017774008325325275
2614.0,0.017728766960431575
2613.0,0.017728766960431575
2612.0,0.017728766960431575
2611.0,0.017774008325325275
2610.0,0.017774008325325275
2609.0,0.017774008325325275
2608.0,0.017774008325325275
2607.0,0.017728766960431575
2606.0,0.017728766960431575
2605.0,0.017728766960431575
2604.0,0.01768353030793479
2603.0,0.017638298366853045
2602.0,0.01759307113620534
2601.0,0.01759307113620534
2600.0,0.017502630802287644
2599.0,0.017457417697056554
2598.0,0.017412209298337533
2597.0,0.017412209298337533
2596.0,0.017412209298337533
2595.0,0.017367005605150476
2594.0,0.017321806616515723
2593.0,0.017321806616515723
2592.0,0.01727661233145472
2591.0,0.01727661233145472
2590.0,0.017231422748988034
2589.0,0.017186237868137555
2588.0,0.017141057687924732
2587.0,0.017141057687924732
2586.0,0.017141057687924732
2585.0,0.017141057687924732
2584.0,0.017095882207371904
2583.0,0.017050711425501408
2582.0,0.017005545341335804
2581.0,0.016960383953898095
2580.0,0.016915227262211507
2579.0,0.016915227262211507
2578.0,0.016915227262211507
2577.0,0.016915227262211507
2576.0,0.016915227262211507
2575.0,0.016870075265299933
2574.0,0.016824927962187042
2573.0,0.016734647433454652
2572.0,0.016644385668211692
2571.0,0.016554142658660398
2570.0,0.016509028184833463
2569.0,0.016554142658660398
2568.0,0.016554142658660398
2567.0,0.016599261819461697
2566.0,0.016599261819461697
2565.0,0.016599261819461697
2564.0,0.016554142658660398
2563.0,0.016509028184833463
2562.0,0.01646391839700767
2561.0,0.01646391839700767
2560.0,0.016418813294209356
2559.0,0.016418813294209356
2558.0,0.016418813294209356
2557.0,0.016418813294209356
2556.0,0.016373712875465518
2555.0,0.016373712875465518
2554.0,0.016373712875465518
2553.0,0.01646391839700767
2552.0,0.016509028184833463
2551.0,0.016554142658660398
2550.0,0.016509028184833463
2549.0,0.016509028184833463
2548.0,0.01646391839700767
2547.0,0.016418813294209356
2546.0,0.016418813294209356
2545.0,0.016373712875465518
2544.0,0.01628352608625061
2543.0,0.016238439713835096
2542.0,0.016193358021584725
2541.0,0.016193358021584725
2540.0,0.016193358021584725
2539.0,0.016193358021584725
2538.0,0.016193358021584725
2537.0,0.016148281008528276
2536.0,0.016103208673694303
2535.0,0.016103208673694303
2534.0,0.016148281008528276
2533.0,0.016148281008528276
2532.0,0.016193358021584725
2531.0,0.016238439713835096
2530.0,0.016238439713835096
2529.0,0.016238439713835096
2528.0,0.016238439713835096
2527.0,0.016238439713835096
2526.0,0.016193358021584725
2525.0,0.016148281008528276
2524.0,0.016103208673694303
2523.0,0.016103208673694303
2522.0,0.016148281008528276
2521.0,0.016148281008528276
2520.0,0.016058141016111804
2519.0,0.01596801972881945
2518.0,0.015922966097169144
2517.0,0.015922966097169144
2516.0,0.01596801972881945
2515.0,0.01596801972881945
2514.0,0.01596801972881945
2513.0,0.015922966097169144
2512.0,0.01596801972881945
2511.0,0.016013078034810446
2510.0,0.016103208673694303
2509.0,0.016148281008528276
2508.0,0.016148281008528276
2507.0,0.016103208673694303
2506.0,0.016103208673694303
2505.0,0.016103208673694303
2504.0,0.016103208673694303
2503.0,0.016058141016111804
2502.0,0.016013078034810446
2501.0,0.01596801972881945
2500.0,0.01596801972881945
2499.0,0.01596801972881945
2498.0,0.016013078034810446
2497.0,0.016058141016111804
2496.0,0.016058141016111804
2495.0,0.016013078034810446
2494.0,0.016013078034810446
2493.0,0.01596801972881945
2492.0,0.01596801972881945
2491.0,0.01596801972881945
2490.0,0.01596801972881945
2489.0,0.01596801972881945
2488.0,0.01596801972881945
2487.0,0.01596801972881945
2486.0,0.016013078034810446
2485.0,0.016013078034810446
2484.0,0.016058141016111804
2483.0,0.016103208673694303
2482.0,0.016103208673694303
2481.0,0.016103208673694303
2480.0,0.016058141016111804
2479.0,0.016058141016111804
2478.0,0.016103208673694303
2477.0,0.016103208673694303
2476.0,0.016148281008528276
2475.0,0.016148281008528276
2474.0,0.016103208673694303
2473.0,0.016058141016111804
2472.0,0.016013078034810446
2471.0,0.016058141016111804
2470.0,0.016103208673694303
2469.0,0.016103208673694303
2468.0,0.016103208673694303
2467.0,0.016058141016111804
2466.0,0.016058141016111804
2465.0,0.016103208673694303
2464.0,0.016148281008528276
2463.0,0.016193358021584725
2462.0,0.016193358021584725
2461.0,0.016238439713835096
2460.0,0.016238439713835096
2459.0,0.016238439713835096
2458.0,0.01628352608625061
2457.0,0.01628352608625061
2456.0,0.01632861713980338
2455.0,0.01632861713980338
2454.0,0.016373712875465518
2453.0,0.016418813294209356
2452.0,0.016418813294209356
2451.0,0.01646391839700767
2450.0,0.016509028184833463
2449.0,0.016554142658660398
2448.0,0.016554142658660398
2447.0,0.016554142658660398
2446.0,0.016509028184833463
2445.0,0.016509028184833463
2444.0,0.016509028184833463
2443.0,0.016509028184833463
2442.0,0.016509028184833463
2441.0,0.01646391839700767
2440.0,0.01646391839700767
2439.0,0.01646391839700767
2438.0,0.01646391839700767
2437.0,0.016509028184833463
2436.0,0.016554142658660398
2435.0,0.016554142658660398
2434.0,0.016554142658660398
2433.0,0.016599261819461697
2432.0,0.016599261819461697
2431.0,0.016599261819461697
2430.0,0.016554142658660398
2429.0,0.016554142658660398
2428.0,0.016509028184833463
2427.0,0.016554142658660398
2426.0,0.016599261819461697
2425.0,0.016689514205884493
2424.0,0.016734647433454652
2423.0,0.01677978535189717
2422.0,0.016734647433454652
2421.0,0.01677978535189717
2420.0,0.01677978535189717
2419.0,0.016824927962187042
2418.0,0.016870075265299933
2417.0,0.016915227262211507
2416.0,0.016960383953898095
2415.0,0.017005545341335804
2414.0,0.017005545341335804
2413.0,0.017005545341335804
2412.0,0.017050711425501408
2411.0,0.017095882207371904
2410.0,0.017095882207371904
2409.0,0.017050711425501408
2408.0,0.017050711425501408
2407.0,0.017050711425501408
2406.0,0.017005545341335804
2405.0,0.017050711425501408
2404.0,0.017050711425501408
2403.0,0.017050711425501408
2402.0,0.017095882207371904
2401.0,0.017141057687924732
2400.0,0.017186237868137555
2399.0,0.017186237868137555
2398.0,0.017231422748988034
2397.0,0.01727661233145472
2396.0,0.017321806616515723
2395.0,0.017321806616515723
2394.0,0.017321806616515723
2393.0,0.017231422748988034
2392.0,0.017141057687924732
2391.0,0.017005545341335804
2390.0,0.016870075265299933
2389.0,0.016689514205884493
2388.0,0.01646391839700767
2387.0,0.016013078034810446
2386.0,0.015427684378367834
2385.0,0.014663358264387139
2384.0,0.01381070026317599
2383.0,0.012959713020733288
2382.0,0.012244383261476699
2381.0,0.011753276624621556
2380.0,0.011530229790124524
2379.0,0.011530229790124524
2378.0,0.011664044143949504
2377.0,0.011753276624621556
2376.0,0.011664044143949504
2375.0,0.011129033935354915
2374.0,0.009838807101520963
2373.0,0.007844288957383316
2372.0,0.005506877116487674
2371.0,0.003619686766589858
2370.0,0.0029195645282691363
2369.0,0.003794893821675638
2368.0,0.005506877116487674
2367.0,0.007490664932224611
2366.0,0.009439170005980158
2365.0,0.011218156546359825
2364.0,0.012512493866907004
2363.0,0.01322826573375524
2362.0,0.014214382227394795
2361.0,0.016193358021584725
2360.0,0.01840788278591865
2359.0,0.01949668180660491
2358.0,0.019269623464054586
2357.0,0.01831727262871463
2356.0,0.017321806616515723
2355.0,0.016509028184833463
2354.0,0.015607721475734415
2353.0,0.013900374944870508
2352.0,0.011307297450183107
2351.0,0.008995559669244813
2350.0,0.008153946355103248
2349.0,0.009039900317800775
2348.0,0.01023881228122181
2347.0,0.01037222925484893
2346.0,0.009217308196862062
2345.0,0.007534852191956709
2344.0,0.006387442061109638
2343.0,0.005638848091999105
2342.0,0.005023326350308999
2341.0,0.004233220950025984
2340.0,0.0032257291386954545
2339.0,0.0020023635919956817
2338.0,0.000521466320689834
2337.0,-0.0009543984064577238
2336.0,-0.0021660617565077978
2335.0,-0.0027706281011936618
2334.0,-0.0022956825549340643
2333.0,-0.0008243766056055257
2332.0,0.0010000277816797354
2331.0,0.0024388843664115978
2330.0,0.0029632891174733444
2329.0,0.0031382315093266833
2328.0,0.0035758960449088217
2327.0,0.004671990922590297
2326.0,0.00625524344553785
2325.0,0.007844288957383316
2324.0,0.009261671492462709
2323.0,0.010327752376126709
2322.0,0.01117359295472431
2321.0,0.011708658092512314
2320.0,0.012065734767841452
2319.0,0.012289056869694281
2318.0,0.01264661126420652
2317.0,0.013049212141483357
2316.0,0.013407393177789162
2315.0,0.013631406429727155
2314.0,0.013676222949234651
2313.0,0.013586594534531482
2312.0,0.013407393177789162
2311.0,0.013273040668781544
2310.0,0.01322826573375524
2309.0,0.013407393177789162
2308.0,0.013676222949234651
2307.0,0.013990068146738865
2306.0,0.014304140310157809
2305.0,0.014618439768003144
2304.0,0.014888020460646079
2303.0,0.015157768594724175
2302.0,0.01538268676325183
2301.0,0.015697768020096703
2300.0,0.01596801972881945
2299.0,0.016238439713835096
2298.0,0.016418813294209356
2297.0,0.016644385668211692
2296.0,0.016915227262211507
2295.0,0.017186237868137555
2294.0,0.017367005605150476
2293.0,0.017547848615010242
2292.0,0.017728766960431575
2291.0,0.017864505196230507
2290.0,0.01800028587012159
2289.0,0.018181392829336396
2288.0,0.01831727262871463
2287.0,0.01840788278591865
2286.0,0.01845319495476394
2285.0,0.01845319495476394
2284.0,0.01845319495476394
2283.0,0.01845319495476394
2282.0,0.01845319495476394
2281.0,0.018498511851753108
2280.0,0.018498511851753108
2279.0,0.018498511851753108
2278.0,0.018543833477873584
2277.0,0.018543833477873584
2276.0,0.01858915983411169
2275.0,0.018543833477873584
2274.0,0.018543833477873584
2273.0,0.018498511851753108
2272.0,0.018498511851753108
2271.0,0.018498511851753108
2270.0,0.018498511851753108
2269.0,0.018498511851753108
2268.0,0.018543833477873584
2267.0,0.01858915983411169
2266.0,0.01858915983411169
2265.0,0.018634490921455527
2264.0,0.018634490921455527
2263.0,0.018634490921455527
2262.0,0.018634490921455527
2261.0,0.018679826740892747
2260.0,0.018679826740892747
2259.0,0.018679826740892747
2258.0,0.018634490921455527
2257.0,0.018634490921455527
2256.0,0.018634490921455527
2255.0,0.018634490921455527
2254.0,0.018634490921455527
2253.0,0.018679826740892747
2252.0,0.018679826740892747
2251.0,0.018679826740892747
2250.0,0.018634490921455527
2249.0,0.018634490921455527
2248.0,0.01858915983411169
2247.0,0.01858915983411169
2246.0,0.018634490921455527
2245.0,0.018679826740892747
2244.0,0.018770512579999288
2243.0,0.018815862601645694
2242.0,0.018861217359339655
2241.0,0.018815862601645694
2240.0,0.018815862601645694
2239.0,0.018725167293411005
2238.0,0.018679826740892747
2237.0,0.018634490921455527
2236.0,0.01858915983411169
2235.0,0.018543833477873584
2234.0,0.018498511851753108
2233.0,0.018543833477873584
2232.0,0.01858915983411169
2231.0,0.018634490921455527
2230.0,0.018634490921455527
2229.0,0.01858915983411169
2228.0,0.01858915983411169
2227.0,0.018543833477873584
2226.0,0.018543833477873584
2225.0,0.01858915983411169
2224.0,0.018634490921455527
2223.0,0.018634490921455527
2222.0,0.018634490921455527
2221.0,0.01858915983411169
2220.0,0.01858915983411169
2219.0,0.01858915983411169
2218.0,0.01858915983411169
2217.0,0.018634490921455527
2216.0,0.01858915983411169
2215.0,0.018543833477873584
2214.0,0.018498511851753108
2213.0,0.01845319495476394
2212.0,0.01840788278591865
2211.0,0.018362575344230914
2210.0,0.018362575344230914
2209.0,0.018362575344230914
2208.0,0.01840788278591865
2207.0,0.01840788278591865
2206.0,0.01840788278591865
2205.0,0.018362575344230914
2204.0,0.018362575344230914
2203.0,0.01831727262871463
2202.0,0.01831727262871463
2201.0,0.01831727262871463
2200.0,0.018271974638383703
2199.0,0.018271974638383703
2198.0,0.018226681372252695
2197.0,0.018226681372252695
2196.0,0.018181392829336396
2195.0,0.018136109008649592
2194.0,0.01809082990920774
2193.0,0.018045555530026514
2192.0,0.018045555530026514
2191.0,0.01800028587012159
2190.0,0.01800028587012159
2189.0,0.018045555530026514
2188.0,0.018045555530026514
2187.0,0.01800028587012159
2186.0,0.017955020928509757
2185.0,0.017955020928509757
2184.0,0.017909760704207134
2183.0,0.017909760704207134
2182.0,0.017864505196230507
2181.0,0.017864505196230507
2180.0,0.01781925440359733
2179.0,0.01781925440359733
2178.0,0.01781925440359733
2177.0,0.01781925440359733
2176.0,0.01781925440359733
2175.0,0.017774008325325275
2174.0,0.017774008325325275
2173.0,0.01781925440359733
2172.0,0.017864505196230507
2171.0,0.017864505196230507
2170.0,0.01781925440359733
2169.0,0.017728766960431575
2168.0,0.017728766960431575
2167.0,0.017728766960431575
2166.0,0.017728766960431575
2165.0,0.017774008325325275
2164.0,0.017774008325325275
2163.0,0.017728766960431575
2162.0,0.017728766960431575
2161.0,0.01768353030793479
2160.0,0.017728766960431575
2159.0,0.017728766960431575
2158.0,0.017774008325325275
2157.0,0.01781925440359733
2156.0,0.01781925440359733
2155.0,0.017774008325325275
2154.0,0.017728766960431575
2153.0,0.01768353030793479
2152.0,0.01768353030793479
2151.0,0.017728766960431575
2150.0,0.017728766960431575
2149.0,0.017728766960431575
2148.0,0.017774008325325275
2147.0,0.01781925440359733
2146.0,0.01781925440359733
2145.0,0.017864505196230507
2144.0,0.017864505196230507
2143.0,0.017864505196230507
2142.0,0.01781925440359733
2141.0,0.017774008325325275
2140.0,0.017774008325325275
2139.0,0.017774008325325275
2138.0,0.017774008325325275
2137.0,0.01781925440359733
2136.0,0.01781925440359733
2135.0,0.01781925440359733
2134.0,0.01781925440359733
2133.0,0.01781925440359733
2132.0,0.01781925440359733
2131.0,0.01781925440359733
2130.0,0.017864505196230507
2129.0,0.017864505196230507
2128.0,0.017909760704207134
2127.0,0.017909760704207134
2126.0,0.017909760704207134
2125.0,0.017909760704207134
2124.0,0.017909760704207134
2123.0,0.017864505196230507
2122.0,0.017864505196230507
2121.0,0.017864505196230507
2120.0,0.01781925440359733
2119.0,0.01781925440359733
2118.0,0.017774008325325275
2117.0,0.017774008325325275
2116.0,0.017774008325325275
2115.0,0.017774008325325275
2114.0,0.017728766960431575
2113.0,0.017728766960431575
2112.0,0.017728766960431575
2111.0,0.017774008325325275
2110.0,0.017774008325325275
2109.0,0.017728766960431575
2108.0,0.017728766960431575
2107.0,0.01768353030793479
2106.0,0.017638298366853045
2105.0,0.01759307113620534
2104.0,0.017547848615010242
2103.0,0.017547848615010242
2102.0,0.017547848615010242
2101.0,0.01759307113620534
2100.0,0.017638298366853045
2099.0,0.01759307113620534
2098.0,0.01759307113620534
2097.0,0.017547848615010242
2096.0,0.017547848615010242
2095.0,0.017547848615010242
2094.0,0.017502630802287644
2093.0,0.017412209298337533
2092.0,0.017367005605150476
2091.0,0.017367005605150476
2090.0,0.017367005605150476
2089.0,0.017367005605150476
2088.0,0.017367005605150476
2087.0,0.017367005605150476
2086.0,0.017321806616515723
2085.0,0.017321806616515723
2084.0,0.017321806616515723
2083.0,0.017321806616515723
2082.0,0.017321806616515723
2081.0,0.01727661233145472
2080.0,0.017231422748988034
2079.0,0.017186237868137555
2078.0,0.017231422748988034
2077.0,0.017231422748988034
2076.0,0.017186237868137555
2075.0,0.017141057687924732
2074.0,0.017095882207371904
2073.0,0.017095882207371904
2072.0,0.017050711425501408
2071.0,0.017050711425501408
2070.0,0.017005545341335804
2069.0,0.016915227262211507
2068.0,0.016870075265299933
2067.0,0.016824927962187042
2066.0,0.016824927962187042
2065.0,0.016824927962187042
2064.0,0.016824927962187042
2063.0,0.01677978535189717
2062.0,0.016689514205884493
2061.0,0.016599261819461697
2060.0,0.016554142658660398
2059.0,0.016509028184833463
2058.0,0.01646391839700767
2057.0,0.01646391839700767
2056.0,0.016418813294209356
2055.0,0.016418813294209356
2054.0,0.016373712875465518
2053.0,0.016373712875465518
2052.0,0.01632861713980338
2051.0,0.01632861713980338
2050.0,0.01628352608625061
2049.0,0.016238439713835096
2048.0,0.016193358021584725
2047.0,0.016148281008528276
2046.0,0.016103208673694303
2045.0,0.016013078034810446
2044.0,0.016013078034810446
2043.0,0.01596801972881945
2042.0,0.016013078034810446
2041.0,0.016013078034810446
2040.0,0.016013078034810446
2039.0,0.015922966097169144
2038.0,0.015832872853011715
2037.0,0.01578783323856614
2036.0,0.015742798294583915
2035.0,0.015697768020096703
2034.0,0.015607721475734415
2033.0,0.015607721475734415
2032.0,0.015607721475734415
2031.0,0.015607721475734415
2030.0,0.015607721475734415
2029.0,0.015562705203923999
2028.0,0.015517693597737248
2027.0,0.01547268665620738
2026.0,0.01538268676325183
2025.0,0.015337693809893471
2024.0,0.01538268676325183
2023.0,0.01538268676325183
2022.0,0.01538268676325183
2021.0,0.01538268676325183
2020.0,0.01538268676325183
2019.0,0.015337693809893471
2018.0,0.015292705517326866
2017.0,0.015247721884586563
2016.0,0.015202742910707112
2015.0,0.015112798935672522
2014.0,0.015067833932588037
2013.0,0.015067833932588037
2012.0,0.015022873584506602
2011.0,0.014977917890464765
2010.0,0.014888020460646079
2009.0,0.014843078722943437
2008.0,0.014798141635428141
2007.0,0.014753209197138295
2006.0,0.014753209197138295
2005.0,0.014708281407112
2004.0,0.014708281407112
2003.0,0.014663358264387139
2002.0,0.014573525916998342
2001.0,0.0144837121472845
2000.0,0.014393916947563534
1999.0,0.014349026309051105
1998.0,0.014349026309051105
1997.0,0.014304140310157809
1996.0,0.014304140310157809
1995.0,0.014259258949925524
1994.0,0.014214382227394795
1993.0,0.014214382227394795
1992.0,0.014214382227394795
1991.0,0.014169510141607944
1990.0,0.014124642691606404
1989.0,0.014079779876432497
1988.0,0.014079779876432497
1987.0,0.014079779876432497
1986.0,0.01403492169512921
1985.0,0.013990068146738865
1984.0,0.013945219230304673
1983.0,0.01385553528947936
1982.0,0.01381070026317599
1981.0,0.01381070026317599
1980.0,0.01381070026317599
1979.0,0.01381070026317599
1978.0,0.01372104409400876
1977.0,0.013631406429727155
1976.0,0.013586594534531482
1975.0,0.013541787262693505
1974.0,0.013496984613259544
1973.0,0.013496984613259544
1972.0,0.013496984613259544
1971.0,0.013496984613259544
1970.0,0.013452186585275916
1969.0,0.013452186585275916
1968.0,0.013452186585275916
1967.0,0.013452186585275916
1966.0,0.013452186585275916
1965.0,0.013407393177789162
1964.0,0.013317820220494436
1963.0,0.013273040668781544
1962.0,0.01318349541446362
1961.0,0.013093968619278806
1960.0,0.013093968619278806
1959.0,0.013093968619278806
1958.0,0.013093968619278806
1957.0,0.013138729709955221
1956.0,0.013138729709955221
1955.0,0.013138729709955221
1954.0,0.013093968619278806
1953.0,0.013049212141483357
1952.0,0.013004460275618523
1951.0,0.013004460275618523
1950.0,0.012959713020733288
1949.0,0.012959713020733288
1948.0,0.012914970375878188
1947.0,0.012870232340102872
1946.0,0.012780770091995297
1945.0,0.012691326268817527
1944.0,0.012691326268817527
1943.0,0.012736045877764557
1942.0,0.012780770091995297
1941.0,0.012825498912458322
1940.0,0.012870232340102872
1939.0,0.012870232340102872
1938.0,0.012825498912458322
1937.0,0.012780770091995297
1936.0,0.012780770091995297
1935.0,0.012736045877764557
1934.0,0.012691326268817527
1933.0,0.01264661126420652
1932.0,0.01260190086298274
1931.0,0.012557195064198723
1930.0,0.012512493866907004
1929.0,0.012512493866907004
1928.0,0.012557195064198723
1927.0,0.012557195064198723
1926.0,0.012557195064198723
1925.0,0.012512493866907004
1924.0,0.012512493866907004
1923.0,0.012512493866907004
1922.0,0.012512493866907004
1921.0,0.012512493866907004
1920.0,0.012512493866907004
1919.0,0.012512493866907004
1918.0,0.012512493866907004
1917.0,0.012467797270160563
1916.0,0.012423105273012602
1915.0,0.012378417874516323
1914.0,0.012333735073725371
1913.0,0.012333735073725371
1912.0,0.012333735073725371
1911.0,0.012333735073725371
1910.0,0.012333735073725371
1909.0,0.012333735073725371
1908.0,0.012289056869694281
1907.0,0.012289056869694281
1906.0,0.012289056869694281
1905.0,0.012289056869694281
1904.0,0.012378417874516323
1903.0,0.012423105273012602
1902.0,0.012423105273012602
1901.0,0.012378417874516323
1900.0,0.012333735073725371
1899.0,0.012289056869694281
1898.0,0.012244383261476699
1897.0,0.012244383261476699
1896.0,0.012289056869694281
1895.0,0.012289056869694281
1894.0,0.012289056869694281
1893.0,0.012289056869694281
1892.0,0.012244383261476699
1891.0,0.012244383261476699
1890.0,0.012244383261476699
1889.0,0.012244383261476699
1888.0,0.012244383261476699
1887.0,0.012244383261476699
1886.0,0.012244383261476699
1885.0,0.012244383261476699
1884.0,0.012199714248127602
1883.0,0.012199714248127602
1882.0,0.012199714248127602
1881.0,0.012199714248127602
1880.0,0.012244383261476699
1879.0,0.012289056869694281
1878.0,0.012289056869694281
1877.0,0.012244383261476699
1876.0,0.012289056869694281
1875.0,0.012244383261476699
1874.0,0.012244383261476699
1873.0,0.012199714248127602
1872.0,0.01215504982870197
1871.0,0.012110390002254778
1870.0,0.012110390002254778
1869.0,0.012199714248127602
1868.0,0.012244383261476699
1867.0,0.012199714248127602
1866.0,0.01215504982870197
1865.0,0.01215504982870197
1864.0,0.012199714248127602
1863.0,0.012199714248127602
1862.0,0.012244383261476699
1861.0,0.012244383261476699
1860.0,0.012289056869694281
1859.0,0.012244383261476699
1858.0,0.012199714248127602
1857.0,0.01215504982870197
1856.0,0.012199714248127602
1855.0,0.012199714248127602
1854.0,0.01215504982870197
1853.0,0.01215504982870197
1852.0,0.01215504982870197
1851.0,0.012110390002254778
1850.0,0.012065734767841452
1849.0,0.012065734767841452
1848.0,0.012065734767841452
1847.0,0.012110390002254778
1846.0,0.012199714248127602
1845.0,0.012289056869694281
1844.0,0.012333735073725371
1843.0,0.012289056869694281
1842.0,0.012199714248127602
1841.0,0.012110390002254778
1840.0,0.012065734767841452
1839.0,0.012021084124518078
1838.0,0.0119764380713403
1837.0,0.0119764380713403
1836.0,0.012021084124518078
1835.0,0.012021084124518078
1834.0,0.012021084124518078
1833.0,0.012021084124518078
1832.0,0.012021084124518078
1831.0,0.012065734767841452
1830.0,0.012021084124518078
1829.0,0.0119764380713403
1828.0,0.011931796607364653
1827.0,0.0119764380713403
1826.0,0.012021084124518078
1825.0,0.012065734767841452
1824.0,0.012110390002254778
1823.0,0.012065734767841452
1822.0,0.012021084124518078
1821.0,0.012021084124518078
1820.0,0.012065734767841452
1819.0,0.012065734767841452
1818.0,0.012065734767841452
1817.0,0.012065734767841452
1816.0,0.012065734767841452
1815.0,0.012065734767841452
1814.0,0.012065734767841452
1813.0,0.012065734767841452
1812.0,0.012110390002254778
1811.0,0.012110390002254778
1810.0,0.012110390002254778
1809.0,0.012110390002254778
1808.0,0.01215504982870197
1807.0,0.01215504982870197
1806.0,0.01215504982870197
1805.0,0.01215504982870197
1804.0,0.012199714248127602
1803.0,0.012199714248127602
1802.0,0.012289056869694281
1801.0,0.012333735073725371
1800.0,0.012378417874516323
1799.0,0.012333735073725371
1798.0,0.012244383261476699
1797.0,0.012199714248127602
1796.0,0.012244383261476699
1795.0,0.012199714248127602
1794.0,0.012199714248127602
1793.0,0.012244383261476699
1792.0,0.012378417874516323
1791.0,0.012467797270160563
1790.0,0.012512493866907004
1789.0,0.012512493866907004
1788.0,0.012557195064198723
1787.0,0.01260190086298274
1786.0,0.01264661126420652
1785.0,0.012691326268817527
1784.0,0.012736045877764557
1783.0,0.012736045877764557
1782.0,0.01264661126420652
1781.0,0.01264661126420652
1780.0,0.012691326268817527
1779.0,0.012691326268817527
1778.0,0.01264661126420652
1777.0,0.01264661126420652
1776.0,0.01264661126420652
1775.0,0.012691326268817527
1774.0,0.012691326268817527
1773.0,0.012780770091995297
1772.0,0.012959713020733288
1771.0,0.013049212141483357
1770.0,0.01318349541446362
1769.0,0.013362604389846044
1768.0,0.013496984613259544
1767.0,0.013541787262693505
1766.0,0.013496984613259544
1765.0,0.013452186585275916
1764.0,0.013541787262693505
1763.0,0.013631406429727155
1762.0,0.01372104409400876
1761.0,0.01381070026317599
1760.0,0.013900374944870508
1759.0,0.013990068146738865
1758.0,0.014079779876432497
1757.0,0.014259258949925524
1756.0,0.0144837121472845
1755.0,0.01452861671041239
1754.0,0.014573525916998342
1753.0,0.014618439768003144
1752.0,0.014798141635428141
1751.0,0.014977917890464765
1750.0,0.015067833932588037
1749.0,0.015112798935672522
1748.0,0.015202742910707112
1747.0,0.015292705517326866
1746.0,0.01538268676325183
1745.0,0.015517693597737248
1744.0,0.015697768020096703
1743.0,0.015877917138889863
1742.0,0.01596801972881945
1741.0,0.016193358021584725
1740.0,0.016509028184833463
1739.0,0.016689514205884493
1738.0,0.016734647433454652
1737.0,0.016824927962187042
1736.0,0.017050711425501408
1735.0,0.017412209298337533
1734.0,0.017774008325325275
1733.0,0.017864505196230507
1732.0,0.017909760704207134
1731.0,0.018045555530026514
1730.0,0.018271974638383703
1729.0,0.01858915983411169
1728.0,0.018951941086827073
1727.0,0.0192242260373785
1726.0,0.01949668180660491
1725.0,0.019860222254245663
1724.0,0.020315076172974234
1723.0,0.02067930261797568
1722.0,0.020861530453190058
1721.0,0.021043834782408455
1720.0,0.021271822861508305
1719.0,0.02159120737696063
1718.0,0.02200219004126036
1717.0,0.022505030926963654
1716.0,0.02300845469384938
1715.0,0.02351246269481
1714.0,0.023971159908874107
1713.0,0.024430342106337877
1712.0,0.02484402159331056
1711.0,0.02521206778644225
1710.0,0.02553436426275746
1709.0,0.025810808881832736
1708.0,0.02617967564731627
1707.0,0.02664120011360227
1706.0,0.02724191609646076
1705.0,0.027889771597169544
1704.0,0.02849221828874393
1703.0,0.029002634427514717
1702.0,0.02960662792039992
1701.0,0.03063068826647264
1700.0,0.03179733185715028
1699.0,0.03235843591698884
1698.0,0.032592443402527316
1697.0,0.0332483359486222
1696.0,0.034469056377139484
1695.0,0.03555179208333925
1694.0,0.03621217265444465
1693.0,0.036873558918095295
1692.0,0.03763066432997886
1691.0,0.03848398855105106
1690.0,0.03943409718180235
1689.0,0.04038628892895613
1688.0,0.04129280891271536
1687.0,0.041914151478914974
1686.0,0.042584285277331047
1685.0,0.04411991377462465
1684.0,0.04643358574299339
1683.0,0.047934409814949674
1682.0,0.048808242065293994
1681.0,0.04978123335813667
1680.0,0.05085404758005607
1679.0,0.05188057561946402
1678.0,0.05271335532220167
1677.0,0.05379344615721715
1676.0,0.055270639696704205
1675.0,0.05690137699451481
1674.0,0.05804158346918653
1673.0,0.058737090681050264
1672.0,0.0595831353183347
1671.0,0.060730413661268745
1670.0,0.06223143295006417
1669.0,0.06383825908884244
1668.0,0.06519865825346338
1667.0,0.06615853710127872
1666.0,0.06686717627326577
1665.0,0.0676277178520861
1664.0,0.06874559358358656
1663.0,0.07017251876930874
1662.0,0.07150173187630915
1661.0,0.07262963696097646
1660.0,0.07370901311513656
1659.0,0.07463633264589853
1658.0,0.07546228222451012
1657.0,0.0760310351245288
1656.0,0.07670415934449615
1655.0,0.07743023101428781
1654.0,0.07930286553008004
1653.0,0.08212704480115218
1652.0,0.08370400543686918
1651.0,0.08423093401631587
1650.0,0.08454739831152125
1649.0,0.08491689834879956
1648.0,0.08608023504853413
1647.0,0.08788427092114603
1646.0,0.08937559511079884
1645.0,0.09033701484598189
1644.0,0.0910326995816122
1643.0,0.09167586072382083
1642.0,0.09226626300234453
1641.0,0.09280368972839836
1640.0,0.09339562827501968
1639.0,0.09382663635595145
1638.0,0.09393445524476318
1637.0,0.09404230090757282
1636.0,0.09447395156495153
1635.0,0.09479797133768142
1634.0,0.09468993788391455
1633.0,0.09431203228814788
1632.0,0.09393445524476318
1631.0,0.09334178232840018
1630.0,0.09258863922541383
1629.0,0.0917295005042762
1628.0,0.09087205801073917
1627.0,0.09012318200960712
1626.0,0.0892689019566193
1625.0,0.08830984124613894
1624.0,0.08714052483764512
1623.0,0.08592141461088798
1622.0,0.08481129482684358
1621.0,0.0838620168928248
1620.0,0.08301995267961781
1619.0,0.08202211740709164
1618.0,0.08060807322614072
1617.0,0.0788860261633193
1616.0,0.07737832847680104
1615.0,0.07634157820669385
1614.0,0.07535895258283709
1613.0,0.07427547306393745
1612.0,0.0729891310243489
1611.0,0.07155293679081787
1610.0,0.07001940948448526
1609.0,0.068389593637038
1608.0,0.06691783763020887
1607.0,0.06545105233385295
1606.0,0.06408986356949264
1605.0,0.0627329277885873
1604.0,0.06133019897732073
1603.0,0.05993198626064755
1602.0,0.05858795962645047
1601.0,0.057198533682059516
1600.0,0.055961719945581745
1599.0,0.054728418492290265
1598.0,0.05354773498692689
1597.0,0.052419250695677544
1596.0,0.05129369109514803
1595.0,0.05021979163799939
1594.0,0.04919717703534143
1593.0,0.04827402457540786
1592.0,0.04740126547022694
1591.0,0.04657860031896477
1590.0,0.04575749056067524
1589.0,0.044986096961949995
1588.0,0.04426415772233416
1587.0,0.04359142880416744
1586.0,0.042967683653061695
1585.0,0.04229695845116854
1584.0,0.041627267521392675
1583.0,0.041006334969674096
1582.0,0.04038628892895613
1581.0,0.039767126871487646
1580.0,0.03919637508823026
1579.0,0.03862637240519895
1578.0,0.03800971255993524
1577.0,0.037299268295658994
1576.0,0.03668448861388862
1575.0,0.03616496929785207
1574.0,0.03588185684851508
1573.0,0.035646070707806565
1572.0,0.035363296211498474
1571.0,0.0349394793888016
1570.0,0.034516075754861264
1569.0,0.03409308450480819
1568.0,0.03367050483612166
1567.0,0.0332483359486222
1566.0,0.03282657704446046
1565.0,0.03235843591698884
1564.0,0.03193753992355086
1563.0,0.031563752288295444
1562.0,0.03133029827960798
1561.0,0.03105031901865729
1560.0,0.030910397045078586
1559.0,0.0307239045110681
1558.0,0.03025802323714588
1557.0,0.029978734171634214
1556.0,0.029746130405213123
1555.0,0.029467170231675777
1554.0,0.029188389127482228
1553.0,0.02890978686288448
1552.0,0.028677754757187035
1551.0,0.028445846553939003
1550.0,0.028214062120885508
1549.0,0.028028723600243666
1548.0,0.027843464140506313
1547.0,0.027612000892527133
1546.0,0.027426919073445077
1545.0,0.02724191609646076
1544.0,0.027010773144651168
1543.0,0.02677975314776626
1542.0,0.02654885597506529
1541.0,0.026456531467510258
1540.0,0.02617967564731627
1539.0,0.025810808881832736
1538.0,0.025672564576383117
1537.0,0.025672564576383117
1536.0,0.025672564576383117
1535.0,0.02558042614771394
1534.0,0.02553436426275746
1533.0,0.025488307262671706
1532.0,0.025350165561278004
1531.0,0.02516604495145991
1530.0,0.02498200236711723
1529.0,0.02484402159331056
1528.0,0.024706084643793647
1527.0,0.024522236834125355
1526.0,0.024338466818941473
1525.0,0.024108863598207186
1524.0,0.023925268380126097
1523.0,0.023741750742954926
1522.0,0.023741750742954926
1521.0,0.023787622882622816
1520.0,0.023787622882622816
1519.0,0.023695883447997224
1518.0,0.023604163388120325
1517.0,0.023604163388120325
1516.0,0.023604163388120325
1515.0,0.02355831062115543
1514.0,0.02351246269481
1513.0,0.02351246269481
1512.0,0.023466619608062178
1511.0,0.023374947949272418
1510.0,0.023237476732539397
1509.0,0.023237476732539397
1508.0,0.023329119375188556
1507.0,0.023329119375188556
1506.0,0.023191662661933732
1505.0,0.023191662661933732
1504.0,0.023237476732539397
1503.0,0.023191662661933732
1502.0,0.02314585342378117
1501.0,0.023100049017062307
1500.0,0.023100049017062307
1499.0,0.023054249440757957
1498.0,0.023054249440757957
1497.0,0.023191662661933732
1496.0,0.023329119375188556
1495.0,0.023283295636617574
1494.0,0.023237476732539397
1493.0,0.023237476732539397
1492.0,0.023237476732539397
1491.0,0.023191662661933732
1490.0,0.023100049017062307
1489.0,0.023191662661933732
1488.0,0.023283295636617574
1487.0,0.023283295636617574
1486.0,0.023329119375188556
1485.0,0.02342078135989012
1484.0,0.023466619608062178
1483.0,0.023466619608062178
1482.0,0.02351246269481
1481.0,0.023695883447997224
1480.0,0.024017056287453542
1479.0,0.024522236834125355
1478.0,0.025810808881832736
1477.0,0.02863136320857662
1476.0,0.03334211579824231
1475.0,0.03981472339538916
1474.0,0.047885915093007325
1473.0,0.055566682299785564
1472.0,0.05923456436878238
1471.0,0.05928434309333741
1470.0,0.058737090681050264
1469.0,0.05868737463933793
1468.0,0.05918479134919874
1467.0,0.06058059667068294
1466.0,0.06373765809652254
1465.0,0.06859298644342648
1464.0,0.0725783049495814
1463.0,0.07340034609297241
1462.0,0.07145053299833615
1461.0,0.0678307540792078
1460.0,0.06333548699992453
1459.0,0.058836539841526925
1458.0,0.055122694036304765
1457.0,0.05261529831525902
1456.0,0.05095170768433621
1455.0,0.04948910701400333
1454.0,0.04807992647970649
1453.0,0.04657860031896477
1452.0,0.04513062893352182
1451.0,0.0439276630048171
1450.0,0.042967683653061695
1449.0,0.04210551278710151
1448.0,0.04124505013091051
1447.0,0.04057697805689475
1446.0,0.0400527842915015
1445.0,0.03957679292217042
1444.0,0.03910132267333921
1443.0,0.038721320914956836
1442.0,0.038436537637930535
1441.0,0.038057116858612794
1440.0,0.03772539537668518
1439.0,0.03739392707587297
1438.0,0.03720463014276687
1437.0,0.037062711569998186
1436.0,0.036779013477011624
1435.0,0.03635381351515665
1434.0,0.03583468937826462
1433.0,0.03526907894637077
1432.0,0.03470420418834386
1431.0,0.03423403581731388
1430.0,0.0338113190438627
1429.0,0.03338901331806565
1428.0,0.03301397488206215
1427.0,0.032686081712916426
1426.0,0.03235843591698884
1425.0,0.03207779326948268
1424.0,0.03179733185715028
1423.0,0.031657169041054534
1422.0,0.031563752288295444
1421.0,0.03147035562516054
1420.0,0.03137697904301118
1419.0,0.03133029827960798
1418.0,0.03128362253321426
1417.0,0.031096969696171817
1416.0,0.030910397045078586
1415.0,0.0307239045110681
1414.0,0.03058408764601861
1413.0,0.030444315779156517
1412.0,0.030351159519274695
1411.0,0.030211462585061133
1410.0,0.030071810571884017
1409.0,0.029885677714903025
1408.0,0.02969962459782227
1407.0,0.029513651152349718
1406.0,0.02942069428514915
1405.0,0.029281296279810798
1404.0,0.029095501846216454
1403.0,0.028863370523193765
1402.0,0.02863136320857662
1401.0,0.028445846553939003
1400.0,0.02826040911222183
1399.0,0.028167720075074953
1398.0,0.028028723600243666
1397.0,0.027843464140506313
1396.0,0.027658283674251827
1395.0,0.02751945012352408
1394.0,0.02738066094037661
1393.0,0.027195677663422346
1392.0,0.02696455931306696
1391.0,0.02682594731702781
1390.0,0.026687379547098322
1389.0,0.026595025589939425
1388.0,0.026502691267936695
1387.0,0.026502691267936695
1386.0,0.026502691267936695
1385.0,0.02654885597506529
1384.0,0.02664120011360227
1383.0,0.02691835039863255
1382.0,0.027288159452933503
1381.0,0.027750864037404455
1380.0,0.028214062120885508
1379.0,0.02863136320857662
1378.0,0.028816959143838528
1377.0,0.028770552723758724
1376.0,0.028538594975413334
1375.0,0.02826040911222183
1374.0,0.028028723600243666
1373.0,0.027889771597169544
1372.0,0.027843464140506313
1371.0,0.027797161620935595
1370.0,0.027797161620935595
1369.0,0.027750864037404455
1368.0,0.027658283674251827
1367.0,0.02751945012352408
1366.0,0.02738066094037661
1365.0,0.027195677663422346
1364.0,0.027010773144651168
1363.0,0.02691835039863255
1362.0,0.026872146400301444
1361.0,0.026687379547098322
1360.0,0.026456531467510258
1359.0,0.026271941311972746
1358.0,0.02613355016462182
1357.0,0.026087429580295085
1356.0,0.026087429580295085
1355.0,0.026087429580295085
1354.0,0.02613355016462182
1353.0,0.02613355016462182
1352.0,0.026087429580295085
1351.0,0.026041313893296225
1350.0,0.026041313893296225
1349.0,0.025995203102585407
1348.0,0.025949097207122573
1347.0,0.025902996205869
1346.0,0.025856900097785074
1345.0,0.025810808881832736
1344.0,0.025718641122169483
1343.0,0.02562649291857677
1342.0,0.02553436426275746
1341.0,0.025488307262671706
1340.0,0.025488307262671706
1339.0,0.025488307262671706
1338.0,0.02553436426275746
1337.0,0.025488307262671706
1336.0,0.02539620791296726
1335.0,0.025304128090317013
1334.0,0.025258095499050004
1333.0,0.02521206778644225
1332.0,0.02521206778644225
1331.0,0.02516604495145991
1330.0,0.02521206778644225
1329.0,0.025258095499050004
1328.0,0.025304128090317013
1327.0,0.02539620791296726
1326.0,0.025488307262671706
1325.0,0.02558042614771394
1324.0,0.02562649291857677
1323.0,0.025764722556973707
1322.0,0.025810808881832736
1321.0,0.025856900097785074
1320.0,0.025902996205869
1319.0,0.025995203102585407
1318.0,0.02613355016462182
1317.0,0.026271941311972746
1316.0,0.026410376572743033
1315.0,0.02654885597506529
1314.0,0.026733563891471412
1313.0,0.02691835039863255
1312.0,0.02710321556345563
1311.0,0.02724191609646076
1310.0,0.02738066094037661
1309.0,0.02751945012352408
1308.0,0.027612000892527133
1307.0,0.027750864037404455
1306.0,0.027936083991977778
1305.0,0.028028723600243666
1304.0,0.028075050815808744
1303.0,0.028167720075074953
1302.0,0.028306761050139073
1301.0,0.02839947976994095
1300.0,0.02849221828874393
1299.0,0.02858497661500481
1298.0,0.028677754757187035
1297.0,0.028770552723758724
1296.0,0.028863370523193765
1295.0,0.029002634427514717
1294.0,0.02904906565457588
1293.0,0.029095501846216454
1292.0,0.029095501846216454
1291.0,0.029141943003497595
1290.0,0.029188389127482228
1289.0,0.029281296279810798
1288.0,0.029374223311705583
1287.0,0.029467170231675777
1286.0,0.02960662792039992
1285.0,0.02969962459782227
1284.0,0.029839156962686353
1283.0,0.029932203450862893
1282.0,0.030071810571884017
1281.0,0.030211462585061133
1280.0,0.03025802323714588
1279.0,0.030351159519274695
1278.0,0.030490901403433135
1277.0,0.03058408764601861
1276.0,0.0307239045110681
1275.0,0.030863766403287585
1274.0,0.031003673351687855
1273.0,0.031143625385307683
1272.0,0.03128362253321426
1271.0,0.03147035562516054
1270.0,0.03161045815293173
1269.0,0.03175060589208267
1268.0,0.03189079887180224
1267.0,0.032031037121307726
1266.0,0.03217132066984485
1265.0,0.03235843591698884
1264.0,0.03249882527715853
1263.0,0.032686081712916426
1262.0,0.032920265855503006
1261.0,0.033060836978886954
1260.0,0.0332483359486222
1259.0,0.03338901331806565
1258.0,0.03357665405630694
1257.0,0.03371743783253667
1256.0,0.03385826726096752
1255.0,0.034046110897937076
1254.0,0.034187046963396917
1253.0,0.03437503289075727
1252.0,0.034516075754861264
1251.0,0.03475124903287918
1250.0,0.03498654972775217
1249.0,0.03522197797762394
1248.0,0.03545753392086315
1247.0,0.035740369803151095
1246.0,0.03597620715996652
1245.0,0.03625938114211591
1244.0,0.036542739883292485
1243.0,0.03682628362474838
1242.0,0.0371573187987575
1241.0,0.03753595394209874
1240.0,0.03796231343498735
1239.0,0.03838909190871931
1238.0,0.038816290187564384
1237.0,0.03924390909822728
1236.0,0.039719535563357944
1235.0,0.04019568349166214
1234.0,0.040672354027829094
1233.0,0.041149548320321694
1232.0,0.041627267521392675
1231.0,0.04215336629184985
1230.0,0.04268010314465909
1229.0,0.043303435105349175
1228.0,0.04387961360698034
1227.0,0.044456557540257124
1226.0,0.04508244626504121
1225.0,0.045660991397539874
1224.0,0.04624030826677128
1223.0,0.04682039893436585
1222.0,0.047352830241056854
1221.0,0.047885915093007325
1220.0,0.04841965509660828
1219.0,0.04900266601119507
1218.0,0.04953778109440221
1217.0,0.05012229596312534
1216.0,0.05065879322950262
1215.0,0.05114709380028648
1214.0,0.051684859310652254
1213.0,0.05222329153526162
1212.0,0.05281143447390635
1211.0,0.05340037498486727
1210.0,0.05399011523423525
1209.0,0.05462990550969615
1208.0,0.055270639696704205
1207.0,0.05586292684190197
1206.0,0.05650548409389744
1205.0,0.0571489934456626
1204.0,0.05779345772290467
1203.0,0.05843887976392925
1202.0,0.059135024033278416
1201.0,0.05983228596592505
1200.0,0.060530669156469985
1199.0,0.06128018521761747
1198.0,0.06208109735221967
1197.0,0.06288348923294618
1196.0,0.06378795567975115
1195.0,0.06469430971007495
1194.0,0.06560255921901192
1193.0,0.06656333217371957
1192.0,0.06752623532284674
1191.0,0.0684912781333824
1190.0,0.06950943469373039
1189.0,0.07058107428570715
1188.0,0.0716553647351379
1187.0,0.07283502570063005
1186.0,0.07406940213152868
1185.0,0.07530729697981409
1184.0,0.07660053384128362
1183.0,0.07789763319239285
1182.0,0.07919861817434581
1181.0,0.0805035121369384
1180.0,0.08181233864107451
1179.0,0.0832303157168639
1178.0,0.08465293767580806
1177.0,0.0861331881037608
1176.0,0.08761850108119962
1175.0,0.08910891135547172
1174.0,0.0905509530187334
1173.0,0.0919977988274463
1172.0,0.09344948089854999
1171.0,0.09490603167212863
1170.0,0.09631326826349751
1169.0,0.09772507952549825
1168.0,0.0990869322623309
1167.0,0.10039834085387778
1166.0,0.10171372141087698
1165.0,0.10303309806684524
1164.0,0.10430127304069425
1163.0,0.10557316203581202
1162.0,0.10679324694015202
1161.0,0.10807246577932506
1160.0,0.10929960230112479
1159.0,0.11047420332880886
1158.0,0.11159583226295333
1157.0,0.11272036546997688
1156.0,0.1138478180292033
1155.0,0.11492161585077598
1154.0,0.11599807523121286
1153.0,0.1170772093974013
1152.0,0.11821604440661537
1151.0,0.11930071078129845
1150.0,0.1203880929341492
1149.0,0.12147820449879343
1148.0,0.12257105921178035
1147.0,0.12360893818081231
1146.0,0.12464930342071079
1145.0,0.12569216687196105
1144.0,0.12679569072295926
1143.0,0.12778543660241448
1142.0,0.12877744324029283
1141.0,0.12971317100740865
1140.0,0.13076828026902376
1139.0,0.13176713157753506
1138.0,0.13270933014511588
1137.0,0.13365357725039817
1136.0,0.13454067733803532
1135.0,0.13537027545448765
1134.0,0.136142038116027
1133.0,0.13697470377052956
1132.0,0.13780896894840278
1131.0,0.13864483980673992
1130.0,0.13936258322624528
1129.0,0.1400815147992842
1128.0,0.1408016384661226
1127.0,0.1414628024303608
1126.0,0.14212497447643746
1125.0,0.1427881576831076
1124.0,0.14351278713136928
1123.0,0.14417809459397013
1122.0,0.1447838052666366
1121.0,0.14545106418704923
1120.0,0.14618015414323682
1119.0,0.14691047014813452
1118.0,0.1475810070629986
1117.0,0.14837479684669086
1116.0,0.14917004015146906
1115.0,0.1499667423102311
1114.0,0.1507034591652734
1113.0,0.1515029819096334
1112.0,0.1523039792658345
1111.0,0.15310645668337486
1110.0,0.15391041964201602
1109.0,0.15477789357098626
1108.0,0.15570925674565683
1107.0,0.1565803347950816
1106.0,0.157390760389438
1105.0,0.15814019022493886
1104.0,0.15895353459069628
1103.0,0.15976840504189105
1102.0,0.1605219526258017
1101.0,0.16127680996862814
1100.0,0.16196991701467978
1099.0,0.1626009756579776
1098.0,0.16323295260579473
1097.0,0.16386585053462532
1096.0,0.16456310519814177
1095.0,0.16513442009996204
1094.0,0.16557929631846746
1093.0,0.16596098184053343
1092.0,0.16647041824135633
1091.0,0.16685288808721488
1090.0,0.16717187046064663
1089.0,0.1674910872937636
1088.0,0.16787445746599094
1087.0,0.16806626953325465
1086.0,0.16819419132560887
1085.0,0.16838614469090118
1084.0,0.1685141607513425
1083.0,0.1685141607513425
1082.0,0.16845014800424418
1081.0,0.1683221508085333
1080.0,0.16825816635436186
1079.0,0.16806626953325465
1078.0,0.16781053893148679
1077.0,0.1674910872937636
1076.0,0.16723569505946845
1075.0,0.16685288808721488
1074.0,0.16634300310712757
1073.0,0.165706487557304
1072.0,0.16513442009996204
1071.0,0.1644362483309032
1070.0,0.16367588429324842
1069.0,0.16285365609093994
1068.0,0.16209605540705763
1067.0,0.16121385505340546
1066.0,0.160145015398115
1065.0,0.15914144595812063
1064.0,0.15807768832054925
1063.0,0.15695418946543072
1062.0,0.15570925674565683
1061.0,0.15446788250642451
1060.0,0.1532918545439932
1059.0,0.1519957285027318
1058.0,0.15064201833870117
1057.0,0.14923127307111983
1056.0,0.1478861391502384
1055.0,0.14642345638035836
1054.0,0.14490504884137811
1053.0,0.14345235514325205
1052.0,0.14206473528057106
1051.0,0.14068153490288382
1050.0,0.13924287691845794
1049.0,0.13780896894840278
1048.0,0.13643923547375736
1047.0,0.1349552783069008
1046.0,0.13347637446715632
1045.0,0.1320613491092153
1044.0,0.13070959579060148
1043.0,0.12936203678919433
1042.0,0.12790202572577325
1041.0,0.12650501774383094
1040.0,0.1251124891538875
1039.0,0.12372441132212098
1038.0,0.12234075588839133
1037.0,0.12101887660626365
1036.0,0.11975822410451964
1035.0,0.11850122038501709
1034.0,0.11719095860756013
1033.0,0.11588463798833115
1032.0,0.11469533241103202
1031.0,0.11345287660889425
1030.0,0.11215773489264302
1029.0,0.11097857790477517
1028.0,0.10980261378997125
1027.0,0.10857405715200596
1026.0,0.10734896612269962
1025.0,0.1061827760325369
1024.0,0.10501970907203151
1023.0,0.10385974855798041
1022.0,0.10281292341984649
1021.0,0.10193333935836524
1020.0,0.10116516193172598
1019.0,0.1005625457138224
1018.0,0.10001543745060903
1017.0,0.09957824654226233
1016.0,0.09930522554760213
1015.0,0.0990869322623309
1014.0,0.0989778267519208
1013.0,0.09903237608087578
1012.0,0.09914149529800831
1011.0,0.09935981601739963
1010.0,0.09968750301627338
1009.0,0.10012480397898926
1008.0,0.10061729446673495
1007.0,0.10116516193172598
1006.0,0.10160395406999112
1005.0,0.10204318999304807
1004.0,0.10248287059947447
1003.0,0.10281292341984649
1002.0,0.10297804393963661
1001.0,0.10297804393963661
1000.0,0.1028679566179056
999.0,0.10270287794050348
998.0,0.10237290870955862
997.0,0.10193333935836524
996.0,0.10132965703447017
995.0,0.1005625457138224
994.0,0.09968750301627338
993.0,0.09881421986284966
992.0,0.0978882765519955
991.0,0.09691001300805646
990.0,0.09593394808549704
989.0,0.09506817260434741
988.0,0.09431203228814788
987.0,0.09366495819490939
986.0,0.09312646527792956
985.0,0.09258863922541383
984.0,0.09183679994445204
983.0,0.09087205801073917
982.0,0.08974922769985194
981.0,0.08857603462370545
980.0,0.08761850108119962
979.0,0.0867691288864394
978.0,0.08608023504853413
977.0,0.0854453014823664
976.0,0.08486409337798806
975.0,0.08433639649422697
974.0,0.0838620168928248
973.0,0.0833881548906541
972.0,0.08301995267961781
971.0,0.08265206237222844
970.0,0.08223199755224364
969.0,0.08175990977858505
968.0,0.08139308485501817
967.0,0.08102656950704579
966.0,0.08066036321258663
965.0,0.08029446545087904
964.0,0.07987667370927598
963.0,0.07951143534170213
962.0,0.07919861817434581
961.0,0.07883394936226118
960.0,0.07857365898473456
959.0,0.07826151631540124
958.0,0.07794959783282618
957.0,0.07768983678560404
956.0,0.07748213975538865
955.0,0.07727454200674
954.0,0.07701518429111709
953.0,0.07675598136972361
952.0,0.07649693305789551
951.0,0.07628980560343712
950.0,0.07613452481449845
949.0,0.07592757008963713
948.0,0.07566901529132153
947.0,0.07541061433058172
946.0,0.07520400420208784
945.0,0.07499749231902242
944.0,0.07479107858799638
943.0,0.07458476291575367
942.0,0.07437854520917098
941.0,0.07422394616325367
940.0,0.07406940213152868
939.0,0.07391491307485598
938.0,0.07376047895413773
937.0,0.07360609973031784
936.0,0.07350321072677968
935.0,0.07340034609297241
934.0,0.07329750581735506
933.0,0.07319468988839395
932.0,0.07304051161972436
931.0,0.07283502570063005
930.0,0.07262963696097646
929.0,0.07247565912497134
928.0,0.07237303755504598
927.0,0.07227044022834539
926.0,0.07211658966929302
925.0,0.0720140529005715
924.0,0.07196279359311708
923.0,0.07186029312488018
922.0,0.07175781684269089
921.0,0.0716553647351379
920.0,0.07145053299833615
919.0,0.07124579782334672
918.0,0.07109230975604719
917.0,0.0709900145060387
916.0,0.0709900145060387
915.0,0.0709900145060387
914.0,0.0709900145060387
913.0,0.0709900145060387
912.0,0.0709900145060387
911.0,0.07093887591523451
910.0,0.07083661679493547
909.0,0.07073438174693436
908.0,0.07063217075990047
907.0,0.07063217075990047
906.0,0.07058107428570715
905.0,0.07052998382251041
904.0,0.07042782092345012
903.0,0.07032568205141221
902.0,0.0702746216219956
901.0,0.07032568205141221
900.0,0.07037674848475972
899.0,0.07037674848475972
898.0,0.07032568205141221
897.0,0.0702746216219956
896.0,0.0702746216219956
895.0,0.07032568205141221
894.0,0.07042782092345012
893.0,0.07047889936889606
892.0,0.07042782092345012
891.0,0.07037674848475972
890.0,0.07037674848475972
889.0,0.07047889936889606
888.0,0.07073438174693436
887.0,0.0709900145060387
886.0,0.07114346641808922
885.0,0.07119462910671581
884.0,0.07119462910671581
883.0,0.07129697256940304
882.0,0.07150173187630915
881.0,0.0718090519612431
880.0,0.07206531825882068
879.0,0.07216786713341827
878.0,0.07221915065262552
877.0,0.07227044022834539
876.0,0.07237303755504598
875.0,0.07247565912497134
874.0,0.07252697900472405
873.0,0.07252697900472405
872.0,0.07247565912497134
871.0,0.07242434530888953
870.0,0.07242434530888953
869.0,0.07242434530888953
868.0,0.07242434530888953
867.0,0.07242434530888953
866.0,0.07247565912497134
865.0,0.07252697900472405
864.0,0.0725783049495814
863.0,0.07252697900472405
862.0,0.07237303755504598
861.0,0.07232173586200852
860.0,0.07237303755504598
859.0,0.07252697900472405
858.0,0.07273231918911849
857.0,0.07288638806623937
856.0,0.07304051161972436
855.0,0.07309189829456408
854.0,0.07319468988839395
853.0,0.07334892291111106
852.0,0.07355465218161061
851.0,0.07370901311513656
850.0,0.07381195089279391
849.0,0.07391491307485598
848.0,0.07412091069849924
847.0,0.07432700607875953
846.0,0.07458476291575367
845.0,0.07479107858799638
844.0,0.07494587968815725
843.0,0.07499749231902242
842.0,0.07510073598571654
841.0,0.07525564752005143
840.0,0.07546228222451012
839.0,0.0756173227980268
838.0,0.07572071393811841
837.0,0.07587584681417514
836.0,0.07613452481449845
835.0,0.0763933569825408
834.0,0.07660053384128362
833.0,0.07680780957933253
832.0,0.07701518429111709
831.0,0.0772226580712021
830.0,0.07743023101428781
829.0,0.07768983678560404
828.0,0.07789763319239285
827.0,0.07810552907089763
826.0,0.07831352451639795
825.0,0.07857365898473456
824.0,0.07883394936226118
823.0,0.07904229404455076
822.0,0.07919861817434581
821.0,0.0794071379151915
820.0,0.07972010536705154
819.0,0.08003329851661278
818.0,0.08039897621588898
817.0,0.08076496207674921
816.0,0.0812359689720008
815.0,0.08175990977858505
814.0,0.08217951800630297
813.0,0.08254700807033655
812.0,0.08280969148843575
811.0,0.08291480935943274
810.0,0.0830725338870073
809.0,0.08333553545860273
808.0,0.08375666953466032
807.0,0.08417821237960132
806.0,0.08460016478773014
805.0,0.08502252755566908
804.0,0.08549817717268593
803.0,0.08597434830367123
802.0,0.08634506491338012
801.0,0.0867160982395816
800.0,0.08708744882390307
799.0,0.08745911720936239
798.0,0.08788427092114603
797.0,0.08830984124613894
796.0,0.08873582900163002
795.0,0.08916223500731646
794.0,0.08958906008531176
793.0,0.0900163050601559
792.0,0.0905509530187334
791.0,0.0910326995816122
790.0,0.09156860103399356
789.0,0.0922125568893839
788.0,0.09285746899685954
787.0,0.09344948089854999
786.0,0.09388054245443844
785.0,0.09431203228814788
784.0,0.09485199814398393
783.0,0.09539263618455207
782.0,0.09598811640261173
781.0,0.09658441423091357
780.0,0.09718153191774648
779.0,0.09772507952549825
778.0,0.09821485469640057
777.0,0.09870518283443275
776.0,0.09930522554760213
775.0,0.09990609845660159
774.0,0.10045306890913297
773.0,0.10094593200182911
772.0,0.1014393550602879
771.0,0.10182351650232357
770.0,0.1022080180607754
769.0,0.10275789719463457
768.0,0.1033635694704158
767.0,0.10408045468998406
766.0,0.1047432468551055
765.0,0.10535169620648288
764.0,0.10590557267730127
763.0,0.10623823794205656
762.0,0.10657115822045493
761.0,0.10695988804288215
760.0,0.10757145305477
759.0,0.10812816955441629
758.0,0.10857405715200596
757.0,0.10902040301031102
756.0,0.10946720807225518
755.0,0.10991447328367476
754.0,0.11025022473596224
753.0,0.1106422631110684
752.0,0.11114683301706374
751.0,0.11153968196461372
750.0,0.11187669270209155
749.0,0.11227020271196975
748.0,0.11272036546997688
747.0,0.11317099532301778
746.0,0.11356568037106163
745.0,0.11407366019856902
744.0,0.11463877996848804
743.0,0.11520463605101905
742.0,0.11565785235294102
741.0,0.11594135290606156
740.0,0.11622503864474187
739.0,0.1165657063169907
738.0,0.11702034596270106
737.0,0.11764625361128611
736.0,0.11850122038501709
735.0,0.11970100857424737
734.0,0.12205304837081177
733.0,0.1263307072932056
732.0,0.13247358880025661
731.0,0.13900356324280416
730.0,0.14381507327283027
729.0,0.1456939581989194
728.0,0.14496568332411575
727.0,0.14315032127482774
726.0,0.141884067809934
725.0,0.14200450443907608
724.0,0.14369413356670102
723.0,0.14709324120304634
722.0,0.15298290206464582
721.0,0.1614027471833437
720.0,0.1701175535565067
719.0,0.17509352869788763
718.0,0.17483362774345035
717.0,0.1711468403233598
716.0,0.16640670600154372
715.0,0.16178077809237412
714.0,0.1576404266693252
713.0,0.1542200328881107
712.0,0.1515029819096334
711.0,0.1493537648169334
710.0,0.1475810070629986
709.0,0.14624096692523136
708.0,0.14520830594601453
707.0,0.14429916916456276
706.0,0.14339193156306385
705.0,0.1427278264359586
704.0,0.1423660148499919
703.0,0.14218522202899342
702.0,0.1419442819496357
701.0,0.14164329470222659
700.0,0.14140265500530758
699.0,0.14110204276799654
698.0,0.1408016384661226
697.0,0.1408016384661226
696.0,0.1409818561111058
695.0,0.14110204276799654
694.0,0.14110204276799654
693.0,0.14110204276799654
692.0,0.14110204276799654
691.0,0.1409217752530305
690.0,0.14062149557439896
689.0,0.1405014418122239
688.0,0.14068153490288382
687.0,0.1408016384661226
686.0,0.14056146454494378
685.0,0.1402014525194344
684.0,0.14014147951900724
683.0,0.1402014525194344
682.0,0.1405014418122239
681.0,0.1410419452819942
680.0,0.14176366457048695
679.0,0.14242629585250421
678.0,0.14284849731250704
677.0,0.14333151638846497
676.0,0.14393604666690019
675.0,0.14448084433219988
674.0,0.1450869776921444
673.0,0.1455724942121388
672.0,0.1459369881335788
671.0,0.1465451586319333
670.0,0.14855818532794496
669.0,0.1537866361206126
668.0,0.15983115075924403
667.0,0.16058480731610647
666.0,0.1582027011256446
665.0,0.15726598105173029
664.0,0.15801519540988607
663.0,0.15926676538819318
662.0,0.160145015398115
661.0,0.16127680996862814
660.0,0.16291684917681404
659.0,0.16456310519814177
658.0,0.1660882849286216
657.0,0.16787445746599094
656.0,0.16979640107429583
655.0,0.17101804599207693
654.0,0.1714689933548985
653.0,0.17204947169736973
652.0,0.17366599437777985
651.0,0.17600440884403223
650.0,0.1785519809824696
649.0,0.1811804924524636
648.0,0.18336105510153855
647.0,0.1842894602110372
646.0,0.18415670933673334
645.0,0.1838913292600961
644.0,0.18402399902801458
643.0,0.1842894602110372
642.0,0.18468795647564096
641.0,0.18575240426807982
640.0,0.1875545971272441
639.0,0.18922998876563635
638.0,0.19084446825281964
637.0,0.19334527600813955
636.0,0.1969527895088714
635.0,0.20003947259401644
634.0,0.2009352806489919
633.0,0.19990181982522426
632.0,0.1981848314185628
631.0,0.1960651501361581
630.0,0.19409154492580294
629.0,0.1930742231162681
628.0,0.19314197048118253
627.0,0.1935486767527379
626.0,0.19341306567219707
625.0,0.192938760082761
624.0,0.19232969876951622
623.0,0.191383964573008
622.0,0.19050762306265812
621.0,0.1902383348928749
620.0,0.19077707831057822
619.0,0.191383964573008
618.0,0.1920592787845008
617.0,0.1930742231162681
616.0,0.19429529556613567
615.0,0.19490712165732704
614.0,0.19497515557019485
613.0,0.19531548509305963
612.0,0.19620159201032594
611.0,0.19681611146465805
610.0,0.1974315016860435
609.0,0.19914550849643908
608.0,0.20204035626280392
607.0,0.2046066650687106
606.0,0.20600019901552957
605.0,0.2074682380986923
604.0,0.21041928783557462
603.0,0.21388771628017356
602.0,0.21695442788530706
601.0,0.22011503680735567
600.0,0.22388020094701222
