cm-1,A
4000.0,0.018679826740892747
3999.0,0.018634490921455527
3998.0,0.018634490921455527
3997.0,0.01858915983411169
3996.0,0.01858915983411169
3995.0,0.018543833477873584
3994.0,0.018543833477873584
3993.0,0.01858915983411169
3992.0,0.018634490921455527
3991.0,0.018679826740892747
3990.0,0.018634490921455527
3989.0,0.01858915983411169
3988.0,0.018543833477873584
3987.0,0.018543833477873584
3986.0,0.018543833477873584
3985.0,0.01858915983411169
3984.0,0.01858915983411169
3983.0,0.018543833477873584
3982.0,0.018498511851753108
3981.0,0.018498511851753108
3980.0,0.01845319495476394
3979.0,0.01845319495476394
3978.0,0.01845319495476394
3977.0,0.01845319495476394
3976.0,0.018498511851753108
3975.0,0.01858915983411169
3974.0,0.01858915983411169
3973.0,0.01858915983411169
3972.0,0.018498511851753108
3971.0,0.01845319495476394
3970.0,0.01840788278591865
3969.0,0.018498511851753108
3968.0,0.018634490921455527
3967.0,0.018725167293411005
3966.0,0.018679826740892747
3965.0,0.01858915983411169
3964.0,0.018498511851753108
3963.0,0.01845319495476394
3962.0,0.01845319495476394
3961.0,0.01845319495476394
3960.0,0.018498511851753108
3959.0,0.018498511851753108
3958.0,0.018498511851753108
3957.0,0.018498511851753108
3956.0,0.018543833477873584
3955.0,0.018634490921455527
3954.0,0.018725167293411005
3953.0,0.018815862601645694
3952.0,0.018861217359339655
3951.0,0.018815862601645694
3950.0,0.018725167293411005
3949.0,0.01858915983411169
3948.0,0.018543833477873584
3947.0,0.018498511851753108
3946.0,0.01845319495476394
3945.0,0.01845319495476394
3944.0,0.01840788278591865
3943.0,0.018362575344230914
3942.0,0.018362575344230914
3941.0,0.01845319495476394
3940.0,0.01858915983411169
3939.0,0.018725167293411005
3938.0,0.018770512579999288
3937.0,0.018679826740892747
3936.0,0.018634490921455527
3935.0,0.018634490921455527
3934.0,0.018634490921455527
3933.0,0.018725167293411005
3932.0,0.018725167293411005
3931.0,0.018679826740892747
3930.0,0.018634490921455527
3929.0,0.018634490921455527
3928.0,0.018634490921455527
3927.0,0.018679826740892747
3926.0,0.018679826740892747
3925.0,0.01858915983411169
3924.0,0.018498511851753108
3923.0,0.01840788278591865
3922.0,0.01840788278591865
3921.0,0.01845319495476394
3920.0,0.018498511851753108
3919.0,0.01858915983411169
3918.0,0.018725167293411005
3917.0,0.018770512579999288
3916.0,0.018725167293411005
3915.0,0.018725167293411005
3914.0,0.018770512579999288
3913.0,0.018906576854070378
3912.0,0.01899731005860028
3911.0,0.019042683770379876
3910.0,0.019042683770379876
3909.0,0.01899731005860028
3908.0,0.018906576854070378
3907.0,0.018770512579999288
3906.0,0.018679826740892747
3905.0,0.01858915983411169
3904.0,0.018498511851753108
3903.0,0.01845319495476394
3902.0,0.01845319495476394
3901.0,0.018543833477873584
3900.0,0.018543833477873584
3899.0,0.018543833477873584
3898.0,0.01858915983411169
3897.0,0.018725167293411005
3896.0,0.018815862601645694
3895.0,0.018815862601645694
3894.0,0.018770512579999288
3893.0,0.018770512579999288
3892.0,0.018725167293411005
3891.0,0.01858915983411169
3890.0,0.018543833477873584
3889.0,0.018679826740892747
3888.0,0.018906576854070378
3887.0,0.019042683770379876
3886.0,0.018951941086827073
3885.0,0.018679826740892747
3884.0,0.018498511851753108
3883.0,0.01840788278591865
3882.0,0.01840788278591865
3881.0,0.018362575344230914
3880.0,0.018362575344230914
3879.0,0.01845319495476394
3878.0,0.018634490921455527
3877.0,0.018861217359339655
3876.0,0.018906576854070378
3875.0,0.018725167293411005
3874.0,0.018498511851753108
3873.0,0.01845319495476394
3872.0,0.018634490921455527
3871.0,0.018906576854070378
3870.0,0.018861217359339655
3869.0,0.018634490921455527
3868.0,0.01858915983411169
3867.0,0.018770512579999288
3866.0,0.018951941086827073
3865.0,0.01899731005860028
3864.0,0.01899731005860028
3863.0,0.01899731005860028
3862.0,0.018951941086827073
3861.0,0.018906576854070378
3860.0,0.018815862601645694
3859.0,0.018725167293411005
3858.0,0.01858915983411169
3857.0,0.018498511851753108
3856.0,0.01845319495476394
3855.0,0.018679826740892747
3854.0,0.019042683770379876
3853.0,0.018951941086827073
3852.0,0.018770512579999288
3851.0,0.018951941086827073
3850.0,0.019133445417920836
3849.0,0.019133445417920836
3848.0,0.01899731005860028
3847.0,0.018906576854070378
3846.0,0.018861217359339655
3845.0,0.018815862601645694
3844.0,0.018725167293411005
3843.0,0.018634490921455527
3842.0,0.018543833477873584
3841.0,0.018498511851753108
3840.0,0.018498511851753108
3839.0,0.01858915983411169
3838.0,0.01858915983411169
3837.0,0.01858915983411169
3836.0,0.018679826740892747
3835.0,0.018861217359339655
3834.0,0.01899731005860028
3833.0,0.019042683770379876
3832.0,0.01899731005860028
3831.0,0.018906576854070378
3830.0,0.018906576854070378
3829.0,0.01899731005860028
3828.0,0.019042683770379876
3827.0,0.01899731005860028
3826.0,0.018861217359339655
3825.0,0.018815862601645694
3824.0,0.018861217359339655
3823.0,0.01899731005860028
3822.0,0.019042683770379876
3821.0,0.018815862601645694
3820.0,0.018543833477873584
3819.0,0.01858915983411169
3818.0,0.018815862601645694
3817.0,0.018951941086827073
3816.0,0.018861217359339655
3815.0,0.018770512579999288
3814.0,0.018951941086827073
3813.0,0.019178833355664393
3812.0,0.019269623464054586
3811.0,0.019178833355664393
3810.0,0.0190880622231564
3809.0,0.019133445417920836
3808.0,0.0192242260373785
3807.0,0.019133445417920836
3806.0,0.01899731005860028
3805.0,0.019042683770379876
3804.0,0.019178833355664393
3803.0,0.019315025636685412
3802.0,0.0192242260373785
3801.0,0.018951941086827073
3800.0,0.018770512579999288
3799.0,0.018951941086827073
3798.0,0.019133445417920836
3797.0,0.019133445417920836
3796.0,0.019042683770379876
3795.0,0.01899731005860028
3794.0,0.019133445417920836
3793.0,0.019269623464054586
3792.0,0.019315025636685412
3791.0,0.019315025636685412
3790.0,0.019315025636685412
3789.0,0.019269623464054586
3788.0,0.019269623464054586
3787.0,0.019315025636685412
3786.0,0.019360432556262852
3785.0,0.019360432556262852
3784.0,0.0192242260373785
3783.0,0.019133445417920836
3782.0,0.0190880622231564
3781.0,0.0190880622231564
3780.0,0.0190880622231564
3779.0,0.0190880622231564
3778.0,0.0190880622231564
3777.0,0.019178833355664393
3776.0,0.0192242260373785
3775.0,0.0192242260373785
3774.0,0.019178833355664393
3773.0,0.0192242260373785
3772.0,0.019269623464054586
3771.0,0.019315025636685412
3770.0,0.0192242260373785
3769.0,0.019178833355664393
3768.0,0.0192242260373785
3767.0,0.019360432556262852
3766.0,0.019360432556262852
3765.0,0.0192242260373785
3764.0,0.0190880622231564
3763.0,0.0190880622231564
3762.0,0.019133445417920836
3761.0,0.019178833355664393
3760.0,0.019133445417920836
3759.0,0.019133445417920836
3758.0,0.019042683770379876
3757.0,0.01899731005860028
3756.0,0.019042683770379876
3755.0,0.019042683770379876
3754.0,0.01899731005860028
3753.0,0.018861217359339655
3752.0,0.018815862601645694
3751.0,0.018815862601645694
3750.0,0.018815862601645694
3749.0,0.018815862601645694
3748.0,0.019042683770379876
3747.0,0.019451260640229506
3746.0,0.019769308608968306
3745.0,0.019860222254245663
3744.0,0.019632973815224997
3743.0,0.01949668180660491
3742.0,0.019678413991243593
3741.0,0.019723858922159776
3740.0,0.01949668180660491
3739.0,0.0192242260373785
3738.0,0.0190880622231564
3737.0,0.019133445417920836
3736.0,0.0192242260373785
3735.0,0.0192242260373785
3734.0,0.019178833355664393
3733.0,0.019269623464054586
3732.0,0.019451260640229506
3731.0,0.019632973815224997
3730.0,0.019860222254245663
3729.0,0.02004210665933459
3728.0,0.02004210665933459
3727.0,0.01995115493504329
3726.0,0.019723858922159776
3725.0,0.01949668180660491
3724.0,0.019451260640229506
3723.0,0.019451260640229506
3722.0,0.01949668180660491
3721.0,0.01958753839310856
3720.0,0.019723858922159776
3719.0,0.019814763052665052
3718.0,0.019814763052665052
3717.0,0.019814763052665052
3716.0,0.019769308608968306
3715.0,0.019814763052665052
3714.0,0.01990568621470623
3713.0,0.020178569969774962
3712.0,0.020542681902151694
3711.0,0.020770406977844713
3710.0,0.020724852408976924
3709.0,0.02067930261797568
3708.0,0.020633757603838898
3707.0,0.02067930261797568
3706.0,0.02067930261797568
3705.0,0.020724852408976924
3704.0,0.020724852408976924
3703.0,0.020770406977844713
3702.0,0.02081596632558158
3701.0,0.020861530453190058
3700.0,0.0209982515252789
3699.0,0.0211806132671577
3698.0,0.02140867317992523
3697.0,0.0214542995372613
3696.0,0.0214542995372613
3695.0,0.0214542995372613
3694.0,0.021499930688540836
3693.0,0.021499930688540836
3692.0,0.021499930688540836
3691.0,0.021545566634771474
3690.0,0.021636852916117055
3689.0,0.021773818325474092
3688.0,0.021910826943857264
3687.0,0.02227639471115217
3686.0,0.022642270454698687
3685.0,0.02282532397981263
3684.0,0.022871099419317753
3683.0,0.02277955336461468
3682.0,0.02282532397981263
3681.0,0.02282532397981263
3680.0,0.022871099419317753
3679.0,0.02291687968414724
3678.0,0.02314585342378117
3677.0,0.02355831062115543
3676.0,0.023787622882622816
3675.0,0.023604163388120325
3674.0,0.023466619608062178
3673.0,0.023695883447997224
3672.0,0.02406295751688936
3671.0,0.024338466818941473
3670.0,0.024568191490736968
3669.0,0.02475205875931885
3668.0,0.025074013910237447
3667.0,0.02553436426275746
3666.0,0.025949097207122573
3665.0,0.026225806029419818
3664.0,0.026502691267936695
3663.0,0.026733563891471412
3662.0,0.027010773144651168
3661.0,0.02724191609646076
3660.0,0.027426919073445077
3659.0,0.027612000892527133
3658.0,0.027797161620935595
3657.0,0.02798240132598462
3656.0,0.02812138297373412
3655.0,0.028214062120885508
3654.0,0.028353117935693284
3653.0,0.02849221828874393
3652.0,0.02858497661500481
3651.0,0.029002634427514717
3650.0,0.029792641193145286
3649.0,0.030444315779156517
3648.0,0.03081714076773867
3647.0,0.031143625385307683
3646.0,0.031563752288295444
3645.0,0.03207779326948268
3644.0,0.032545631817259224
3643.0,0.032920265855503006
3642.0,0.033295223342125535
3641.0,0.03367050483612166
3640.0,0.034046110897937076
3639.0,0.034469056377139484
3638.0,0.03484535401307465
3637.0,0.03517488211661135
3636.0,0.03555179208333925
3635.0,0.03592902944204468
3634.0,0.03625938114211591
3633.0,0.036542739883292485
3632.0,0.03682628362474838
3631.0,0.037299268295658994
3630.0,0.03810452633214956
3629.0,0.039006291057664066
3628.0,0.03957679292217042
3627.0,0.0400527842915015
3626.0,0.04057697805689475
3625.0,0.040958607678906356
3624.0,0.041101805289228244
3623.0,0.041149548320321694
3622.0,0.04129280891271536
3621.0,0.041627267521392675
3620.0,0.04229695845116854
3619.0,0.0431115453499229
3618.0,0.0437835307566099
3617.0,0.044360346976747955
3616.0,0.04488976902944808
3615.0,0.04541983725624266
3614.0,0.04585401117045196
3613.0,0.04628861957244457
3612.0,0.04672366333269573
3611.0,0.04720755695590784
3610.0,0.0478374257855374
3609.0,0.0486139051197072
3608.0,0.049294465226138895
3607.0,0.04987865248862655
3606.0,0.05026854768429301
3605.0,0.0506099933550872
3604.0,0.05100054597304693
3603.0,0.05144033789103841
3602.0,0.05197846685889629
3601.0,0.05256627811294923
3600.0,0.0531548860393769
3599.0,0.05369514500652506
3598.0,0.054186873412661596
3597.0,0.05462990550969615
3596.0,0.055122694036304765
3595.0,0.05566540802921782
3594.0,0.05625823416868636
3593.0,0.05680236993107379
3592.0,0.05724807957018618
3591.0,0.05754547365752294
3590.0,0.05784307153250956
3589.0,0.0583395216116076
3588.0,0.059135024033278416
3587.0,0.05993198626064755
3586.0,0.06063052992534024
3585.0,0.06128018521761747
3584.0,0.061880730805688344
3583.0,0.062381820606176586
3582.0,0.06278310913729457
3581.0,0.06323500239005853
3580.0,0.0636873663378068
3579.0,0.06419054619006714
3578.0,0.06469430971007495
3577.0,0.06519865825346338
3576.0,0.06575411897692884
3575.0,0.0663102910421054
3574.0,0.06681652082538614
3573.0,0.06727263269847072
3572.0,0.0676277178520861
3571.0,0.0678307540792078
3570.0,0.06803388527182741
3569.0,0.06844043290919477
3568.0,0.06925467168888666
3567.0,0.07022356719509815
3566.0,0.0710411591191702
3565.0,0.07160414774328627
3564.0,0.07211658966929302
3563.0,0.07262963696097646
3562.0,0.07314329105030759
3561.0,0.07376047895413773
3560.0,0.07437854520917098
3559.0,0.07504911108438939
3558.0,0.07572071393811841
3557.0,0.07623803917129979
3556.0,0.07670415934449615
3555.0,0.07706704344478843
3554.0,0.07753405470158659
3553.0,0.07810552907089763
3552.0,0.07867775641617802
3551.0,0.07919861817434581
3550.0,0.07956359344924135
3549.0,0.07992887570247587
3548.0,0.08039897621588898
3547.0,0.08107890990866418
3546.0,0.08186477383364066
3545.0,0.08270459905431071
3544.0,0.0833881548906541
3543.0,0.08407278830288423
3542.0,0.08470571697731355
3541.0,0.08523386307414738
3540.0,0.08576265223225898
3539.0,0.086239113587677
3538.0,0.0867160982395816
3537.0,0.0872997918091396
3536.0,0.08799062441302175
3535.0,0.08857603462370545
3534.0,0.08910891135547172
3533.0,0.08948231448273347
3532.0,0.08985603893548699
3531.0,0.09028354676565531
3530.0,0.09087205801073917
3529.0,0.09151498112135026
3528.0,0.0922125568893839
3527.0,0.09296504751658308
3526.0,0.09361107884716913
3525.0,0.09431203228814788
3524.0,0.09506817260434741
3523.0,0.0957714836599215
3522.0,0.0964759355287379
3521.0,0.09707290398273716
3520.0,0.09767069414168117
3519.0,0.09826930827078129
3518.0,0.09892328427374508
3517.0,0.09957824654226233
3516.0,0.10017949757290379
3515.0,0.10072681268239614
3514.0,0.10127481841050656
3513.0,0.10182351650232357
3512.0,0.10242788617426934
3511.0,0.10325338439259446
3510.0,0.10413564875270076
3509.0,0.10496440254767725
3508.0,0.10562854614376227
3507.0,0.1060718734573931
3506.0,0.10651565378151395
3505.0,0.10707101764479421
3504.0,0.10779405402422748
3503.0,0.10868560061785693
3502.0,0.10952309103982927
3501.0,0.11030620855581463
3500.0,0.11097857790477517
3499.0,0.1117081546434846
3498.0,0.11238269966426384
3497.0,0.11311464101399138
3496.0,0.11390426756225258
3495.0,0.11469533241103202
3494.0,0.11548784080960606
3493.0,0.11616828667054757
3492.0,0.11679296664760996
3491.0,0.11741854644554883
3490.0,0.11804502866039956
3489.0,0.11872949607064243
3488.0,0.11947222180119477
3487.0,0.12027350336042275
3486.0,0.12101887660626365
3485.0,0.12176553132495593
3484.0,0.12245589228405596
3483.0,0.12314735239865637
3482.0,0.12389767862220635
3481.0,0.12470717462899183
3480.0,0.12551818230053358
3479.0,0.1263307072932056
3478.0,0.12714475529518965
3477.0,0.1280186461566306
3476.0,0.12889429901441463
3475.0,0.12971317100740865
3474.0,0.13053358991913355
3473.0,0.1312967977214634
3472.0,0.1320613491092153
3471.0,0.13282724882135022
3470.0,0.13359450162194508
3469.0,0.13436311230037123
3468.0,0.13519237097385295
3467.0,0.1360232160956132
3466.0,0.1367961409713705
3465.0,0.13751083309410284
3464.0,0.13828641242856565
3463.0,0.1390633792999063
3462.0,0.13990167030148193
3461.0,0.1408016384661226
3460.0,0.14164329470222659
3459.0,0.14248658522331015
3458.0,0.1432711096171173
3457.0,0.1441175699639643
3456.0,0.14496568332411575
3455.0,0.14581545616639335
3454.0,0.1466060225493342
3453.0,0.14733705565543076
3452.0,0.14813039927023364
3451.0,0.1489251947711132
3450.0,0.14978275820161047
3449.0,0.15064201833870117
3448.0,0.1515029819096334
3447.0,0.15236565568174498
3446.0,0.15323004646278116
3445.0,0.15403423845451636
3444.0,0.15490195998574308
3443.0,0.1558335895497993
3442.0,0.15682953548010214
3441.0,0.15776531365276036
3440.0,0.15870311250971825
3439.0,0.15958022226351387
3438.0,0.16045910703103106
3437.0,0.16127680996862814
3436.0,0.16222223044626682
3435.0,0.16310648362356628
3434.0,0.16405589990615188
3433.0,0.16494389827988365
3432.0,0.16589734428720626
3431.0,0.16685288808721488
3430.0,0.16774662980299215
3429.0,0.1686422145579325
3428.0,0.16960382351653092
3427.0,0.17056756638240134
3426.0,0.1714689933548985
3425.0,0.17224313702138327
3424.0,0.17295398299526576
3423.0,0.17373078060627378
3422.0,0.17457388223217696
3421.0,0.17561379768122598
3420.0,0.17678668671733244
3419.0,0.1778973313530796
3418.0,0.17887967622317635
3417.0,0.17979854051435984
3416.0,0.180587688790675
3415.0,0.18131233655848633
3414.0,0.18210424283820448
3413.0,0.18289759574307696
3412.0,0.1838250095711984
3411.0,0.1847544080834369
3410.0,0.18561920553006184
3409.0,0.18641901143180806
3408.0,0.1871534630329288
3407.0,0.1878891587969005
3406.0,0.18869315991866387
3405.0,0.1894986522334703
3404.0,0.1902383348928749
3403.0,0.19091186865365373
3402.0,0.19158644859963192
3401.0,0.19226207798589923
3400.0,0.1928710444075783
3399.0,0.1935486767527379
3398.0,0.19429529556613567
3397.0,0.19497515557019485
3396.0,0.19579239491795852
3395.0,0.19654288435158618
3394.0,0.19715788726092565
3393.0,0.1977052886025361
3392.0,0.1981162928747604
3391.0,0.1985276864785288
3390.0,0.19887081242029603
3389.0,0.19935164463601196
3388.0,0.19976421067264605
3387.0,0.200246033588114
3386.0,0.20065945054641832
3385.0,0.20107326142279858
3384.0,0.2016256233184388
3383.0,0.20210951694165114
3382.0,0.20259395032361804
3381.0,0.20294030530002893
3380.0,0.2032175882986922
3379.0,0.20342566678957041
3378.0,0.2036338450224786
3377.0,0.20384212309308558
3376.0,0.2040505010971967
3375.0,0.2043980201058202
3374.0,0.2046066650687106
3373.0,0.20481541031757589
3372.0,0.20502425594886842
3371.0,0.20509389348319607
3370.0,0.20516354218543853
3369.0,0.20523320205917894
3368.0,0.20523320205917894
3367.0,0.20523320205917894
3366.0,0.20530287310800133
3365.0,0.20537255533549192
3364.0,0.20551195334083028
3363.0,0.20565139610391725
3362.0,0.20579088365350362
3361.0,0.20579088365350362
3360.0,0.20572113427860006
3359.0,0.20558166912585896
3358.0,0.20537255533549192
3357.0,0.20523320205917894
3356.0,0.20509389348319607
3355.0,0.2049546295788751
3354.0,0.20488501436963658
3353.0,0.20488501436963658
3352.0,0.20481541031757589
3351.0,0.20474581741911724
3350.0,0.2046066650687106
3349.0,0.20446755728984556
3348.0,0.2043980201058202
3347.0,0.20432849405397824
3346.0,0.20418947533259169
3345.0,0.20398103065285067
3344.0,0.2037726859705613
3343.0,0.20342566678957041
3342.0,0.20307892466983124
3341.0,0.20280173016104097
3340.0,0.20259395032361804
3339.0,0.20238626984692432
3338.0,0.20210951694165114
3337.0,0.20183294028406085
3336.0,0.2016256233184388
3335.0,0.2014874669686484
3334.0,0.20121128604875071
3333.0,0.2009352806489919
3332.0,0.20065945054641832
3331.0,0.20031490909089955
3330.0,0.19997064075586568
3329.0,0.19955787866374353
3328.0,0.19921420967223735
3327.0,0.19880216554085117
3326.0,0.1983905119726812
3325.0,0.19797924822802404
3324.0,0.1976368256904526
3323.0,0.19729467292564795
3322.0,0.1969527895088714
3321.0,0.19661117501638659
3320.0,0.1962698290254561
3319.0,0.19592875111433883
3318.0,0.19558794086228604
3317.0,0.19531548509305963
3316.0,0.19504320014250842
3315.0,0.19477108579657387
3314.0,0.1944311824514442
3313.0,0.19409154492580294
3312.0,0.19368433019188647
3311.0,0.1932097284159331
3310.0,0.1928033392890527
3309.0,0.19232969876951622
3308.0,0.19185657423850877
3307.0,0.19151894343404896
3306.0,0.19111413264018795
3305.0,0.19077707831057822
3304.0,0.19044028536473223
3303.0,0.19003647828598602
3302.0,0.18963304631837485
3301.0,0.18916284885951162
3300.0,0.1887602272467106
3299.0,0.188357978546849
3298.0,0.188023055663046
3297.0,0.18768839086887623
3296.0,0.18735398376688117
3295.0,0.18695303483989223
3294.0,0.18655245573517876
3293.0,0.1862189218259176
3292.0,0.185819018959813
3291.0,0.1854860476317619
3290.0,0.1851533313955367
3289.0,0.18482086986058133
3288.0,0.18455508375564977
3287.0,0.18422307970163732
3286.0,0.18395765907800343
3285.0,0.18362611124763806
3284.0,0.18329481633348466
3283.0,0.182963773949971
3282.0,0.18256685588861554
3281.0,0.18236853280948462
3280.0,0.18210424283820448
3279.0,0.18190613085336405
3278.0,0.1815101777957866
3277.0,0.18111458540599013
3276.0,0.18078520011761579
3275.0,0.180587688790675
3274.0,0.18039026724841478
3273.0,0.18025870272698952
3272.0,0.18019293540924397
3271.0,0.18006143064460467
3270.0,0.17979854051435984
3269.0,0.17953580942231584
3268.0,0.17927323717616583
3267.0,0.1789452449531117
3266.0,0.17868302940890257
3265.0,0.1784864715952268
3264.0,0.17835548245778288
3263.0,0.17829000270162365
3262.0,0.17822453281653639
3261.0,0.17809362264767703
3260.0,0.17802818235795725
3259.0,0.17796275192741495
3258.0,0.1778319206319825
3257.0,0.17776651976115598
3256.0,0.17763574755845046
3255.0,0.17763574755845046
3254.0,0.17763574755845046
3253.0,0.1775703762206431
3252.0,0.17743966305730785
3251.0,0.17730898922394545
3250.0,0.17711305216584927
3249.0,0.1769172034671962
3248.0,0.17672144304832926
3247.0,0.1764605663431411
3246.0,0.17619984625012197
3245.0,0.17600440884403223
3244.0,0.17580905934741686
3243.0,0.1755487299633871
3242.0,0.17528855653526554
3241.0,0.17496355877864622
3240.0,0.17463880404736676
3239.0,0.17431429197824166
3238.0,0.17386038206408516
3237.0,0.17347169365934856
3236.0,0.1730833528150797
3235.0,0.1726953589102651
3234.0,0.17224313702138327
3233.0,0.17179138553205453
3232.0,0.17121125181504682
3231.0,0.17069622716897515
3230.0,0.1701175535565067
3229.0,0.16953964996903292
3228.0,0.16902660267734948
3227.0,0.1685141607513425
3226.0,0.16806626953325465
3225.0,0.1675549588258891
3224.0,0.16698045292346864
3223.0,0.16627930955536674
3222.0,0.16557929631846746
3221.0,0.16488040957545036
3220.0,0.16424603248061653
3219.0,0.1637391971415132
3218.0,0.16323295260579473
3217.0,0.16272729749769965
3216.0,0.16222223044626682
3215.0,0.16171775008531153
3214.0,0.16115090926274478
3213.0,0.16058480731610647
3212.0,0.15989390554324223
3211.0,0.15926676538819318
3210.0,0.15864052954514496
3209.0,0.15801519540988607
3208.0,0.157390760389438
3207.0,0.15676722190199066
3206.0,0.1560823619936076
3205.0,0.15546069787099204
3204.0,0.15490195998574308
3203.0,0.1542200328881107
3202.0,0.1535391748706676
3201.0,0.1527358982292355
3200.0,0.1519957285027318
3199.0,0.1513798825658661
3198.0,0.15076490868527737
3197.0,0.15027355580367208
3196.0,0.1497214474819628
3195.0,0.1491088158640761
3194.0,0.14837479684669086
3193.0,0.14764201633217278
3192.0,0.14703230897118158
3191.0,0.14642345638035836
3190.0,0.14575470293388149
3189.0,0.14502632627358292
3188.0,0.14429916916456276
3187.0,0.14363367634075197
3186.0,0.14296920172737604
3185.0,0.14230574221345038
3184.0,0.1415831222765116
3183.0,0.14086170270546927
3182.0,0.14014147951900724
3181.0,0.1394224487555844
3180.0,0.1387643813659596
3179.0,0.13816700234205515
3178.0,0.13763006287711765
3177.0,0.1370342410222376
3176.0,0.1363797797296844
3175.0,0.13572630319562085
3174.0,0.1349552783069008
3173.0,0.1341264717921853
3172.0,0.13341732293645103
3171.0,0.13265038281120756
3170.0,0.13200248965504868
3169.0,0.1312967977214634
3168.0,0.13070959579060148
3167.0,0.13012318673323353
3166.0,0.12953756841108
3165.0,0.12895273869450063
3164.0,0.12836869546244634
3163.0,0.12778543660241448
3162.0,0.12720296001040166
3161.0,0.12656313677796316
3160.0,0.12592425477696523
3159.0,0.12517042212027807
3158.0,0.12441789567211425
3157.0,0.1236666709136196
3156.0,0.12291674334934943
3155.0,0.12216810850710624
3154.0,0.12147820449879343
3153.0,0.1207893947082408
3152.0,0.12015894401343741
3151.0,0.11947222180119477
3150.0,0.11884367892443626
3149.0,0.11821604440661537
3148.0,0.1175323851046286
3147.0,0.11684980031672243
3146.0,0.11616828667054757
3145.0,0.11537453674376552
3144.0,0.11469533241103202
3143.0,0.11396072443355765
3142.0,0.1133401021387972
3141.0,0.11277666863747693
3140.0,0.11221396516162851
3139.0,0.1117081546434846
3138.0,0.11120293254331926
3137.0,0.1106422631110684
3136.0,0.11008231656379408
3135.0,0.10941133229451272
3134.0,0.10879717273970457
3133.0,0.1081838804751396
3132.0,0.10757145305477
3131.0,0.10695988804288215
3130.0,0.1062937069352865
3129.0,0.10557316203581202
3128.0,0.10485381062400778
3127.0,0.10419084983086901
3126.0,0.10352889952072264
3125.0,0.10292299679057959
3124.0,0.10231793820358015
3123.0,0.1017686154869033
3122.0,0.1012199867101744
3121.0,0.10067205012234592
3120.0,0.10017949757290379
3119.0,0.09963287134352972
3118.0,0.09914149529800831
3117.0,0.09865067458435761
3116.0,0.09810596802617932
3115.0,0.09761631556752848
3114.0,0.09712721455392082
3113.0,0.09663866374468144
3112.0,0.096150661903319
3111.0,0.09571734235437201
3110.0,0.09528445472131919
3109.0,0.09496007192378841
3108.0,0.09474395125154866
3107.0,0.09447395156495153
3106.0,0.09420411963213149
3105.0,0.09388054245443844
3104.0,0.09344948089854999
3103.0,0.09296504751658308
3102.0,0.09242742120144909
3101.0,0.09183679994445204
3100.0,0.09124698081546634
3099.0,0.0905509530187334
3098.0,0.08985603893548699
3097.0,0.0892155652071629
3096.0,0.08868255767596933
3095.0,0.08825662214406838
3094.0,0.08799062441302175
3093.0,0.0877779434675845
3092.0,0.08767164203958999
3091.0,0.08756536662442538
3090.0,0.08761850108119962
3089.0,0.0877779434675845
3088.0,0.0880970039559672
3087.0,0.08857603462370545
3086.0,0.08910891135547172
3085.0,0.08953568400438638
3084.0,0.08974922769985194
3083.0,0.08980263003399913
3082.0,0.08958906008531176
3081.0,0.08910891135547172
3080.0,0.08836306687055773
3079.0,0.08740600224789441
3078.0,0.08634506491338012
3077.0,0.08528671302637614
3076.0,0.08433639649422697
3075.0,0.08359869639612438
3074.0,0.08296737783760655
3073.0,0.08244197917456386
3072.0,0.08202211740709164
3071.0,0.08175990977858505
3070.0,0.08160266115629988
3069.0,0.08170748724464438
3068.0,0.08191721535781271
3067.0,0.08228448344050654
3066.0,0.08275714209253371
3065.0,0.08333553545860273
3064.0,0.08396738981143059
3063.0,0.08460016478773014
3062.0,0.08507535179485148
3061.0,0.08528671302637614
3060.0,0.08523386307414738
3059.0,0.08486409337798806
3058.0,0.08423093401631587
3057.0,0.08333553545860273
3056.0,0.08228448344050654
3055.0,0.08113125661901543
3054.0,0.07998108397108505
3053.0,0.07883394936226118
3052.0,0.0777417765670334
3051.0,0.07680780957933253
3050.0,0.07587584681417514
3049.0,0.07510073598571654
3048.0,0.07432700607875953
3047.0,0.07360609973031784
3046.0,0.0729891310243489
3045.0,0.07237303755504598
3044.0,0.07186029312488018
3043.0,0.07150173187630915
3042.0,0.07124579782334672
3041.0,0.07109230975604719
3040.0,0.07109230975604719
3039.0,0.07119462910671581
3038.0,0.07145053299833615
3037.0,0.07186029312488018
3036.0,0.07242434530888953
3035.0,0.0732460948102629
3034.0,0.07432700607875953
3033.0,0.07572071393811841
3032.0,0.07743023101428781
3031.0,0.0794071379151915
3030.0,0.08149786036382611
3029.0,0.08359869639612438
3028.0,0.08549817717268593
3027.0,0.08698131625203986
3026.0,0.08788427092114603
3025.0,0.0880970039559672
3024.0,0.08756536662442538
3023.0,0.08639805027084257
3022.0,0.08460016478773014
3021.0,0.08244197917456386
3020.0,0.08013774644446192
3019.0,0.07784567476894111
3018.0,0.07572071393811841
3017.0,0.07381195089279391
3016.0,0.07211658966929302
3015.0,0.07063217075990047
3014.0,0.06935655895783555
3013.0,0.06828793294324442
3012.0,0.06737405597821788
3011.0,0.06661395809694559
3010.0,0.06600683616875758
3009.0,0.0655520510510299
3008.0,0.06524912533642091
3007.0,0.06504729218214189
3006.0,0.06499684854634524
3005.0,0.06499684854634524
3004.0,0.06499684854634524
3003.0,0.06499684854634524
3002.0,0.06489597884855036
3001.0,0.06459351024765114
3000.0,0.06414020196211956
2999.0,0.06358680028852026
2998.0,0.06293368798257193
2997.0,0.06218131530164395
2996.0,0.061380218497318895
2995.0,0.060530669156469985
2994.0,0.05978244440026481
2993.0,0.05918479134919874
2992.0,0.058737090681050264
2991.0,0.0583891978463662
2990.0,0.05799194697768684
2989.0,0.0575950591438934
2988.0,0.057198533682059516
2987.0,0.0567528748621382
2986.0,0.05635711724787096
2985.0,0.05601112492622806
2984.0,0.05571477931124735
2983.0,0.05541863577307371
2982.0,0.055122694036304765
2981.0,0.054876229877880656
2980.0,0.05462990550969615
2979.0,0.05448217792216048
2978.0,0.05428528594013993
2977.0,0.05413767551038262
2976.0,0.05399011523423525
2975.0,0.05379344615721715
2974.0,0.053646002773725554
2973.0,0.053449489430144714
2972.0,0.053351266093323746
2971.0,0.053203972728539606
2970.0,0.0531548860393769
2969.0,0.05310580489767336
2968.0,0.05310580489767336
2967.0,0.05310580489767336
2966.0,0.05310580489767336
2965.0,0.0531548860393769
2964.0,0.0531548860393769
2963.0,0.0531548860393769
2962.0,0.0531548860393769
2961.0,0.0531548860393769
2960.0,0.0531548860393769
2959.0,0.0531548860393769
2958.0,0.0531548860393769
2957.0,0.05305672930217464
2956.0,0.05305672930217464
2955.0,0.05310580489767336
2954.0,0.053203972728539606
2953.0,0.05340037498486727
2952.0,0.053596866100945384
2951.0,0.05379344615721715
2950.0,0.05394093961487645
2949.0,0.054186873412661596
2948.0,0.05453141486818014
2947.0,0.0549255115212699
2946.0,0.05536929814372171
2945.0,0.05586292684190197
2944.0,0.05635711724787096
2943.0,0.056950888991593285
2942.0,0.05754547365752294
2941.0,0.05824018618530458
2940.0,0.05908526241971446
2939.0,0.060081579630943294
2938.0,0.06118017497378969
2937.0,0.06243196139961715
2936.0,0.06373765809652254
2935.0,0.06509774167768612
2934.0,0.0665127121512945
2933.0,0.06793230779927839
2932.0,0.06940751155740177
2931.0,0.07083661679493547
2930.0,0.07216786713341827
2929.0,0.0734517753643813
2928.0,0.07458476291575367
2927.0,0.0756173227980268
2926.0,0.07649693305789551
2925.0,0.0772226580712021
2924.0,0.07789763319239285
2923.0,0.07841755960658348
2922.0,0.07872981449018734
2921.0,0.07883394936226118
2920.0,0.07872981449018734
2919.0,0.07846958649875768
2918.0,0.07810552907089763
2917.0,0.07763790321520991
2916.0,0.07711890879170658
2915.0,0.07654873036034848
2914.0,0.07592757008963713
2913.0,0.07525564752005143
2912.0,0.07458476291575367
2911.0,0.07376047895413773
2910.0,0.07293775650699996
2909.0,0.0720140529005715
2908.0,0.07109230975604719
2907.0,0.07022356719509815
2906.0,0.06935655895783555
2905.0,0.0685421293109949
2904.0,0.06772922410050963
2903.0,0.06696850489759454
2902.0,0.06610796423578891
2901.0,0.06519865825346338
2900.0,0.06424089625468832
2899.0,0.06328524178879635
2898.0,0.062331685600995
2897.0,0.06148027482350815
2896.0,0.060730413661268745
2895.0,0.06003170944866376
2894.0,0.05933412752417122
2893.0,0.058737090681050264
2892.0,0.05814087347462649
2891.0,0.0575950591438934
2890.0,0.057000406633959555
2889.0,0.056456022846545606
2888.0,0.055961719945581745
2887.0,0.05541863577307371
2886.0,0.0549255115212699
2885.0,0.05438372077326825
2884.0,0.053842605077627725
2883.0,0.05330216275425803
2882.0,0.05286048235717078
2881.0,0.0525172634430815
2880.0,0.05217431555754937
2879.0,0.05178270644002936
2878.0,0.05139145012356372
2877.0,0.05100054597304693
2876.0,0.05065879322950262
2875.0,0.05036607620073763
2874.0,0.05012229596312534
2873.0,0.04987865248862655
2872.0,0.04973253198641148
2871.0,0.04953778109440221
2870.0,0.04934311749548925
2869.0,0.04919717703534143
2868.0,0.04905128560059957
2867.0,0.04900266601119507
2866.0,0.04900266601119507
2865.0,0.04909991063361274
2864.0,0.049294465226138895
2863.0,0.04958646063061889
2862.0,0.05002482217034632
2861.0,0.050463626623857394
2860.0,0.051049389754451946
2859.0,0.0515870342213991
2858.0,0.05212534510230182
2857.0,0.05271335532220167
2856.0,0.05325306496641513
2855.0,0.053842605077627725
2854.0,0.05428528594013993
2853.0,0.054679159207724926
2852.0,0.05502409158795207
2851.0,0.05522131887649295
2850.0,0.055270639696704205
2849.0,0.055172003656783764
2848.0,0.0549747987575373
2847.0,0.05458065739693696
2846.0,0.05413767551038262
2845.0,0.0534986094304124
2844.0,0.05281143447390635
2843.0,0.05192951848105887
2842.0,0.050902874887084115
2841.0,0.04982994019179987
2840.0,0.04875964967565971
2839.0,0.04778894189133087
2838.0,0.0469171560879138
2837.0,0.04609540658654021
2836.0,0.04527520902093718
2835.0,0.04455278942230456
2834.0,0.0437835307566099
2833.0,0.04315950984076644
2832.0,0.04263219156847242
2831.0,0.042201225070002124
2830.0,0.04186632432376469
2829.0,0.041627267521392675
2828.0,0.041340572947066834
2827.0,0.041101805289228244
2826.0,0.04081545726880842
2825.0,0.04057697805689475
2824.0,0.040338629726504704
2823.0,0.04010041213405646
2822.0,0.039909932095080425
2821.0,0.039719535563357944
2820.0,0.03952922246570112
2819.0,0.039338992729018196
2818.0,0.03919637508823026
2817.0,0.039006291057664066
2816.0,0.038816290187564384
2815.0,0.038673844065289176
2814.0,0.03857890593355173
2813.0,0.038531444649213764
2812.0,0.03848398855105106
2811.0,0.03838909190871931
2810.0,0.03829421599749461
2809.0,0.03824678581321739
2808.0,0.038199360808321536
2807.0,0.038199360808321536
2806.0,0.03810452633214956
2805.0,0.03796231343498735
2804.0,0.03772539537668518
2803.0,0.03753595394209874
2802.0,0.037346595106788616
2801.0,0.03720463014276687
2800.0,0.037062711569998186
2799.0,0.03692083935817303
2798.0,0.03682628362474838
2797.0,0.036731748473764814
2796.0,0.03663723389626394
2795.0,0.03658998431977123
2794.0,0.03649550058570927
2793.0,0.036401037402758574
2792.0,0.03625938114211591
2791.0,0.03616496929785207
2790.0,0.0360705779734416
2789.0,0.03602339000339416
2788.0,0.03588185684851508
2787.0,0.03578752703018084
2786.0,0.03559892883726867
2785.0,0.03550466044490741
2784.0,0.035363296211498474
2783.0,0.03531618502395939
2782.0,0.03526907894637077
2781.0,0.03531618502395939
2780.0,0.03531618502395939
2779.0,0.03531618502395939
2778.0,0.03522197797762394
2777.0,0.03508070571335731
2776.0,0.03503362516890207
2775.0,0.0349394793888016
2774.0,0.03489241415094413
2773.0,0.03479829897408804
2772.0,0.03470420418834386
2771.0,0.03456310022373987
2770.0,0.03442204208947208
2769.0,0.03432802877989327
2768.0,0.03423403581731388
2767.0,0.03414006319292828
2766.0,0.03409308450480819
2765.0,0.034046110897937076
2764.0,0.03399914237121604
2763.0,0.03399914237121604
2762.0,0.033952178923546183
2761.0,0.033905220553829274
2760.0,0.03385826726096752
2759.0,0.03376437590141812
2758.0,0.03371743783253667
2757.0,0.03362357691107709
2756.0,0.03352973627071565
2755.0,0.033482823553208085
2754.0,0.03343591590268957
2753.0,0.03343591590268957
2752.0,0.03338901331806565
2751.0,0.03334211579824231
2750.0,0.03334211579824231
2749.0,0.033295223342125535
2748.0,0.0332483359486222
2747.0,0.033201453616638954
2746.0,0.033201453616638954
2745.0,0.033201453616638954
2744.0,0.033154576345083564
2743.0,0.03310770413286357
2742.0,0.033060836978886954
2741.0,0.03301397488206215
2740.0,0.0329671178412978
2739.0,0.032920265855503006
2738.0,0.03282657704446046
2737.0,0.03273290844021437
2736.0,0.032686081712916426
2735.0,0.032686081712916426
2734.0,0.032686081712916426
2733.0,0.03263926003405038
2732.0,0.032592443402527316
2731.0,0.032545631817259224
2730.0,0.03245202378113787
2729.0,0.03240522732811035
2728.0,0.03235843591698884
2727.0,0.032311649546687526
2726.0,0.032311649546687526
2725.0,0.032311649546687526
2724.0,0.032311649546687526
2723.0,0.03226486821611996
2722.0,0.032218091924200776
2721.0,0.03217132066984485
2720.0,0.032124554451966825
2719.0,0.03207779326948268
2718.0,0.032031037121307726
2717.0,0.031984286006358165
2716.0,0.03193753992355086
2715.0,0.03189079887180224
2714.0,0.03184406285002961
2713.0,0.03184406285002961
2712.0,0.03184406285002961
2711.0,0.03184406285002961
2710.0,0.03184406285002961
2709.0,0.03184406285002961
2708.0,0.03175060589208267
2707.0,0.03170388495374454
2706.0,0.031657169041054534
2705.0,0.03161045815293173
2704.0,0.031563752288295444
2703.0,0.03147035562516054
2702.0,0.03147035562516054
2701.0,0.03142366482450232
2700.0,0.03142366482450232
2699.0,0.03137697904301118
2698.0,0.03133029827960798
2697.0,0.03128362253321426
2696.0,0.031236951802751545
2695.0,0.031236951802751545
2694.0,0.031190286087141805
2693.0,0.031190286087141805
2692.0,0.031143625385307683
2691.0,0.031143625385307683
2690.0,0.031096969696171817
2689.0,0.03105031901865729
2688.0,0.031003673351687855
2687.0,0.030957032694186815
2686.0,0.030910397045078586
2685.0,0.030863766403287585
2684.0,0.030863766403287585
2683.0,0.030863766403287585
2682.0,0.030863766403287585
2681.0,0.030863766403287585
2680.0,0.030863766403287585
2679.0,0.03081714076773867
2678.0,0.030770520137356927
2677.0,0.0307239045110681
2676.0,0.03067729388779794
2675.0,0.03063068826647264
2674.0,0.03063068826647264
2673.0,0.03058408764601861
2672.0,0.030537492025363155
2671.0,0.030490901403433135
2670.0,0.030444315779156517
2669.0,0.030397735151460825
2668.0,0.030397735151460825
2667.0,0.030397735151460825
2666.0,0.030444315779156517
2665.0,0.030490901403433135
2664.0,0.03058408764601861
2663.0,0.03058408764601861
2662.0,0.030490901403433135
2661.0,0.030397735151460825
2660.0,0.03030458888152676
2659.0,0.030211462585061133
2658.0,0.030164906924202484
2657.0,0.030211462585061133
2656.0,0.030211462585061133
2655.0,0.030164906924202484
2654.0,0.030164906924202484
2653.0,0.030164906924202484
2652.0,0.030164906924202484
2651.0,0.030118356253500123
2650.0,0.030118356253500123
2649.0,0.030071810571884017
2648.0,0.03002526987828502
2647.0,0.029978734171634214
2646.0,0.029932203450862893
2645.0,0.029978734171634214
2644.0,0.03002526987828502
2643.0,0.03002526987828502
2642.0,0.03002526987828502
2641.0,0.029978734171634214
2640.0,0.029932203450862893
2639.0,0.029885677714903025
2638.0,0.029839156962686353
2637.0,0.029792641193145286
2636.0,0.029792641193145286
2635.0,0.029746130405213123
2634.0,0.029746130405213123
2633.0,0.029746130405213123
2632.0,0.029746130405213123
2631.0,0.029746130405213123
2630.0,0.029746130405213123
2629.0,0.02969962459782227
2628.0,0.029653123769906697
2627.0,0.029560137048236124
2626.0,0.029513651152349718
2625.0,0.029467170231675777
2624.0,0.029467170231675777
2623.0,0.029513651152349718
2622.0,0.029513651152349718
2621.0,0.029467170231675777
2620.0,0.02942069428514915
2619.0,0.029374223311705583
2618.0,0.02932775731028059
2617.0,0.029281296279810798
2616.0,0.029281296279810798
2615.0,0.029281296279810798
2614.0,0.02932775731028059
2613.0,0.029281296279810798
2612.0,0.029281296279810798
2611.0,0.029281296279810798
2610.0,0.029234840219232394
2609.0,0.029234840219232394
2608.0,0.029281296279810798
2607.0,0.029281296279810798
2606.0,0.02932775731028059
2605.0,0.02932775731028059
2604.0,0.029374223311705583
2603.0,0.02942069428514915
2602.0,0.02942069428514915
2601.0,0.029374223311705583
2600.0,0.029281296279810798
2599.0,0.029141943003497595
2598.0,0.02904906565457588
2597.0,0.028956208163971375
2596.0,0.02890978686288448
2595.0,0.028863370523193765
2594.0,0.02890978686288448
2593.0,0.028956208163971375
2592.0,0.02890978686288448
2591.0,0.02890978686288448
2590.0,0.02890978686288448
2589.0,0.028956208163971375
2588.0,0.029002634427514717
2587.0,0.02904906565457588
2586.0,0.02904906565457588
2585.0,0.02904906565457588
2584.0,0.02904906565457588
2583.0,0.02904906565457588
2582.0,0.02904906565457588
2581.0,0.029002634427514717
2580.0,0.028956208163971375
2579.0,0.028956208163971375
2578.0,0.028956208163971375
2577.0,0.02890978686288448
2576.0,0.02890978686288448
2575.0,0.02890978686288448
2574.0,0.028863370523193765
2573.0,0.028863370523193765
2572.0,0.028863370523193765
2571.0,0.028816959143838528
2570.0,0.028816959143838528
2569.0,0.028816959143838528
2568.0,0.028816959143838528
2567.0,0.028816959143838528
2566.0,0.028816959143838528
2565.0,0.028770552723758724
2564.0,0.028677754757187035
2563.0,0.02863136320857662
2562.0,0.02858497661500481
2561.0,0.02858497661500481
2560.0,0.02863136320857662
2559.0,0.028677754757187035
2558.0,0.02872415126189476
2557.0,0.02872415126189476
2556.0,0.028677754757187035
2555.0,0.02863136320857662
2554.0,0.02858497661500481
2553.0,0.02858497661500481
2552.0,0.02858497661500481
2551.0,0.02858497661500481
2550.0,0.028538594975413334
2549.0,0.028538594975413334
2548.0,0.028538594975413334
2547.0,0.02849221828874393
2546.0,0.02849221828874393
2545.0,0.028538594975413334
2544.0,0.028538594975413334
2543.0,0.028538594975413334
2542.0,0.02858497661500481
2541.0,0.02858497661500481
2540.0,0.02858497661500481
2539.0,0.02858497661500481
2538.0,0.02858497661500481
2537.0,0.02858497661500481
2536.0,0.02863136320857662
2535.0,0.02863136320857662
2534.0,0.02858497661500481
2533.0,0.028538594975413334
2532.0,0.02849221828874393
2531.0,0.02849221828874393
2530.0,0.02849221828874393
2529.0,0.02849221828874393
2528.0,0.02849221828874393
2527.0,0.02849221828874393
2526.0,0.028538594975413334
2525.0,0.02858497661500481
2524.0,0.02863136320857662
2523.0,0.02863136320857662
2522.0,0.02858497661500481
2521.0,0.028538594975413334
2520.0,0.028538594975413334
2519.0,0.02858497661500481
2518.0,0.02858497661500481
2517.0,0.02863136320857662
2516.0,0.02863136320857662
2515.0,0.02863136320857662
2514.0,0.02863136320857662
2513.0,0.02863136320857662
2512.0,0.02863136320857662
2511.0,0.028677754757187035
2510.0,0.02872415126189476
2509.0,0.028770552723758724
2508.0,0.028816959143838528
2507.0,0.028816959143838528
2506.0,0.028770552723758724
2505.0,0.02872415126189476
2504.0,0.02872415126189476
2503.0,0.02872415126189476
2502.0,0.02872415126189476
2501.0,0.02872415126189476
2500.0,0.028770552723758724
2499.0,0.02872415126189476
2498.0,0.02872415126189476
2497.0,0.028770552723758724
2496.0,0.028816959143838528
2495.0,0.028863370523193765
2494.0,0.02890978686288448
2493.0,0.02890978686288448
2492.0,0.028863370523193765
2491.0,0.028863370523193765
2490.0,0.028816959143838528
2489.0,0.028816959143838528
2488.0,0.028770552723758724
2487.0,0.028770552723758724
2486.0,0.02872415126189476
2485.0,0.028677754757187035
2484.0,0.028677754757187035
2483.0,0.028677754757187035
2482.0,0.028677754757187035
2481.0,0.028677754757187035
2480.0,0.028677754757187035
2479.0,0.028677754757187035
2478.0,0.02872415126189476
2477.0,0.02872415126189476
2476.0,0.028677754757187035
2475.0,0.02863136320857662
2474.0,0.02858497661500481
2473.0,0.02858497661500481
2472.0,0.028677754757187035
2471.0,0.02872415126189476
2470.0,0.028816959143838528
2469.0,0.028863370523193765
2468.0,0.028956208163971375
2467.0,0.029002634427514717
2466.0,0.029002634427514717
2465.0,0.028956208163971375
2464.0,0.02890978686288448
2463.0,0.02890978686288448
2462.0,0.028863370523193765
2461.0,0.028863370523193765
2460.0,0.028816959143838528
2459.0,0.028770552723758724
2458.0,0.028770552723758724
2457.0,0.028770552723758724
2456.0,0.028863370523193765
2455.0,0.02890978686288448
2454.0,0.029002634427514717
2453.0,0.02904906565457588
2452.0,0.029095501846216454
2451.0,0.029095501846216454
2450.0,0.029095501846216454
2449.0,0.029095501846216454
2448.0,0.029141943003497595
2447.0,0.029141943003497595
2446.0,0.029188389127482228
2445.0,0.029234840219232394
2444.0,0.029234840219232394
2443.0,0.029234840219232394
2442.0,0.029188389127482228
2441.0,0.029141943003497595
2440.0,0.029141943003497595
2439.0,0.029141943003497595
2438.0,0.029188389127482228
2437.0,0.029234840219232394
2436.0,0.029234840219232394
2435.0,0.029281296279810798
2434.0,0.029281296279810798
2433.0,0.02932775731028059
2432.0,0.029374223311705583
2431.0,0.02942069428514915
2430.0,0.029467170231675777
2429.0,0.029467170231675777
2428.0,0.029467170231675777
2427.0,0.02942069428514915
2426.0,0.02942069428514915
2425.0,0.02942069428514915
2424.0,0.029374223311705583
2423.0,0.029374223311705583
2422.0,0.02932775731028059
2421.0,0.029374223311705583
2420.0,0.02942069428514915
2419.0,0.029467170231675777
2418.0,0.029467170231675777
2417.0,0.029513651152349718
2416.0,0.02960662792039992
2415.0,0.029653123769906697
2414.0,0.02969962459782227
2413.0,0.029746130405213123
2412.0,0.029839156962686353
2411.0,0.029885677714903025
2410.0,0.029885677714903025
2409.0,0.029885677714903025
2408.0,0.029885677714903025
2407.0,0.029839156962686353
2406.0,0.029839156962686353
2405.0,0.029839156962686353
2404.0,0.029885677714903025
2403.0,0.029885677714903025
2402.0,0.029932203450862893
2401.0,0.029932203450862893
2400.0,0.029932203450862893
2399.0,0.029885677714903025
2398.0,0.029932203450862893
2397.0,0.029932203450862893
2396.0,0.029978734171634214
2395.0,0.03002526987828502
2394.0,0.03002526987828502
2393.0,0.03002526987828502
2392.0,0.03002526987828502
2391.0,0.03002526987828502
2390.0,0.03002526987828502
2389.0,0.030071810571884017
2388.0,0.030164906924202484
2387.0,0.03025802323714588
2386.0,0.030351159519274695
2385.0,0.030490901403433135
2384.0,0.03058408764601861
2383.0,0.03058408764601861
2382.0,0.030397735151460825
2381.0,0.030118356253500123
2380.0,0.029792641193145286
2379.0,0.029560137048236124
2378.0,0.02942069428514915
2377.0,0.029467170231675777
2376.0,0.02960662792039992
2375.0,0.029792641193145286
2374.0,0.030118356253500123
2373.0,0.030444315779156517
2372.0,0.03081714076773867
2371.0,0.031096969696171817
2370.0,0.031190286087141805
2369.0,0.031143625385307683
2368.0,0.030957032694186815
2367.0,0.03058408764601861
2366.0,0.030351159519274695
2365.0,0.03058408764601861
2364.0,0.031003673351687855
2363.0,0.030910397045078586
2362.0,0.03030458888152676
2361.0,0.030071810571884017
2360.0,0.030957032694186815
2359.0,0.032545631817259224
2358.0,0.0338113190438627
2357.0,0.033905220553829274
2356.0,0.0329671178412978
2355.0,0.03161045815293173
2354.0,0.030397735151460825
2353.0,0.029513651152349718
2352.0,0.029002634427514717
2351.0,0.029002634427514717
2350.0,0.02932775731028059
2349.0,0.02969962459782227
2348.0,0.029978734171634214
2347.0,0.03025802323714588
2346.0,0.0307239045110681
2345.0,0.03133029827960798
2344.0,0.03179733185715028
2343.0,0.03193753992355086
2342.0,0.031657169041054534
2341.0,0.031096969696171817
2340.0,0.030397735151460825
2339.0,0.02969962459782227
2338.0,0.029141943003497595
2337.0,0.02890978686288448
2336.0,0.02904906565457588
2335.0,0.029374223311705583
2334.0,0.029653123769906697
2333.0,0.029792641193145286
2332.0,0.029839156962686353
2331.0,0.029839156962686353
2330.0,0.029932203450862893
2329.0,0.030211462585061133
2328.0,0.03067729388779794
2327.0,0.03105031901865729
2326.0,0.031190286087141805
2325.0,0.03105031901865729
2324.0,0.0307239045110681
2323.0,0.030444315779156517
2322.0,0.03030458888152676
2321.0,0.030490901403433135
2320.0,0.030957032694186815
2319.0,0.03142366482450232
2318.0,0.03175060589208267
2317.0,0.03189079887180224
2316.0,0.03184406285002961
2315.0,0.03175060589208267
2314.0,0.03170388495374454
2313.0,0.03179733185715028
2312.0,0.03193753992355086
2311.0,0.03207779326948268
2310.0,0.03207779326948268
2309.0,0.032031037121307726
2308.0,0.03193753992355086
2307.0,0.03189079887180224
2306.0,0.03184406285002961
2305.0,0.03189079887180224
2304.0,0.031984286006358165
2303.0,0.032031037121307726
2302.0,0.032031037121307726
2301.0,0.03207779326948268
2300.0,0.03217132066984485
2299.0,0.032311649546687526
2298.0,0.03240522732811035
2297.0,0.03240522732811035
2296.0,0.032311649546687526
2295.0,0.032218091924200776
2294.0,0.03217132066984485
2293.0,0.03217132066984485
2292.0,0.032218091924200776
2291.0,0.032218091924200776
2290.0,0.032218091924200776
2289.0,0.032218091924200776
2288.0,0.03217132066984485
2287.0,0.032124554451966825
2286.0,0.03207779326948268
2285.0,0.032031037121307726
2284.0,0.031984286006358165
2283.0,0.031984286006358165
2282.0,0.032031037121307726
2281.0,0.03207779326948268
2280.0,0.032124554451966825
2279.0,0.032124554451966825
2278.0,0.03207779326948268
2277.0,0.032031037121307726
2276.0,0.03193753992355086
2275.0,0.03189079887180224
2274.0,0.03189079887180224
2273.0,0.03189079887180224
2272.0,0.03193753992355086
2271.0,0.03193753992355086
2270.0,0.03193753992355086
2269.0,0.03193753992355086
2268.0,0.031984286006358165
2267.0,0.032031037121307726
2266.0,0.032031037121307726
2265.0,0.032031037121307726
2264.0,0.031984286006358165
2263.0,0.03193753992355086
2262.0,0.03189079887180224
2261.0,0.03189079887180224
2260.0,0.03189079887180224
2259.0,0.03189079887180224
2258.0,0.03193753992355086
2257.0,0.031984286006358165
2256.0,0.031984286006358165
2255.0,0.031984286006358165
2254.0,0.03193753992355086
2253.0,0.03193753992355086
2252.0,0.03193753992355086
2251.0,0.03193753992355086
2250.0,0.03184406285002961
2249.0,0.03179733185715028
2248.0,0.03170388495374454
2247.0,0.03170388495374454
2246.0,0.03170388495374454
2245.0,0.03170388495374454
2244.0,0.031657169041054534
2243.0,0.031657169041054534
2242.0,0.031657169041054534
2241.0,0.03170388495374454
2240.0,0.03175060589208267
2239.0,0.03175060589208267
2238.0,0.03170388495374454
2237.0,0.031657169041054534
2236.0,0.031657169041054534
2235.0,0.03161045815293173
2234.0,0.03161045815293173
2233.0,0.03161045815293173
2232.0,0.031563752288295444
2231.0,0.03151705144606498
2230.0,0.03147035562516054
2229.0,0.03142366482450232
2228.0,0.03142366482450232
2227.0,0.03142366482450232
2226.0,0.03147035562516054
2225.0,0.03151705144606498
2224.0,0.03151705144606498
2223.0,0.03147035562516054
2222.0,0.03142366482450232
2221.0,0.03133029827960798
2220.0,0.03133029827960798
2219.0,0.03137697904301118
2218.0,0.03142366482450232
2217.0,0.03147035562516054
2216.0,0.03151705144606498
2215.0,0.03147035562516054
2214.0,0.03142366482450232
2213.0,0.03133029827960798
2212.0,0.03128362253321426
2211.0,0.031236951802751545
2210.0,0.031236951802751545
2209.0,0.031236951802751545
2208.0,0.031190286087141805
2207.0,0.031190286087141805
2206.0,0.031190286087141805
2205.0,0.031190286087141805
2204.0,0.031190286087141805
2203.0,0.031143625385307683
2202.0,0.031096969696171817
2201.0,0.031096969696171817
2200.0,0.031096969696171817
2199.0,0.031143625385307683
2198.0,0.031190286087141805
2197.0,0.03128362253321426
2196.0,0.03133029827960798
2195.0,0.03133029827960798
2194.0,0.03128362253321426
2193.0,0.03128362253321426
2192.0,0.031236951802751545
2191.0,0.031190286087141805
2190.0,0.031096969696171817
2189.0,0.031096969696171817
2188.0,0.03105031901865729
2187.0,0.031096969696171817
2186.0,0.031096969696171817
2185.0,0.031096969696171817
2184.0,0.031096969696171817
2183.0,0.031096969696171817
2182.0,0.031096969696171817
2181.0,0.031096969696171817
2180.0,0.031143625385307683
2179.0,0.031143625385307683
2178.0,0.031096969696171817
2177.0,0.031096969696171817
2176.0,0.03105031901865729
2175.0,0.03105031901865729
2174.0,0.03105031901865729
2173.0,0.03105031901865729
2172.0,0.03105031901865729
2171.0,0.03105031901865729
2170.0,0.031003673351687855
2169.0,0.030957032694186815
2168.0,0.030957032694186815
2167.0,0.030910397045078586
2166.0,0.030910397045078586
2165.0,0.030863766403287585
2164.0,0.030863766403287585
2163.0,0.030910397045078586
2162.0,0.030957032694186815
2161.0,0.030957032694186815
2160.0,0.030957032694186815
2159.0,0.030910397045078586
2158.0,0.030910397045078586
2157.0,0.030957032694186815
2156.0,0.031003673351687855
2155.0,0.031003673351687855
2154.0,0.030957032694186815
2153.0,0.030910397045078586
2152.0,0.030863766403287585
2151.0,0.030863766403287585
2150.0,0.030863766403287585
2149.0,0.030863766403287585
2148.0,0.030863766403287585
2147.0,0.03081714076773867
2146.0,0.03081714076773867
2145.0,0.03081714076773867
2144.0,0.03081714076773867
2143.0,0.03081714076773867
2142.0,0.03081714076773867
2141.0,0.030863766403287585
2140.0,0.030863766403287585
2139.0,0.030910397045078586
2138.0,0.030957032694186815
2137.0,0.031003673351687855
2136.0,0.031003673351687855
2135.0,0.031003673351687855
2134.0,0.031003673351687855
2133.0,0.031003673351687855
2132.0,0.031003673351687855
2131.0,0.030957032694186815
2130.0,0.030910397045078586
2129.0,0.030910397045078586
2128.0,0.030957032694186815
2127.0,0.030957032694186815
2126.0,0.031003673351687855
2125.0,0.031003673351687855
2124.0,0.031003673351687855
2123.0,0.030957032694186815
2122.0,0.030910397045078586
2121.0,0.030910397045078586
2120.0,0.030957032694186815
2119.0,0.030957032694186815
2118.0,0.031003673351687855
2117.0,0.031003673351687855
2116.0,0.031003673351687855
2115.0,0.031003673351687855
2114.0,0.031003673351687855
2113.0,0.030957032694186815
2112.0,0.030910397045078586
2111.0,0.030910397045078586
2110.0,0.030863766403287585
2109.0,0.030863766403287585
2108.0,0.030863766403287585
2107.0,0.030910397045078586
2106.0,0.030957032694186815
2105.0,0.031003673351687855
2104.0,0.031003673351687855
2103.0,0.030957032694186815
2102.0,0.030910397045078586
2101.0,0.030910397045078586
2100.0,0.030957032694186815
2099.0,0.031003673351687855
2098.0,0.031003673351687855
2097.0,0.03105031901865729
2096.0,0.03105031901865729
2095.0,0.031003673351687855
2094.0,0.030957032694186815
2093.0,0.030910397045078586
2092.0,0.030957032694186815
2091.0,0.030957032694186815
2090.0,0.030957032694186815
2089.0,0.030957032694186815
2088.0,0.030910397045078586
2087.0,0.030910397045078586
2086.0,0.030910397045078586
2085.0,0.030910397045078586
2084.0,0.030910397045078586
2083.0,0.030910397045078586
2082.0,0.030863766403287585
2081.0,0.030863766403287585
2080.0,0.030863766403287585
2079.0,0.030863766403287585
2078.0,0.03081714076773867
2077.0,0.03081714076773867
2076.0,0.03081714076773867
2075.0,0.03081714076773867
2074.0,0.03081714076773867
2073.0,0.030863766403287585
2072.0,0.030863766403287585
2071.0,0.030863766403287585
2070.0,0.03081714076773867
2069.0,0.030770520137356927
2068.0,0.03067729388779794
2067.0,0.03063068826647264
2066.0,0.03063068826647264
2065.0,0.03063068826647264
2064.0,0.03063068826647264
2063.0,0.03063068826647264
2062.0,0.03063068826647264
2061.0,0.03063068826647264
2060.0,0.03063068826647264
2059.0,0.03063068826647264
2058.0,0.03063068826647264
2057.0,0.03063068826647264
2056.0,0.03067729388779794
2055.0,0.03067729388779794
2054.0,0.03063068826647264
2053.0,0.03058408764601861
2052.0,0.03058408764601861
2051.0,0.030537492025363155
2050.0,0.030537492025363155
2049.0,0.030537492025363155
2048.0,0.030537492025363155
2047.0,0.030444315779156517
2046.0,0.030397735151460825
2045.0,0.030397735151460825
2044.0,0.030397735151460825
2043.0,0.030397735151460825
2042.0,0.030397735151460825
2041.0,0.030397735151460825
2040.0,0.030397735151460825
2039.0,0.030351159519274695
2038.0,0.03030458888152676
2037.0,0.03030458888152676
2036.0,0.03030458888152676
2035.0,0.03030458888152676
2034.0,0.03030458888152676
2033.0,0.030351159519274695
2032.0,0.030351159519274695
2031.0,0.030351159519274695
2030.0,0.03025802323714588
2029.0,0.030211462585061133
2028.0,0.030118356253500123
2027.0,0.030071810571884017
2026.0,0.030071810571884017
2025.0,0.030071810571884017
2024.0,0.030071810571884017
2023.0,0.03002526987828502
2022.0,0.029978734171634214
2021.0,0.029978734171634214
2020.0,0.029932203450862893
2019.0,0.029932203450862893
2018.0,0.029932203450862893
2017.0,0.029932203450862893
2016.0,0.029885677714903025
2015.0,0.029839156962686353
2014.0,0.029885677714903025
2013.0,0.029932203450862893
2012.0,0.029932203450862893
2011.0,0.029885677714903025
2010.0,0.029792641193145286
2009.0,0.02969962459782227
2008.0,0.02969962459782227
2007.0,0.02969962459782227
2006.0,0.02969962459782227
2005.0,0.029653123769906697
2004.0,0.029560137048236124
2003.0,0.029513651152349718
2002.0,0.02942069428514915
2001.0,0.029374223311705583
2000.0,0.029374223311705583
1999.0,0.02942069428514915
1998.0,0.02942069428514915
1997.0,0.02942069428514915
1996.0,0.029374223311705583
1995.0,0.02932775731028059
1994.0,0.02932775731028059
1993.0,0.02932775731028059
1992.0,0.029374223311705583
1991.0,0.02942069428514915
1990.0,0.02942069428514915
1989.0,0.02942069428514915
1988.0,0.02942069428514915
1987.0,0.02942069428514915
1986.0,0.029374223311705583
1985.0,0.02932775731028059
1984.0,0.029374223311705583
1983.0,0.029374223311705583
1982.0,0.02932775731028059
1981.0,0.02932775731028059
1980.0,0.029281296279810798
1979.0,0.029281296279810798
1978.0,0.029234840219232394
1977.0,0.029234840219232394
1976.0,0.029234840219232394
1975.0,0.029188389127482228
1974.0,0.029141943003497595
1973.0,0.029188389127482228
1972.0,0.029234840219232394
1971.0,0.02932775731028059
1970.0,0.029374223311705583
1969.0,0.02942069428514915
1968.0,0.029560137048236124
1967.0,0.029653123769906697
1966.0,0.029792641193145286
1965.0,0.029885677714903025
1964.0,0.03002526987828502
1963.0,0.030118356253500123
1962.0,0.030211462585061133
1961.0,0.03030458888152676
1960.0,0.030397735151460825
1959.0,0.030537492025363155
1958.0,0.03063068826647264
1957.0,0.0307239045110681
1956.0,0.03081714076773867
1955.0,0.030910397045078586
1954.0,0.031003673351687855
1953.0,0.031096969696171817
1952.0,0.031190286087141805
1951.0,0.03128362253321426
1950.0,0.03137697904301118
1949.0,0.03147035562516054
1948.0,0.03161045815293173
1947.0,0.03179733185715028
1946.0,0.03189079887180224
1945.0,0.032031037121307726
1944.0,0.032218091924200776
1943.0,0.03235843591698884
1942.0,0.03245202378113787
1941.0,0.03245202378113787
1940.0,0.03240522732811035
1939.0,0.032311649546687526
1938.0,0.03217132066984485
1937.0,0.03193753992355086
1936.0,0.03175060589208267
1935.0,0.03147035562516054
1934.0,0.031190286087141805
1933.0,0.030957032694186815
1932.0,0.030770520137356927
1931.0,0.03063068826647264
1930.0,0.030444315779156517
1929.0,0.03030458888152676
1928.0,0.030164906924202484
1927.0,0.03002526987828502
1926.0,0.029839156962686353
1925.0,0.029746130405213123
1924.0,0.029653123769906697
1923.0,0.029560137048236124
1922.0,0.02942069428514915
1921.0,0.029374223311705583
1920.0,0.029374223311705583
1919.0,0.029374223311705583
1918.0,0.02942069428514915
1917.0,0.029374223311705583
1916.0,0.02932775731028059
1915.0,0.029234840219232394
1914.0,0.029188389127482228
1913.0,0.029141943003497595
1912.0,0.029095501846216454
1911.0,0.028956208163971375
1910.0,0.028816959143838528
1909.0,0.02872415126189476
1908.0,0.02872415126189476
1907.0,0.02872415126189476
1906.0,0.02872415126189476
1905.0,0.02872415126189476
1904.0,0.028770552723758724
1903.0,0.028816959143838528
1902.0,0.02890978686288448
1901.0,0.028956208163971375
1900.0,0.02904906565457588
1899.0,0.02904906565457588
1898.0,0.029002634427514717
1897.0,0.02904906565457588
1896.0,0.029095501846216454
1895.0,0.029141943003497595
1894.0,0.029234840219232394
1893.0,0.02932775731028059
1892.0,0.029467170231675777
1891.0,0.029560137048236124
1890.0,0.02960662792039992
1889.0,0.02969962459782227
1888.0,0.029839156962686353
1887.0,0.029978734171634214
1886.0,0.030118356253500123
1885.0,0.03025802323714588
1884.0,0.030351159519274695
1883.0,0.030444315779156517
1882.0,0.030490901403433135
1881.0,0.03063068826647264
1880.0,0.0307239045110681
1879.0,0.030770520137356927
1878.0,0.03081714076773867
1877.0,0.030863766403287585
1876.0,0.030957032694186815
1875.0,0.031096969696171817
1874.0,0.031190286087141805
1873.0,0.03128362253321426
1872.0,0.03133029827960798
1871.0,0.03137697904301118
1870.0,0.03137697904301118
1869.0,0.03137697904301118
1868.0,0.03128362253321426
1867.0,0.031143625385307683
1866.0,0.031096969696171817
1865.0,0.031143625385307683
1864.0,0.031143625385307683
1863.0,0.031096969696171817
1862.0,0.030957032694186815
1861.0,0.03081714076773867
1860.0,0.03067729388779794
1859.0,0.030490901403433135
1858.0,0.03025802323714588
1857.0,0.030071810571884017
1856.0,0.029885677714903025
1855.0,0.029746130405213123
1854.0,0.02960662792039992
1853.0,0.029513651152349718
1852.0,0.029467170231675777
1851.0,0.029374223311705583
1850.0,0.029234840219232394
1849.0,0.029141943003497595
1848.0,0.029095501846216454
1847.0,0.02904906565457588
1846.0,0.029002634427514717
1845.0,0.029095501846216454
1844.0,0.029141943003497595
1843.0,0.02904906565457588
1842.0,0.028956208163971375
1841.0,0.028863370523193765
1840.0,0.028770552723758724
1839.0,0.028677754757187035
1838.0,0.02858497661500481
1837.0,0.02858497661500481
1836.0,0.02863136320857662
1835.0,0.028677754757187035
1834.0,0.02863136320857662
1833.0,0.02863136320857662
1832.0,0.02863136320857662
1831.0,0.02863136320857662
1830.0,0.02858497661500481
1829.0,0.02858497661500481
1828.0,0.028677754757187035
1827.0,0.028816959143838528
1826.0,0.028956208163971375
1825.0,0.029141943003497595
1824.0,0.029281296279810798
1823.0,0.029374223311705583
1822.0,0.029467170231675777
1821.0,0.029560137048236124
1820.0,0.02969962459782227
1819.0,0.029839156962686353
1818.0,0.029932203450862893
1817.0,0.03002526987828502
1816.0,0.030071810571884017
1815.0,0.030071810571884017
1814.0,0.030071810571884017
1813.0,0.030164906924202484
1812.0,0.03030458888152676
1811.0,0.030397735151460825
1810.0,0.030490901403433135
1809.0,0.03063068826647264
1808.0,0.030863766403287585
1807.0,0.03105031901865729
1806.0,0.031236951802751545
1805.0,0.03142366482450232
1804.0,0.03161045815293173
1803.0,0.03175060589208267
1802.0,0.03179733185715028
1801.0,0.03179733185715028
1800.0,0.03175060589208267
1799.0,0.03161045815293173
1798.0,0.03151705144606498
1797.0,0.03142366482450232
1796.0,0.03137697904301118
1795.0,0.031236951802751545
1794.0,0.031096969696171817
1793.0,0.030957032694186815
1792.0,0.030863766403287585
1791.0,0.03067729388779794
1790.0,0.030537492025363155
1789.0,0.030397735151460825
1788.0,0.03030458888152676
1787.0,0.03025802323714588
1786.0,0.030211462585061133
1785.0,0.03025802323714588
1784.0,0.030211462585061133
1783.0,0.030071810571884017
1782.0,0.029885677714903025
1781.0,0.029839156962686353
1780.0,0.029932203450862893
1779.0,0.029978734171634214
1778.0,0.03002526987828502
1777.0,0.030071810571884017
1776.0,0.030071810571884017
1775.0,0.03002526987828502
1774.0,0.029978734171634214
1773.0,0.029932203450862893
1772.0,0.029932203450862893
1771.0,0.029885677714903025
1770.0,0.03002526987828502
1769.0,0.03030458888152676
1768.0,0.03063068826647264
1767.0,0.030770520137356927
1766.0,0.0307239045110681
1765.0,0.03063068826647264
1764.0,0.03067729388779794
1763.0,0.030863766403287585
1762.0,0.031003673351687855
1761.0,0.031096969696171817
1760.0,0.031236951802751545
1759.0,0.03137697904301118
1758.0,0.03161045815293173
1757.0,0.03193753992355086
1756.0,0.032218091924200776
1755.0,0.03240522732811035
1754.0,0.032545631817259224
1753.0,0.03273290844021437
1752.0,0.033060836978886954
1751.0,0.03338901331806565
1750.0,0.03357665405630694
1749.0,0.03367050483612166
1748.0,0.03385826726096752
1747.0,0.034046110897937076
1746.0,0.03414006319292828
1745.0,0.03432802877989327
1744.0,0.03461012978487776
1743.0,0.03484535401307465
1742.0,0.0349394793888016
1741.0,0.03508070571335731
1740.0,0.03531618502395939
1739.0,0.03541041251009669
1738.0,0.035363296211498474
1737.0,0.03541041251009669
1736.0,0.035693217696063595
1735.0,0.03621217265444465
1734.0,0.03663723389626394
1733.0,0.036542739883292485
1732.0,0.036401037402758574
1731.0,0.03630659476198117
1730.0,0.03630659476198117
1729.0,0.03644826642590382
1728.0,0.03663723389626394
1727.0,0.03682628362474838
1726.0,0.0369681249461018
1725.0,0.0371573187987575
1724.0,0.03744126420403626
1723.0,0.03767802727041558
1722.0,0.03777276864991497
1721.0,0.03786753070176463
1720.0,0.038057116858612794
1719.0,0.03848398855105106
1718.0,0.03905380426616856
1717.0,0.039719535563357944
1716.0,0.04019568349166214
1715.0,0.040529297924893015
1714.0,0.04081545726880842
1713.0,0.04124505013091051
1712.0,0.04172287445230238
1711.0,0.042201225070002124
1710.0,0.042584285277331047
1709.0,0.042967683653061695
1708.0,0.04339941178682327
1707.0,0.04387961360698034
1706.0,0.04450467081587295
1705.0,0.04522701031028298
1704.0,0.045902279520810385
1703.0,0.04653025674659861
1702.0,0.047352830241056854
1701.0,0.048808242065293994
1700.0,0.050414848673348
1699.0,0.051098239029786274
1698.0,0.05134256785867963
1697.0,0.05222329153526162
1696.0,0.05379344615721715
1695.0,0.05507339001378431
1694.0,0.055764156206519866
1693.0,0.05620880107069848
1692.0,0.05685187064143715
1691.0,0.057743849580535134
1690.0,0.058786812414678646
1689.0,0.05988213325228142
1688.0,0.06078036414518184
1687.0,0.06148027482350815
1686.0,0.06218131530164395
1685.0,0.06398920428479049
1684.0,0.06676587128519196
1683.0,0.0685421293109949
1682.0,0.06956040523329987
1681.0,0.07058107428570715
1680.0,0.07175781684269089
1679.0,0.07293775650699996
1678.0,0.07381195089279391
1677.0,0.07489427319033615
1676.0,0.07660053384128362
1675.0,0.07846958649875768
1674.0,0.07966792846041071
1673.0,0.08024221949810584
1672.0,0.08086958613938555
1671.0,0.08207457793525874
1670.0,0.0839147001562972
1669.0,0.08581556657675371
1668.0,0.0872997918091396
1667.0,0.08825662214406838
1666.0,0.08884239126002336
1665.0,0.08942895151874142
1664.0,0.09049745859458458
1663.0,0.09210516458371698
1662.0,0.0935572061829677
1661.0,0.09458193129745807
1660.0,0.09550084460218011
1659.0,0.09625905937846135
1658.0,0.09691001300805646
1657.0,0.09729018703012282
1656.0,0.09767069414168117
1655.0,0.09821485469640057
1654.0,0.1005078038618683
1653.0,0.10419084983086901
1652.0,0.10612732120491852
1651.0,0.10640466618011679
1650.0,0.1061827760325369
1649.0,0.10601643278815298
1648.0,0.10718217569042365
1647.0,0.10952309103982927
1646.0,0.1114835389250548
1645.0,0.11243895906999102
1644.0,0.1130019543289007
1643.0,0.1133401021387972
1642.0,0.1136220932414278
1641.0,0.11390426756225258
1640.0,0.1141301390960936
1639.0,0.1141301390960936
1638.0,0.11367851344052027
1637.0,0.1130019543289007
1636.0,0.11227020271196975
1635.0,0.11142740314240007
1634.0,0.11030620855581463
1633.0,0.10902040301031102
1632.0,0.1075158206353124
1631.0,0.10585015323207791
1630.0,0.10391491457671487
1629.0,0.1017686154869033
1628.0,0.09963287134352972
1627.0,0.09777947172068524
1626.0,0.0960964733098364
1625.0,0.09441997176475758
1624.0,0.09264239186882706
1623.0,0.0908185240221473
1622.0,0.08910891135547172
1621.0,0.08761850108119962
1620.0,0.086239113587677
1619.0,0.08486409337798806
1618.0,0.08349341288484435
1617.0,0.08207457793525874
1616.0,0.08071265949561734
1615.0,0.07956359344924135
1614.0,0.07852161962430992
1613.0,0.07748213975538865
1612.0,0.07654873036034848
1611.0,0.07582412969807906
1610.0,0.07551395626608493
1609.0,0.07566901529132153
1608.0,0.0763933569825408
1607.0,0.07784567476894111
1606.0,0.07982447798997727
1605.0,0.08217951800630297
1604.0,0.08475850269380558
1603.0,0.08719360733870762
1602.0,0.08878910686244668
1601.0,0.08905559425002108
1600.0,0.08799062441302175
1599.0,0.08576265223225898
1598.0,0.08275714209253371
1597.0,0.0794071379151915
1596.0,0.07618627890881036
1595.0,0.07329750581735506
1594.0,0.07093887591523451
1593.0,0.0688982543673613
1592.0,0.0671712330991534
1591.0,0.06565307326174441
1590.0,0.06434161389936577
1589.0,0.06333548699992453
1588.0,0.06278310913729457
1587.0,0.06268275223750575
1586.0,0.06303410289212974
1585.0,0.06358680028852026
1584.0,0.06393888339001164
1583.0,0.06383825908884244
1582.0,0.06298389253518577
1581.0,0.06153031163235467
1580.0,0.05983228596592505
1579.0,0.0582898510583536
1578.0,0.05685187064143715
1577.0,0.055566682299785564
1576.0,0.05443294655761144
1575.0,0.05369514500652506
1574.0,0.05310580489767336
1573.0,0.0525172634430815
1572.0,0.05188057561946402
1571.0,0.05119595406718891
1570.0,0.05065879322950262
1569.0,0.05012229596312534
1568.0,0.04978123335813667
1567.0,0.04948910701400333
1566.0,0.049148541111453614
1565.0,0.04866248120408234
1564.0,0.048225491918274965
1563.0,0.047885915093007325
1562.0,0.047643522676209304
1561.0,0.04720755695590784
1560.0,0.04682039893436585
1559.0,0.04686877481655505
1558.0,0.04677202844014605
1557.0,0.04667530361081473
1556.0,0.04662694927330402
1555.0,0.04657860031896477
1554.0,0.04657860031896477
1553.0,0.04643358574299339
1552.0,0.04624030826677128
1551.0,0.04609540658654021
1550.0,0.04609540658654021
1549.0,0.04609540658654021
1548.0,0.046047116768076934
1547.0,0.04599883231842972
1546.0,0.04599883231842972
1545.0,0.046047116768076934
1544.0,0.046047116768076934
1543.0,0.04595055323640551
1542.0,0.04580574818413763
1541.0,0.04570923829887308
1540.0,0.0454680573730859
1539.0,0.04522701031028298
1538.0,0.0451788169482068
1537.0,0.04503426894157925
1536.0,0.04474531717982
1535.0,0.04440844959427559
1534.0,0.044071843103049346
1533.0,0.0437835307566099
1532.0,0.043495409683302455
1531.0,0.043303435105349175
1530.0,0.043063586155803746
1529.0,0.042775942156833
1528.0,0.04248848854552012
1527.0,0.042201225070002124
1526.0,0.04186632432376469
1525.0,0.041483896576958834
1524.0,0.04105406750606355
1523.0,0.04072004986906119
1522.0,0.04062466342415694
1521.0,0.040529297924893015
1520.0,0.040338629726504704
1519.0,0.040005161671583744
1518.0,0.03962436858984186
1517.0,0.039338992729018196
1516.0,0.03914884628031379
1515.0,0.03910132267333921
1514.0,0.03905380426616856
1513.0,0.03886378261277468
1512.0,0.038673844065289176
1511.0,0.038341651362284734
1510.0,0.03791491948264003
1509.0,0.037488606492403154
1508.0,0.037299268295658994
1507.0,0.037299268295658994
1506.0,0.03720463014276687
1505.0,0.037251946641359446
1504.0,0.037346595106788616
1503.0,0.037346595106788616
1502.0,0.037583306554248797
1501.0,0.03824678581321739
1500.0,0.039719535563357944
1499.0,0.04268010314465909
1498.0,0.0486139051197072
1497.0,0.059035506507200575
1496.0,0.07221915065262552
1495.0,0.08417821237960132
1494.0,0.09291125492570451
1493.0,0.09805153492691598
1492.0,0.0989778267519208
1491.0,0.09474395125154866
1490.0,0.08618614761628329
1489.0,0.07717078033335123
1488.0,0.07047889936889606
1487.0,0.06565307326174441
1486.0,0.06198090252378963
1485.0,0.059135024033278416
1484.0,0.05670338543334519
1483.0,0.05453141486818014
1482.0,0.05261529831525902
1481.0,0.051098239029786274
1480.0,0.049927370249842395
1479.0,0.04900266601119507
1478.0,0.04817696468408794
1477.0,0.04754660357696672
1476.0,0.04696554274964315
1475.0,0.04638525830935958
1474.0,0.04595055323640551
1473.0,0.045902279520810385
1472.0,0.045902279520810385
1471.0,0.04575749056067524
1470.0,0.045612749855485024
1469.0,0.045516282844447975
1468.0,0.045516282844447975
1467.0,0.04541983725624266
1466.0,0.045323413081356456
1465.0,0.04527520902093718
1464.0,0.045323413081356456
1463.0,0.0451788169482068
1462.0,0.04508244626504121
1461.0,0.04503426894157925
1460.0,0.0454680573730859
1459.0,0.04696554274964315
1458.0,0.0525172634430815
1457.0,0.0636873663378068
1456.0,0.0756173227980268
1455.0,0.08496970974083906
1454.0,0.09269615116603047
1453.0,0.0989778267519208
1452.0,0.10253786198693682
1451.0,0.10270287794050348
1450.0,0.10023419805561384
1449.0,0.0964759355287379
1448.0,0.09248115389337075
1447.0,0.08900228368935714
1446.0,0.086239113587677
1445.0,0.08380934001946239
1444.0,0.08134070657817682
1443.0,0.07872981449018734
1442.0,0.0763933569825408
1441.0,0.07427547306393745
1440.0,0.07242434530888953
1439.0,0.07068327324650436
1438.0,0.06894915322260897
1437.0,0.06696850489759454
1436.0,0.06474471821595262
1435.0,0.0627329277885873
1434.0,0.06098022355133348
1433.0,0.05933412752417122
1432.0,0.05779345772290467
1431.0,0.056406567231630955
1430.0,0.055270639696704205
1429.0,0.05438372077326825
1428.0,0.053596866100945384
1427.0,0.05295859474477971
1426.0,0.05232126006306337
1425.0,0.05173378011970464
1424.0,0.05119595406718891
1423.0,0.050805225762017736
1422.0,0.05056119896349576
1421.0,0.050414848673348
1420.0,0.050317309204795935
1419.0,0.05026854768429301
1418.0,0.050073556332087765
1417.0,0.04973253198641148
1416.0,0.04939177521576932
1415.0,0.04909991063361274
1414.0,0.04885683989244738
1413.0,0.04866248120408234
1412.0,0.048468209457651845
1411.0,0.04832256265669943
1410.0,0.04817696468408794
1409.0,0.047982909952573705
1408.0,0.04774046340917959
1407.0,0.04749815213697639
1406.0,0.04730440041308315
1405.0,0.04715914332429838
1404.0,0.047062332249019345
1403.0,0.0469171560879138
1402.0,0.04677202844014605
1401.0,0.04657860031896477
1400.0,0.04643358574299339
1399.0,0.04638525830935958
1398.0,0.04628861957244457
1397.0,0.04628861957244457
1396.0,0.04643358574299339
1395.0,0.04677202844014605
1394.0,0.047062332249019345
1393.0,0.04715914332429838
1392.0,0.04711073508906982
1391.0,0.04711073508906982
1390.0,0.04730440041308315
1389.0,0.047691990337874746
1388.0,0.04827402457540786
1387.0,0.048905443158337114
1386.0,0.04939177521576932
1385.0,0.04978123335813667
1384.0,0.05012229596312534
1383.0,0.05051241005349638
1382.0,0.05100054597304693
1381.0,0.05148923116234294
1380.0,0.052027420754219955
1379.0,0.05256627811294923
1378.0,0.05295859474477971
1377.0,0.05325306496641513
1376.0,0.053449489430144714
1375.0,0.05374429280060267
1374.0,0.05413767551038262
1373.0,0.05438372077326825
1372.0,0.05438372077326825
1371.0,0.05423607688882637
1370.0,0.054088483180726676
1369.0,0.05399011523423525
1368.0,0.05389176956309405
1367.0,0.053842605077627725
1366.0,0.05379344615721715
1365.0,0.053646002773725554
1364.0,0.05354773498692689
1363.0,0.0534986094304124
1362.0,0.053449489430144714
1361.0,0.05325306496641513
1360.0,0.05300765925162776
1359.0,0.05266432405126009
1358.0,0.05237025261564554
1357.0,0.05212534510230182
1356.0,0.05192951848105887
1355.0,0.0518316382728683
1354.0,0.05173378011970464
1353.0,0.051684859310652254
1352.0,0.0515870342213991
1351.0,0.05148923116234294
1350.0,0.05148923116234294
1349.0,0.05144033789103841
1348.0,0.05139145012356372
1347.0,0.05129369109514803
1346.0,0.05119595406718891
1345.0,0.05100054597304693
1344.0,0.05075640943173498
1343.0,0.050414848673348
1342.0,0.05012229596312534
1341.0,0.04987865248862655
1340.0,0.04978123335813667
1339.0,0.04978123335813667
1338.0,0.04978123335813667
1337.0,0.04982994019179987
1336.0,0.04982994019179987
1335.0,0.04997609347667353
1334.0,0.05021979163799939
1333.0,0.05051241005349638
1332.0,0.05085404758005607
1331.0,0.05114709380028648
1330.0,0.05144033789103841
1329.0,0.051684859310652254
1328.0,0.05178270644002936
1327.0,0.05178270644002936
1326.0,0.051684859310652254
1325.0,0.0515870342213991
1324.0,0.05144033789103841
1323.0,0.05129369109514803
1322.0,0.05114709380028648
1321.0,0.05100054597304693
1320.0,0.050902874887084115
1319.0,0.050902874887084115
1318.0,0.05100054597304693
1317.0,0.05114709380028648
1316.0,0.05129369109514803
1315.0,0.05144033789103841
1314.0,0.05163594401163074
1313.0,0.05178270644002936
1312.0,0.05192951848105887
1311.0,0.05197846685889629
1310.0,0.05192951848105887
1309.0,0.0518316382728683
1308.0,0.05173378011970464
1307.0,0.05163594401163074
1306.0,0.0515870342213991
1305.0,0.05144033789103841
1304.0,0.05129369109514803
1303.0,0.051098239029786274
1302.0,0.05095170768433621
1301.0,0.05075640943173498
1300.0,0.05056119896349576
1299.0,0.050414848673348
1298.0,0.050317309204795935
1297.0,0.05021979163799939
1296.0,0.050171041064686284
1295.0,0.050171041064686284
1294.0,0.050171041064686284
1293.0,0.05012229596312534
1292.0,0.050073556332087765
1291.0,0.05002482217034632
1290.0,0.04997609347667353
1289.0,0.049927370249842395
1288.0,0.04987865248862655
1287.0,0.04982994019179987
1286.0,0.04982994019179987
1285.0,0.04978123335813667
1284.0,0.04978123335813667
1283.0,0.04973253198641148
1282.0,0.04973253198641148
1281.0,0.04973253198641148
1280.0,0.04968383607539972
1279.0,0.04963514562387683
1278.0,0.04958646063061889
1277.0,0.04948910701400333
1276.0,0.04939177521576932
1275.0,0.049245818406496555
1274.0,0.04909991063361274
1273.0,0.04900266601119507
1272.0,0.048954051864180226
1271.0,0.048905443158337114
1270.0,0.04885683989244738
1269.0,0.04871106272232795
1268.0,0.0486139051197072
1267.0,0.048565334467987054
1266.0,0.0486139051197072
1265.0,0.0486139051197072
1264.0,0.04866248120408234
1263.0,0.04871106272232795
1262.0,0.048808242065293994
1261.0,0.04885683989244738
1260.0,0.04885683989244738
1259.0,0.048808242065293994
1258.0,0.048808242065293994
1257.0,0.048808242065293994
1256.0,0.048808242065293994
1255.0,0.04885683989244738
1254.0,0.048905443158337114
1253.0,0.048954051864180226
1252.0,0.04900266601119507
1251.0,0.04905128560059957
1250.0,0.04909991063361274
1249.0,0.04909991063361274
1248.0,0.04909991063361274
1247.0,0.04909991063361274
1246.0,0.04909991063361274
1245.0,0.049148541111453614
1244.0,0.04919717703534143
1243.0,0.049245818406496555
1242.0,0.049245818406496555
1241.0,0.04919717703534143
1240.0,0.04909991063361274
1239.0,0.04900266601119507
1238.0,0.048954051864180226
1237.0,0.048954051864180226
1236.0,0.048954051864180226
1235.0,0.048954051864180226
1234.0,0.048905443158337114
1233.0,0.048905443158337114
1232.0,0.04885683989244738
1231.0,0.048905443158337114
1230.0,0.048905443158337114
1229.0,0.048954051864180226
1228.0,0.048905443158337114
1227.0,0.048905443158337114
1226.0,0.048905443158337114
1225.0,0.04900266601119507
1224.0,0.04909991063361274
1223.0,0.04909991063361274
1222.0,0.04909991063361274
1221.0,0.04905128560059957
1220.0,0.04905128560059957
1219.0,0.04900266601119507
1218.0,0.04900266601119507
1217.0,0.04900266601119507
1216.0,0.048954051864180226
1215.0,0.048954051864180226
1214.0,0.04900266601119507
1213.0,0.04909991063361274
1212.0,0.049245818406496555
1211.0,0.04944043838819989
1210.0,0.04963514562387683
1209.0,0.04987865248862655
1208.0,0.05002482217034632
1207.0,0.05021979163799939
1206.0,0.050414848673348
1205.0,0.05065879322950262
1204.0,0.05095170768433621
1203.0,0.051244819831730126
1202.0,0.0515870342213991
1201.0,0.05192951848105887
1200.0,0.05227227303668425
1199.0,0.05256627811294923
1198.0,0.05286048235717078
1197.0,0.0531548860393769
1196.0,0.05340037498486727
1195.0,0.053596866100945384
1194.0,0.05379344615721715
1193.0,0.05399011523423525
1192.0,0.054186873412661596
1191.0,0.05443294655761144
1190.0,0.054679159207724926
1189.0,0.05502409158795207
1188.0,0.05546797900801881
1187.0,0.05601112492622806
1186.0,0.05670338543334519
1185.0,0.05754547365752294
1184.0,0.05848856736559682
1183.0,0.05938391766259232
1182.0,0.060231224546650086
1181.0,0.06078036414518184
1180.0,0.06103020277710969
1179.0,0.060880282351513104
1178.0,0.06048074738138154
1177.0,0.05998184499233683
1176.0,0.05948351506743288
1175.0,0.05918479134919874
1174.0,0.059035506507200575
1173.0,0.05898575629443026
1172.0,0.059035506507200575
1171.0,0.05908526241971446
1170.0,0.05918479134919874
1169.0,0.05933412752417122
1168.0,0.05953332233647113
1167.0,0.05983228596592505
1166.0,0.060131455540490375
1165.0,0.060530669156469985
1164.0,0.06098022355133348
1163.0,0.06143024377893891
1162.0,0.06203099704854709
1161.0,0.06278310913729457
1160.0,0.06363708040225546
1159.0,0.06469430971007495
1158.0,0.0659562809644747
1157.0,0.06737405597821788
1156.0,0.06869471857832687
1155.0,0.06981534770138009
1154.0,0.07042782092345012
1153.0,0.07058107428570715
1152.0,0.07037674848475972
1151.0,0.06996838504902692
1150.0,0.06945847013556561
1149.0,0.0690000580438479
1148.0,0.06869471857832687
1147.0,0.0684912781333824
1146.0,0.06844043290919477
1145.0,0.0684912781333824
1144.0,0.0684912781333824
1143.0,0.0685421293109949
1142.0,0.0685421293109949
1141.0,0.06859298644342648
1140.0,0.06874559358358656
1139.0,0.06894915322260897
1138.0,0.0692037370166998
1137.0,0.06940751155740177
1136.0,0.06956040523329987
1135.0,0.06966236426227002
1134.0,0.06976434723371505
1133.0,0.0699173666076287
1132.0,0.07012147634321675
1131.0,0.07037674848475972
1130.0,0.07058107428570715
1129.0,0.07078549626260622
1128.0,0.0709900145060387
1127.0,0.07119462910671581
1126.0,0.0713481533463054
1125.0,0.07145053299833615
1124.0,0.07155293679081787
1123.0,0.07175781684269089
1122.0,0.07196279359311708
1121.0,0.07221915065262552
1120.0,0.07247565912497134
1119.0,0.07268097504034388
1118.0,0.07293775650699996
1117.0,0.07319468988839395
1116.0,0.07355465218161061
1115.0,0.07381195089279391
1114.0,0.07401789967289685
1113.0,0.07412091069849924
1112.0,0.07412091069849924
1111.0,0.07412091069849924
1110.0,0.07406940213152868
1109.0,0.07401789967289685
1108.0,0.07391491307485598
1107.0,0.07386342893255127
1106.0,0.07381195089279391
1105.0,0.07370901311513656
1104.0,0.07360609973031784
1103.0,0.0734517753643813
1102.0,0.07329750581735506
1101.0,0.0732460948102629
1100.0,0.07319468988839395
1099.0,0.07319468988839395
1098.0,0.07314329105030759
1097.0,0.07304051161972436
1096.0,0.07283502570063005
1095.0,0.07268097504034388
1094.0,0.07247565912497134
1093.0,0.07232173586200852
1092.0,0.07221915065262552
1091.0,0.07216786713341827
1090.0,0.07211658966929302
1089.0,0.0720140529005715
1088.0,0.07186029312488018
1087.0,0.07170658776779781
1086.0,0.07160414774328627
1085.0,0.07155293679081787
1084.0,0.07155293679081787
1083.0,0.07170658776779781
1082.0,0.07186029312488018
1081.0,0.0720140529005715
1080.0,0.07211658966929302
1079.0,0.07211658966929302
1078.0,0.07211658966929302
1077.0,0.07227044022834539
1076.0,0.07252697900472405
1075.0,0.07288638806623937
1074.0,0.07329750581735506
1073.0,0.07376047895413773
1072.0,0.07417242537525759
1071.0,0.07448164182257
1070.0,0.07473949048056472
1069.0,0.07489427319033615
1068.0,0.07479107858799638
1067.0,0.07437854520917098
1066.0,0.07355465218161061
1065.0,0.07252697900472405
1064.0,0.07139934015547578
1063.0,0.07032568205141221
1062.0,0.06930561233546473
1061.0,0.06844043290919477
1060.0,0.06772922410050963
1059.0,0.06712054217620067
1058.0,0.0665127121512945
1057.0,0.0658551882075229
1056.0,0.06509774167768612
1055.0,0.06434161389936577
1054.0,0.06358680028852026
1053.0,0.06303410289212974
1052.0,0.06253226035662252
1051.0,0.062131203436140536
1050.0,0.061780582187257016
1049.0,0.061380218497318895
1048.0,0.06098022355133348
1047.0,0.060530669156469985
1046.0,0.060081579630943294
1045.0,0.05963295401433477
1044.0,0.05918479134919874
1043.0,0.058836539841526925
1042.0,0.058538260652670315
1041.0,0.0583891978463662
1040.0,0.05824018618530458
1039.0,0.05824018618530458
1038.0,0.05843887976392925
1037.0,0.059035506507200575
1036.0,0.060231224546650086
1035.0,0.06208109735221967
1034.0,0.06459351024765114
1033.0,0.0676277178520861
1032.0,0.07088774334533943
1031.0,0.07401789967289685
1030.0,0.07675598136972361
1029.0,0.07883394936226118
1028.0,0.08003329851661278
1027.0,0.07998108397108505
1026.0,0.0788860261633193
1025.0,0.07706704344478843
1024.0,0.07510073598571654
1023.0,0.07334892291111106
1022.0,0.0718090519612431
1021.0,0.07047889936889606
1020.0,0.06925467168888666
1019.0,0.0681862960408608
1018.0,0.0671712330991534
1017.0,0.0663102910421054
1016.0,0.06560255921901192
1015.0,0.06499684854634524
1014.0,0.06444235490698613
1013.0,0.06393888339001164
1012.0,0.06343599486473406
1011.0,0.06293368798257193
1010.0,0.06258241852286206
1009.0,0.062381820606176586
1008.0,0.062281556382736136
1007.0,0.062281556382736136
1006.0,0.06253226035662252
1005.0,0.06283329628496737
1004.0,0.06318476880236723
1003.0,0.06328524178879635
1002.0,0.0630843190547461
1001.0,0.06253226035662252
1000.0,0.061780582187257016
999.0,0.06103020277710969
998.0,0.060430831344098435
997.0,0.05998184499233683
996.0,0.05973260855398799
995.0,0.0595831353183347
994.0,0.05953332233647113
993.0,0.05943371350990989
992.0,0.05938391766259232
991.0,0.05923456436878238
990.0,0.059135024033278416
989.0,0.05908526241971446
988.0,0.05918479134919874
987.0,0.05938391766259232
986.0,0.05968277842578207
985.0,0.060081579630943294
984.0,0.06048074738138154
983.0,0.060880282351513104
982.0,0.06118017497378969
981.0,0.06133019897732073
980.0,0.061380218497318895
979.0,0.06128018521761747
978.0,0.06123017721688262
977.0,0.06108018775522828
976.0,0.06093025007657582
975.0,0.06078036414518184
974.0,0.060530669156469985
973.0,0.06033101647767336
972.0,0.0601813371786204
971.0,0.0601813371786204
970.0,0.06033101647767336
969.0,0.060730413661268745
968.0,0.06128018521761747
967.0,0.061880730805688344
966.0,0.062381820606176586
965.0,0.0627329277885873
964.0,0.06298389253518577
963.0,0.06303410289212974
962.0,0.06293368798257193
961.0,0.06263258248271053
960.0,0.06223143295006417
959.0,0.061830653609679764
958.0,0.061380218497318895
957.0,0.06103020277710969
956.0,0.060730413661268745
955.0,0.06048074738138154
954.0,0.060231224546650086
953.0,0.060081579630943294
952.0,0.06003170944866376
951.0,0.060131455540490375
950.0,0.06033101647767336
949.0,0.06048074738138154
948.0,0.06068046892176193
947.0,0.06083032037482261
946.0,0.06103020277710969
945.0,0.06133019897732073
944.0,0.06163040254819374
943.0,0.061880730805688344
942.0,0.06203099704854709
941.0,0.06203099704854709
940.0,0.061880730805688344
939.0,0.061680456657844385
938.0,0.06143024377893891
937.0,0.06118017497378969
936.0,0.060880282351513104
935.0,0.06058059667068294
934.0,0.06033101647767336
933.0,0.0601813371786204
932.0,0.06003170944866376
931.0,0.05988213325228142
930.0,0.05973260855398799
929.0,0.05968277842578207
928.0,0.05973260855398799
927.0,0.05983228596592505
926.0,0.05993198626064755
925.0,0.05998184499233683
924.0,0.05998184499233683
923.0,0.05998184499233683
922.0,0.060081579630943294
921.0,0.06028111764589528
920.0,0.06058059667068294
919.0,0.06093025007657582
918.0,0.061380218497318895
917.0,0.06198090252378963
916.0,0.0627329277885873
915.0,0.06363708040225546
914.0,0.06479513257341862
913.0,0.06620911585658007
912.0,0.0678307540792078
911.0,0.06956040523329987
910.0,0.0713481533463054
909.0,0.07304051161972436
908.0,0.07453319930846214
907.0,0.07577241873988227
906.0,0.07654873036034848
905.0,0.07691148455760066
904.0,0.07670415934449615
903.0,0.0759792995259323
902.0,0.07494587968815725
901.0,0.07370901311513656
900.0,0.07247565912497134
899.0,0.0713481533463054
898.0,0.07032568205141221
897.0,0.06945847013556561
896.0,0.06869471857832687
895.0,0.06813548650796819
894.0,0.06772922410050963
893.0,0.06747550294945781
892.0,0.06727263269847072
891.0,0.06706985716921054
890.0,0.06681652082538614
889.0,0.0666645899223488
888.0,0.06656333217371957
887.0,0.0665127121512945
886.0,0.06646209802829528
885.0,0.06646209802829528
884.0,0.06646209802829528
883.0,0.06646209802829528
882.0,0.0665127121512945
881.0,0.06656333217371957
880.0,0.0666645899223488
879.0,0.06671522765130522
878.0,0.06676587128519196
877.0,0.06681652082538614
876.0,0.06686717627326577
875.0,0.06696850489759454
874.0,0.0671712330991534
873.0,0.06742477650170953
872.0,0.06767846801070698
871.0,0.06788152797087754
870.0,0.06803388527182741
869.0,0.06813548650796819
868.0,0.0681862960408608
867.0,0.0681862960408608
866.0,0.0681862960408608
865.0,0.06828793294324442
864.0,0.06844043290919477
863.0,0.06859298644342648
862.0,0.06869471857832687
861.0,0.06884736147670667
860.0,0.0690000580438479
859.0,0.0692037370166998
858.0,0.06940751155740177
857.0,0.06966236426227002
856.0,0.06986635415888243
855.0,0.07012147634321675
854.0,0.07037674848475972
853.0,0.07078549626260622
852.0,0.07124579782334672
851.0,0.0718090519612431
850.0,0.07237303755504598
849.0,0.07293775650699996
848.0,0.07360609973031784
847.0,0.07432700607875953
846.0,0.07515236702446293
845.0,0.0760310351245288
844.0,0.07696333132921396
843.0,0.07768983678560404
842.0,0.07831352451639795
841.0,0.07867775641617802
840.0,0.07893810920972144
839.0,0.07893810920972144
838.0,0.07872981449018734
837.0,0.07841755960658348
836.0,0.07810552907089763
835.0,0.07779372256098371
834.0,0.07753405470158659
833.0,0.07727454200674
832.0,0.07701518429111709
831.0,0.07680780957933253
830.0,0.07670415934449615
829.0,0.07670415934449615
828.0,0.07680780957933253
827.0,0.07691148455760066
826.0,0.07701518429111709
825.0,0.07717078033335123
824.0,0.07737832847680104
823.0,0.07768983678560404
822.0,0.07800156869172903
821.0,0.07826151631540124
820.0,0.07852161962430992
819.0,0.07872981449018734
818.0,0.07899019850296574
817.0,0.07925073872429178
816.0,0.07951143534170213
815.0,0.07972010536705154
814.0,0.07998108397108505
813.0,0.08024221949810584
812.0,0.0805035121369384
811.0,0.08076496207674921
810.0,0.08102656950704579
809.0,0.08139308485501817
808.0,0.08170748724464438
807.0,0.08196966321511989
806.0,0.08223199755224364
805.0,0.08259953204474924
804.0,0.08301995267961781
803.0,0.0833881548906541
802.0,0.08375666953466032
801.0,0.08407278830288423
800.0,0.08444188458847957
799.0,0.08481129482684358
798.0,0.08518101955252688
797.0,0.08560394787021397
796.0,0.08608023504853413
795.0,0.08655704514060414
794.0,0.08708744882390307
793.0,0.08756536662442538
792.0,0.0880970039559672
791.0,0.08878910686244668
790.0,0.08953568400438638
789.0,0.09039048950983108
788.0,0.09119340059432579
787.0,0.09189045960744768
786.0,0.09253489323414388
785.0,0.09323411045927221
784.0,0.09409623378338305
783.0,0.0950141189006366
782.0,0.0960964733098364
781.0,0.09734452478207412
780.0,0.09881421986284966
779.0,0.1005078038618683
778.0,0.10237290870955862
777.0,0.10452220372428545
776.0,0.10690433390377163
775.0,0.10946720807225518
774.0,0.11232644754555254
773.0,0.11548784080960606
772.0,0.1190150095132465
771.0,0.12285911021517903
770.0,0.12697018793895576
769.0,0.13123804178794973
768.0,0.13572630319562085
767.0,0.14014147951900724
766.0,0.14442027749828212
765.0,0.14868048735125483
764.0,0.15298290206464582
763.0,0.15732836623921154
762.0,0.16171775008531153
761.0,0.16634300310712757
760.0,0.17108243838331405
759.0,0.17567887514922864
758.0,0.17992996568767428
757.0,0.18375870000821704
756.0,0.18695303483989223
755.0,0.18936429972446267
754.0,0.19097927951632743
753.0,0.1920592787845008
752.0,0.19314197048118253
751.0,0.19429529556613567
750.0,0.19572423287090612
749.0,0.19736308191718943
748.0,0.19887081242029603
747.0,0.19962664510865036
746.0,0.19935164463601196
745.0,0.1980477651457182
744.0,0.19565608152013425
743.0,0.1921268679966679
742.0,0.18775530319963063
741.0,0.18309616062433975
740.0,0.17868302940890257
739.0,0.17457388223217696
738.0,0.17082492608291244
737.0,0.16729952903943257
736.0,0.16392919108485815
735.0,0.1603334431175667
734.0,0.1565803347950816
733.0,0.15304467498017615
732.0,0.1499667423102311
731.0,0.1472151313194523
730.0,0.14466259553045968
729.0,0.14224547794055775
728.0,0.1400815147992842
727.0,0.1380476250785483
726.0,0.13620146131949973
725.0,0.13471831500438958
724.0,0.13353543402825974
723.0,0.1325325121409484
722.0,0.1314731132317961
721.0,0.13024040521758962
720.0,0.12889429901441463
719.0,0.12726117252733116
718.0,0.12540223129680017
717.0,0.12355121312165873
716.0,0.12182301950849372
715.0,0.12033079436794658
714.0,0.11918640771920863
713.0,0.11861534322942724
712.0,0.11884367892443626
711.0,0.1201016756699902
710.0,0.12268625668776156
709.0,0.12714475529518965
708.0,0.13383085236622927
707.0,0.14284849731250704
706.0,0.15452986701832638
705.0,0.1693471862025755
704.0,0.18735398376688117
703.0,0.20837951730718585
702.0,0.23232477597203993
701.0,0.2596373105057561
700.0,0.2905604258675891
699.0,0.32440494361325367
698.0,0.3598168080786599
697.0,0.3938336853923794
696.0,0.42101715729720945
695.0,0.4337982811450871
694.0,0.4285240963180563
693.0,0.4084901910053458
692.0,0.38111551500454954
691.0,0.35242144578754475
690.0,0.32633412375429804
689.0,0.304781081094849
688.0,0.2880241456482442
687.0,0.2749872746588431
686.0,0.26472055193954325
685.0,0.2568039185512987
684.0,0.25049557612385787
683.0,0.24473510858775338
682.0,0.23927602785804836
681.0,0.23462951970835144
680.0,0.23106605781321843
679.0,0.2278984307229881
678.0,0.22497239990115525
677.0,0.22271820832898515
676.0,0.22112552799726037
675.0,0.21961067152904712
674.0,0.21802932608744796
673.0,0.21659671887743648
672.0,0.21516882187553077
671.0,0.21296481797377664
670.0,0.2100669190682496
669.0,0.20795868928791772
668.0,0.20774842809673588
667.0,0.208028798979232
666.0,0.20753826865304936
665.0,0.20620961530918125
664.0,0.20488501436963658
663.0,0.2036338450224786
662.0,0.20238626984692432
661.0,0.20121128604875071
660.0,0.20010831534313467
659.0,0.198596289982645
658.0,0.19667947642124606
657.0,0.19490712165732704
656.0,0.1940236492824372
655.0,0.19361649817583237
654.0,0.19327749692381868
653.0,0.1932097284159331
652.0,0.19361649817583237
651.0,0.19388788983090888
650.0,0.19361649817583237
649.0,0.19300648631789286
648.0,0.19232969876951622
647.0,0.19165396425960513
646.0,0.19111413264018795
645.0,0.19091186865365373
644.0,0.19091186865365373
643.0,0.19077707831057822
642.0,0.19077707831057822
641.0,0.19151894343404896
640.0,0.19300648631789286
639.0,0.19477108579657387
638.0,0.19667947642124606
637.0,0.19969542244380145
636.0,0.2037726859705613
635.0,0.20704829174986794
634.0,0.20753826865304936
633.0,0.20572113427860006
632.0,0.20314825095011302
631.0,0.200797343699475
630.0,0.1987335295103798
629.0,0.19736308191718943
628.0,0.19661117501638659
627.0,0.1962698290254561
626.0,0.19599694527038736
625.0,0.19620159201032594
624.0,0.19681611146465805
623.0,0.19708951058096025
622.0,0.1969527895088714
621.0,0.19681611146465805
620.0,0.19708951058096025
619.0,0.19736308191718943
618.0,0.19708951058096025
617.0,0.196747788569543
616.0,0.19661117501638659
615.0,0.19633807676377568
614.0,0.19558794086228604
613.0,0.19477108579657387
612.0,0.19429529556613567
611.0,0.19388788983090888
610.0,0.1935486767527379
609.0,0.1934808659192948
608.0,0.1935486767527379
607.0,0.1928710444075783
606.0,0.191383964573008
605.0,0.1902383348928749
604.0,0.19010375339756092
603.0,0.18990195931885712
602.0,0.1885590563258419
601.0,0.18688624599210146
600.0,0.18635230465310326
599.0,0.18701983396051958
598.0,0.18768839086887623
597.0,0.18768839086887623
596.0,0.1867526991023949
595.0,0.1842894602110372
594.0,0.18006143064460467
593.0,0.1754836719927908
592.0,0.17204947169736973
591.0,0.17031035910102887
590.0,0.1701175535565067
589.0,0.17101804599207693
588.0,0.1721140172101443
587.0,0.1718558926962137
586.0,0.16973219906635828
585.0,0.16704424939540163
584.0,0.16424603248061653
583.0,0.15989390554324223
582.0,0.1524890347967518
581.0,0.14290884532648618
580.0,0.13294519952329842
579.0,0.12337808396572703
578.0,0.11441264381034388
577.0,0.1061827760325369
576.0,0.09925064193892053
575.0,0.09420411963213149
574.0,0.08996287644694911
573.0,0.08417821237960132
572.0,0.07675598136972361
571.0,0.07012147634321675
570.0,0.06580465065211571
569.0,0.062381820606176586
568.0,0.05898575629443026
567.0,0.05660442349104544
566.0,0.05458065739693696
565.0,0.05144033789103841
564.0,0.04875964967565971
563.0,0.04909991063361274
562.0,0.05002482217034632
561.0,0.0469171560879138
560.0,0.041101805289228244
559.0,0.038436537637930535
558.0,0.040529297924893015
557.0,0.042584285277331047
556.0,0.041197296600497646
555.0,0.03767802727041558
554.0,0.0338113190438627
553.0,0.02960662792039992
552.0,0.026410376572743033
551.0,0.027750864037404455
550.0,0.033952178923546183
549.0,0.04081545726880842
548.0,0.04488976902944808
547.0,0.045902279520810385
546.0,0.04368746915880539
545.0,0.03777276864991497
544.0,0.029839156962686353
543.0,0.024430342106337877
542.0,0.024292536462819925
541.0,0.027612000892527133
540.0,0.031190286087141805
539.0,0.03371743783253667
538.0,0.034516075754861264
537.0,0.03338901331806565
536.0,0.032031037121307726
535.0,0.033154576345083564
534.0,0.03616496929785207
533.0,0.03739392707587297
532.0,0.03522197797762394
531.0,0.03226486821611996
530.0,0.031236951802751545
529.0,0.03137697904301118
528.0,0.030397735151460825
527.0,0.028214062120885508
526.0,0.02710321556345563
525.0,0.028816959143838528
524.0,0.033154576345083564
523.0,0.03772539537668518
522.0,0.03924390909822728
521.0,0.03701541568300293
520.0,0.03428102975577918
519.0,0.03498654972775217
518.0,0.03848398855105106
517.0,0.04076775094900409
516.0,0.03995754427315856
515.0,0.03744126420403626
514.0,0.03475124903287918
513.0,0.032686081712916426
512.0,0.03310770413286357
511.0,0.03739392707587297
510.0,0.04215336629184985
509.0,0.04186632432376469
508.0,0.03621217265444465
507.0,0.03067729388779794
506.0,0.029141943003497595
505.0,0.029653123769906697
504.0,0.029746130405213123
503.0,0.031143625385307683
502.0,0.035693217696063595
501.0,0.04086316882962593
500.0,0.04287180232318688
499.0,0.04172287445230238
498.0,0.03962436858984186
497.0,0.03753595394209874
496.0,0.03592902944204468
495.0,0.036779013477011624
494.0,0.041436116778032606
493.0,0.04730440041308315
492.0,0.050707598587974356
491.0,0.05100054597304693
490.0,0.051049389754451946
489.0,0.052762392129333646
488.0,0.05566540802921782
487.0,0.05799194697768684
486.0,0.0583395216116076
485.0,0.05610995175152733
484.0,0.05148923116234294
483.0,0.04570923829887308
482.0,0.041006334969674096
481.0,0.03914884628031379
480.0,0.04072004986906119
479.0,0.04383156952463674
478.0,0.044456557540257124
477.0,0.04010041213405646
476.0,0.0329671178412978
475.0,0.028353117935693284
474.0,0.02890978686288448
473.0,0.032686081712916426
472.0,0.036873558918095295
471.0,0.04043395336207234
470.0,0.042344833056508824
469.0,0.04138834223512067
468.0,0.03848398855105106
467.0,0.0371100126082089
466.0,0.03957679292217042
465.0,0.04368746915880539
464.0,0.04609540658654021
463.0,0.04638525830935958
462.0,0.04672366333269573
461.0,0.048468209457651845
460.0,0.05100054597304693
459.0,0.05286048235717078
458.0,0.05232126006306337
457.0,0.04871106272232795
456.0,0.043735497301724546
455.0,0.040005161671583744
454.0,0.038199360808321536
453.0,0.03616496929785207
452.0,0.0332483359486222
451.0,0.03240522732811035
450.0,0.03588185684851508
