cm-1,A
4000.0,0.002613615602686581
3999.0,0.0026573093983774942
3998.0,0.0027447101798967477
3997.0,0.0027447101798967477
3996.0,0.002701007590486082
3995.0,0.002613615602686581
3994.0,0.002482560585275184
3993.0,0.002395212539545666
3992.0,0.002351545103793873
3991.0,0.002351545103793873
3990.0,0.002395212539545666
3989.0,0.002395212539545666
3988.0,0.002395212539545666
3987.0,0.002351545103793873
3986.0,0.002351545103793873
3985.0,0.002351545103793873
3984.0,0.0024388843664115978
3983.0,0.002482560585275184
3982.0,0.002569926202528716
3981.0,0.002613615602686581
3980.0,0.002613615602686581
3979.0,0.002613615602686581
3978.0,0.002569926202528716
3977.0,0.0025262411970197185
3976.0,0.002482560585275184
3975.0,0.0024388843664115978
3974.0,0.002351545103793873
3973.0,0.0022642234021015284
3972.0,0.0021769192542746563
3971.0,0.0021332737608552588
3970.0,0.0021332737608552588
3969.0,0.0021769192542746563
3968.0,0.0022642234021015284
3967.0,0.002351545103793873
3966.0,0.0024388843664115978
3965.0,0.002482560585275184
3964.0,0.0024388843664115978
3963.0,0.002351545103793873
3962.0,0.0022642234021015284
3961.0,0.0021332737608552588
3960.0,0.002089632653256679
3959.0,0.0020459959305969555
3958.0,0.002089632653256679
3957.0,0.0022205691343961664
3956.0,0.002351545103793873
3955.0,0.002482560585275184
3954.0,0.0025262411970197185
3953.0,0.0025262411970197185
3952.0,0.0024388843664115978
3951.0,0.0023078820582733695
3950.0,0.0022642234021015284
3949.0,0.0022642234021015284
3948.0,0.0023078820582733695
3947.0,0.002395212539545666
3946.0,0.002482560585275184
3945.0,0.0025262411970197185
3944.0,0.0025262411970197185
3943.0,0.0025262411970197185
3942.0,0.002482560585275184
3941.0,0.0024388843664115978
3940.0,0.002482560585275184
3939.0,0.002569926202528716
3938.0,0.002613615602686581
3937.0,0.0026573093983774942
3936.0,0.002613615602686581
3935.0,0.002569926202528716
3934.0,0.002569926202528716
3933.0,0.002569926202528716
3932.0,0.002569926202528716
3931.0,0.002569926202528716
3930.0,0.0025262411970197185
3929.0,0.002482560585275184
3928.0,0.0025262411970197185
3927.0,0.002613615602686581
3926.0,0.002701007590486082
3925.0,0.002701007590486082
3924.0,0.0026573093983774942
3923.0,0.0025262411970197185
3922.0,0.002482560585275184
3921.0,0.002482560585275184
3920.0,0.002569926202528716
3919.0,0.0026573093983774942
3918.0,0.0027447101798967477
3917.0,0.002701007590486082
3916.0,0.002613615602686581
3915.0,0.002482560585275184
3914.0,0.0024388843664115978
3913.0,0.0024388843664115978
3912.0,0.002482560585275184
3911.0,0.002569926202528716
3910.0,0.002613615602686581
3909.0,0.002569926202528716
3908.0,0.0025262411970197185
3907.0,0.002395212539545666
3906.0,0.002395212539545666
3905.0,0.0024388843664115978
3904.0,0.0025262411970197185
3903.0,0.002569926202528716
3902.0,0.0025262411970197185
3901.0,0.0024388843664115978
3900.0,0.002395212539545666
3899.0,0.002395212539545666
3898.0,0.002395212539545666
3897.0,0.002395212539545666
3896.0,0.002395212539545666
3895.0,0.002395212539545666
3894.0,0.002395212539545666
3893.0,0.002482560585275184
3892.0,0.0025262411970197185
3891.0,0.0024388843664115978
3890.0,0.002351545103793873
3889.0,0.0023078820582733695
3888.0,0.0023078820582733695
3887.0,0.0022642234021015284
3886.0,0.0022205691343961664
3885.0,0.0022642234021015284
3884.0,0.0024388843664115978
3883.0,0.002613615602686581
3882.0,0.0027447101798967477
3881.0,0.002701007590486082
3880.0,0.0025262411970197185
3879.0,0.002395212539545666
3878.0,0.0023078820582733695
3877.0,0.0022642234021015284
3876.0,0.0022205691343961664
3875.0,0.002089632653256679
3874.0,0.0020023635919956817
3873.0,0.0019587356365717845
3872.0,0.0020459959305969555
3871.0,0.0022205691343961664
3870.0,0.0023078820582733695
3869.0,0.002395212539545666
3868.0,0.002569926202528716
3867.0,0.0027447101798967477
3866.0,0.0027884171674950053
3865.0,0.0026573093983774942
3864.0,0.002482560585275184
3863.0,0.0023078820582733695
3862.0,0.0022642234021015284
3861.0,0.0022205691343961664
3860.0,0.0022205691343961664
3859.0,0.0021769192542746563
3858.0,0.002089632653256679
3857.0,0.001915112063444413
3856.0,0.0018278780605593958
3855.0,0.0020023635919956817
3854.0,0.0023078820582733695
3853.0,0.002351545103793873
3852.0,0.0022642234021015284
3851.0,0.002351545103793873
3850.0,0.002482560585275184
3849.0,0.002569926202528716
3848.0,0.0025262411970197185
3847.0,0.002395212539545666
3846.0,0.0022642234021015284
3845.0,0.002089632653256679
3844.0,0.0020023635919956817
3843.0,0.0020023635919956817
3842.0,0.002089632653256679
3841.0,0.0022205691343961664
3840.0,0.002351545103793873
3839.0,0.002395212539545666
3838.0,0.002351545103793873
3837.0,0.0022205691343961664
3836.0,0.0021332737608552588
3835.0,0.0021769192542746563
3834.0,0.0023078820582733695
3833.0,0.0024388843664115978
3832.0,0.002482560585275184
3831.0,0.002482560585275184
3830.0,0.0025262411970197185
3829.0,0.002569926202528716
3828.0,0.002613615602686581
3827.0,0.002613615602686581
3826.0,0.002482560585275184
3825.0,0.002395212539545666
3824.0,0.0023078820582733695
3823.0,0.0022642234021015284
3822.0,0.0023078820582733695
3821.0,0.0021769192542746563
3820.0,0.0020459959305969555
3819.0,0.0020023635919956817
3818.0,0.0020459959305969555
3817.0,0.002089632653256679
3816.0,0.0022205691343961664
3815.0,0.002351545103793873
3814.0,0.002482560585275184
3813.0,0.002613615602686581
3812.0,0.0025262411970197185
3811.0,0.002395212539545666
3810.0,0.0022642234021015284
3809.0,0.0022642234021015284
3808.0,0.0022642234021015284
3807.0,0.0021332737608552588
3806.0,0.0019587356365717845
3805.0,0.001915112063444413
3804.0,0.0021332737608552588
3803.0,0.002395212539545666
3802.0,0.002569926202528716
3801.0,0.0024388843664115978
3800.0,0.0022642234021015284
3799.0,0.0021769192542746563
3798.0,0.0021769192542746563
3797.0,0.0021769192542746563
3796.0,0.0021769192542746563
3795.0,0.0023078820582733695
3794.0,0.002482560585275184
3793.0,0.0026573093983774942
3792.0,0.0027447101798967477
3791.0,0.0028321285541661467
3790.0,0.0028758443407954637
3789.0,0.0028321285541661467
3788.0,0.002701007590486082
3787.0,0.0025262411970197185
3786.0,0.002351545103793873
3785.0,0.0022205691343961664
3784.0,0.0021769192542746563
3783.0,0.0022205691343961664
3782.0,0.002351545103793873
3781.0,0.0024388843664115978
3780.0,0.002482560585275184
3779.0,0.0024388843664115978
3778.0,0.002395212539545666
3777.0,0.0023078820582733695
3776.0,0.0022642234021015284
3775.0,0.0022205691343961664
3774.0,0.0021769192542746563
3773.0,0.0022205691343961664
3772.0,0.0023078820582733695
3771.0,0.002395212539545666
3770.0,0.002351545103793873
3769.0,0.0023078820582733695
3768.0,0.002395212539545666
3767.0,0.002569926202528716
3766.0,0.0026573093983774942
3765.0,0.002613615602686581
3764.0,0.002482560585275184
3763.0,0.002395212539545666
3762.0,0.002395212539545666
3761.0,0.0024388843664115978
3760.0,0.0025262411970197185
3759.0,0.002613615602686581
3758.0,0.002613615602686581
3757.0,0.002569926202528716
3756.0,0.002482560585275184
3755.0,0.002395212539545666
3754.0,0.002351545103793873
3753.0,0.002351545103793873
3752.0,0.0024388843664115978
3751.0,0.002482560585275184
3750.0,0.0024388843664115978
3749.0,0.002351545103793873
3748.0,0.002482560585275184
3747.0,0.002701007590486082
3746.0,0.0029632891174733444
3745.0,0.003050751504618754
3744.0,0.0028321285541661467
3743.0,0.002613615602686581
3742.0,0.002613615602686581
3741.0,0.002569926202528716
3740.0,0.0024388843664115978
3739.0,0.0022642234021015284
3738.0,0.0021769192542746563
3737.0,0.0022205691343961664
3736.0,0.002351545103793873
3735.0,0.0025262411970197185
3734.0,0.002701007590486082
3733.0,0.0027884171674950053
3732.0,0.0027884171674950053
3731.0,0.0027884171674950053
3730.0,0.0028321285541661467
3729.0,0.0028758443407954637
3728.0,0.0028321285541661467
3727.0,0.002701007590486082
3726.0,0.0025262411970197185
3725.0,0.0024388843664115978
3724.0,0.0024388843664115978
3723.0,0.002482560585275184
3722.0,0.002482560585275184
3721.0,0.002482560585275184
3720.0,0.002482560585275184
3719.0,0.002482560585275184
3718.0,0.0025262411970197185
3717.0,0.0025262411970197185
3716.0,0.002482560585275184
3715.0,0.0024388843664115978
3714.0,0.0023078820582733695
3713.0,0.0021769192542746563
3712.0,0.002089632653256679
3711.0,0.002089632653256679
3710.0,0.0021769192542746563
3709.0,0.002351545103793873
3708.0,0.002482560585275184
3707.0,0.002569926202528716
3706.0,0.002569926202528716
3705.0,0.002569926202528716
3704.0,0.002613615602686581
3703.0,0.0026573093983774942
3702.0,0.0026573093983774942
3701.0,0.0026573093983774942
3700.0,0.0026573093983774942
3699.0,0.0027447101798967477
3698.0,0.0027447101798967477
3697.0,0.002701007590486082
3696.0,0.002569926202528716
3695.0,0.0024388843664115978
3694.0,0.002351545103793873
3693.0,0.0022642234021015284
3692.0,0.0022642234021015284
3691.0,0.002395212539545666
3690.0,0.0025262411970197185
3689.0,0.002613615602686581
3688.0,0.002613615602686581
3687.0,0.0026573093983774942
3686.0,0.0027447101798967477
3685.0,0.0027884171674950053
3684.0,0.002701007590486082
3683.0,0.0025262411970197185
3682.0,0.002351545103793873
3681.0,0.0023078820582733695
3680.0,0.0023078820582733695
3679.0,0.002351545103793873
3678.0,0.002482560585275184
3677.0,0.002569926202528716
3676.0,0.002482560585275184
3675.0,0.0021332737608552588
3674.0,0.0018714928717336043
3673.0,0.0018714928717336043
3672.0,0.0019587356365717845
3671.0,0.002089632653256679
3670.0,0.0022642234021015284
3669.0,0.0024388843664115978
3668.0,0.0026573093983774942
3667.0,0.0027884171674950053
3666.0,0.0027884171674950053
3665.0,0.002701007590486082
3664.0,0.002569926202528716
3663.0,0.0025262411970197185
3662.0,0.002569926202528716
3661.0,0.002569926202528716
3660.0,0.002613615602686581
3659.0,0.002613615602686581
3658.0,0.0026573093983774942
3657.0,0.0026573093983774942
3656.0,0.002613615602686581
3655.0,0.0025262411970197185
3654.0,0.002482560585275184
3653.0,0.0024388843664115978
3652.0,0.002395212539545666
3651.0,0.0024388843664115978
3650.0,0.002613615602686581
3649.0,0.002701007590486082
3648.0,0.0026573093983774942
3647.0,0.002569926202528716
3646.0,0.002569926202528716
3645.0,0.002569926202528716
3644.0,0.0026573093983774942
3643.0,0.0027447101798967477
3642.0,0.0028758443407954637
3641.0,0.0029632891174733444
3640.0,0.0029195645282691363
3639.0,0.0028321285541661467
3638.0,0.0026573093983774942
3637.0,0.002569926202528716
3636.0,0.0025262411970197185
3635.0,0.0025262411970197185
3634.0,0.002482560585275184
3633.0,0.002395212539545666
3632.0,0.002351545103793873
3631.0,0.002351545103793873
3630.0,0.0024388843664115978
3629.0,0.002569926202528716
3628.0,0.002569926202528716
3627.0,0.002569926202528716
3626.0,0.0026573093983774942
3625.0,0.002701007590486082
3624.0,0.002701007590486082
3623.0,0.002701007590486082
3622.0,0.002701007590486082
3621.0,0.0026573093983774942
3620.0,0.002569926202528716
3619.0,0.0025262411970197185
3618.0,0.002569926202528716
3617.0,0.002701007590486082
3616.0,0.0028758443407954637
3615.0,0.0029632891174733444
3614.0,0.0028758443407954637
3613.0,0.0027447101798967477
3612.0,0.002613615602686581
3611.0,0.002613615602686581
3610.0,0.002701007590486082
3609.0,0.0028321285541661467
3608.0,0.0030070181092942683
3607.0,0.0030944893043338695
3606.0,0.0030944893043338695
3605.0,0.0030070181092942683
3604.0,0.0029195645282691363
3603.0,0.0028758443407954637
3602.0,0.0028758443407954637
3601.0,0.0028758443407954637
3600.0,0.0027884171674950053
3599.0,0.002613615602686581
3598.0,0.0024388843664115978
3597.0,0.0024388843664115978
3596.0,0.002613615602686581
3595.0,0.0028758443407954637
3594.0,0.0030944893043338695
3593.0,0.0032257291386954545
3592.0,0.0032257291386954545
3591.0,0.0031382315093266833
3590.0,0.003050751504618754
3589.0,0.003050751504618754
3588.0,0.0031382315093266833
3587.0,0.0031819781204844855
3586.0,0.0031819781204844855
3585.0,0.0031382315093266833
3584.0,0.0031382315093266833
3583.0,0.0031382315093266833
3582.0,0.0031382315093266833
3581.0,0.0031382315093266833
3580.0,0.0030944893043338695
3579.0,0.003050751504618754
3578.0,0.0029632891174733444
3577.0,0.0029195645282691363
3576.0,0.0028758443407954637
3575.0,0.0029632891174733444
3574.0,0.0030944893043338695
3573.0,0.0032257291386954545
3572.0,0.0032694845648473247
3571.0,0.0033132443998284966
3570.0,0.0033132443998284966
3569.0,0.0033570086445275926
3568.0,0.0034445503666347133
3567.0,0.0034445503666347133
3566.0,0.0033132443998284966
3565.0,0.0031382315093266833
3564.0,0.0030070181092942683
3563.0,0.0029195645282691363
3562.0,0.0029195645282691363
3561.0,0.0030070181092942683
3560.0,0.0031382315093266833
3559.0,0.0032694845648473247
3558.0,0.0033132443998284966
3557.0,0.0032257291386954545
3556.0,0.0030944893043338695
3555.0,0.0030070181092942683
3554.0,0.003050751504618754
3553.0,0.0031819781204844855
3552.0,0.0033570086445275926
3551.0,0.0034445503666347133
3550.0,0.0035321097382827737
3549.0,0.0035758960449088217
3548.0,0.0036634819042162814
3547.0,0.003707281458678491
3546.0,0.003707281458678491
3545.0,0.0036634819042162814
3544.0,0.0035321097382827737
3543.0,0.0034445503666347133
3542.0,0.0034007772998332353
3541.0,0.0034445503666347133
3540.0,0.0035758960449088217
3539.0,0.0036634819042162814
3538.0,0.003707281458678491
3537.0,0.0036634819042162814
3536.0,0.0035758960449088217
3535.0,0.0035321097382827737
3534.0,0.0035321097382827737
3533.0,0.003619686766589858
3532.0,0.003707281458678491
3531.0,0.003707281458678491
3530.0,0.003619686766589858
3529.0,0.0034007772998332353
3528.0,0.0031819781204844855
3527.0,0.0030070181092942683
3526.0,0.0030070181092942683
3525.0,0.0031382315093266833
3524.0,0.0033570086445275926
3523.0,0.0035321097382827737
3522.0,0.003619686766589858
3521.0,0.0036634819042162814
3520.0,0.0036634819042162814
3519.0,0.003619686766589858
3518.0,0.003619686766589858
3517.0,0.003619686766589858
3516.0,0.003707281458678491
3515.0,0.0038387066319929275
3514.0,0.003926345514724705
3513.0,0.003926345514724705
3512.0,0.0038825238627120395
3511.0,0.003794893821675638
3510.0,0.003707281458678491
3509.0,0.0035758960449088217
3508.0,0.003488327845821315
3507.0,0.0034007772998332353
3506.0,0.0033570086445275926
3505.0,0.0034445503666347133
3504.0,0.0035758960449088217
3503.0,0.0037510854308679953
3502.0,0.003794893821675638
3501.0,0.0037510854308679953
3500.0,0.0036634819042162814
3499.0,0.0036634819042162814
3498.0,0.003707281458678491
3497.0,0.0036634819042162814
3496.0,0.0035758960449088217
3495.0,0.003488327845821315
3494.0,0.003488327845821315
3493.0,0.003488327845821315
3492.0,0.003488327845821315
3491.0,0.003488327845821315
3490.0,0.0035321097382827737
3489.0,0.0036634819042162814
3488.0,0.0037510854308679953
3487.0,0.0038387066319929275
3486.0,0.0038825238627120395
3485.0,0.0038387066319929275
3484.0,0.003794893821675638
3483.0,0.0036634819042162814
3482.0,0.0035758960449088217
3481.0,0.003488327845821315
3480.0,0.003488327845821315
3479.0,0.0035321097382827737
3478.0,0.003619686766589858
3477.0,0.0036634819042162814
3476.0,0.003707281458678491
3475.0,0.0037510854308679953
3474.0,0.003794893821675638
3473.0,0.0038387066319929275
3472.0,0.0038825238627120395
3471.0,0.0038825238627120395
3470.0,0.0038825238627120395
3469.0,0.0038387066319929275
3468.0,0.003794893821675638
3467.0,0.0037510854308679953
3466.0,0.0036634819042162814
3465.0,0.0036634819042162814
3464.0,0.0036634819042162814
3463.0,0.003707281458678491
3462.0,0.003794893821675638
3461.0,0.0038387066319929275
3460.0,0.003926345514724705
3459.0,0.003970171588923321
3458.0,0.003970171588923321
3457.0,0.003970171588923321
3456.0,0.0038825238627120395
3455.0,0.003794893821675638
3454.0,0.0037510854308679953
3453.0,0.003707281458678491
3452.0,0.0036634819042162814
3451.0,0.003619686766589858
3450.0,0.003619686766589858
3449.0,0.003619686766589858
3448.0,0.0036634819042162814
3447.0,0.0036634819042162814
3446.0,0.0037510854308679953
3445.0,0.0038825238627120395
3444.0,0.004101676353562844
3443.0,0.004320939488377862
3442.0,0.004408675747646695
3441.0,0.004408675747646695
3440.0,0.004320939488377862
3439.0,0.004233220950025984
3438.0,0.004145520125434121
3437.0,0.003970171588923321
3436.0,0.003794893821675638
3435.0,0.003619686766589858
3434.0,0.0035321097382827737
3433.0,0.003488327845821315
3432.0,0.003488327845821315
3431.0,0.0035758960449088217
3430.0,0.0037510854308679953
3429.0,0.003970171588923321
3428.0,0.004101676353562844
3427.0,0.004233220950025984
3426.0,0.004320939488377862
3425.0,0.004452550524862486
3424.0,0.004628093971837721
3423.0,0.004715892310740433
3422.0,0.004671990922590297
3421.0,0.004452550524862486
3420.0,0.004189368323957332
3419.0,0.003926345514724705
3418.0,0.003794893821675638
3417.0,0.0037510854308679953
3416.0,0.0037510854308679953
3415.0,0.003794893821675638
3414.0,0.0038825238627120395
3413.0,0.003970171588923321
3412.0,0.00401400208620073
3411.0,0.0040578370074493275
3410.0,0.004101676353562844
3409.0,0.004101676353562844
3408.0,0.004101676353562844
3407.0,0.004101676353562844
3406.0,0.004101676353562844
3405.0,0.0040578370074493275
3404.0,0.004101676353562844
3403.0,0.004145520125434121
3402.0,0.004101676353562844
3401.0,0.00401400208620073
3400.0,0.003926345514724705
3399.0,0.0038825238627120395
3398.0,0.003926345514724705
3397.0,0.00401400208620073
3396.0,0.0040578370074493275
3395.0,0.00401400208620073
3394.0,0.00401400208620073
3393.0,0.00401400208620073
3392.0,0.004101676353562844
3391.0,0.004145520125434121
3390.0,0.004189368323957332
3389.0,0.004277078004534696
3388.0,0.004320939488377862
3387.0,0.004320939488377862
3386.0,0.004277078004534696
3385.0,0.004189368323957332
3384.0,0.004145520125434121
3383.0,0.004101676353562844
3382.0,0.004101676353562844
3381.0,0.004101676353562844
3380.0,0.004101676353562844
3379.0,0.004101676353562844
3378.0,0.00401400208620073
3377.0,0.003970171588923321
3376.0,0.0038825238627120395
3375.0,0.003794893821675638
3374.0,0.003794893821675638
3373.0,0.003794893821675638
3372.0,0.0038387066319929275
3371.0,0.0038825238627120395
3370.0,0.003970171588923321
3369.0,0.0040578370074493275
3368.0,0.004189368323957332
3367.0,0.004320939488377862
3366.0,0.0043648054024501
3365.0,0.004408675747646695
3364.0,0.004408675747646695
3363.0,0.0043648054024501
3362.0,0.004189368323957332
3361.0,0.003970171588923321
3360.0,0.003794893821675638
3359.0,0.0037510854308679953
3358.0,0.003794893821675638
3357.0,0.003926345514724705
3356.0,0.0040578370074493275
3355.0,0.004145520125434121
3354.0,0.004145520125434121
3353.0,0.004101676353562844
3352.0,0.0040578370074493275
3351.0,0.0040578370074493275
3350.0,0.004101676353562844
3349.0,0.004189368323957332
3348.0,0.004233220950025984
3347.0,0.004233220950025984
3346.0,0.004189368323957332
3345.0,0.004101676353562844
3344.0,0.00401400208620073
3343.0,0.003926345514724705
3342.0,0.0038825238627120395
3341.0,0.0038825238627120395
3340.0,0.0038825238627120395
3339.0,0.003926345514724705
3338.0,0.003970171588923321
3337.0,0.0040578370074493275
3336.0,0.0040578370074493275
3335.0,0.00401400208620073
3334.0,0.003970171588923321
3333.0,0.003926345514724705
3332.0,0.003926345514724705
3331.0,0.003926345514724705
3330.0,0.0038387066319929275
3329.0,0.003707281458678491
3328.0,0.0035758960449088217
3327.0,0.0035321097382827737
3326.0,0.0035758960449088217
3325.0,0.0036634819042162814
3324.0,0.0037510854308679953
3323.0,0.0038387066319929275
3322.0,0.0038825238627120395
3321.0,0.003926345514724705
3320.0,0.0038825238627120395
3319.0,0.003794893821675638
3318.0,0.0037510854308679953
3317.0,0.003707281458678491
3316.0,0.003707281458678491
3315.0,0.0037510854308679953
3314.0,0.0038387066319929275
3313.0,0.0038387066319929275
3312.0,0.003794893821675638
3311.0,0.003707281458678491
3310.0,0.0035758960449088217
3309.0,0.003488327845821315
3308.0,0.003488327845821315
3307.0,0.003488327845821315
3306.0,0.003488327845821315
3305.0,0.003488327845821315
3304.0,0.003488327845821315
3303.0,0.003488327845821315
3302.0,0.003488327845821315
3301.0,0.003488327845821315
3300.0,0.0035321097382827737
3299.0,0.0036634819042162814
3298.0,0.0038387066319929275
3297.0,0.003926345514724705
3296.0,0.0038825238627120395
3295.0,0.003794893821675638
3294.0,0.003619686766589858
3293.0,0.0035321097382827737
3292.0,0.0034445503666347133
3291.0,0.0034445503666347133
3290.0,0.003488327845821315
3289.0,0.0035758960449088217
3288.0,0.003619686766589858
3287.0,0.0036634819042162814
3286.0,0.0036634819042162814
3285.0,0.0036634819042162814
3284.0,0.003707281458678491
3283.0,0.003794893821675638
3282.0,0.0038387066319929275
3281.0,0.003794893821675638
3280.0,0.003619686766589858
3279.0,0.0034445503666347133
3278.0,0.0032694845648473247
3277.0,0.0033132443998284966
3276.0,0.0034007772998332353
3275.0,0.0034445503666347133
3274.0,0.0034445503666347133
3273.0,0.0034007772998332353
3272.0,0.0033570086445275926
3271.0,0.0033570086445275926
3270.0,0.0033570086445275926
3269.0,0.0034007772998332353
3268.0,0.0034445503666347133
3267.0,0.003488327845821315
3266.0,0.003488327845821315
3265.0,0.003488327845821315
3264.0,0.0034445503666347133
3263.0,0.0035321097382827737
3262.0,0.0036634819042162814
3261.0,0.0037510854308679953
3260.0,0.003707281458678491
3259.0,0.0035758960449088217
3258.0,0.0034007772998332353
3257.0,0.0032694845648473247
3256.0,0.0031382315093266833
3255.0,0.003050751504618754
3254.0,0.0030944893043338695
3253.0,0.0031382315093266833
3252.0,0.0031819781204844855
3251.0,0.0031819781204844855
3250.0,0.0031382315093266833
3249.0,0.0031382315093266833
3248.0,0.0031819781204844855
3247.0,0.0033570086445275926
3246.0,0.0034445503666347133
3245.0,0.003488327845821315
3244.0,0.003488327845821315
3243.0,0.0034007772998332353
3242.0,0.0033570086445275926
3241.0,0.0033132443998284966
3240.0,0.0033132443998284966
3239.0,0.0033132443998284966
3238.0,0.0033570086445275926
3237.0,0.0034445503666347133
3236.0,0.003488327845821315
3235.0,0.0035321097382827737
3234.0,0.0034445503666347133
3233.0,0.0033132443998284966
3232.0,0.0032694845648473247
3231.0,0.0032694845648473247
3230.0,0.0033570086445275926
3229.0,0.0034445503666347133
3228.0,0.0034445503666347133
3227.0,0.0033570086445275926
3226.0,0.0032694845648473247
3225.0,0.0031819781204844855
3224.0,0.0032694845648473247
3223.0,0.0033570086445275926
3222.0,0.003488327845821315
3221.0,0.0035758960449088217
3220.0,0.003619686766589858
3219.0,0.0035758960449088217
3218.0,0.003488327845821315
3217.0,0.0033570086445275926
3216.0,0.0033132443998284966
3215.0,0.0033132443998284966
3214.0,0.0033570086445275926
3213.0,0.0033570086445275926
3212.0,0.0033570086445275926
3211.0,0.0034445503666347133
3210.0,0.0035758960449088217
3209.0,0.003707281458678491
3208.0,0.0037510854308679953
3207.0,0.003707281458678491
3206.0,0.003619686766589858
3205.0,0.0035321097382827737
3204.0,0.0035321097382827737
3203.0,0.0035321097382827737
3202.0,0.003619686766589858
3201.0,0.0036634819042162814
3200.0,0.0036634819042162814
3199.0,0.003619686766589858
3198.0,0.0035321097382827737
3197.0,0.003488327845821315
3196.0,0.003488327845821315
3195.0,0.0034445503666347133
3194.0,0.0033570086445275926
3193.0,0.0032694845648473247
3192.0,0.0032257291386954545
3191.0,0.0032257291386954545
3190.0,0.0032694845648473247
3189.0,0.0032257291386954545
3188.0,0.0031382315093266833
3187.0,0.0030070181092942683
3186.0,0.0030070181092942683
3185.0,0.0030944893043338695
3184.0,0.0032694845648473247
3183.0,0.0034007772998332353
3182.0,0.0034445503666347133
3181.0,0.0034007772998332353
3180.0,0.0033570086445275926
3179.0,0.0033132443998284966
3178.0,0.0033132443998284966
3177.0,0.0032694845648473247
3176.0,0.0033132443998284966
3175.0,0.0033132443998284966
3174.0,0.0033570086445275926
3173.0,0.0033570086445275926
3172.0,0.0032694845648473247
3171.0,0.0030944893043338695
3170.0,0.0029195645282691363
3169.0,0.0027447101798967477
3168.0,0.002701007590486082
3167.0,0.0027447101798967477
3166.0,0.0028321285541661467
3165.0,0.0028758443407954637
3164.0,0.0028758443407954637
3163.0,0.0028321285541661467
3162.0,0.0027447101798967477
3161.0,0.0026573093983774942
3160.0,0.002613615602686581
3159.0,0.002701007590486082
3158.0,0.0027884171674950053
3157.0,0.0028321285541661467
3156.0,0.0028758443407954637
3155.0,0.0028321285541661467
3154.0,0.0028321285541661467
3153.0,0.0028321285541661467
3152.0,0.0028321285541661467
3151.0,0.0028321285541661467
3150.0,0.0028321285541661467
3149.0,0.0028758443407954637
3148.0,0.0029195645282691363
3147.0,0.0029195645282691363
3146.0,0.0028758443407954637
3145.0,0.0027884171674950053
3144.0,0.002701007590486082
3143.0,0.002701007590486082
3142.0,0.0027884171674950053
3141.0,0.0029195645282691363
3140.0,0.0030070181092942683
3139.0,0.003050751504618754
3138.0,0.0029632891174733444
3137.0,0.0027884171674950053
3136.0,0.002569926202528716
3135.0,0.002395212539545666
3134.0,0.0022642234021015284
3133.0,0.0022642234021015284
3132.0,0.0023078820582733695
3131.0,0.002351545103793873
3130.0,0.002351545103793873
3129.0,0.002351545103793873
3128.0,0.002351545103793873
3127.0,0.0023078820582733695
3126.0,0.0022642234021015284
3125.0,0.0022642234021015284
3124.0,0.0023078820582733695
3123.0,0.002351545103793873
3122.0,0.002395212539545666
3121.0,0.002351545103793873
3120.0,0.002351545103793873
3119.0,0.002351545103793873
3118.0,0.002351545103793873
3117.0,0.0023078820582733695
3116.0,0.0022642234021015284
3115.0,0.0022205691343961664
3114.0,0.0021332737608552588
3113.0,0.0020023635919956817
3112.0,0.001915112063444413
3111.0,0.0018278780605593958
3110.0,0.0018278780605593958
3109.0,0.001915112063444413
3108.0,0.0020459959305969555
3107.0,0.0021332737608552588
3106.0,0.0021332737608552588
3105.0,0.0020459959305969555
3104.0,0.001915112063444413
3103.0,0.0017842676290416026
3102.0,0.0017406615763013722
3101.0,0.0016970599014589638
3100.0,0.0017406615763013722
3099.0,0.0017842676290416026
3098.0,0.0018278780605593958
3097.0,0.0018278780605593958
3096.0,0.0018714928717336043
3095.0,0.0018714928717336043
3094.0,0.0018714928717336043
3093.0,0.0018714928717336043
3092.0,0.0017842676290416026
3091.0,0.0017406615763013722
3090.0,0.0016970599014589638
3089.0,0.0016970599014589638
3088.0,0.0016970599014589638
3087.0,0.0017406615763013722
3086.0,0.0017406615763013722
3085.0,0.0017406615763013722
3084.0,0.0016970599014589638
3083.0,0.0016534626036355249
3082.0,0.001609869681952425
3081.0,0.001609869681952425
3080.0,0.001609869681952425
3079.0,0.0015662811355310335
3078.0,0.0014355417390583547
3077.0,0.0012612837441823288
3076.0,0.0011741809597138886
3075.0,0.0011306361176557367
3074.0,0.0011741809597138886
3073.0,0.0012612837441823288
3072.0,0.001348404001626502
3071.0,0.0013919706849057079
3070.0,0.001348404001626502
3069.0,0.001304841688344327
3068.0,0.0012612837441823288
3067.0,0.0012177301682640973
3066.0,0.0012177301682640973
3065.0,0.0012177301682640973
3064.0,0.0011741809597138886
3063.0,0.0011741809597138886
3062.0,0.0010870956412141197
3061.0,0.0010435595295137379
3060.0,0.0010000277816797354
3059.0,0.0009129773741116676
3058.0,0.0008259444115150671
3057.0,0.0007824344698965646
3056.0,0.0008259444115150671
3055.0,0.0009129773741116676
3054.0,0.0010000277816797354
3053.0,0.0010000277816797354
3052.0,0.0009565003968372565
3051.0,0.0009129773741116676
3050.0,0.000869458712629001
3049.0,0.0008259444115150671
3048.0,0.0007389288868995258
3047.0,0.0006954276616513155
3046.0,0.0007389288868995258
3045.0,0.0007824344698965646
3044.0,0.0007824344698965646
3043.0,0.0008259444115150671
3042.0,0.0008259444115150671
3041.0,0.000869458712629001
3040.0,0.0009129773741116676
3039.0,0.000869458712629001
3038.0,0.0007389288868995258
3037.0,0.0005649501236701937
3036.0,0.00043451177401765406
3035.0,0.0003910410285830057
3034.0,0.0004779868710962365
3033.0,0.0006084382809090627
3032.0,0.0007824344698965646
3031.0,0.000869458712629001
3030.0,0.0009129773741116676
3029.0,0.0010000277816797354
3028.0,0.0010435595295137379
3027.0,0.0010435595295137379
3026.0,0.0010000277816797354
3025.0,0.000869458712629001
3024.0,0.0007389288868995258
3023.0,0.0006519307932786322
3022.0,0.0006084382809090627
3021.0,0.0006084382809090627
3020.0,0.0005649501236701937
3019.0,0.000521466320689834
3018.0,0.000521466320689834
3017.0,0.0006084382809090627
3016.0,0.0006954276616513155
3015.0,0.0007824344698965646
3014.0,0.000869458712629001
3013.0,0.000869458712629001
3012.0,0.0007824344698965646
3011.0,0.0006519307932786322
3010.0,0.000521466320689834
3009.0,0.0004779868710962365
3008.0,0.0005649501236701937
3007.0,0.0006954276616513155
3006.0,0.000869458712629001
3005.0,0.0010000277816797354
3004.0,0.0010870956412141197
3003.0,0.0012177301682640973
3002.0,0.0012612837441823288
3001.0,0.001304841688344327
3000.0,0.0013919706849057079
2999.0,0.0015226969634936083
2998.0,0.0016970599014589638
2997.0,0.001915112063444413
2996.0,0.0021332737608552588
2995.0,0.002351545103793873
2994.0,0.0025262411970197185
2993.0,0.0027447101798967477
2992.0,0.003050751504618754
2991.0,0.0033570086445275926
2990.0,0.003794893821675638
2989.0,0.004233220950025984
2988.0,0.004759798137184523
2987.0,0.00537494623139545
2986.0,0.006079041198713275
2985.0,0.006872514894289861
2984.0,0.007800070204414977
2983.0,0.008818242332126802
2982.0,0.009927665307847056
2981.0,0.011218156546359825
2980.0,0.01264661126420652
2979.0,0.014349026309051105
2978.0,0.01628352608625061
2977.0,0.01840788278591865
2976.0,0.020861530453190058
2975.0,0.02351246269481
2974.0,0.02654885597506529
2973.0,0.029978734171634214
2972.0,0.033905220553829274
2971.0,0.03838909190871931
2970.0,0.043303435105349175
2969.0,0.0486139051197072
2968.0,0.05413767551038262
2967.0,0.05988213325228142
2966.0,0.06575411897692884
2965.0,0.0716553647351379
2964.0,0.0772226580712021
2963.0,0.08202211740709164
2962.0,0.08581556657675371
2961.0,0.0884695376928375
2960.0,0.09023008526723086
2959.0,0.09146136782804049
2958.0,0.09269615116603047
2957.0,0.09431203228814788
2956.0,0.09669292003582619
2955.0,0.09996076451267522
2954.0,0.10391491457671487
2953.0,0.10807246577932506
2952.0,0.1117081546434846
2951.0,0.11396072443355765
2950.0,0.11429961987167014
2949.0,0.11232644754555254
2948.0,0.1081838804751396
2947.0,0.10237290870955862
2946.0,0.09550084460218011
2945.0,0.08830984124613894
2944.0,0.08144546944972642
2943.0,0.07541061433058172
2942.0,0.07047889936889606
2941.0,0.06691783763020887
2940.0,0.06469430971007495
2939.0,0.0636873663378068
2938.0,0.06378795567975115
2937.0,0.06484555278383164
2936.0,0.06686717627326577
2935.0,0.06976434723371505
2934.0,0.0734517753643813
2933.0,0.07784567476894111
2932.0,0.08291480935943274
2931.0,0.0884695376928375
2930.0,0.09431203228814788
2929.0,0.10028890542885538
2928.0,0.1061827760325369
2927.0,0.11198908775497118
2926.0,0.11770319906234805
2925.0,0.12337808396572703
2924.0,0.1290696416513042
2923.0,0.13489602535887202
2922.0,0.14062149557439896
2921.0,0.1459369881335788
2920.0,0.15051916275601385
2919.0,0.15391041964201602
2918.0,0.15552282425431851
2917.0,0.15527437202677397
2916.0,0.1532918545439932
2915.0,0.14984407757790774
2914.0,0.1456939581989194
2913.0,0.14128238513970826
2912.0,0.13721290176465573
2911.0,0.13353543402825974
2910.0,0.13041629228657614
2909.0,0.1276688787697493
2908.0,0.124996646399959
2907.0,0.12234075588839133
2906.0,0.11947222180119477
2905.0,0.11645212073195621
2904.0,0.11328372588352176
2903.0,0.11002636159600376
2902.0,0.10668218838388821
2901.0,0.1033635694704158
2900.0,0.10007011727213588
2899.0,0.09685572959046151
2898.0,0.0937727369476411
2897.0,0.09092559859909577
2896.0,0.08841629901892434
2895.0,0.08618614761628329
2894.0,0.08433639649422697
2893.0,0.08275714209253371
2892.0,0.08155025759884227
2891.0,0.08066036321258663
2890.0,0.08003329851661278
2889.0,0.07961575782164254
2888.0,0.0794071379151915
2887.0,0.07925073872429178
2886.0,0.07925073872429178
2885.0,0.0794592834975203
2884.0,0.07982447798997727
2883.0,0.0805035121369384
2882.0,0.08134070657817682
2881.0,0.08223199755224364
2880.0,0.08301995267961781
2879.0,0.08349341288484435
2878.0,0.08359869639612438
2877.0,0.08328292240118751
2876.0,0.08275714209253371
2875.0,0.0823369756726251
2874.0,0.08217951800630297
2873.0,0.08238947425013277
2872.0,0.08301995267961781
2871.0,0.08402008585977572
2870.0,0.08528671302637614
2869.0,0.08645104209348209
2868.0,0.08719360733870762
2867.0,0.0870343792958963
2866.0,0.08560394787021397
2865.0,0.08280969148843575
2864.0,0.07878187880504961
2863.0,0.07417242537525759
2862.0,0.06945847013556561
2861.0,0.06524912533642091
2860.0,0.06193081377661436
2859.0,0.05953332233647113
2858.0,0.05809122563440061
2857.0,0.05744631966579017
2856.0,0.0575950591438934
2855.0,0.05848856736559682
2854.0,0.05998184499233683
2853.0,0.06198090252378963
2852.0,0.06424089625468832
2851.0,0.06636088747507496
2850.0,0.0680846829187538
2849.0,0.06935655895783555
2848.0,0.07037674848475972
2847.0,0.07160414774328627
2846.0,0.07334892291111106
2845.0,0.07572071393811841
2844.0,0.07872981449018734
2843.0,0.08202211740709164
2842.0,0.08523386307414738
2841.0,0.0880970039559672
2840.0,0.09017663034908807
2839.0,0.09108625997902897
2838.0,0.0905509530187334
2837.0,0.08841629901892434
2836.0,0.08481129482684358
2835.0,0.07998108397108505
2834.0,0.07453319930846214
2833.0,0.0690000580438479
2832.0,0.06378795567975115
2831.0,0.059135024033278416
2830.0,0.055122694036304765
2829.0,0.05163594401163074
2828.0,0.04866248120408234
2827.0,0.04609540658654021
2826.0,0.0439276630048171
2825.0,0.04200982159316968
2824.0,0.040338629726504704
2823.0,0.03886378261277468
2822.0,0.037583306554248797
2821.0,0.03649550058570927
2820.0,0.03555179208333925
2819.0,0.03465716443937783
2818.0,0.03385826726096752
2817.0,0.03310770413286357
2816.0,0.03245202378113787
2815.0,0.03184406285002961
2814.0,0.031236951802751545
2813.0,0.03067729388779794
2812.0,0.030118356253500123
2811.0,0.029653123769906697
2810.0,0.029141943003497595
2809.0,0.028677754757187035
2808.0,0.02812138297373412
2807.0,0.027565723042634938
2806.0,0.027010773144651168
2805.0,0.026410376572743033
2804.0,0.025902996205869
2803.0,0.02544225514642018
2802.0,0.025074013910237447
2801.0,0.024706084643793647
2800.0,0.024292536462819925
2799.0,0.023833499868024743
2798.0,0.02342078135989012
2797.0,0.023054249440757957
2796.0,0.02277955336461468
2795.0,0.02255077261765881
2794.0,0.02227639471115217
2793.0,0.021910826943857264
2792.0,0.021545566634771474
2791.0,0.0211806132671577
2790.0,0.020907099361673565
2789.0,0.020633757603838898
2788.0,0.02036058777709271
2787.0,0.020087589665283012
2786.0,0.019814763052665052
2785.0,0.01949668180660491
2784.0,0.019178833355664393
2783.0,0.018861217359339655
2782.0,0.018543833477873584
2781.0,0.018271974638383703
2780.0,0.01809082990920774
2779.0,0.017909760704207134
2778.0,0.017774008325325275
2777.0,0.017638298366853045
2776.0,0.017457417697056554
2775.0,0.017231422748988034
2774.0,0.017005545341335804
2773.0,0.016824927962187042
2772.0,0.016734647433454652
2771.0,0.016599261819461697
2770.0,0.01646391839700767
2769.0,0.01628352608625061
2768.0,0.016103208673694303
2767.0,0.016013078034810446
2766.0,0.015922966097169144
2765.0,0.015877917138889863
2764.0,0.01578783323856614
2763.0,0.015742798294583915
2762.0,0.015652742414136167
2761.0,0.015517693597737248
2760.0,0.01538268676325183
2759.0,0.015247721884586563
2758.0,0.015112798935672522
2757.0,0.015022873584506602
2756.0,0.014888020460646079
2755.0,0.014753209197138295
2754.0,0.014663358264387139
2753.0,0.014573525916998342
2752.0,0.01452861671041239
2751.0,0.01452861671041239
2750.0,0.014573525916998342
2749.0,0.014573525916998342
2748.0,0.014618439768003144
2747.0,0.014618439768003144
2746.0,0.014618439768003144
2745.0,0.014663358264387139
2744.0,0.014753209197138295
2743.0,0.014798141635428141
2742.0,0.014843078722943437
2741.0,0.014843078722943437
2740.0,0.014798141635428141
2739.0,0.014798141635428141
2738.0,0.014753209197138295
2737.0,0.014753209197138295
2736.0,0.014753209197138295
2735.0,0.014798141635428141
2734.0,0.014843078722943437
2733.0,0.014977917890464765
2732.0,0.015112798935672522
2731.0,0.015247721884586563
2730.0,0.015427684378367834
2729.0,0.015652742414136167
2728.0,0.015877917138889863
2727.0,0.016103208673694303
2726.0,0.01632861713980338
2725.0,0.016418813294209356
2724.0,0.016509028184833463
2723.0,0.01646391839700767
2722.0,0.016418813294209356
2721.0,0.01628352608625061
2720.0,0.016193358021584725
2719.0,0.016058141016111804
2718.0,0.015877917138889863
2717.0,0.015607721475734415
2716.0,0.015337693809893471
2715.0,0.015112798935672522
2714.0,0.014888020460646079
2713.0,0.014708281407112
2712.0,0.0144837121472845
2711.0,0.014259258949925524
2710.0,0.01403492169512921
2709.0,0.01381070026317599
2708.0,0.013586594534531482
2707.0,0.013496984613259544
2706.0,0.013452186585275916
2705.0,0.013452186585275916
2704.0,0.013362604389846044
2703.0,0.01322826573375524
2702.0,0.013093968619278806
2701.0,0.012959713020733288
2700.0,0.012914970375878188
2699.0,0.012914970375878188
2698.0,0.012870232340102872
2697.0,0.012825498912458322
2696.0,0.012780770091995297
2695.0,0.012736045877764557
2694.0,0.012691326268817527
2693.0,0.01264661126420652
2692.0,0.01260190086298274
2691.0,0.012557195064198723
2690.0,0.012512493866907004
2689.0,0.012512493866907004
2688.0,0.012467797270160563
2687.0,0.012467797270160563
2686.0,0.012423105273012602
2685.0,0.012467797270160563
2684.0,0.012467797270160563
2683.0,0.012467797270160563
2682.0,0.012467797270160563
2681.0,0.012512493866907004
2680.0,0.012557195064198723
2679.0,0.01260190086298274
2678.0,0.012557195064198723
2677.0,0.012467797270160563
2676.0,0.012378417874516323
2675.0,0.012289056869694281
2674.0,0.012199714248127602
2673.0,0.012199714248127602
2672.0,0.012199714248127602
2671.0,0.012199714248127602
2670.0,0.01215504982870197
2669.0,0.012110390002254778
2668.0,0.012021084124518078
2667.0,0.012021084124518078
2666.0,0.012021084124518078
2665.0,0.012065734767841452
2664.0,0.012065734767841452
2663.0,0.012065734767841452
2662.0,0.012021084124518078
2661.0,0.0119764380713403
2660.0,0.011842527443247208
2659.0,0.011753276624621556
2658.0,0.011708658092512314
2657.0,0.011753276624621556
2656.0,0.011797899741219142
2655.0,0.011797899741219142
2654.0,0.011753276624621556
2653.0,0.011708658092512314
2652.0,0.011619434777991433
2651.0,0.011574829993696856
2650.0,0.011485634166333858
2649.0,0.011441043121384498
2648.0,0.011396456654336085
2647.0,0.011396456654336085
2646.0,0.011396456654336085
2645.0,0.011351874764248926
2644.0,0.011262724711199823
2643.0,0.01117359295472431
2642.0,0.011084479487313281
2641.0,0.011039929609661936
2640.0,0.011039929609661936
2639.0,0.011084479487313281
2638.0,0.011039929609661936
2637.0,0.010995384301463185
2636.0,0.010950843561779777
2635.0,0.010817248744452446
2634.0,0.01077272626946324
2633.0,0.01077272626946324
2632.0,0.01086177578421088
2631.0,0.010906307389674463
2630.0,0.010906307389674463
2629.0,0.01086177578421088
2628.0,0.010817248744452446
2627.0,0.010728208358306901
2626.0,0.010683695010048622
2625.0,0.010728208358306901
2624.0,0.010817248744452446
2623.0,0.010950843561779777
2622.0,0.011039929609661936
2621.0,0.011039929609661936
2620.0,0.010950843561779777
2619.0,0.01086177578421088
2618.0,0.010817248744452446
2617.0,0.01077272626946324
2616.0,0.01077272626946324
2615.0,0.010728208358306901
2614.0,0.010683695010048622
2613.0,0.010594681998483901
2612.0,0.010505687227290839
2611.0,0.010416710688994968
2610.0,0.010327752376126709
2609.0,0.010283280051895272
2608.0,0.010283280051895272
2607.0,0.010283280051895272
2606.0,0.010327752376126709
2605.0,0.010283280051895272
2604.0,0.010283280051895272
2603.0,0.01023881228122181
2602.0,0.010149890396819572
2601.0,0.010060986715464404
2600.0,0.009972101229705377
2599.0,0.009927665307847056
2598.0,0.009927665307847056
2597.0,0.009972101229705377
2596.0,0.010060986715464404
2595.0,0.010105436281226954
2594.0,0.010149890396819572
2593.0,0.010194349063173958
2592.0,0.010194349063173958
2591.0,0.010149890396819572
2590.0,0.010149890396819572
2589.0,0.010149890396819572
2588.0,0.01023881228122181
2587.0,0.010327752376126709
2586.0,0.01046119667949763
2585.0,0.010550182333308289
2584.0,0.010683695010048622
2583.0,0.01077272626946324
2582.0,0.010817248744452446
2581.0,0.010817248744452446
2580.0,0.010817248744452446
2579.0,0.010728208358306901
2578.0,0.010639186223752484
2577.0,0.01046119667949763
2576.0,0.010327752376126709
2575.0,0.010194349063173958
2574.0,0.010149890396819572
2573.0,0.010105436281226954
2572.0,0.010060986715464404
2571.0,0.009972101229705377
2570.0,0.009927665307847056
2569.0,0.009927665307847056
2568.0,0.009883233932095559
2567.0,0.009838807101520963
2566.0,0.009705553871561357
2565.0,0.009572341514736404
2564.0,0.009527946474380489
2563.0,0.009483555971770974
2562.0,0.009527946474380489
2561.0,0.009527946474380489
2560.0,0.009527946474380489
2559.0,0.009483555971770974
2558.0,0.00939478857608056
2557.0,0.009306039320248427
2556.0,0.009217308196862062
2555.0,0.009172949432521227
2554.0,0.009172949432521227
2553.0,0.009128595198514056
2552.0,0.009128595198514056
2551.0,0.009128595198514056
2550.0,0.009128595198514056
2549.0,0.009172949432521227
2548.0,0.009172949432521227
2547.0,0.009128595198514056
2546.0,0.009128595198514056
2545.0,0.009128595198514056
2544.0,0.00908424549391551
2543.0,0.008995559669244813
2542.0,0.008862564879688284
2541.0,0.008773924307505121
2540.0,0.008685301823389224
2539.0,0.008685301823389224
2538.0,0.008685301823389224
2537.0,0.008685301823389224
2536.0,0.0087296108049002
2535.0,0.008818242332126802
2534.0,0.008862564879688284
2533.0,0.008818242332126802
2532.0,0.008773924307505121
2531.0,0.008685301823389224
2530.0,0.008552401996197112
2529.0,0.008463824699968647
2528.0,0.008330992620051436
2527.0,0.008286724286910463
2526.0,0.008242460465651913
2525.0,0.008242460465651913
2524.0,0.008286724286910463
2523.0,0.008375265465994541
2522.0,0.008463824699968647
2521.0,0.008552401996197112
2520.0,0.008552401996197112
2519.0,0.008463824699968647
2518.0,0.008330992620051436
2517.0,0.008198201155356077
2516.0,0.008109696063975047
2515.0,0.008109696063975047
2514.0,0.008109696063975047
2513.0,0.008065450281052211
2512.0,0.008065450281052211
2511.0,0.008021209005416363
2510.0,0.008021209005416363
2509.0,0.008065450281052211
2508.0,0.008109696063975047
2507.0,0.008153946355103248
2506.0,0.008065450281052211
2505.0,0.007888512213050314
2504.0,0.007800070204414977
2503.0,0.007755855953228474
2502.0,0.007800070204414977
2501.0,0.007844288957383316
2500.0,0.007888512213050314
2499.0,0.007844288957383316
2498.0,0.007800070204414977
2497.0,0.007800070204414977
2496.0,0.007800070204414977
2495.0,0.007800070204414977
2494.0,0.007800070204414977
2493.0,0.007800070204414977
2492.0,0.007844288957383316
2491.0,0.007844288957383316
2490.0,0.007800070204414977
2489.0,0.007711646202907652
2488.0,0.00762324020119709
2487.0,0.0075790439479759275
2486.0,0.0075790439479759275
2485.0,0.00762324020119709
2484.0,0.00762324020119709
2483.0,0.00762324020119709
2482.0,0.0075790439479759275
2481.0,0.0075790439479759275
2480.0,0.00762324020119709
2479.0,0.00762324020119709
2478.0,0.00762324020119709
2477.0,0.0075790439479759275
2476.0,0.0075790439479759275
2475.0,0.00762324020119709
2474.0,0.007667440952535687
2473.0,0.007755855953228474
2472.0,0.007800070204414977
2471.0,0.007800070204414977
2470.0,0.007800070204414977
2469.0,0.007800070204414977
2468.0,0.007800070204414977
2467.0,0.007755855953228474
2466.0,0.007667440952535687
2465.0,0.00762324020119709
2464.0,0.00762324020119709
2463.0,0.0075790439479759275
2462.0,0.007534852191956709
2461.0,0.007534852191956709
2460.0,0.007534852191956709
2459.0,0.007534852191956709
2458.0,0.007490664932224611
2457.0,0.007402303897961815
2456.0,0.007313960837872058
2455.0,0.007269796045857202
2454.0,0.007225635744644521
2453.0,0.007225635744644521
2452.0,0.007225635744644521
2451.0,0.007225635744644521
2450.0,0.007269796045857202
2449.0,0.007313960837872058
2448.0,0.007358130121602358
2447.0,0.007402303897961815
2446.0,0.007402303897961815
2445.0,0.007402303897961815
2444.0,0.007402303897961815
2443.0,0.007313960837872058
2442.0,0.007269796045857202
2441.0,0.007269796045857202
2440.0,0.007313960837872058
2439.0,0.007402303897961815
2438.0,0.007490664932224611
2437.0,0.007534852191956709
2436.0,0.007534852191956709
2435.0,0.007534852191956709
2434.0,0.007490664932224611
2433.0,0.0074464821678643656
2432.0,0.007402303897961815
2431.0,0.007313960837872058
2430.0,0.007269796045857202
2429.0,0.007269796045857202
2428.0,0.007402303897961815
2427.0,0.0075790439479759275
2426.0,0.007711646202907652
2425.0,0.007755855953228474
2424.0,0.007755855953228474
2423.0,0.007667440952535687
2422.0,0.0075790439479759275
2421.0,0.007490664932224611
2420.0,0.0074464821678643656
2419.0,0.007402303897961815
2418.0,0.007313960837872058
2417.0,0.007313960837872058
2416.0,0.007313960837872058
2415.0,0.007313960837872058
2414.0,0.007313960837872058
2413.0,0.007358130121602358
2412.0,0.007402303897961815
2411.0,0.0074464821678643656
2410.0,0.007490664932224611
2409.0,0.007490664932224611
2408.0,0.007534852191956709
2407.0,0.007490664932224611
2406.0,0.0074464821678643656
2405.0,0.007358130121602358
2404.0,0.007313960837872058
2403.0,0.007225635744644521
2402.0,0.007181479933320523
2401.0,0.007181479933320523
2400.0,0.007181479933320523
2399.0,0.007181479933320523
2398.0,0.007181479933320523
2397.0,0.007181479933320523
2396.0,0.007225635744644521
2395.0,0.007269796045857202
2394.0,0.007358130121602358
2393.0,0.007402303897961815
2392.0,0.007358130121602358
2391.0,0.007269796045857202
2390.0,0.007181479933320523
2389.0,0.007137328610972382
2388.0,0.007137328610972382
2387.0,0.007137328610972382
2386.0,0.007225635744644521
2385.0,0.007313960837872058
2384.0,0.0074464821678643656
2383.0,0.0075790439479759275
2382.0,0.00762324020119709
2381.0,0.00762324020119709
2380.0,0.0075790439479759275
2379.0,0.0074464821678643656
2378.0,0.007313960837872058
2377.0,0.007181479933320523
2376.0,0.007049039429553483
2375.0,0.007049039429553483
2374.0,0.007137328610972382
2373.0,0.007358130121602358
2372.0,0.007534852191956709
2371.0,0.007534852191956709
2370.0,0.007269796045857202
2369.0,0.00696076819309055
2368.0,0.006872514894289861
2367.0,0.007049039429553483
2366.0,0.007181479933320523
2365.0,0.007181479933320523
2364.0,0.007181479933320523
2363.0,0.007269796045857202
2362.0,0.007225635744644521
2361.0,0.006740168563263094
2360.0,0.006167133386013823
2359.0,0.005990966876386672
2358.0,0.006343371384537999
2357.0,0.006916639301937977
2356.0,0.007269796045857202
2355.0,0.007402303897961815
2354.0,0.0074464821678643656
2353.0,0.007358130121602358
2352.0,0.007137328610972382
2351.0,0.007004901568658406
2350.0,0.007093181776687496
2349.0,0.007313960837872058
2348.0,0.007313960837872058
2347.0,0.007049039429553483
2346.0,0.006740168563263094
2345.0,0.006696062080525422
2344.0,0.007093181776687496
2343.0,0.00762324020119709
2342.0,0.007888512213050314
2341.0,0.007755855953228474
2340.0,0.007313960837872058
2339.0,0.006828394969235152
2338.0,0.006607862550997545
2337.0,0.006651960076740071
2336.0,0.006916639301937977
2335.0,0.007137328610972382
2334.0,0.007269796045857202
2333.0,0.007358130121602358
2332.0,0.0074464821678643656
2331.0,0.007490664932224611
2330.0,0.0074464821678643656
2329.0,0.0074464821678643656
2328.0,0.007490664932224611
2327.0,0.0075790439479759275
2326.0,0.007667440952535687
2325.0,0.007711646202907652
2324.0,0.007711646202907652
2323.0,0.007667440952535687
2322.0,0.007490664932224611
2321.0,0.007269796045857202
2320.0,0.007093181776687496
2319.0,0.00696076819309055
2318.0,0.006828394969235152
2317.0,0.006784279525863024
2316.0,0.006740168563263094
2315.0,0.006740168563263094
2314.0,0.006740168563263094
2313.0,0.006740168563263094
2312.0,0.006784279525863024
2311.0,0.006916639301937977
2310.0,0.007049039429553483
2309.0,0.007093181776687496
2308.0,0.007049039429553483
2307.0,0.007004901568658406
2306.0,0.00696076819309055
2305.0,0.006872514894289861
2304.0,0.006828394969235152
2303.0,0.006828394969235152
2302.0,0.006828394969235152
2301.0,0.006828394969235152
2300.0,0.006828394969235152
2299.0,0.006784279525863024
2298.0,0.006740168563263094
2297.0,0.006740168563263094
2296.0,0.006651960076740071
2295.0,0.006651960076740071
2294.0,0.006651960076740071
2293.0,0.006740168563263094
2292.0,0.006740168563263094
2291.0,0.006696062080525422
2290.0,0.00656376950238835
2289.0,0.006431517210272464
2288.0,0.006387442061109638
2287.0,0.006431517210272464
2286.0,0.006475596832934416
2285.0,0.00656376950238835
2284.0,0.00656376950238835
2283.0,0.006519680930003435
2282.0,0.006431517210272464
2281.0,0.006387442061109638
2280.0,0.006387442061109638
2279.0,0.006431517210272464
2278.0,0.006475596832934416
2277.0,0.006475596832934416
2276.0,0.006475596832934416
2275.0,0.006431517210272464
2274.0,0.006387442061109638
2273.0,0.006387442061109638
2272.0,0.006387442061109638
2271.0,0.006387442061109638
2270.0,0.006431517210272464
2269.0,0.006519680930003435
2268.0,0.006607862550997545
2267.0,0.006607862550997545
2266.0,0.006519680930003435
2265.0,0.006475596832934416
2264.0,0.006387442061109638
2263.0,0.006387442061109638
2262.0,0.006387442061109638
2261.0,0.006431517210272464
2260.0,0.006431517210272464
2259.0,0.006387442061109638
2258.0,0.006299305179649828
2257.0,0.00625524344553785
2256.0,0.00621118618129457
2255.0,0.00625524344553785
2254.0,0.006343371384537999
2253.0,0.006431517210272464
2252.0,0.006475596832934416
2251.0,0.006475596832934416
2250.0,0.006475596832934416
2249.0,0.006475596832934416
2248.0,0.006475596832934416
2247.0,0.006387442061109638
2246.0,0.006299305179649828
2245.0,0.00625524344553785
2244.0,0.00621118618129457
2243.0,0.00621118618129457
2242.0,0.00625524344553785
2241.0,0.00625524344553785
2240.0,0.00625524344553785
2239.0,0.00625524344553785
2238.0,0.006299305179649828
2237.0,0.006299305179649828
2236.0,0.006299305179649828
2235.0,0.006343371384537999
2234.0,0.006343371384537999
2233.0,0.006299305179649828
2232.0,0.00625524344553785
2231.0,0.00625524344553785
2230.0,0.00625524344553785
2229.0,0.006299305179649828
2228.0,0.006343371384537999
2227.0,0.006343371384537999
2226.0,0.00625524344553785
2225.0,0.00621118618129457
2224.0,0.006167133386013823
2223.0,0.006167133386013823
2222.0,0.006167133386013823
2221.0,0.006167133386013823
2220.0,0.006167133386013823
2219.0,0.006167133386013823
2218.0,0.00621118618129457
2217.0,0.00625524344553785
2216.0,0.006299305179649828
2215.0,0.006299305179649828
2214.0,0.006299305179649828
2213.0,0.00625524344553785
2212.0,0.006167133386013823
2211.0,0.00612308505878878
2210.0,0.00612308505878878
2209.0,0.00612308505878878
2208.0,0.006167133386013823
2207.0,0.006167133386013823
2206.0,0.00612308505878878
2205.0,0.00612308505878878
2204.0,0.00612308505878878
2203.0,0.00612308505878878
2202.0,0.00612308505878878
2201.0,0.006079041198713275
2200.0,0.00612308505878878
2199.0,0.006167133386013823
2198.0,0.00621118618129457
2197.0,0.00621118618129457
2196.0,0.00621118618129457
2195.0,0.006167133386013823
2194.0,0.00612308505878878
2193.0,0.006079041198713275
2192.0,0.006079041198713275
2191.0,0.00612308505878878
2190.0,0.006167133386013823
2189.0,0.00621118618129457
2188.0,0.00621118618129457
2187.0,0.00621118618129457
2186.0,0.00621118618129457
2185.0,0.006167133386013823
2184.0,0.006167133386013823
2183.0,0.00612308505878878
2182.0,0.006079041198713275
2181.0,0.006035001804881146
2180.0,0.006035001804881146
2179.0,0.006079041198713275
2178.0,0.00612308505878878
2177.0,0.00612308505878878
2176.0,0.00612308505878878
2175.0,0.006079041198713275
2174.0,0.006079041198713275
2173.0,0.006079041198713275
2172.0,0.00612308505878878
2171.0,0.00612308505878878
2170.0,0.00612308505878878
2169.0,0.006167133386013823
2168.0,0.00621118618129457
2167.0,0.00625524344553785
2166.0,0.00625524344553785
2165.0,0.00625524344553785
2164.0,0.006167133386013823
2163.0,0.00612308505878878
2162.0,0.006079041198713275
2161.0,0.006035001804881146
2160.0,0.006035001804881146
2159.0,0.006035001804881146
2158.0,0.005990966876386672
2157.0,0.005946936412324799
2156.0,0.00590291041179003
2155.0,0.005858888873877532
2154.0,0.005814871797682919
2153.0,0.005858888873877532
2152.0,0.005946936412324799
2151.0,0.006079041198713275
2150.0,0.006079041198713275
2149.0,0.006035001804881146
2148.0,0.005858888873877532
2147.0,0.005682847330363394
2146.0,0.005550862985963967
2145.0,0.005506877116487674
2144.0,0.005594853310833647
2143.0,0.00577085918230158
2142.0,0.00590291041179003
2141.0,0.005946936412324799
2140.0,0.00590291041179003
2139.0,0.005814871797682919
2138.0,0.005682847330363394
2137.0,0.005638848091999105
2136.0,0.005726851026829571
2135.0,0.005814871797682919
2134.0,0.005858888873877532
2133.0,0.005858888873877532
2132.0,0.005814871797682919
2131.0,0.00577085918230158
2130.0,0.00577085918230158
2129.0,0.00577085918230158
2128.0,0.005814871797682919
2127.0,0.005858888873877532
2126.0,0.005858888873877532
2125.0,0.005814871797682919
2124.0,0.00577085918230158
2123.0,0.005726851026829571
2122.0,0.00577085918230158
2121.0,0.005814871797682919
2120.0,0.005726851026829571
2119.0,0.005638848091999105
2118.0,0.005594853310833647
2117.0,0.005550862985963967
2116.0,0.005594853310833647
2115.0,0.005638848091999105
2114.0,0.005682847330363394
2113.0,0.005682847330363394
2112.0,0.005682847330363394
2111.0,0.005726851026829571
2110.0,0.005726851026829571
2109.0,0.005682847330363394
2108.0,0.005638848091999105
2107.0,0.005594853310833647
2106.0,0.005594853310833647
2105.0,0.005594853310833647
2104.0,0.005550862985963967
2103.0,0.005506877116487674
2102.0,0.005506877116487674
2101.0,0.005550862985963967
2100.0,0.005594853310833647
2099.0,0.005638848091999105
2098.0,0.005594853310833647
2097.0,0.005550862985963967
2096.0,0.005506877116487674
2095.0,0.005462895701502157
2094.0,0.00541891874010525
2093.0,0.00541891874010525
2092.0,0.00541891874010525
2091.0,0.005462895701502157
2090.0,0.005462895701502157
2089.0,0.005462895701502157
2088.0,0.005506877116487674
2087.0,0.005506877116487674
2086.0,0.005506877116487674
2085.0,0.005506877116487674
2084.0,0.005506877116487674
2083.0,0.005462895701502157
2082.0,0.00537494623139545
2081.0,0.005330978174470591
2080.0,0.005330978174470591
2079.0,0.00541891874010525
2078.0,0.005462895701502157
2077.0,0.005550862985963967
2076.0,0.005506877116487674
2075.0,0.005462895701502157
2074.0,0.00541891874010525
2073.0,0.005462895701502157
2072.0,0.005462895701502157
2071.0,0.00541891874010525
2070.0,0.0052870145684298375
2069.0,0.005199100705396198
2068.0,0.005155150446602086
2067.0,0.005199100705396198
2066.0,0.0052870145684298375
2065.0,0.005330978174470591
2064.0,0.005330978174470591
2063.0,0.0052870145684298375
2062.0,0.005243055412371911
2061.0,0.005155150446602086
2060.0,0.005155150446602086
2059.0,0.005199100705396198
2058.0,0.005243055412371911
2057.0,0.005330978174470591
2056.0,0.005330978174470591
2055.0,0.00537494623139545
2054.0,0.00537494623139545
2053.0,0.00537494623139545
2052.0,0.00537494623139545
2051.0,0.00541891874010525
2050.0,0.005462895701502157
2049.0,0.005462895701502157
2048.0,0.005506877116487674
2047.0,0.005550862985963967
2046.0,0.005594853310833647
2045.0,0.005594853310833647
2044.0,0.005506877116487674
2043.0,0.00537494623139545
2042.0,0.0052870145684298375
2041.0,0.0052870145684298375
2040.0,0.005330978174470591
2039.0,0.00537494623139545
2038.0,0.00541891874010525
2037.0,0.00541891874010525
2036.0,0.00537494623139545
2035.0,0.005330978174470591
2034.0,0.005330978174470591
2033.0,0.005330978174470591
2032.0,0.00537494623139545
2031.0,0.00541891874010525
2030.0,0.00541891874010525
2029.0,0.00541891874010525
2028.0,0.00537494623139545
2027.0,0.005330978174470591
2026.0,0.005330978174470591
2025.0,0.00537494623139545
2024.0,0.00537494623139545
2023.0,0.00537494623139545
2022.0,0.005330978174470591
2021.0,0.005243055412371911
2020.0,0.005243055412371911
2019.0,0.0052870145684298375
2018.0,0.0052870145684298375
2017.0,0.0052870145684298375
2016.0,0.005199100705396198
2015.0,0.005111204635089406
2014.0,0.005067263269958211
2013.0,0.005111204635089406
2012.0,0.005199100705396198
2011.0,0.0052870145684298375
2010.0,0.0052870145684298375
2009.0,0.0052870145684298375
2008.0,0.005243055412371911
2007.0,0.005243055412371911
2006.0,0.005243055412371911
2005.0,0.005243055412371911
2004.0,0.005199100705396198
2003.0,0.005111204635089406
2002.0,0.005067263269958211
2001.0,0.005023326350308999
2000.0,0.005023326350308999
1999.0,0.005067263269958211
1998.0,0.005111204635089406
1997.0,0.005155150446602086
1996.0,0.005199100705396198
1995.0,0.005199100705396198
1994.0,0.005199100705396198
1993.0,0.005199100705396198
1992.0,0.005199100705396198
1991.0,0.005199100705396198
1990.0,0.005199100705396198
1989.0,0.005199100705396198
1988.0,0.005155150446602086
1987.0,0.005155150446602086
1986.0,0.005111204635089406
1985.0,0.005111204635089406
1984.0,0.005067263269958211
1983.0,0.005067263269958211
1982.0,0.005023326350308999
1981.0,0.004979393875242044
1980.0,0.004935465843858511
1979.0,0.00489154225525934
1978.0,0.00489154225525934
1977.0,0.00489154225525934
1976.0,0.004979393875242044
1975.0,0.005023326350308999
1974.0,0.005067263269958211
1973.0,0.005067263269958211
1972.0,0.005067263269958211
1971.0,0.005067263269958211
1970.0,0.005023326350308999
1969.0,0.004979393875242044
1968.0,0.004935465843858511
1967.0,0.004935465843858511
1966.0,0.004935465843858511
1965.0,0.005023326350308999
1964.0,0.005067263269958211
1963.0,0.005155150446602086
1962.0,0.005155150446602086
1961.0,0.005155150446602086
1960.0,0.005111204635089406
1959.0,0.005067263269958211
1958.0,0.005067263269958211
1957.0,0.005023326350308999
1956.0,0.005023326350308999
1955.0,0.004979393875242044
1954.0,0.004935465843858511
1953.0,0.004935465843858511
1952.0,0.005023326350308999
1951.0,0.005067263269958211
1950.0,0.005067263269958211
1949.0,0.005023326350308999
1948.0,0.004935465843858511
1947.0,0.00484762310854614
1946.0,0.004803708402820517
1945.0,0.00484762310854614
1944.0,0.00484762310854614
1943.0,0.00484762310854614
1942.0,0.00489154225525934
1941.0,0.00489154225525934
1940.0,0.00489154225525934
1939.0,0.00489154225525934
1938.0,0.00484762310854614
1937.0,0.004803708402820517
1936.0,0.004759798137184523
1935.0,0.004759798137184523
1934.0,0.004803708402820517
1933.0,0.004803708402820517
1932.0,0.004803708402820517
1931.0,0.004759798137184523
1930.0,0.004759798137184523
1929.0,0.004715892310740433
1928.0,0.004759798137184523
1927.0,0.004759798137184523
1926.0,0.004759798137184523
1925.0,0.004759798137184523
1924.0,0.004759798137184523
1923.0,0.004759798137184523
1922.0,0.004715892310740433
1921.0,0.004803708402820517
1920.0,0.00484762310854614
1919.0,0.00489154225525934
1918.0,0.004935465843858511
1917.0,0.004935465843858511
1916.0,0.004935465843858511
1915.0,0.004935465843858511
1914.0,0.004935465843858511
1913.0,0.00489154225525934
1912.0,0.004759798137184523
1911.0,0.004671990922590297
1910.0,0.00458420145758498
1909.0,0.004628093971837721
1908.0,0.004715892310740433
1907.0,0.004803708402820517
1906.0,0.00489154225525934
1905.0,0.004979393875242044
1904.0,0.004979393875242044
1903.0,0.004935465843858511
1902.0,0.00484762310854614
1901.0,0.004803708402820517
1900.0,0.004759798137184523
1899.0,0.004759798137184523
1898.0,0.004759798137184523
1897.0,0.004803708402820517
1896.0,0.00489154225525934
1895.0,0.004979393875242044
1894.0,0.004979393875242044
1893.0,0.004979393875242044
1892.0,0.00489154225525934
1891.0,0.00489154225525934
1890.0,0.00489154225525934
1889.0,0.00489154225525934
1888.0,0.004935465843858511
1887.0,0.004979393875242044
1886.0,0.004935465843858511
1885.0,0.00489154225525934
1884.0,0.00484762310854614
1883.0,0.004803708402820517
1882.0,0.004759798137184523
1881.0,0.004759798137184523
1880.0,0.004759798137184523
1879.0,0.004715892310740433
1878.0,0.004715892310740433
1877.0,0.004671990922590297
1876.0,0.004671990922590297
1875.0,0.004715892310740433
1874.0,0.004759798137184523
1873.0,0.004803708402820517
1872.0,0.004803708402820517
1871.0,0.004759798137184523
1870.0,0.004671990922590297
1869.0,0.004671990922590297
1868.0,0.004671990922590297
1867.0,0.004671990922590297
1866.0,0.004759798137184523
1865.0,0.004803708402820517
1864.0,0.004803708402820517
1863.0,0.004759798137184523
1862.0,0.004715892310740433
1861.0,0.004671990922590297
1860.0,0.004628093971837721
1859.0,0.004671990922590297
1858.0,0.004715892310740433
1857.0,0.004803708402820517
1856.0,0.00484762310854614
1855.0,0.004803708402820517
1854.0,0.004759798137184523
1853.0,0.004715892310740433
1852.0,0.004671990922590297
1851.0,0.004628093971837721
1850.0,0.004671990922590297
1849.0,0.004715892310740433
1848.0,0.004759798137184523
1847.0,0.004759798137184523
1846.0,0.004759798137184523
1845.0,0.004715892310740433
1844.0,0.004715892310740433
1843.0,0.004759798137184523
1842.0,0.004803708402820517
1841.0,0.00484762310854614
1840.0,0.00489154225525934
1839.0,0.00484762310854614
1838.0,0.00484762310854614
1837.0,0.00489154225525934
1836.0,0.00489154225525934
1835.0,0.00489154225525934
1834.0,0.00489154225525934
1833.0,0.00484762310854614
1832.0,0.004803708402820517
1831.0,0.004759798137184523
1830.0,0.004715892310740433
1829.0,0.004671990922590297
1828.0,0.004628093971837721
1827.0,0.004671990922590297
1826.0,0.004671990922590297
1825.0,0.004671990922590297
1824.0,0.004628093971837721
1823.0,0.00458420145758498
1822.0,0.00458420145758498
1821.0,0.004540313378935901
1820.0,0.004540313378935901
1819.0,0.004540313378935901
1818.0,0.004540313378935901
1817.0,0.0044964297349936455
1816.0,0.004452550524862486
1815.0,0.004452550524862486
1814.0,0.004408675747646695
1813.0,0.004408675747646695
1812.0,0.004408675747646695
1811.0,0.0043648054024501
1810.0,0.0043648054024501
1809.0,0.0043648054024501
1808.0,0.004452550524862486
1807.0,0.0044964297349936455
1806.0,0.00458420145758498
1805.0,0.004628093971837721
1804.0,0.004628093971837721
1803.0,0.00458420145758498
1802.0,0.004540313378935901
1801.0,0.0044964297349936455
1800.0,0.004452550524862486
1799.0,0.004452550524862486
1798.0,0.004408675747646695
1797.0,0.004452550524862486
1796.0,0.004452550524862486
1795.0,0.004408675747646695
1794.0,0.0043648054024501
1793.0,0.004408675747646695
1792.0,0.004452550524862486
1791.0,0.004452550524862486
1790.0,0.004408675747646695
1789.0,0.004408675747646695
1788.0,0.0043648054024501
1787.0,0.0043648054024501
1786.0,0.004408675747646695
1785.0,0.004452550524862486
1784.0,0.0044964297349936455
1783.0,0.004540313378935901
1782.0,0.00458420145758498
1781.0,0.004628093971837721
1780.0,0.004628093971837721
1779.0,0.004540313378935901
1778.0,0.0044964297349936455
1777.0,0.004452550524862486
1776.0,0.004452550524862486
1775.0,0.004452550524862486
1774.0,0.004452550524862486
1773.0,0.0044964297349936455
1772.0,0.004540313378935901
1771.0,0.004540313378935901
1770.0,0.00458420145758498
1769.0,0.004671990922590297
1768.0,0.004671990922590297
1767.0,0.00458420145758498
1766.0,0.0044964297349936455
1765.0,0.0044964297349936455
1764.0,0.004540313378935901
1763.0,0.004671990922590297
1762.0,0.004759798137184523
1761.0,0.00484762310854614
1760.0,0.00489154225525934
1759.0,0.004935465843858511
1758.0,0.004935465843858511
1757.0,0.004979393875242044
1756.0,0.005023326350308999
1755.0,0.005111204635089406
1754.0,0.005199100705396198
1753.0,0.0052870145684298375
1752.0,0.005506877116487674
1751.0,0.005682847330363394
1750.0,0.005858888873877532
1749.0,0.006035001804881146
1748.0,0.006167133386013823
1747.0,0.00625524344553785
1746.0,0.006343371384537999
1745.0,0.006387442061109638
1744.0,0.006431517210272464
1743.0,0.006475596832934416
1742.0,0.006519680930003435
1741.0,0.00656376950238835
1740.0,0.006651960076740071
1739.0,0.006696062080525422
1738.0,0.006651960076740071
1737.0,0.006651960076740071
1736.0,0.006651960076740071
1735.0,0.006607862550997545
1734.0,0.006607862550997545
1733.0,0.006519680930003435
1732.0,0.006431517210272464
1731.0,0.006343371384537999
1730.0,0.00621118618129457
1729.0,0.006079041198713275
1728.0,0.005990966876386672
1727.0,0.005946936412324799
1726.0,0.005946936412324799
1725.0,0.005946936412324799
1724.0,0.005946936412324799
1723.0,0.005946936412324799
1722.0,0.00590291041179003
1721.0,0.005858888873877532
1720.0,0.00577085918230158
1719.0,0.00577085918230158
1718.0,0.005858888873877532
1717.0,0.005990966876386672
1716.0,0.006035001804881146
1715.0,0.00590291041179003
1714.0,0.005814871797682919
1713.0,0.00577085918230158
1712.0,0.005726851026829571
1711.0,0.005726851026829571
1710.0,0.005682847330363394
1709.0,0.005638848091999105
1708.0,0.005638848091999105
1707.0,0.005638848091999105
1706.0,0.005638848091999105
1705.0,0.005638848091999105
1704.0,0.005594853310833647
1703.0,0.005550862985963967
1702.0,0.005506877116487674
1701.0,0.005462895701502157
1700.0,0.00541891874010525
1699.0,0.005199100705396198
1698.0,0.005111204635089406
1697.0,0.005067263269958211
1696.0,0.005067263269958211
1695.0,0.005111204635089406
1694.0,0.005199100705396198
1693.0,0.0052870145684298375
1692.0,0.0052870145684298375
1691.0,0.0052870145684298375
1690.0,0.005199100705396198
1689.0,0.005155150446602086
1688.0,0.005155150446602086
1687.0,0.005111204635089406
1686.0,0.005067263269958211
1685.0,0.005155150446602086
1684.0,0.0052870145684298375
1683.0,0.005330978174470591
1682.0,0.00537494623139545
1681.0,0.00541891874010525
1680.0,0.00537494623139545
1679.0,0.005330978174470591
1678.0,0.0052870145684298375
1677.0,0.005243055412371911
1676.0,0.005330978174470591
1675.0,0.00537494623139545
1674.0,0.005330978174470591
1673.0,0.005330978174470591
1672.0,0.0052870145684298375
1671.0,0.005243055412371911
1670.0,0.005199100705396198
1669.0,0.005199100705396198
1668.0,0.005243055412371911
1667.0,0.0052870145684298375
1666.0,0.0052870145684298375
1665.0,0.005243055412371911
1664.0,0.005111204635089406
1663.0,0.005067263269958211
1662.0,0.005067263269958211
1661.0,0.005111204635089406
1660.0,0.005155150446602086
1659.0,0.005243055412371911
1658.0,0.005243055412371911
1657.0,0.005243055412371911
1656.0,0.005330978174470591
1655.0,0.00537494623139545
1654.0,0.005506877116487674
1653.0,0.005462895701502157
1652.0,0.0052870145684298375
1651.0,0.005243055412371911
1650.0,0.0052870145684298375
1649.0,0.005243055412371911
1648.0,0.005330978174470591
1647.0,0.005506877116487674
1646.0,0.005550862985963967
1645.0,0.005462895701502157
1644.0,0.00537494623139545
1643.0,0.005243055412371911
1642.0,0.005155150446602086
1641.0,0.005111204635089406
1640.0,0.005067263269958211
1639.0,0.005067263269958211
1638.0,0.005023326350308999
1637.0,0.004979393875242044
1636.0,0.004935465843858511
1635.0,0.004935465843858511
1634.0,0.004935465843858511
1633.0,0.005023326350308999
1632.0,0.005111204635089406
1631.0,0.005155150446602086
1630.0,0.005199100705396198
1629.0,0.005199100705396198
1628.0,0.005155150446602086
1627.0,0.005111204635089406
1626.0,0.005111204635089406
1625.0,0.005067263269958211
1624.0,0.005067263269958211
1623.0,0.005067263269958211
1622.0,0.005067263269958211
1621.0,0.005111204635089406
1620.0,0.005155150446602086
1619.0,0.005155150446602086
1618.0,0.005199100705396198
1617.0,0.005243055412371911
1616.0,0.0052870145684298375
1615.0,0.0052870145684298375
1614.0,0.0052870145684298375
1613.0,0.0052870145684298375
1612.0,0.005243055412371911
1611.0,0.005199100705396198
1610.0,0.005199100705396198
1609.0,0.005243055412371911
1608.0,0.0052870145684298375
1607.0,0.00537494623139545
1606.0,0.005506877116487674
1605.0,0.005594853310833647
1604.0,0.005638848091999105
1603.0,0.005682847330363394
1602.0,0.005682847330363394
1601.0,0.005594853310833647
1600.0,0.005550862985963967
1599.0,0.00541891874010525
1598.0,0.005330978174470591
1597.0,0.005243055412371911
1596.0,0.005199100705396198
1595.0,0.005155150446602086
1594.0,0.005067263269958211
1593.0,0.005023326350308999
1592.0,0.004935465843858511
1591.0,0.00489154225525934
1590.0,0.00484762310854614
1589.0,0.004803708402820517
1588.0,0.004803708402820517
1587.0,0.004759798137184523
1586.0,0.004803708402820517
1585.0,0.00484762310854614
1584.0,0.00489154225525934
1583.0,0.004935465843858511
1582.0,0.00489154225525934
1581.0,0.00484762310854614
1580.0,0.004715892310740433
1579.0,0.004671990922590297
1578.0,0.00458420145758498
1577.0,0.004540313378935901
1576.0,0.0044964297349936455
1575.0,0.004408675747646695
1574.0,0.004408675747646695
1573.0,0.004408675747646695
1572.0,0.004408675747646695
1571.0,0.004320939488377862
1570.0,0.004277078004534696
1569.0,0.004233220950025984
1568.0,0.004277078004534696
1567.0,0.004320939488377862
1566.0,0.004320939488377862
1565.0,0.004320939488377862
1564.0,0.004320939488377862
1563.0,0.0043648054024501
1562.0,0.004408675747646695
1561.0,0.0043648054024501
1560.0,0.004452550524862486
1559.0,0.00458420145758498
1558.0,0.004452550524862486
1557.0,0.0044964297349936455
1556.0,0.004715892310740433
1555.0,0.004803708402820517
1554.0,0.004759798137184523
1553.0,0.004715892310740433
1552.0,0.004671990922590297
1551.0,0.004540313378935901
1550.0,0.004452550524862486
1549.0,0.0043648054024501
1548.0,0.004277078004534696
1547.0,0.004233220950025984
1546.0,0.004145520125434121
1545.0,0.004101676353562844
1544.0,0.0040578370074493275
1543.0,0.0040578370074493275
1542.0,0.004145520125434121
1541.0,0.004320939488377862
1540.0,0.004408675747646695
1539.0,0.004189368323957332
1538.0,0.004101676353562844
1537.0,0.004145520125434121
1536.0,0.004145520125434121
1535.0,0.004101676353562844
1534.0,0.003970171588923321
1533.0,0.003926345514724705
1532.0,0.0038825238627120395
1531.0,0.0038387066319929275
1530.0,0.0038387066319929275
1529.0,0.003794893821675638
1528.0,0.0038387066319929275
1527.0,0.0038387066319929275
1526.0,0.003794893821675638
1525.0,0.003794893821675638
1524.0,0.0038387066319929275
1523.0,0.0038387066319929275
1522.0,0.0038387066319929275
1521.0,0.003926345514724705
1520.0,0.003926345514724705
1519.0,0.0038387066319929275
1518.0,0.0036634819042162814
1517.0,0.003488327845821315
1516.0,0.0034007772998332353
1515.0,0.0033570086445275926
1514.0,0.0033570086445275926
1513.0,0.0034007772998332353
1512.0,0.0034007772998332353
1511.0,0.0033570086445275926
1510.0,0.0032694845648473247
1509.0,0.0032694845648473247
1508.0,0.0033570086445275926
1507.0,0.0033570086445275926
1506.0,0.0032257291386954545
1505.0,0.0033570086445275926
1504.0,0.003619686766589858
1503.0,0.0037510854308679953
1502.0,0.0037510854308679953
1501.0,0.003707281458678491
1500.0,0.0037510854308679953
1499.0,0.003794893821675638
1498.0,0.003970171588923321
1497.0,0.004452550524862486
1496.0,0.005023326350308999
1495.0,0.00537494623139545
1494.0,0.005594853310833647
1493.0,0.005682847330363394
1492.0,0.005638848091999105
1491.0,0.005506877116487674
1490.0,0.005330978174470591
1489.0,0.005330978174470591
1488.0,0.00541891874010525
1487.0,0.005462895701502157
1486.0,0.005594853310833647
1485.0,0.005858888873877532
1484.0,0.006167133386013823
1483.0,0.006519680930003435
1482.0,0.00696076819309055
1481.0,0.0075790439479759275
1480.0,0.008286724286910463
1479.0,0.009039900317800775
1478.0,0.010060986715464404
1477.0,0.011753276624621556
1476.0,0.01403492169512921
1475.0,0.016689514205884493
1474.0,0.02004210665933459
1473.0,0.024430342106337877
1472.0,0.028863370523193765
1471.0,0.03235843591698884
1470.0,0.03559892883726867
1469.0,0.03905380426616856
1468.0,0.04282386959515394
1467.0,0.04715914332429838
1466.0,0.052762392129333646
1465.0,0.05938391766259232
1464.0,0.06524912533642091
1463.0,0.06879647454924775
1462.0,0.07052998382251041
1461.0,0.07124579782334672
1460.0,0.07155293679081787
1459.0,0.07196279359311708
1458.0,0.07370901311513656
1457.0,0.07670415934449615
1456.0,0.07867775641617802
1455.0,0.07893810920972144
1454.0,0.07846958649875768
1453.0,0.0777417765670334
1452.0,0.07665234350217442
1451.0,0.07494587968815725
1450.0,0.07242434530888953
1449.0,0.06884736147670667
1448.0,0.06419054619006714
1447.0,0.05908526241971446
1446.0,0.054186873412661596
1445.0,0.04973253198641148
1444.0,0.045660991397539874
1443.0,0.04215336629184985
1442.0,0.03943409718180235
1441.0,0.03744126420403626
1440.0,0.03602339000339416
1439.0,0.03522197797762394
1438.0,0.03517488211661135
1437.0,0.03555179208333925
1436.0,0.03531618502395939
1435.0,0.03385826726096752
1434.0,0.03147035562516054
1433.0,0.028538594975413334
1432.0,0.02539620791296726
1431.0,0.02259651912656535
1430.0,0.020406104151069693
1429.0,0.018725167293411005
1428.0,0.017457417697056554
1427.0,0.01646391839700767
1426.0,0.015652742414136167
1425.0,0.014843078722943437
1424.0,0.014169510141607944
1423.0,0.01372104409400876
1422.0,0.013407393177789162
1421.0,0.013049212141483357
1420.0,0.012736045877764557
1419.0,0.012512493866907004
1418.0,0.012289056869694281
1417.0,0.0119764380713403
1416.0,0.011708658092512314
1415.0,0.011441043121384498
1414.0,0.011218156546359825
1413.0,0.010906307389674463
1412.0,0.010639186223752484
1411.0,0.010416710688994968
1410.0,0.01023881228122181
1409.0,0.01001654169860089
1408.0,0.009794384815193347
1407.0,0.00966114521239847
1406.0,0.009616741093766423
1405.0,0.009439170005980158
1404.0,0.009261671492462709
1403.0,0.009128595198514056
1402.0,0.009039900317800775
1401.0,0.008906891951112605
1400.0,0.008773924307505121
1399.0,0.008773924307505121
1398.0,0.008773924307505121
1397.0,0.0087296108049002
1396.0,0.008640997362049818
1395.0,0.008773924307505121
1394.0,0.008951223547323472
1393.0,0.00908424549391551
1392.0,0.009261671492462709
1391.0,0.009616741093766423
1390.0,0.010060986715464404
1389.0,0.010728208358306901
1388.0,0.011931796607364653
1387.0,0.013900374944870508
1386.0,0.016644385668211692
1385.0,0.02022406727031445
1384.0,0.02512002699306959
1383.0,0.03193753992355086
1382.0,0.04081545726880842
1381.0,0.05188057561946402
1380.0,0.0654005617819271
1379.0,0.08066036321258663
1378.0,0.09517630019905599
1377.0,0.10585015323207791
1376.0,0.11019424813191447
1375.0,0.10690433390377163
1374.0,0.09691001300805646
1373.0,0.08407278830288423
1372.0,0.0716553647351379
1371.0,0.06068046892176193
1370.0,0.051244819831730126
1369.0,0.04363944632667782
1368.0,0.038199360808321536
1367.0,0.03465716443937783
1366.0,0.03249882527715853
1365.0,0.03137697904301118
1364.0,0.031236951802751545
1363.0,0.032031037121307726
1362.0,0.03343591590268957
1361.0,0.03489241415094413
1360.0,0.03588185684851508
1359.0,0.03602339000339416
1358.0,0.03522197797762394
1357.0,0.03352973627071565
1356.0,0.031190286087141805
1355.0,0.02858497661500481
1354.0,0.026087429580295085
1353.0,0.023879381700184332
1352.0,0.022093572362881675
1351.0,0.020542681902151694
1350.0,0.0192242260373785
1349.0,0.01809082990920774
1348.0,0.017095882207371904
1347.0,0.01628352608625061
1346.0,0.015562705203923999
1345.0,0.014932966849499074
1344.0,0.0144837121472845
1343.0,0.01403492169512921
1342.0,0.01372104409400876
1341.0,0.013407393177789162
1340.0,0.01322826573375524
1339.0,0.013049212141483357
1338.0,0.012914970375878188
1337.0,0.012736045877764557
1336.0,0.01264661126420652
1335.0,0.012736045877764557
1334.0,0.012914970375878188
1333.0,0.01322826573375524
1332.0,0.013496984613259544
1331.0,0.013676222949234651
1330.0,0.013676222949234651
1329.0,0.013586594534531482
1328.0,0.013407393177789162
1327.0,0.013138729709955221
1326.0,0.012780770091995297
1325.0,0.012378417874516323
1324.0,0.011931796607364653
1323.0,0.011574829993696856
1322.0,0.011262724711199823
1321.0,0.011084479487313281
1320.0,0.010906307389674463
1319.0,0.010817248744452446
1318.0,0.010728208358306901
1317.0,0.010639186223752484
1316.0,0.010505687227290839
1315.0,0.01037222925484893
1314.0,0.01023881228122181
1313.0,0.010194349063173958
1312.0,0.010194349063173958
1311.0,0.010327752376126709
1310.0,0.010505687227290839
1309.0,0.010906307389674463
1308.0,0.011574829993696856
1307.0,0.012378417874516323
1306.0,0.01322826573375524
1305.0,0.01381070026317599
1304.0,0.013945219230304673
1303.0,0.01372104409400876
1302.0,0.013317820220494436
1301.0,0.012914970375878188
1300.0,0.012691326268817527
1299.0,0.01260190086298274
1298.0,0.01264661126420652
1297.0,0.01264661126420652
1296.0,0.01260190086298274
1295.0,0.012378417874516323
1294.0,0.012065734767841452
1293.0,0.011664044143949504
1292.0,0.011218156546359825
1291.0,0.01086177578421088
1290.0,0.010505687227290839
1289.0,0.01023881228122181
1288.0,0.009972101229705377
1287.0,0.00974996707218323
1286.0,0.009572341514736404
1285.0,0.009439170005980158
1284.0,0.009306039320248427
1283.0,0.009217308196862062
1282.0,0.009128595198514056
1281.0,0.009039900317800775
1280.0,0.008906891951112605
1279.0,0.008773924307505121
1278.0,0.008640997362049818
1277.0,0.008596697419959609
1276.0,0.008596697419959609
1275.0,0.008640997362049818
1274.0,0.008640997362049818
1273.0,0.008596697419959609
1272.0,0.008552401996197112
1271.0,0.008552401996197112
1270.0,0.008596697419959609
1269.0,0.008640997362049818
1268.0,0.008773924307505121
1267.0,0.008906891951112605
1266.0,0.009039900317800775
1265.0,0.009128595198514056
1264.0,0.009217308196862062
1263.0,0.009350411681145587
1262.0,0.009616741093766423
1261.0,0.009972101229705377
1260.0,0.010416710688994968
1259.0,0.010995384301463185
1258.0,0.011574829993696856
1257.0,0.012110390002254778
1256.0,0.012378417874516323
1255.0,0.012333735073725371
1254.0,0.011931796607364653
1253.0,0.011307297450183107
1252.0,0.010683695010048622
1251.0,0.010194349063173958
1250.0,0.009794384815193347
1249.0,0.009527946474380489
1248.0,0.009306039320248427
1247.0,0.009128595198514056
1246.0,0.008995559669244813
1245.0,0.008862564879688284
1244.0,0.008773924307505121
1243.0,0.008685301823389224
1242.0,0.0087296108049002
1241.0,0.0087296108049002
1240.0,0.008685301823389224
1239.0,0.008552401996197112
1238.0,0.008419542825660153
1237.0,0.008286724286910463
1236.0,0.008109696063975047
1235.0,0.008021209005416363
1234.0,0.007976972236149349
1233.0,0.008021209005416363
1232.0,0.008065450281052211
1231.0,0.008109696063975047
1230.0,0.008153946355103248
1229.0,0.008198201155356077
1228.0,0.008242460465651913
1227.0,0.008198201155356077
1226.0,0.008198201155356077
1225.0,0.008286724286910463
1224.0,0.008463824699968647
1223.0,0.0087296108049002
1222.0,0.008995559669244813
1221.0,0.009217308196862062
1220.0,0.009306039320248427
1219.0,0.009350411681145587
1218.0,0.009306039320248427
1217.0,0.009217308196862062
1216.0,0.009039900317800775
1215.0,0.008818242332126802
1214.0,0.008552401996197112
1213.0,0.008375265465994541
1212.0,0.008198201155356077
1211.0,0.008065450281052211
1210.0,0.007976972236149349
1209.0,0.007844288957383316
1208.0,0.007711646202907652
1207.0,0.007667440952535687
1206.0,0.00762324020119709
1205.0,0.00762324020119709
1204.0,0.00762324020119709
1203.0,0.00762324020119709
1202.0,0.00762324020119709
1201.0,0.007667440952535687
1200.0,0.007667440952535687
1199.0,0.00762324020119709
1198.0,0.007490664932224611
1197.0,0.007358130121602358
1196.0,0.007269796045857202
1195.0,0.007269796045857202
1194.0,0.007313960837872058
1193.0,0.007313960837872058
1192.0,0.007313960837872058
1191.0,0.007358130121602358
1190.0,0.007402303897961815
1189.0,0.007402303897961815
1188.0,0.007358130121602358
1187.0,0.007402303897961815
1186.0,0.007490664932224611
1185.0,0.00762324020119709
1184.0,0.007800070204414977
1183.0,0.007932739972333236
1182.0,0.008109696063975047
1181.0,0.008375265465994541
1180.0,0.008685301823389224
1179.0,0.009039900317800775
1178.0,0.009439170005980158
1177.0,0.009972101229705377
1176.0,0.010683695010048622
1175.0,0.011797899741219142
1174.0,0.013273040668781544
1173.0,0.015202742910707112
1172.0,0.017547848615010242
1171.0,0.02013307743509718
1170.0,0.02259651912656535
1169.0,0.024568191490736968
1168.0,0.025718641122169483
1167.0,0.025949097207122573
1166.0,0.02539620791296726
1165.0,0.024338466818941473
1164.0,0.023191662661933732
1163.0,0.022093572362881675
1162.0,0.021135015652343103
1161.0,0.020315076172974234
1160.0,0.019632973815224997
1159.0,0.01899731005860028
1158.0,0.018543833477873584
1157.0,0.018181392829336396
1156.0,0.017955020928509757
1155.0,0.017774008325325275
1154.0,0.017638298366853045
1153.0,0.017412209298337533
1152.0,0.017095882207371904
1151.0,0.016644385668211692
1150.0,0.016013078034810446
1149.0,0.015247721884586563
1148.0,0.0144837121472845
1147.0,0.013676222949234651
1146.0,0.012959713020733288
1145.0,0.012289056869694281
1144.0,0.011708658092512314
1143.0,0.01117359295472431
1142.0,0.010639186223752484
1141.0,0.010149890396819572
1140.0,0.009705553871561357
1139.0,0.009306039320248427
1138.0,0.008951223547323472
1137.0,0.008640997362049818
1136.0,0.008330992620051436
1135.0,0.008065450281052211
1134.0,0.007844288957383316
1133.0,0.00762324020119709
1132.0,0.0074464821678643656
1131.0,0.007358130121602358
1130.0,0.007358130121602358
1129.0,0.007402303897961815
1128.0,0.007490664932224611
1127.0,0.007534852191956709
1126.0,0.007490664932224611
1125.0,0.0074464821678643656
1124.0,0.007402303897961815
1123.0,0.007402303897961815
1122.0,0.007490664932224611
1121.0,0.0075790439479759275
1120.0,0.007667440952535687
1119.0,0.007711646202907652
1118.0,0.007800070204414977
1117.0,0.007888512213050314
1116.0,0.007932739972333236
1115.0,0.007976972236149349
1114.0,0.008021209005416363
1113.0,0.008065450281052211
1112.0,0.008242460465651913
1111.0,0.008419542825660153
1110.0,0.008640997362049818
1109.0,0.008862564879688284
1108.0,0.009172949432521227
1107.0,0.009572341514736404
1106.0,0.010105436281226954
1105.0,0.010683695010048622
1104.0,0.01117359295472431
1103.0,0.011485634166333858
1102.0,0.011485634166333858
1101.0,0.011262724711199823
1100.0,0.010906307389674463
1099.0,0.010505687227290839
1098.0,0.010105436281226954
1097.0,0.009794384815193347
1096.0,0.009527946474380489
1095.0,0.009350411681145587
1094.0,0.009128595198514056
1093.0,0.008906891951112605
1092.0,0.008640997362049818
1091.0,0.008463824699968647
1090.0,0.008330992620051436
1089.0,0.008242460465651913
1088.0,0.008109696063975047
1087.0,0.007976972236149349
1086.0,0.007888512213050314
1085.0,0.007888512213050314
1084.0,0.007888512213050314
1083.0,0.007932739972333236
1082.0,0.007932739972333236
1081.0,0.007888512213050314
1080.0,0.007844288957383316
1079.0,0.007755855953228474
1078.0,0.007667440952535687
1077.0,0.007534852191956709
1076.0,0.0074464821678643656
1075.0,0.007402303897961815
1074.0,0.007313960837872058
1073.0,0.007313960837872058
1072.0,0.007313960837872058
1071.0,0.007313960837872058
1070.0,0.007269796045857202
1069.0,0.007225635744644521
1068.0,0.007225635744644521
1067.0,0.007269796045857202
1066.0,0.007358130121602358
1065.0,0.0074464821678643656
1064.0,0.007490664932224611
1063.0,0.007490664932224611
1062.0,0.007490664932224611
1061.0,0.007490664932224611
1060.0,0.007490664932224611
1059.0,0.0075790439479759275
1058.0,0.007711646202907652
1057.0,0.007888512213050314
1056.0,0.008109696063975047
1055.0,0.008330992620051436
1054.0,0.008552401996197112
1053.0,0.0087296108049002
1052.0,0.008995559669244813
1051.0,0.009306039320248427
1050.0,0.009705553871561357
1049.0,0.010194349063173958
1048.0,0.010728208358306901
1047.0,0.01117359295472431
1046.0,0.011485634166333858
1045.0,0.011619434777991433
1044.0,0.011574829993696856
1043.0,0.011396456654336085
1042.0,0.011218156546359825
1041.0,0.010995384301463185
1040.0,0.010817248744452446
1039.0,0.010639186223752484
1038.0,0.010505687227290839
1037.0,0.010327752376126709
1036.0,0.010149890396819572
1035.0,0.010060986715464404
1034.0,0.010060986715464404
1033.0,0.010149890396819572
1032.0,0.010283280051895272
1031.0,0.010416710688994968
1030.0,0.010505687227290839
1029.0,0.010505687227290839
1028.0,0.01046119667949763
1027.0,0.010327752376126709
1026.0,0.01023881228122181
1025.0,0.010194349063173958
1024.0,0.010194349063173958
1023.0,0.010194349063173958
1022.0,0.010194349063173958
1021.0,0.01023881228122181
1020.0,0.010283280051895272
1019.0,0.010416710688994968
1018.0,0.010550182333308289
1017.0,0.010639186223752484
1016.0,0.010639186223752484
1015.0,0.010683695010048622
1014.0,0.010728208358306901
1013.0,0.01077272626946324
1012.0,0.010817248744452446
1011.0,0.010817248744452446
1010.0,0.01077272626946324
1009.0,0.010728208358306901
1008.0,0.010683695010048622
1007.0,0.01077272626946324
1006.0,0.011039929609661936
1005.0,0.011574829993696856
1004.0,0.012512493866907004
1003.0,0.013945219230304673
1002.0,0.016103208673694303
1001.0,0.018861217359339655
1000.0,0.021910826943857264
999.0,0.024430342106337877
998.0,0.02562649291857677
997.0,0.02516604495145991
996.0,0.02314585342378117
995.0,0.020315076172974234
994.0,0.017321806616515723
993.0,0.014753209197138295
992.0,0.012780770091995297
991.0,0.011351874764248926
990.0,0.01037222925484893
989.0,0.00966114521239847
988.0,0.009217308196862062
987.0,0.008951223547323472
986.0,0.008862564879688284
985.0,0.008862564879688284
984.0,0.009039900317800775
983.0,0.009439170005980158
982.0,0.010194349063173958
981.0,0.011351874764248926
980.0,0.012914970375878188
979.0,0.014977917890464765
978.0,0.017547848615010242
977.0,0.020542681902151694
976.0,0.023787622882622816
975.0,0.026872146400301444
974.0,0.029234840219232394
973.0,0.030164906924202484
972.0,0.02942069428514915
971.0,0.027149444152769986
970.0,0.023879381700184332
969.0,0.02045162529590483
968.0,0.017412209298337533
967.0,0.014977917890464765
966.0,0.013138729709955221
965.0,0.011753276624621556
964.0,0.010728208358306901
963.0,0.009883233932095559
962.0,0.009172949432521227
961.0,0.008552401996197112
960.0,0.008065450281052211
959.0,0.00762324020119709
958.0,0.007225635744644521
957.0,0.00696076819309055
956.0,0.006784279525863024
955.0,0.006651960076740071
954.0,0.006519680930003435
953.0,0.006387442061109638
952.0,0.006343371384537999
951.0,0.006299305179649828
950.0,0.00625524344553785
949.0,0.006167133386013823
948.0,0.006167133386013823
947.0,0.00625524344553785
946.0,0.006431517210272464
945.0,0.006651960076740071
944.0,0.00696076819309055
943.0,0.007269796045857202
942.0,0.007490664932224611
941.0,0.007534852191956709
940.0,0.007490664932224611
939.0,0.007313960837872058
938.0,0.007093181776687496
937.0,0.006916639301937977
936.0,0.006784279525863024
935.0,0.006696062080525422
934.0,0.006607862550997545
933.0,0.006475596832934416
932.0,0.006343371384537999
931.0,0.00621118618129457
930.0,0.006079041198713275
929.0,0.00590291041179003
928.0,0.00577085918230158
927.0,0.005726851026829571
926.0,0.005814871797682919
925.0,0.005946936412324799
924.0,0.006079041198713275
923.0,0.006167133386013823
922.0,0.00621118618129457
921.0,0.00612308505878878
920.0,0.006035001804881146
919.0,0.00590291041179003
918.0,0.005858888873877532
917.0,0.005858888873877532
916.0,0.00590291041179003
915.0,0.006035001804881146
914.0,0.006167133386013823
913.0,0.006167133386013823
912.0,0.00612308505878878
911.0,0.00612308505878878
910.0,0.00625524344553785
909.0,0.006431517210272464
908.0,0.006607862550997545
907.0,0.006828394969235152
906.0,0.007181479933320523
905.0,0.007888512213050314
904.0,0.008995559669244813
903.0,0.010505687227290839
902.0,0.012110390002254778
901.0,0.013496984613259544
900.0,0.014304140310157809
899.0,0.014438812226654996
898.0,0.01381070026317599
897.0,0.01264661126420652
896.0,0.01117359295472431
895.0,0.009838807101520963
894.0,0.008773924307505121
893.0,0.007888512213050314
892.0,0.007225635744644521
891.0,0.006740168563263094
890.0,0.006431517210272464
889.0,0.00621118618129457
888.0,0.006079041198713275
887.0,0.006035001804881146
886.0,0.006079041198713275
885.0,0.00612308505878878
884.0,0.006167133386013823
883.0,0.006079041198713275
882.0,0.005946936412324799
881.0,0.005814871797682919
880.0,0.00577085918230158
879.0,0.005858888873877532
878.0,0.006079041198713275
877.0,0.006299305179649828
876.0,0.006519680930003435
875.0,0.006740168563263094
874.0,0.006872514894289861
873.0,0.006916639301937977
872.0,0.007004901568658406
871.0,0.007093181776687496
870.0,0.007181479933320523
869.0,0.007225635744644521
868.0,0.007269796045857202
867.0,0.007358130121602358
866.0,0.0074464821678643656
865.0,0.007490664932224611
864.0,0.007490664932224611
863.0,0.007534852191956709
862.0,0.00762324020119709
861.0,0.007755855953228474
860.0,0.007976972236149349
859.0,0.008153946355103248
858.0,0.008286724286910463
857.0,0.008286724286910463
856.0,0.008242460465651913
855.0,0.008286724286910463
854.0,0.008286724286910463
853.0,0.008242460465651913
852.0,0.008198201155356077
851.0,0.008198201155356077
850.0,0.008330992620051436
849.0,0.008685301823389224
848.0,0.009306039320248427
847.0,0.010283280051895272
846.0,0.011664044143949504
845.0,0.01385553528947936
844.0,0.017005545341335804
843.0,0.020770406977844713
842.0,0.023971159908874107
841.0,0.02516604495145991
840.0,0.023787622882622816
839.0,0.02058821736556471
838.0,0.016960383953898095
837.0,0.013945219230304673
836.0,0.011887159731648111
835.0,0.010594681998483901
834.0,0.009794384815193347
833.0,0.009172949432521227
832.0,0.008685301823389224
831.0,0.008330992620051436
830.0,0.008065450281052211
829.0,0.007932739972333236
828.0,0.007755855953228474
827.0,0.0075790439479759275
826.0,0.007402303897961815
825.0,0.007269796045857202
824.0,0.007137328610972382
823.0,0.007137328610972382
822.0,0.007225635744644521
821.0,0.0074464821678643656
820.0,0.007755855953228474
819.0,0.008109696063975047
818.0,0.008463824699968647
817.0,0.008818242332126802
816.0,0.009306039320248427
815.0,0.010105436281226954
814.0,0.011307297450183107
813.0,0.012825498912458322
812.0,0.014393916947563534
811.0,0.01578783323856614
810.0,0.016689514205884493
809.0,0.017005545341335804
808.0,0.016689514205884493
807.0,0.015877917138889863
806.0,0.014843078722943437
805.0,0.01372104409400876
804.0,0.012736045877764557
803.0,0.011931796607364653
802.0,0.011396456654336085
801.0,0.010995384301463185
800.0,0.010683695010048622
799.0,0.010416710688994968
798.0,0.010105436281226954
797.0,0.009794384815193347
796.0,0.00966114521239847
795.0,0.00966114521239847
794.0,0.009572341514736404
793.0,0.00939478857608056
792.0,0.00908424549391551
791.0,0.008906891951112605
790.0,0.008773924307505121
789.0,0.008640997362049818
788.0,0.008463824699968647
787.0,0.008286724286910463
786.0,0.008109696063975047
785.0,0.008021209005416363
784.0,0.008021209005416363
783.0,0.008065450281052211
782.0,0.008021209005416363
781.0,0.007800070204414977
780.0,0.007402303897961815
779.0,0.006916639301937977
778.0,0.006651960076740071
777.0,0.006651960076740071
776.0,0.006872514894289861
775.0,0.007093181776687496
774.0,0.007225635744644521
773.0,0.007181479933320523
772.0,0.007181479933320523
771.0,0.007269796045857202
770.0,0.007402303897961815
769.0,0.007490664932224611
768.0,0.0075790439479759275
767.0,0.007667440952535687
766.0,0.007667440952535687
765.0,0.007711646202907652
764.0,0.007800070204414977
763.0,0.008153946355103248
762.0,0.0087296108049002
761.0,0.009217308196862062
760.0,0.009616741093766423
759.0,0.009838807101520963
758.0,0.009883233932095559
757.0,0.009883233932095559
756.0,0.009838807101520963
755.0,0.01001654169860089
754.0,0.010327752376126709
753.0,0.010728208358306901
752.0,0.011129033935354915
751.0,0.011485634166333858
750.0,0.011708658092512314
749.0,0.011708658092512314
748.0,0.011574829993696856
747.0,0.011441043121384498
746.0,0.011396456654336085
745.0,0.011262724711199823
744.0,0.011129033935354915
743.0,0.011084479487313281
742.0,0.011129033935354915
741.0,0.011218156546359825
740.0,0.011396456654336085
739.0,0.011708658092512314
738.0,0.012199714248127602
737.0,0.012691326268817527
736.0,0.012959713020733288
735.0,0.01318349541446362
734.0,0.01381070026317599
733.0,0.015112798935672522
732.0,0.016734647433454652
731.0,0.01800028587012159
730.0,0.018498511851753108
729.0,0.018136109008649592
728.0,0.017231422748988034
727.0,0.01632861713980338
726.0,0.015742798294583915
725.0,0.015562705203923999
724.0,0.015922966097169144
723.0,0.016915227262211507
722.0,0.01845319495476394
721.0,0.02013307743509718
720.0,0.021089422824428272
719.0,0.020907099361673565
718.0,0.019769308608968306
717.0,0.018181392829336396
716.0,0.016599261819461697
715.0,0.015292705517326866
714.0,0.0144837121472845
713.0,0.014124642691606404
712.0,0.014079779876432497
711.0,0.014079779876432497
710.0,0.013990068146738865
709.0,0.013945219230304673
708.0,0.014259258949925524
707.0,0.015022873584506602
706.0,0.016238439713835096
705.0,0.017728766960431575
704.0,0.019315025636685412
703.0,0.021043834782408455
702.0,0.02282532397981263
701.0,0.024292536462819925
700.0,0.02516604495145991
699.0,0.025258095499050004
698.0,0.02475205875931885
697.0,0.024200690320592466
696.0,0.023971159908874107
695.0,0.023925268380126097
694.0,0.023695883447997224
693.0,0.022871099419317753
692.0,0.02140867317992523
691.0,0.01949668180660491
690.0,0.017412209298337533
689.0,0.015697768020096703
688.0,0.014753209197138295
687.0,0.014663358264387139
686.0,0.014932966849499074
685.0,0.015067833932588037
684.0,0.014932966849499074
683.0,0.014708281407112
682.0,0.014573525916998342
681.0,0.014798141635428141
680.0,0.015427684378367834
679.0,0.01628352608625061
678.0,0.017005545341335804
677.0,0.017231422748988034
676.0,0.017050711425501408
675.0,0.016824927962187042
674.0,0.016554142658660398
673.0,0.016193358021584725
672.0,0.01578783323856614
671.0,0.01547268665620738
670.0,0.015292705517326866
669.0,0.014708281407112
668.0,0.013138729709955221
667.0,0.011753276624621556
666.0,0.011530229790124524
665.0,0.011441043121384498
664.0,0.010995384301463185
663.0,0.010327752376126709
662.0,0.009838807101520963
661.0,0.00974996707218323
660.0,0.01001654169860089
659.0,0.010683695010048622
658.0,0.011574829993696856
657.0,0.012289056869694281
656.0,0.012691326268817527
655.0,0.012825498912458322
654.0,0.012914970375878188
653.0,0.013004460275618523
652.0,0.013004460275618523
651.0,0.012780770091995297
650.0,0.012423105273012602
649.0,0.0119764380713403
648.0,0.011619434777991433
647.0,0.011396456654336085
646.0,0.011396456654336085
645.0,0.011664044143949504
644.0,0.012244383261476699
643.0,0.012825498912458322
642.0,0.012870232340102872
641.0,0.012467797270160563
640.0,0.012110390002254778
639.0,0.012557195064198723
638.0,0.01381070026317599
637.0,0.015292705517326866
636.0,0.01632861713980338
635.0,0.016734647433454652
634.0,0.016599261819461697
633.0,0.016418813294209356
632.0,0.016599261819461697
631.0,0.016960383953898095
630.0,0.017005545341335804
629.0,0.016418813294209356
628.0,0.01538268676325183
627.0,0.014618439768003144
626.0,0.014438812226654996
625.0,0.014663358264387139
624.0,0.014798141635428141
623.0,0.014753209197138295
622.0,0.014798141635428141
621.0,0.015157768594724175
620.0,0.015652742414136167
619.0,0.01578783323856614
618.0,0.015607721475734415
617.0,0.015562705203923999
616.0,0.016058141016111804
615.0,0.01677978535189717
614.0,0.017005545341335804
613.0,0.016509028184833463
612.0,0.015697768020096703
611.0,0.014977917890464765
610.0,0.014124642691606404
609.0,0.012870232340102872
608.0,0.011619434777991433
607.0,0.010995384301463185
606.0,0.011129033935354915
605.0,0.011396456654336085
604.0,0.011396456654336085
603.0,0.011530229790124524
602.0,0.012333735073725371
601.0,0.01385553528947936
600.0,0.015067833932588037
