cm-1,A
4000.0,0.0094
3999.0,0.0094
3998.0,0.0094
3997.0,0.0094
3996.0,0.0094
3995.0,0.0094
3994.0,0.0093
3993.0,0.0093
3992.0,0.0092
3991.0,0.0092
3990.0,0.0091
3989.0,0.0091
3988.0,0.0091
3987.0,0.0092
3986.0,0.0092
3985.0,0.0093
3984.0,0.0095
3983.0,0.0096
3982.0,0.0097
3981.0,0.0098
3980.0,0.0097
3979.0,0.0096
3978.0,0.0095
3977.0,0.0094
3976.0,0.0093
3975.0,0.0093
3974.0,0.0093
3973.0,0.0092
3972.0,0.0092
3971.0,0.0092
3970.0,0.0093
3969.0,0.0095
3968.0,0.0097
3967.0,0.0098
3966.0,0.0098
3965.0,0.0097
3964.0,0.0096
3963.0,0.0095
3962.0,0.0094
3961.0,0.0094
3960.0,0.0093
3959.0,0.0093
3958.0,0.0092
3957.0,0.0093
3956.0,0.0093
3955.0,0.0093
3954.0,0.0094
3953.0,0.0094
3952.0,0.0094
3951.0,0.0094
3950.0,0.0095
3949.0,0.0096
3948.0,0.0097
3947.0,0.0097
3946.0,0.0097
3945.0,0.0097
3944.0,0.0098
3943.0,0.0099
3942.0,0.01
3941.0,0.0101
3940.0,0.01
3939.0,0.0099
3938.0,0.0098
3937.0,0.0098
3936.0,0.0098
3935.0,0.0098
3934.0,0.0099
3933.0,0.0098
3932.0,0.0098
3931.0,0.0097
3930.0,0.0096
3929.0,0.0095
3928.0,0.0095
3927.0,0.0095
3926.0,0.0095
3925.0,0.0097
3924.0,0.0099
3923.0,0.01
3922.0,0.01
3921.0,0.01
3920.0,0.0099
3919.0,0.0098
3918.0,0.0098
3917.0,0.0097
3916.0,0.0098
3915.0,0.0098
3914.0,0.0098
3913.0,0.0097
3912.0,0.0097
3911.0,0.0097
3910.0,0.0097
3909.0,0.0099
3908.0,0.0101
3907.0,0.0103
3906.0,0.0104
3905.0,0.0104
3904.0,0.0103
3903.0,0.0103
3902.0,0.0104
3901.0,0.0103
3900.0,0.0103
3899.0,0.0101
3898.0,0.0101
3897.0,0.01
3896.0,0.01
3895.0,0.01
3894.0,0.01
3893.0,0.01
3892.0,0.01
3891.0,0.0101
3890.0,0.0103
3889.0,0.0104
3888.0,0.0104
3887.0,0.0104
3886.0,0.0105
3885.0,0.0105
3884.0,0.0105
3883.0,0.0104
3882.0,0.0102
3881.0,0.01
3880.0,0.01
3879.0,0.01
3878.0,0.0101
3877.0,0.0101
3876.0,0.0101
3875.0,0.0101
3874.0,0.0102
3873.0,0.0102
3872.0,0.0101
3871.0,0.0101
3870.0,0.0101
3869.0,0.0102
3868.0,0.0102
3867.0,0.0101
3866.0,0.0099
3865.0,0.0099
3864.0,0.01
3863.0,0.01
3862.0,0.0099
3861.0,0.0099
3860.0,0.0099
3859.0,0.01
3858.0,0.0101
3857.0,0.0102
3856.0,0.0102
3855.0,0.0101
3854.0,0.0103
3853.0,0.0105
3852.0,0.0104
3851.0,0.0103
3850.0,0.0102
3849.0,0.0102
3848.0,0.0102
3847.0,0.0103
3846.0,0.0104
3845.0,0.0105
3844.0,0.0106
3843.0,0.0106
3842.0,0.0106
3841.0,0.0106
3840.0,0.0105
3839.0,0.0105
3838.0,0.0103
3837.0,0.0102
3836.0,0.0101
3835.0,0.0101
3834.0,0.0102
3833.0,0.0102
3832.0,0.0103
3831.0,0.0102
3830.0,0.0102
3829.0,0.0101
3828.0,0.0101
3827.0,0.0102
3826.0,0.0103
3825.0,0.0105
3824.0,0.0105
3823.0,0.0104
3822.0,0.0103
3821.0,0.0103
3820.0,0.0104
3819.0,0.0103
3818.0,0.0102
3817.0,0.0101
3816.0,0.0101
3815.0,0.0103
3814.0,0.0104
3813.0,0.0104
3812.0,0.0104
3811.0,0.0104
3810.0,0.0104
3809.0,0.0102
3808.0,0.01
3807.0,0.0099
3806.0,0.0101
3805.0,0.0103
3804.0,0.0104
3803.0,0.0104
3802.0,0.0104
3801.0,0.0105
3800.0,0.0105
3799.0,0.0105
3798.0,0.0106
3797.0,0.0107
3796.0,0.0108
3795.0,0.0107
3794.0,0.0106
3793.0,0.0104
3792.0,0.0103
3791.0,0.0103
3790.0,0.0104
3789.0,0.0105
3788.0,0.0106
3787.0,0.0106
3786.0,0.0106
3785.0,0.0106
3784.0,0.0107
3783.0,0.0107
3782.0,0.0108
3781.0,0.0107
3780.0,0.0107
3779.0,0.0107
3778.0,0.0107
3777.0,0.0106
3776.0,0.0106
3775.0,0.0107
3774.0,0.0107
3773.0,0.0107
3772.0,0.0107
3771.0,0.0106
3770.0,0.0107
3769.0,0.0107
3768.0,0.0107
3767.0,0.0106
3766.0,0.0105
3765.0,0.0105
3764.0,0.0105
3763.0,0.0106
3762.0,0.0105
3761.0,0.0105
3760.0,0.0105
3759.0,0.0106
3758.0,0.0105
3757.0,0.0105
3756.0,0.0105
3755.0,0.0105
3754.0,0.0104
3753.0,0.0103
3752.0,0.0103
3751.0,0.0103
3750.0,0.0104
3749.0,0.0106
3748.0,0.011
3747.0,0.011
3746.0,0.0109
3745.0,0.0108
3744.0,0.0108
3743.0,0.0109
3742.0,0.0108
3741.0,0.0107
3740.0,0.0107
3739.0,0.0107
3738.0,0.0108
3737.0,0.011
3736.0,0.0112
3735.0,0.0114
3734.0,0.0112
3733.0,0.011
3732.0,0.0109
3731.0,0.011
3730.0,0.0111
3729.0,0.0111
3728.0,0.0112
3727.0,0.0112
3726.0,0.0113
3725.0,0.0113
3724.0,0.0111
3723.0,0.011
3722.0,0.0109
3721.0,0.0109
3720.0,0.011
3719.0,0.0111
3718.0,0.0112
3717.0,0.0113
3716.0,0.0114
3715.0,0.0114
3714.0,0.0113
3713.0,0.0112
3712.0,0.0112
3711.0,0.0113
3710.0,0.0113
3709.0,0.0114
3708.0,0.0115
3707.0,0.0115
3706.0,0.0116
3705.0,0.0116
3704.0,0.0116
3703.0,0.0117
3702.0,0.0117
3701.0,0.0118
3700.0,0.0119
3699.0,0.012
3698.0,0.0121
3697.0,0.0122
3696.0,0.0123
3695.0,0.0124
3694.0,0.0125
3693.0,0.0125
3692.0,0.0125
3691.0,0.0126
3690.0,0.0127
3689.0,0.0127
3688.0,0.0128
3687.0,0.0128
3686.0,0.0128
3685.0,0.0129
3684.0,0.013
3683.0,0.013
3682.0,0.0131
3681.0,0.0131
3680.0,0.0132
3679.0,0.0134
3678.0,0.0135
3677.0,0.0135
3676.0,0.0137
3675.0,0.0139
3674.0,0.014
3673.0,0.0142
3672.0,0.0142
3671.0,0.0142
3670.0,0.0144
3669.0,0.0145
3668.0,0.0145
3667.0,0.0146
3666.0,0.0147
3665.0,0.0148
3664.0,0.0149
3663.0,0.0149
3662.0,0.015
3661.0,0.0152
3660.0,0.0154
3659.0,0.0155
3658.0,0.0156
3657.0,0.0157
3656.0,0.0159
3655.0,0.0161
3654.0,0.0164
3653.0,0.0166
3652.0,0.0168
3651.0,0.0171
3650.0,0.0175
3649.0,0.0178
3648.0,0.018
3647.0,0.0181
3646.0,0.0182
3645.0,0.0183
3644.0,0.0184
3643.0,0.0185
3642.0,0.0186
3641.0,0.0188
3640.0,0.0191
3639.0,0.0194
3638.0,0.0196
3637.0,0.0199
3636.0,0.0201
3635.0,0.0202
3634.0,0.0205
3633.0,0.0209
3632.0,0.0212
3631.0,0.0213
3630.0,0.0215
3629.0,0.0217
3628.0,0.0219
3627.0,0.0221
3626.0,0.0224
3625.0,0.0228
3624.0,0.0232
3623.0,0.0237
3622.0,0.0241
3621.0,0.0244
3620.0,0.0246
3619.0,0.0248
3618.0,0.0249
3617.0,0.0251
3616.0,0.0253
3615.0,0.0256
3614.0,0.0261
3613.0,0.0265
3612.0,0.0269
3611.0,0.0272
3610.0,0.0275
3609.0,0.0279
3608.0,0.0282
3607.0,0.0285
3606.0,0.0286
3605.0,0.0287
3604.0,0.0289
3603.0,0.0291
3602.0,0.0293
3601.0,0.0297
3600.0,0.0302
3599.0,0.0306
3598.0,0.031
3597.0,0.0312
3596.0,0.0315
3595.0,0.0317
3594.0,0.032
3593.0,0.0322
3592.0,0.0324
3591.0,0.0326
3590.0,0.0327
3589.0,0.033
3588.0,0.0334
3587.0,0.0338
3586.0,0.034
3585.0,0.0342
3584.0,0.0345
3583.0,0.0348
3582.0,0.0351
3581.0,0.0354
3580.0,0.0357
3579.0,0.0359
3578.0,0.0362
3577.0,0.0366
3576.0,0.0369
3575.0,0.0373
3574.0,0.0375
3573.0,0.0378
3572.0,0.0382
3571.0,0.0386
3570.0,0.039
3569.0,0.0394
3568.0,0.0397
3567.0,0.0399
3566.0,0.0401
3565.0,0.0402
3564.0,0.0404
3563.0,0.0406
3562.0,0.0408
3561.0,0.041
3560.0,0.0413
3559.0,0.0417
3558.0,0.042
3557.0,0.0424
3556.0,0.0426
3555.0,0.0428
3554.0,0.0429
3553.0,0.0431
3552.0,0.0435
3551.0,0.0439
3550.0,0.0443
3549.0,0.0446
3548.0,0.0449
3547.0,0.0453
3546.0,0.0456
3545.0,0.046
3544.0,0.0463
3543.0,0.0467
3542.0,0.047
3541.0,0.0473
3540.0,0.0476
3539.0,0.0478
3538.0,0.0481
3537.0,0.0484
3536.0,0.0488
3535.0,0.0491
3534.0,0.0494
3533.0,0.0497
3532.0,0.05
3531.0,0.0503
3530.0,0.0507
3529.0,0.0511
3528.0,0.0515
3527.0,0.0518
3526.0,0.0521
3525.0,0.0524
3524.0,0.0527
3523.0,0.0529
3522.0,0.053
3521.0,0.0532
3520.0,0.0534
3519.0,0.0537
3518.0,0.054
3517.0,0.0543
3516.0,0.0545
3515.0,0.0548
3514.0,0.0551
3513.0,0.0555
3512.0,0.0559
3511.0,0.0562
3510.0,0.0566
3509.0,0.057
3508.0,0.0573
3507.0,0.0575
3506.0,0.0577
3505.0,0.0579
3504.0,0.0583
3503.0,0.0586
3502.0,0.059
3501.0,0.0594
3500.0,0.0598
3499.0,0.0602
3498.0,0.0606
3497.0,0.0609
3496.0,0.0612
3495.0,0.0615
3494.0,0.0618
3493.0,0.062
3492.0,0.0623
3491.0,0.0626
3490.0,0.0629
3489.0,0.0633
3488.0,0.0637
3487.0,0.0641
3486.0,0.0644
3485.0,0.0647
3484.0,0.065
3483.0,0.0654
3482.0,0.0657
3481.0,0.066
3480.0,0.0663
3479.0,0.0665
3478.0,0.0668
3477.0,0.0671
3476.0,0.0674
3475.0,0.0677
3474.0,0.068
3473.0,0.0684
3472.0,0.0688
3471.0,0.0692
3470.0,0.0695
3469.0,0.0697
3468.0,0.07
3467.0,0.0702
3466.0,0.0706
3465.0,0.071
3464.0,0.0714
3463.0,0.0717
3462.0,0.072
3461.0,0.0722
3460.0,0.0725
3459.0,0.0727
3458.0,0.0729
3457.0,0.0732
3456.0,0.0736
3455.0,0.0739
3454.0,0.0743
3453.0,0.0746
3452.0,0.0749
3451.0,0.0752
3450.0,0.0755
3449.0,0.0759
3448.0,0.0763
3447.0,0.0767
3446.0,0.077
3445.0,0.0773
3444.0,0.0775
3443.0,0.0778
3442.0,0.078
3441.0,0.0782
3440.0,0.0785
3439.0,0.0788
3438.0,0.0791
3437.0,0.0794
3436.0,0.0796
3435.0,0.0799
3434.0,0.0802
3433.0,0.0805
3432.0,0.0808
3431.0,0.0812
3430.0,0.0815
3429.0,0.0818
3428.0,0.0822
3427.0,0.0824
3426.0,0.0826
3425.0,0.0827
3424.0,0.0828
3423.0,0.083
3422.0,0.0834
3421.0,0.0838
3420.0,0.0842
3419.0,0.0846
3418.0,0.0849
3417.0,0.0851
3416.0,0.0853
3415.0,0.0855
3414.0,0.0856
3413.0,0.0858
3412.0,0.086
3411.0,0.0862
3410.0,0.0864
3409.0,0.0866
3408.0,0.0867
3407.0,0.0869
3406.0,0.087
3405.0,0.0871
3404.0,0.0872
3403.0,0.0874
3402.0,0.0876
3401.0,0.0879
3400.0,0.0881
3399.0,0.0883
3398.0,0.0884
3397.0,0.0884
3396.0,0.0885
3395.0,0.0886
3394.0,0.0887
3393.0,0.0889
3392.0,0.0891
3391.0,0.0893
3390.0,0.0894
3389.0,0.0895
3388.0,0.0895
3387.0,0.0895
3386.0,0.0895
3385.0,0.0896
3384.0,0.0896
3383.0,0.0895
3382.0,0.0895
3381.0,0.0896
3380.0,0.0897
3379.0,0.0899
3378.0,0.09
3377.0,0.0901
3376.0,0.0901
3375.0,0.0901
3374.0,0.0901
3373.0,0.0899
3372.0,0.0898
3371.0,0.0898
3370.0,0.0898
3369.0,0.0898
3368.0,0.0897
3367.0,0.0896
3366.0,0.0894
3365.0,0.0891
3364.0,0.0889
3363.0,0.0888
3362.0,0.0888
3361.0,0.0889
3360.0,0.0888
3359.0,0.0887
3358.0,0.0884
3357.0,0.0881
3356.0,0.0879
3355.0,0.0876
3354.0,0.0875
3353.0,0.0874
3352.0,0.0872
3351.0,0.087
3350.0,0.0869
3349.0,0.0867
3348.0,0.0866
3347.0,0.0864
3346.0,0.0862
3345.0,0.086
3344.0,0.0858
3343.0,0.0856
3342.0,0.0854
3341.0,0.0852
3340.0,0.0849
3339.0,0.0847
3338.0,0.0845
3337.0,0.0843
3336.0,0.0842
3335.0,0.0841
3334.0,0.084
3333.0,0.0839
3332.0,0.0837
3331.0,0.0834
3330.0,0.0832
3329.0,0.0829
3328.0,0.0827
3327.0,0.0825
3326.0,0.0823
3325.0,0.0821
3324.0,0.0818
3323.0,0.0816
3322.0,0.0814
3321.0,0.0814
3320.0,0.0813
3319.0,0.0811
3318.0,0.0807
3317.0,0.0803
3316.0,0.08
3315.0,0.0798
3314.0,0.0797
3313.0,0.0795
3312.0,0.0793
3311.0,0.0789
3310.0,0.0786
3309.0,0.0784
3308.0,0.0783
3307.0,0.0782
3306.0,0.0782
3305.0,0.078
3304.0,0.0778
3303.0,0.0775
3302.0,0.0772
3301.0,0.0769
3300.0,0.0767
3299.0,0.0765
3298.0,0.0764
3297.0,0.0762
3296.0,0.076
3295.0,0.0758
3294.0,0.0755
3293.0,0.0753
3292.0,0.0752
3291.0,0.075
3290.0,0.075
3289.0,0.075
3288.0,0.075
3287.0,0.0749
3286.0,0.0748
3285.0,0.0746
3284.0,0.0744
3283.0,0.0743
3282.0,0.0741
3281.0,0.074
3280.0,0.0738
3279.0,0.0736
3278.0,0.0734
3277.0,0.0731
3276.0,0.0728
3275.0,0.0726
3274.0,0.0726
3273.0,0.0726
3272.0,0.0725
3271.0,0.0725
3270.0,0.0723
3269.0,0.0721
3268.0,0.0718
3267.0,0.0715
3266.0,0.0712
3265.0,0.071
3264.0,0.0709
3263.0,0.0708
3262.0,0.0707
3261.0,0.0705
3260.0,0.0703
3259.0,0.07
3258.0,0.0698
3257.0,0.0696
3256.0,0.0694
3255.0,0.0693
3254.0,0.0693
3253.0,0.0692
3252.0,0.0692
3251.0,0.069
3250.0,0.0689
3249.0,0.0686
3248.0,0.0682
3247.0,0.0679
3246.0,0.0677
3245.0,0.0675
3244.0,0.0674
3243.0,0.0671
3242.0,0.0668
3241.0,0.0665
3240.0,0.0662
3239.0,0.066
3238.0,0.0659
3237.0,0.0658
3236.0,0.0656
3235.0,0.0655
3234.0,0.0652
3233.0,0.065
3232.0,0.0647
3231.0,0.0644
3230.0,0.0642
3229.0,0.0639
3228.0,0.0636
3227.0,0.0633
3226.0,0.0631
3225.0,0.0628
3224.0,0.0625
3223.0,0.0622
3222.0,0.062
3221.0,0.0617
3220.0,0.0615
3219.0,0.0614
3218.0,0.0612
3217.0,0.061
3216.0,0.0607
3215.0,0.0604
3214.0,0.0601
3213.0,0.0598
3212.0,0.0594
3211.0,0.0591
3210.0,0.0587
3209.0,0.0584
3208.0,0.0581
3207.0,0.0578
3206.0,0.0576
3205.0,0.0573
3204.0,0.057
3203.0,0.0567
3202.0,0.0564
3201.0,0.0561
3200.0,0.0558
3199.0,0.0555
3198.0,0.0551
3197.0,0.0548
3196.0,0.0546
3195.0,0.0544
3194.0,0.0542
3193.0,0.054
3192.0,0.0538
3191.0,0.0536
3190.0,0.0533
3189.0,0.053
3188.0,0.0527
3187.0,0.0525
3186.0,0.0522
3185.0,0.0519
3184.0,0.0516
3183.0,0.0512
3182.0,0.0508
3181.0,0.0505
3180.0,0.0503
3179.0,0.0501
3178.0,0.0498
3177.0,0.0495
3176.0,0.0492
3175.0,0.0489
3174.0,0.0486
3173.0,0.0484
3172.0,0.0482
3171.0,0.048
3170.0,0.0478
3169.0,0.0475
3168.0,0.0471
3167.0,0.0468
3166.0,0.0465
3165.0,0.0462
3164.0,0.0459
3163.0,0.0456
3162.0,0.0453
3161.0,0.045
3160.0,0.0447
3159.0,0.0445
3158.0,0.0442
3157.0,0.044
3156.0,0.0437
3155.0,0.0433
3154.0,0.043
3153.0,0.0427
3152.0,0.0426
3151.0,0.0424
3150.0,0.0422
3149.0,0.0419
3148.0,0.0416
3147.0,0.0413
3146.0,0.041
3145.0,0.0408
3144.0,0.0405
3143.0,0.0403
3142.0,0.0401
3141.0,0.0398
3140.0,0.0396
3139.0,0.0394
3138.0,0.0392
3137.0,0.039
3136.0,0.0387
3135.0,0.0385
3134.0,0.0382
3133.0,0.038
3132.0,0.0377
3131.0,0.0374
3130.0,0.0372
3129.0,0.0369
3128.0,0.0367
3127.0,0.0364
3126.0,0.0362
3125.0,0.0361
3124.0,0.0359
3123.0,0.0358
3122.0,0.0356
3121.0,0.0354
3120.0,0.0351
3119.0,0.0349
3118.0,0.0346
3117.0,0.0344
3116.0,0.0342
3115.0,0.0339
3114.0,0.0337
3113.0,0.0334
3112.0,0.0332
3111.0,0.0331
3110.0,0.0329
3109.0,0.0326
3108.0,0.0324
3107.0,0.0322
3106.0,0.032
3105.0,0.0318
3104.0,0.0316
3103.0,0.0315
3102.0,0.0313
3101.0,0.031
3100.0,0.0308
3099.0,0.0306
3098.0,0.0304
3097.0,0.0303
3096.0,0.0302
3095.0,0.03
3094.0,0.0298
3093.0,0.0296
3092.0,0.0294
3091.0,0.0291
3090.0,0.0289
3089.0,0.0288
3088.0,0.0288
3087.0,0.0287
3086.0,0.0286
3085.0,0.0284
3084.0,0.0282
3083.0,0.0281
3082.0,0.0279
3081.0,0.0277
3080.0,0.0274
3079.0,0.0272
3078.0,0.027
3077.0,0.0268
3076.0,0.0266
3075.0,0.0264
3074.0,0.0262
3073.0,0.0261
3072.0,0.0259
3071.0,0.0257
3070.0,0.0254
3069.0,0.0252
3068.0,0.025
3067.0,0.0249
3066.0,0.0249
3065.0,0.0249
3064.0,0.0248
3063.0,0.0246
3062.0,0.0244
3061.0,0.0242
3060.0,0.0241
3059.0,0.0239
3058.0,0.0237
3057.0,0.0236
3056.0,0.0234
3055.0,0.0233
3054.0,0.0232
3053.0,0.023
3052.0,0.0228
3051.0,0.0226
3050.0,0.0224
3049.0,0.0222
3048.0,0.022
3047.0,0.0218
3046.0,0.0216
3045.0,0.0215
3044.0,0.0213
3043.0,0.0212
3042.0,0.0211
3041.0,0.021
3040.0,0.0208
3039.0,0.0207
3038.0,0.0205
3037.0,0.0204
3036.0,0.0203
3035.0,0.0202
3034.0,0.0201
3033.0,0.0199
3032.0,0.0198
3031.0,0.0196
3030.0,0.0194
3029.0,0.0192
3028.0,0.019
3027.0,0.0189
3026.0,0.0188
3025.0,0.0187
3024.0,0.0186
3023.0,0.0185
3022.0,0.0184
3021.0,0.0182
3020.0,0.018
3019.0,0.0177
3018.0,0.0175
3017.0,0.0173
3016.0,0.0172
3015.0,0.0172
3014.0,0.0171
3013.0,0.017
3012.0,0.0169
3011.0,0.0168
3010.0,0.0165
3009.0,0.0163
3008.0,0.0161
3007.0,0.016
3006.0,0.0158
3005.0,0.0157
3004.0,0.0155
3003.0,0.0153
3002.0,0.0151
3001.0,0.0149
3000.0,0.0148
2999.0,0.0147
2998.0,0.0146
2997.0,0.0145
2996.0,0.0143
2995.0,0.0141
2994.0,0.014
2993.0,0.0138
2992.0,0.0137
2991.0,0.0136
2990.0,0.0136
2989.0,0.0135
2988.0,0.0135
2987.0,0.0134
2986.0,0.0134
2985.0,0.0134
2984.0,0.0134
2983.0,0.0135
2982.0,0.0135
2981.0,0.0136
2980.0,0.0137
2979.0,0.0138
2978.0,0.0139
2977.0,0.0141
2976.0,0.0144
2975.0,0.0147
2974.0,0.0151
2973.0,0.0156
2972.0,0.0162
2971.0,0.0169
2970.0,0.0175
2969.0,0.0182
2968.0,0.019
2967.0,0.0197
2966.0,0.0205
2965.0,0.0212
2964.0,0.022
2963.0,0.0227
2962.0,0.0235
2961.0,0.0243
2960.0,0.025
2959.0,0.0256
2958.0,0.0262
2957.0,0.0266
2956.0,0.0269
2955.0,0.0271
2954.0,0.0272
2953.0,0.0273
2952.0,0.0274
2951.0,0.0277
2950.0,0.028
2949.0,0.0286
2948.0,0.0295
2947.0,0.0308
2946.0,0.0324
2945.0,0.0343
2944.0,0.0365
2943.0,0.0391
2942.0,0.042
2941.0,0.0452
2940.0,0.0488
2939.0,0.0528
2938.0,0.057
2937.0,0.0617
2936.0,0.0667
2935.0,0.072
2934.0,0.0778
2933.0,0.0839
2932.0,0.0906
2931.0,0.0978
2930.0,0.1057
2929.0,0.1141
2928.0,0.1233
2927.0,0.1332
2926.0,0.1442
2925.0,0.1564
2924.0,0.17
2923.0,0.1851
2922.0,0.2015
2921.0,0.2192
2920.0,0.2375
2919.0,0.2554
2918.0,0.2711
2917.0,0.2825
2916.0,0.2876
2915.0,0.2855
2914.0,0.2772
2913.0,0.2648
2912.0,0.2505
2911.0,0.2361
2910.0,0.2226
2909.0,0.2106
2908.0,0.2002
2907.0,0.1911
2906.0,0.1833
2905.0,0.1765
2904.0,0.1706
2903.0,0.1654
2902.0,0.1607
2901.0,0.1564
2900.0,0.1525
2899.0,0.149
2898.0,0.1456
2897.0,0.1423
2896.0,0.1391
2895.0,0.1358
2894.0,0.1326
2893.0,0.1293
2892.0,0.126
2891.0,0.1226
2890.0,0.1191
2889.0,0.1156
2888.0,0.1122
2887.0,0.1087
2886.0,0.1053
2885.0,0.1019
2884.0,0.0985
2883.0,0.0952
2882.0,0.0919
2881.0,0.0888
2880.0,0.0858
2879.0,0.083
2878.0,0.0804
2877.0,0.0779
2876.0,0.0757
2875.0,0.0738
2874.0,0.0721
2873.0,0.0706
2872.0,0.0693
2871.0,0.068
2870.0,0.0669
2869.0,0.066
2868.0,0.0654
2867.0,0.0653
2866.0,0.0656
2865.0,0.0666
2864.0,0.0682
2863.0,0.0706
2862.0,0.0739
2861.0,0.0782
2860.0,0.0836
2859.0,0.0904
2858.0,0.0988
2857.0,0.1091
2856.0,0.1215
2855.0,0.1365
2854.0,0.1546
2853.0,0.176
2852.0,0.2002
2851.0,0.2252
2850.0,0.2469
2849.0,0.2606
2848.0,0.263
2847.0,0.2542
2846.0,0.2376
2845.0,0.2174
2844.0,0.197
2843.0,0.1782
2842.0,0.1617
2841.0,0.1476
2840.0,0.1356
2839.0,0.1255
2838.0,0.1169
2837.0,0.1096
2836.0,0.1033
2835.0,0.0978
2834.0,0.0931
2833.0,0.0889
2832.0,0.0852
2831.0,0.0819
2830.0,0.079
2829.0,0.0765
2828.0,0.0741
2827.0,0.072
2826.0,0.07
2825.0,0.0682
2824.0,0.0666
2823.0,0.0651
2822.0,0.0637
2821.0,0.0624
2820.0,0.0613
2819.0,0.0602
2818.0,0.0591
2817.0,0.0581
2816.0,0.0572
2815.0,0.0563
2814.0,0.0554
2813.0,0.0546
2812.0,0.0538
2811.0,0.053
2810.0,0.0522
2809.0,0.0515
2808.0,0.0508
2807.0,0.0502
2806.0,0.0496
2805.0,0.0491
2804.0,0.0485
2803.0,0.048
2802.0,0.0474
2801.0,0.0469
2800.0,0.0464
2799.0,0.0459
2798.0,0.0454
2797.0,0.0449
2796.0,0.0445
2795.0,0.044
2794.0,0.0436
2793.0,0.0431
2792.0,0.0427
2791.0,0.0423
2790.0,0.0419
2789.0,0.0415
2788.0,0.0411
2787.0,0.0407
2786.0,0.0404
2785.0,0.04
2784.0,0.0397
2783.0,0.0393
2782.0,0.0389
2781.0,0.0386
2780.0,0.0383
2779.0,0.038
2778.0,0.0378
2777.0,0.0376
2776.0,0.0373
2775.0,0.037
2774.0,0.0367
2773.0,0.0364
2772.0,0.0361
2771.0,0.0359
2770.0,0.0356
2769.0,0.0355
2768.0,0.0353
2767.0,0.0351
2766.0,0.035
2765.0,0.0348
2764.0,0.0346
2763.0,0.0344
2762.0,0.0342
2761.0,0.034
2760.0,0.0338
2759.0,0.0336
2758.0,0.0335
2757.0,0.0334
2756.0,0.0332
2755.0,0.0331
2754.0,0.033
2753.0,0.0328
2752.0,0.0326
2751.0,0.0324
2750.0,0.0322
2749.0,0.032
2748.0,0.0319
2747.0,0.0319
2746.0,0.0319
2745.0,0.0318
2744.0,0.0317
2743.0,0.0316
2742.0,0.0314
2741.0,0.0313
2740.0,0.0312
2739.0,0.0311
2738.0,0.0311
2737.0,0.031
2736.0,0.0308
2735.0,0.0307
2734.0,0.0306
2733.0,0.0305
2732.0,0.0304
2731.0,0.0303
2730.0,0.0302
2729.0,0.0301
2728.0,0.03
2727.0,0.03
2726.0,0.0299
2725.0,0.0297
2724.0,0.0296
2723.0,0.0295
2722.0,0.0294
2721.0,0.0293
2720.0,0.0293
2719.0,0.0292
2718.0,0.0291
2717.0,0.029
2716.0,0.0289
2715.0,0.0287
2714.0,0.0286
2713.0,0.0285
2712.0,0.0284
2711.0,0.0283
2710.0,0.0283
2709.0,0.0282
2708.0,0.0282
2707.0,0.0281
2706.0,0.028
2705.0,0.0279
2704.0,0.0278
2703.0,0.0277
2702.0,0.0277
2701.0,0.0276
2700.0,0.0275
2699.0,0.0274
2698.0,0.0273
2697.0,0.0272
2696.0,0.0271
2695.0,0.0271
2694.0,0.0271
2693.0,0.0271
2692.0,0.027
2691.0,0.027
2690.0,0.027
2689.0,0.027
2688.0,0.0269
2687.0,0.0269
2686.0,0.0268
2685.0,0.0267
2684.0,0.0267
2683.0,0.0266
2682.0,0.0266
2681.0,0.0266
2680.0,0.0266
2679.0,0.0266
2678.0,0.0265
2677.0,0.0264
2676.0,0.0264
2675.0,0.0264
2674.0,0.0264
2673.0,0.0265
2672.0,0.0265
2671.0,0.0265
2670.0,0.0264
2669.0,0.0263
2668.0,0.0263
2667.0,0.0264
2666.0,0.0264
2665.0,0.0263
2664.0,0.0263
2663.0,0.0262
2662.0,0.0261
2661.0,0.026
2660.0,0.026
2659.0,0.0261
2658.0,0.0261
2657.0,0.0261
2656.0,0.0261
2655.0,0.026
2654.0,0.0259
2653.0,0.0258
2652.0,0.0257
2651.0,0.0257
2650.0,0.0256
2649.0,0.0256
2648.0,0.0256
2647.0,0.0256
2646.0,0.0256
2645.0,0.0256
2644.0,0.0256
2643.0,0.0256
2642.0,0.0256
2641.0,0.0255
2640.0,0.0256
2639.0,0.0256
2638.0,0.0256
2637.0,0.0255
2636.0,0.0254
2635.0,0.0253
2634.0,0.0252
2633.0,0.0252
2632.0,0.0252
2631.0,0.0252
2630.0,0.0252
2629.0,0.0251
2628.0,0.0251
2627.0,0.025
2626.0,0.025
2625.0,0.0248
2624.0,0.0247
2623.0,0.0246
2622.0,0.0245
2621.0,0.0244
2620.0,0.0244
2619.0,0.0242
2618.0,0.0241
2617.0,0.024
2616.0,0.024
2615.0,0.0239
2614.0,0.0238
2613.0,0.0238
2612.0,0.0237
2611.0,0.0237
2610.0,0.0237
2609.0,0.0236
2608.0,0.0236
2607.0,0.0236
2606.0,0.0235
2605.0,0.0235
2604.0,0.0234
2603.0,0.0234
2602.0,0.0234
2601.0,0.0234
2600.0,0.0233
2599.0,0.0232
2598.0,0.0231
2597.0,0.023
2596.0,0.023
2595.0,0.023
2594.0,0.023
2593.0,0.0229
2592.0,0.0228
2591.0,0.0227
2590.0,0.0227
2589.0,0.0227
2588.0,0.0227
2587.0,0.0228
2586.0,0.0228
2585.0,0.0227
2584.0,0.0226
2583.0,0.0225
2582.0,0.0224
2581.0,0.0223
2580.0,0.0222
2579.0,0.0222
2578.0,0.0221
2577.0,0.022
2576.0,0.022
2575.0,0.0219
2574.0,0.0219
2573.0,0.0218
2572.0,0.0218
2571.0,0.0218
2570.0,0.0218
2569.0,0.0217
2568.0,0.0216
2567.0,0.0215
2566.0,0.0215
2565.0,0.0215
2564.0,0.0216
2563.0,0.0217
2562.0,0.0217
2561.0,0.0217
2560.0,0.0216
2559.0,0.0215
2558.0,0.0215
2557.0,0.0215
2556.0,0.0215
2555.0,0.0214
2554.0,0.0214
2553.0,0.0213
2552.0,0.0212
2551.0,0.0212
2550.0,0.0211
2549.0,0.0211
2548.0,0.0211
2547.0,0.021
2546.0,0.021
2545.0,0.0209
2544.0,0.0209
2543.0,0.0209
2542.0,0.021
2541.0,0.021
2540.0,0.0209
2539.0,0.0208
2538.0,0.0208
2537.0,0.0208
2536.0,0.0208
2535.0,0.0208
2534.0,0.0207
2533.0,0.0207
2532.0,0.0206
2531.0,0.0206
2530.0,0.0206
2529.0,0.0206
2528.0,0.0206
2527.0,0.0206
2526.0,0.0205
2525.0,0.0205
2524.0,0.0205
2523.0,0.0205
2522.0,0.0205
2521.0,0.0204
2520.0,0.0203
2519.0,0.0202
2518.0,0.0202
2517.0,0.0202
2516.0,0.0203
2515.0,0.0203
2514.0,0.0204
2513.0,0.0204
2512.0,0.0204
2511.0,0.0203
2510.0,0.0203
2509.0,0.0203
2508.0,0.0203
2507.0,0.0203
2506.0,0.0203
2505.0,0.0202
2504.0,0.0202
2503.0,0.0202
2502.0,0.0202
2501.0,0.0202
2500.0,0.0202
2499.0,0.0202
2498.0,0.0202
2497.0,0.0202
2496.0,0.0202
2495.0,0.0201
2494.0,0.02
2493.0,0.02
2492.0,0.02
2491.0,0.02
2490.0,0.02
2489.0,0.02
2488.0,0.02
2487.0,0.02
2486.0,0.02
2485.0,0.02
2484.0,0.02
2483.0,0.0201
2482.0,0.0201
2481.0,0.02
2480.0,0.0199
2479.0,0.0198
2478.0,0.0197
2477.0,0.0198
2476.0,0.0199
2475.0,0.0199
2474.0,0.0199
2473.0,0.0198
2472.0,0.0197
2471.0,0.0197
2470.0,0.0197
2469.0,0.0197
2468.0,0.0197
2467.0,0.0197
2466.0,0.0197
2465.0,0.0196
2464.0,0.0196
2463.0,0.0196
2462.0,0.0196
2461.0,0.0195
2460.0,0.0195
2459.0,0.0195
2458.0,0.0196
2457.0,0.0196
2456.0,0.0197
2455.0,0.0197
2454.0,0.0197
2453.0,0.0197
2452.0,0.0197
2451.0,0.0197
2450.0,0.0197
2449.0,0.0197
2448.0,0.0196
2447.0,0.0196
2446.0,0.0196
2445.0,0.0195
2444.0,0.0195
2443.0,0.0195
2442.0,0.0194
2441.0,0.0195
2440.0,0.0195
2439.0,0.0196
2438.0,0.0197
2437.0,0.0197
2436.0,0.0196
2435.0,0.0196
2434.0,0.0196
2433.0,0.0196
2432.0,0.0196
2431.0,0.0196
2430.0,0.0196
2429.0,0.0196
2428.0,0.0196
2427.0,0.0196
2426.0,0.0196
2425.0,0.0196
2424.0,0.0196
2423.0,0.0196
2422.0,0.0197
2421.0,0.0197
2420.0,0.0198
2419.0,0.0198
2418.0,0.0198
2417.0,0.0198
2416.0,0.0198
2415.0,0.0197
2414.0,0.0197
2413.0,0.0196
2412.0,0.0196
2411.0,0.0196
2410.0,0.0196
2409.0,0.0196
2408.0,0.0195
2407.0,0.0195
2406.0,0.0195
2405.0,0.0196
2404.0,0.0195
2403.0,0.0195
2402.0,0.0194
2401.0,0.0194
2400.0,0.0194
2399.0,0.0194
2398.0,0.0194
2397.0,0.0194
2396.0,0.0194
2395.0,0.0194
2394.0,0.0194
2393.0,0.0194
2392.0,0.0195
2391.0,0.0196
2390.0,0.0196
2389.0,0.0197
2388.0,0.0196
2387.0,0.0195
2386.0,0.0193
2385.0,0.0192
2384.0,0.0191
2383.0,0.0191
2382.0,0.019
2381.0,0.0189
2380.0,0.0187
2379.0,0.0185
2378.0,0.0183
2377.0,0.0182
2376.0,0.0182
2375.0,0.0183
2374.0,0.0186
2373.0,0.0189
2372.0,0.0191
2371.0,0.019
2370.0,0.0185
2369.0,0.018
2368.0,0.018
2367.0,0.0186
2366.0,0.0196
2365.0,0.0204
2364.0,0.0203
2363.0,0.0195
2362.0,0.0185
2361.0,0.0179
2360.0,0.0181
2359.0,0.0187
2358.0,0.0195
2357.0,0.0201
2356.0,0.0204
2355.0,0.0206
2354.0,0.0208
2353.0,0.0209
2352.0,0.0207
2351.0,0.0202
2350.0,0.0196
2349.0,0.019
2348.0,0.0186
2347.0,0.0185
2346.0,0.0189
2345.0,0.0194
2344.0,0.0195
2343.0,0.0192
2342.0,0.0188
2341.0,0.0185
2340.0,0.0184
2339.0,0.0186
2338.0,0.0191
2337.0,0.0195
2336.0,0.0197
2335.0,0.0197
2334.0,0.0195
2333.0,0.0192
2332.0,0.0192
2331.0,0.0195
2330.0,0.02
2329.0,0.0204
2328.0,0.0205
2327.0,0.0201
2326.0,0.0197
2325.0,0.0196
2324.0,0.0198
2323.0,0.02
2322.0,0.0201
2321.0,0.0202
2320.0,0.0201
2319.0,0.0201
2318.0,0.0201
2317.0,0.0202
2316.0,0.0203
2315.0,0.0202
2314.0,0.0201
2313.0,0.02
2312.0,0.02
2311.0,0.0199
2310.0,0.0199
2309.0,0.0198
2308.0,0.0198
2307.0,0.0198
2306.0,0.0197
2305.0,0.0197
2304.0,0.0196
2303.0,0.0196
2302.0,0.0196
2301.0,0.0196
2300.0,0.0195
2299.0,0.0195
2298.0,0.0195
2297.0,0.0196
2296.0,0.0197
2295.0,0.0198
2294.0,0.0198
2293.0,0.0198
2292.0,0.0198
2291.0,0.0198
2290.0,0.0197
2289.0,0.0197
2288.0,0.0197
2287.0,0.0197
2286.0,0.0197
2285.0,0.0197
2284.0,0.0197
2283.0,0.0196
2282.0,0.0196
2281.0,0.0196
2280.0,0.0196
2279.0,0.0196
2278.0,0.0195
2277.0,0.0195
2276.0,0.0195
2275.0,0.0195
2274.0,0.0195
2273.0,0.0195
2272.0,0.0195
2271.0,0.0195
2270.0,0.0194
2269.0,0.0194
2268.0,0.0194
2267.0,0.0194
2266.0,0.0195
2265.0,0.0195
2264.0,0.0196
2263.0,0.0196
2262.0,0.0196
2261.0,0.0195
2260.0,0.0194
2259.0,0.0193
2258.0,0.0193
2257.0,0.0193
2256.0,0.0194
2255.0,0.0194
2254.0,0.0195
2253.0,0.0195
2252.0,0.0194
2251.0,0.0194
2250.0,0.0194
2249.0,0.0194
2248.0,0.0194
2247.0,0.0194
2246.0,0.0193
2245.0,0.0193
2244.0,0.0193
2243.0,0.0192
2242.0,0.0192
2241.0,0.0192
2240.0,0.0192
2239.0,0.0192
2238.0,0.0191
2237.0,0.0191
2236.0,0.0191
2235.0,0.0191
2234.0,0.0192
2233.0,0.0192
2232.0,0.0191
2231.0,0.0191
2230.0,0.019
2229.0,0.0191
2228.0,0.0191
2227.0,0.0192
2226.0,0.0192
2225.0,0.0192
2224.0,0.0192
2223.0,0.0192
2222.0,0.0191
2221.0,0.0191
2220.0,0.019
2219.0,0.019
2218.0,0.019
2217.0,0.019
2216.0,0.019
2215.0,0.019
2214.0,0.019
2213.0,0.0189
2212.0,0.0189
2211.0,0.019
2210.0,0.019
2209.0,0.019
2208.0,0.019
2207.0,0.019
2206.0,0.019
2205.0,0.0189
2204.0,0.0189
2203.0,0.0189
2202.0,0.0189
2201.0,0.019
2200.0,0.019
2199.0,0.019
2198.0,0.019
2197.0,0.019
2196.0,0.0189
2195.0,0.0189
2194.0,0.0189
2193.0,0.0189
2192.0,0.0189
2191.0,0.0189
2190.0,0.0189
2189.0,0.0189
2188.0,0.0188
2187.0,0.0189
2186.0,0.0189
2185.0,0.019
2184.0,0.019
2183.0,0.0189
2182.0,0.0189
2181.0,0.0189
2180.0,0.0189
2179.0,0.0189
2178.0,0.0188
2177.0,0.0188
2176.0,0.0188
2175.0,0.0188
2174.0,0.0188
2173.0,0.0188
2172.0,0.0187
2171.0,0.0187
2170.0,0.0187
2169.0,0.0188
2168.0,0.0188
2167.0,0.0189
2166.0,0.0189
2165.0,0.019
2164.0,0.0189
2163.0,0.0189
2162.0,0.0188
2161.0,0.0187
2160.0,0.0187
2159.0,0.0187
2158.0,0.0188
2157.0,0.0188
2156.0,0.0188
2155.0,0.0188
2154.0,0.0188
2153.0,0.0188
2152.0,0.0188
2151.0,0.0189
2150.0,0.019
2149.0,0.019
2148.0,0.019
2147.0,0.019
2146.0,0.0189
2145.0,0.0189
2144.0,0.0188
2143.0,0.0188
2142.0,0.0188
2141.0,0.0187
2140.0,0.0187
2139.0,0.0187
2138.0,0.0186
2137.0,0.0186
2136.0,0.0187
2135.0,0.0187
2134.0,0.0187
2133.0,0.0187
2132.0,0.0186
2131.0,0.0186
2130.0,0.0186
2129.0,0.0186
2128.0,0.0187
2127.0,0.0187
2126.0,0.0187
2125.0,0.0187
2124.0,0.0187
2123.0,0.0187
2122.0,0.0187
2121.0,0.0187
2120.0,0.0187
2119.0,0.0187
2118.0,0.0187
2117.0,0.0186
2116.0,0.0186
2115.0,0.0185
2114.0,0.0186
2113.0,0.0186
2112.0,0.0186
2111.0,0.0186
2110.0,0.0186
2109.0,0.0185
2108.0,0.0186
2107.0,0.0186
2106.0,0.0186
2105.0,0.0186
2104.0,0.0186
2103.0,0.0186
2102.0,0.0186
2101.0,0.0186
2100.0,0.0186
2099.0,0.0186
2098.0,0.0185
2097.0,0.0185
2096.0,0.0185
2095.0,0.0185
2094.0,0.0185
2093.0,0.0186
2092.0,0.0187
2091.0,0.0187
2090.0,0.0186
2089.0,0.0186
2088.0,0.0186
2087.0,0.0186
2086.0,0.0186
2085.0,0.0186
2084.0,0.0186
2083.0,0.0186
2082.0,0.0186
2081.0,0.0185
2080.0,0.0185
2079.0,0.0186
2078.0,0.0186
2077.0,0.0186
2076.0,0.0186
2075.0,0.0186
2074.0,0.0186
2073.0,0.0186
2072.0,0.0186
2071.0,0.0186
2070.0,0.0186
2069.0,0.0186
2068.0,0.0186
2067.0,0.0186
2066.0,0.0186
2065.0,0.0186
2064.0,0.0185
2063.0,0.0185
2062.0,0.0185
2061.0,0.0185
2060.0,0.0185
2059.0,0.0185
2058.0,0.0185
2057.0,0.0186
2056.0,0.0186
2055.0,0.0186
2054.0,0.0186
2053.0,0.0185
2052.0,0.0185
2051.0,0.0185
2050.0,0.0185
2049.0,0.0185
2048.0,0.0185
2047.0,0.0185
2046.0,0.0186
2045.0,0.0186
2044.0,0.0186
2043.0,0.0186
2042.0,0.0186
2041.0,0.0186
2040.0,0.0187
2039.0,0.0187
2038.0,0.0187
2037.0,0.0187
2036.0,0.0187
2035.0,0.0187
2034.0,0.0187
2033.0,0.0187
2032.0,0.0187
2031.0,0.0187
2030.0,0.0188
2029.0,0.0188
2028.0,0.0187
2027.0,0.0187
2026.0,0.0187
2025.0,0.0187
2024.0,0.0187
2023.0,0.0187
2022.0,0.0187
2021.0,0.0187
2020.0,0.0187
2019.0,0.0187
2018.0,0.0187
2017.0,0.0187
2016.0,0.0187
2015.0,0.0187
2014.0,0.0187
2013.0,0.0187
2012.0,0.0186
2011.0,0.0185
2010.0,0.0185
2009.0,0.0184
2008.0,0.0184
2007.0,0.0183
2006.0,0.0183
2005.0,0.0183
2004.0,0.0183
2003.0,0.0183
2002.0,0.0183
2001.0,0.0182
2000.0,0.0182
1999.0,0.0181
1998.0,0.0181
1997.0,0.0182
1996.0,0.0182
1995.0,0.0182
1994.0,0.0182
1993.0,0.0182
1992.0,0.0182
1991.0,0.0182
1990.0,0.0182
1989.0,0.0182
1988.0,0.0182
1987.0,0.0182
1986.0,0.0182
1985.0,0.0181
1984.0,0.0181
1983.0,0.0181
1982.0,0.0181
1981.0,0.0181
1980.0,0.0181
1979.0,0.0181
1978.0,0.0182
1977.0,0.0182
1976.0,0.0182
1975.0,0.0182
1974.0,0.0181
1973.0,0.0181
1972.0,0.018
1971.0,0.018
1970.0,0.018
1969.0,0.018
1968.0,0.018
1967.0,0.018
1966.0,0.0181
1965.0,0.0181
1964.0,0.0181
1963.0,0.0181
1962.0,0.018
1961.0,0.018
1960.0,0.018
1959.0,0.018
1958.0,0.018
1957.0,0.018
1956.0,0.018
1955.0,0.018
1954.0,0.018
1953.0,0.018
1952.0,0.0181
1951.0,0.0181
1950.0,0.0181
1949.0,0.018
1948.0,0.018
1947.0,0.018
1946.0,0.018
1945.0,0.018
1944.0,0.0181
1943.0,0.0181
1942.0,0.0181
1941.0,0.0181
1940.0,0.0181
1939.0,0.0181
1938.0,0.018
1937.0,0.018
1936.0,0.0181
1935.0,0.0181
1934.0,0.0181
1933.0,0.018
1932.0,0.018
1931.0,0.018
1930.0,0.018
1929.0,0.018
1928.0,0.018
1927.0,0.018
1926.0,0.018
1925.0,0.018
1924.0,0.018
1923.0,0.018
1922.0,0.0181
1921.0,0.0181
1920.0,0.0181
1919.0,0.0181
1918.0,0.018
1917.0,0.018
1916.0,0.018
1915.0,0.018
1914.0,0.0179
1913.0,0.0179
1912.0,0.018
1911.0,0.018
1910.0,0.0181
1909.0,0.0182
1908.0,0.0182
1907.0,0.0182
1906.0,0.0182
1905.0,0.0183
1904.0,0.0183
1903.0,0.0184
1902.0,0.0184
1901.0,0.0184
1900.0,0.0184
1899.0,0.0184
1898.0,0.0184
1897.0,0.0184
1896.0,0.0184
1895.0,0.0184
1894.0,0.0183
1893.0,0.0183
1892.0,0.0183
1891.0,0.0182
1890.0,0.0182
1889.0,0.0182
1888.0,0.0182
1887.0,0.0181
1886.0,0.0181
1885.0,0.018
1884.0,0.018
1883.0,0.018
1882.0,0.018
1881.0,0.018
1880.0,0.018
1879.0,0.018
1878.0,0.018
1877.0,0.018
1876.0,0.018
1875.0,0.018
1874.0,0.018
1873.0,0.018
1872.0,0.018
1871.0,0.0179
1870.0,0.0179
1869.0,0.0178
1868.0,0.0179
1867.0,0.0179
1866.0,0.0179
1865.0,0.0179
1864.0,0.0179
1863.0,0.018
1862.0,0.018
1861.0,0.018
1860.0,0.0181
1859.0,0.0181
1858.0,0.018
1857.0,0.018
1856.0,0.0179
1855.0,0.0179
1854.0,0.0179
1853.0,0.0179
1852.0,0.0179
1851.0,0.0179
1850.0,0.0179
1849.0,0.0179
1848.0,0.0179
1847.0,0.0179
1846.0,0.0179
1845.0,0.0178
1844.0,0.0178
1843.0,0.0179
1842.0,0.0179
1841.0,0.018
1840.0,0.018
1839.0,0.018
1838.0,0.0179
1837.0,0.0179
1836.0,0.0179
1835.0,0.0179
1834.0,0.0179
1833.0,0.018
1832.0,0.018
1831.0,0.018
1830.0,0.0181
1829.0,0.0181
1828.0,0.0182
1827.0,0.0181
1826.0,0.0181
1825.0,0.018
1824.0,0.018
1823.0,0.0179
1822.0,0.0179
1821.0,0.0179
1820.0,0.018
1819.0,0.018
1818.0,0.018
1817.0,0.018
1816.0,0.018
1815.0,0.018
1814.0,0.018
1813.0,0.0181
1812.0,0.0181
1811.0,0.0181
1810.0,0.0181
1809.0,0.0181
1808.0,0.0181
1807.0,0.0181
1806.0,0.0181
1805.0,0.0181
1804.0,0.0181
1803.0,0.0181
1802.0,0.0181
1801.0,0.0182
1800.0,0.0182
1799.0,0.0182
1798.0,0.0182
1797.0,0.0183
1796.0,0.0184
1795.0,0.0184
1794.0,0.0183
1793.0,0.0183
1792.0,0.0183
1791.0,0.0183
1790.0,0.0183
1789.0,0.0184
1788.0,0.0184
1787.0,0.0185
1786.0,0.0184
1785.0,0.0185
1784.0,0.0185
1783.0,0.0185
1782.0,0.0185
1781.0,0.0185
1780.0,0.0186
1779.0,0.0186
1778.0,0.0186
1777.0,0.0185
1776.0,0.0185
1775.0,0.0185
1774.0,0.0185
1773.0,0.0185
1772.0,0.0186
1771.0,0.0187
1770.0,0.0188
1769.0,0.0188
1768.0,0.0188
1767.0,0.0188
1766.0,0.0188
1765.0,0.0188
1764.0,0.0189
1763.0,0.0189
1762.0,0.0189
1761.0,0.019
1760.0,0.0191
1759.0,0.0192
1758.0,0.0192
1757.0,0.0193
1756.0,0.0194
1755.0,0.0195
1754.0,0.0196
1753.0,0.0197
1752.0,0.0198
1751.0,0.0199
1750.0,0.0201
1749.0,0.0202
1748.0,0.0204
1747.0,0.0204
1746.0,0.0204
1745.0,0.0205
1744.0,0.0206
1743.0,0.0207
1742.0,0.0208
1741.0,0.0208
1740.0,0.0208
1739.0,0.0208
1738.0,0.0209
1737.0,0.0211
1736.0,0.0211
1735.0,0.021
1734.0,0.021
1733.0,0.0212
1732.0,0.0215
1731.0,0.0217
1730.0,0.0219
1729.0,0.022
1728.0,0.0222
1727.0,0.0223
1726.0,0.0225
1725.0,0.0228
1724.0,0.023
1723.0,0.0231
1722.0,0.0233
1721.0,0.0234
1720.0,0.0236
1719.0,0.0236
1718.0,0.0236
1717.0,0.0239
1716.0,0.0241
1715.0,0.0243
1714.0,0.0245
1713.0,0.0246
1712.0,0.0248
1711.0,0.0249
1710.0,0.0251
1709.0,0.0252
1708.0,0.0254
1707.0,0.0256
1706.0,0.0258
1705.0,0.0261
1704.0,0.0264
1703.0,0.0266
1702.0,0.0266
1701.0,0.0266
1700.0,0.027
1699.0,0.0275
1698.0,0.0279
1697.0,0.0284
1696.0,0.0289
1695.0,0.0293
1694.0,0.0296
1693.0,0.0299
1692.0,0.0303
1691.0,0.0306
1690.0,0.031
1689.0,0.0315
1688.0,0.0319
1687.0,0.0321
1686.0,0.0323
1685.0,0.033
1684.0,0.0344
1683.0,0.0353
1682.0,0.0357
1681.0,0.0361
1680.0,0.0366
1679.0,0.037
1678.0,0.0374
1677.0,0.0378
1676.0,0.0383
1675.0,0.039
1674.0,0.0396
1673.0,0.04
1672.0,0.0404
1671.0,0.0408
1670.0,0.0416
1669.0,0.0424
1668.0,0.0429
1667.0,0.0433
1666.0,0.0435
1665.0,0.0438
1664.0,0.0441
1663.0,0.0447
1662.0,0.0454
1661.0,0.046
1660.0,0.0465
1659.0,0.0469
1658.0,0.0473
1657.0,0.0476
1656.0,0.048
1655.0,0.0482
1654.0,0.0489
1653.0,0.0505
1652.0,0.0513
1651.0,0.0516
1650.0,0.0517
1649.0,0.0519
1648.0,0.0522
1647.0,0.0526
1646.0,0.0528
1645.0,0.0526
1644.0,0.0522
1643.0,0.0517
1642.0,0.0512
1641.0,0.0506
1640.0,0.05
1639.0,0.0495
1638.0,0.0488
1637.0,0.048
1636.0,0.0473
1635.0,0.0468
1634.0,0.0463
1633.0,0.046
1632.0,0.0456
1631.0,0.0453
1630.0,0.0449
1629.0,0.0445
1628.0,0.0441
1627.0,0.0438
1626.0,0.0434
1625.0,0.043
1624.0,0.0427
1623.0,0.0426
1622.0,0.0423
1621.0,0.042
1620.0,0.0417
1619.0,0.0414
1618.0,0.0409
1617.0,0.0406
1616.0,0.0404
1615.0,0.0402
1614.0,0.04
1613.0,0.0398
1612.0,0.0394
1611.0,0.0391
1610.0,0.0387
1609.0,0.0384
1608.0,0.0381
1607.0,0.0378
1606.0,0.0374
1605.0,0.0371
1604.0,0.0368
1603.0,0.0364
1602.0,0.036
1601.0,0.0356
1600.0,0.0353
1599.0,0.0351
1598.0,0.0348
1597.0,0.0345
1596.0,0.0342
1595.0,0.0339
1594.0,0.0336
1593.0,0.0333
1592.0,0.033
1591.0,0.0327
1590.0,0.0325
1589.0,0.0322
1588.0,0.032
1587.0,0.0318
1586.0,0.0315
1585.0,0.0313
1584.0,0.031
1583.0,0.0307
1582.0,0.0304
1581.0,0.0302
1580.0,0.03
1579.0,0.0298
1578.0,0.0295
1577.0,0.0292
1576.0,0.0291
1575.0,0.0289
1574.0,0.0287
1573.0,0.0286
1572.0,0.0284
1571.0,0.0281
1570.0,0.0279
1569.0,0.0277
1568.0,0.0276
1567.0,0.0275
1566.0,0.0273
1565.0,0.0272
1564.0,0.0271
1563.0,0.027
1562.0,0.0269
1561.0,0.0267
1560.0,0.0262
1559.0,0.0262
1558.0,0.0263
1557.0,0.0262
1556.0,0.0263
1555.0,0.0263
1554.0,0.0262
1553.0,0.0261
1552.0,0.026
1551.0,0.0259
1550.0,0.0258
1549.0,0.0258
1548.0,0.0258
1547.0,0.0257
1546.0,0.0257
1545.0,0.0257
1544.0,0.0257
1543.0,0.0256
1542.0,0.0252
1541.0,0.0252
1540.0,0.0254
1539.0,0.0254
1538.0,0.0252
1537.0,0.0252
1536.0,0.0252
1535.0,0.0251
1534.0,0.0249
1533.0,0.0248
1532.0,0.0248
1531.0,0.0247
1530.0,0.0246
1529.0,0.0245
1528.0,0.0245
1527.0,0.0244
1526.0,0.0242
1525.0,0.0242
1524.0,0.0241
1523.0,0.024
1522.0,0.0238
1521.0,0.0237
1520.0,0.0236
1519.0,0.0235
1518.0,0.0233
1517.0,0.0234
1516.0,0.0235
1515.0,0.0234
1514.0,0.0233
1513.0,0.0233
1512.0,0.0233
1511.0,0.0232
1510.0,0.0232
1509.0,0.0231
1508.0,0.0231
1507.0,0.023
1506.0,0.0228
1505.0,0.0227
1504.0,0.0227
1503.0,0.0227
1502.0,0.0227
1501.0,0.0227
1500.0,0.0228
1499.0,0.0228
1498.0,0.0227
1497.0,0.0227
1496.0,0.0227
1495.0,0.0226
1494.0,0.0225
1493.0,0.0225
1492.0,0.0226
1491.0,0.0224
1490.0,0.0223
1489.0,0.0226
1488.0,0.0228
1487.0,0.0227
1486.0,0.0227
1485.0,0.0228
1484.0,0.023
1483.0,0.0232
1482.0,0.0236
1481.0,0.0244
1480.0,0.0253
1479.0,0.0265
1478.0,0.029
1477.0,0.0343
1476.0,0.043
1475.0,0.055
1474.0,0.0695
1473.0,0.083
1472.0,0.0888
1471.0,0.0882
1470.0,0.0869
1469.0,0.0868
1468.0,0.0878
1467.0,0.0902
1466.0,0.0957
1465.0,0.1045
1464.0,0.1121
1463.0,0.1142
1462.0,0.1112
1461.0,0.1049
1460.0,0.0966
1459.0,0.0878
1458.0,0.0796
1457.0,0.0736
1456.0,0.0699
1455.0,0.0674
1454.0,0.0652
1453.0,0.0627
1452.0,0.0601
1451.0,0.0578
1450.0,0.056
1449.0,0.0544
1448.0,0.053
1447.0,0.0518
1446.0,0.051
1445.0,0.0503
1444.0,0.0496
1443.0,0.0489
1442.0,0.0483
1441.0,0.0478
1440.0,0.0472
1439.0,0.0467
1438.0,0.0461
1437.0,0.0454
1436.0,0.0448
1435.0,0.0442
1434.0,0.0437
1433.0,0.043
1432.0,0.0422
1431.0,0.0413
1430.0,0.0404
1429.0,0.0396
1428.0,0.0387
1427.0,0.038
1426.0,0.0373
1425.0,0.0365
1424.0,0.0358
1423.0,0.0352
1422.0,0.0348
1421.0,0.0344
1420.0,0.0339
1419.0,0.0337
1418.0,0.0336
1417.0,0.0334
1416.0,0.0332
1415.0,0.033
1414.0,0.0329
1413.0,0.0327
1412.0,0.0324
1411.0,0.0322
1410.0,0.0321
1409.0,0.0319
1408.0,0.0316
1407.0,0.0314
1406.0,0.0312
1405.0,0.031
1404.0,0.0308
1403.0,0.0306
1402.0,0.0305
1401.0,0.0303
1400.0,0.0301
1399.0,0.03
1398.0,0.0299
1397.0,0.0297
1396.0,0.0296
1395.0,0.0295
1394.0,0.0294
1393.0,0.0294
1392.0,0.0293
1391.0,0.0292
1390.0,0.0291
1389.0,0.0291
1388.0,0.0291
1387.0,0.0294
1386.0,0.0298
1385.0,0.0303
1384.0,0.0309
1383.0,0.0317
1382.0,0.0329
1381.0,0.0342
1380.0,0.0357
1379.0,0.037
1378.0,0.0379
1377.0,0.0381
1376.0,0.0378
1375.0,0.0372
1374.0,0.0367
1373.0,0.0364
1372.0,0.0364
1371.0,0.0365
1370.0,0.0367
1369.0,0.0368
1368.0,0.0369
1367.0,0.0369
1366.0,0.0366
1365.0,0.0362
1364.0,0.0356
1363.0,0.0349
1362.0,0.0343
1361.0,0.0337
1360.0,0.0331
1359.0,0.0327
1358.0,0.0324
1357.0,0.0322
1356.0,0.0321
1355.0,0.0321
1354.0,0.032
1353.0,0.032
1352.0,0.0319
1351.0,0.0317
1350.0,0.0316
1349.0,0.0313
1348.0,0.0311
1347.0,0.0308
1346.0,0.0306
1345.0,0.0304
1344.0,0.0302
1343.0,0.0301
1342.0,0.03
1341.0,0.0299
1340.0,0.0298
1339.0,0.0296
1338.0,0.0294
1337.0,0.0291
1336.0,0.0288
1335.0,0.0286
1334.0,0.0284
1333.0,0.0282
1332.0,0.0281
1331.0,0.0281
1330.0,0.0281
1329.0,0.028
1328.0,0.028
1327.0,0.028
1326.0,0.028
1325.0,0.028
1324.0,0.028
1323.0,0.0281
1322.0,0.0282
1321.0,0.0284
1320.0,0.0285
1319.0,0.0287
1318.0,0.0289
1317.0,0.029
1316.0,0.0291
1315.0,0.0293
1314.0,0.0294
1313.0,0.0295
1312.0,0.0295
1311.0,0.0295
1310.0,0.0295
1309.0,0.0295
1308.0,0.0296
1307.0,0.0296
1306.0,0.0297
1305.0,0.0297
1304.0,0.0298
1303.0,0.0298
1302.0,0.0298
1301.0,0.0298
1300.0,0.0298
1299.0,0.0298
1298.0,0.0298
1297.0,0.0298
1296.0,0.0297
1295.0,0.0296
1294.0,0.0295
1293.0,0.0294
1292.0,0.0293
1291.0,0.0293
1290.0,0.0293
1289.0,0.0293
1288.0,0.0293
1287.0,0.0292
1286.0,0.0291
1285.0,0.0291
1284.0,0.0291
1283.0,0.0291
1282.0,0.029
1281.0,0.029
1280.0,0.029
1279.0,0.029
1278.0,0.029
1277.0,0.029
1276.0,0.029
1275.0,0.029
1274.0,0.0291
1273.0,0.0291
1272.0,0.0291
1271.0,0.0291
1270.0,0.0291
1269.0,0.0291
1268.0,0.0292
1267.0,0.0293
1266.0,0.0293
1265.0,0.0294
1264.0,0.0295
1263.0,0.0296
1262.0,0.0298
1261.0,0.0299
1260.0,0.03
1259.0,0.0301
1258.0,0.0302
1257.0,0.0302
1256.0,0.0302
1255.0,0.0302
1254.0,0.0302
1253.0,0.0301
1252.0,0.03
1251.0,0.0299
1250.0,0.0298
1249.0,0.0297
1248.0,0.0296
1247.0,0.0295
1246.0,0.0295
1245.0,0.0294
1244.0,0.0294
1243.0,0.0293
1242.0,0.0293
1241.0,0.0293
1240.0,0.0293
1239.0,0.0293
1238.0,0.0293
1237.0,0.0293
1236.0,0.0292
1235.0,0.0292
1234.0,0.0292
1233.0,0.0291
1232.0,0.0291
1231.0,0.0291
1230.0,0.0291
1229.0,0.0291
1228.0,0.0291
1227.0,0.0292
1226.0,0.0293
1225.0,0.0294
1224.0,0.0295
1223.0,0.0295
1222.0,0.0295
1221.0,0.0294
1220.0,0.0294
1219.0,0.0294
1218.0,0.0295
1217.0,0.0295
1216.0,0.0296
1215.0,0.0296
1214.0,0.0297
1213.0,0.0298
1212.0,0.0299
1211.0,0.03
1210.0,0.0302
1209.0,0.0303
1208.0,0.0304
1207.0,0.0306
1206.0,0.0307
1205.0,0.0308
1204.0,0.0309
1203.0,0.0311
1202.0,0.0312
1201.0,0.0314
1200.0,0.0316
1199.0,0.0318
1198.0,0.032
1197.0,0.0322
1196.0,0.0324
1195.0,0.0326
1194.0,0.0329
1193.0,0.0331
1192.0,0.0334
1191.0,0.0336
1190.0,0.0338
1189.0,0.034
1188.0,0.0342
1187.0,0.0345
1186.0,0.0348
1185.0,0.0351
1184.0,0.0354
1183.0,0.0357
1182.0,0.0359
1181.0,0.0362
1180.0,0.0365
1179.0,0.0368
1178.0,0.0371
1177.0,0.0374
1176.0,0.0378
1175.0,0.0381
1174.0,0.0383
1173.0,0.0385
1172.0,0.0387
1171.0,0.039
1170.0,0.0394
1169.0,0.0397
1168.0,0.04
1167.0,0.0403
1166.0,0.0406
1165.0,0.0409
1164.0,0.0412
1163.0,0.0415
1162.0,0.0417
1161.0,0.042
1160.0,0.0422
1159.0,0.0425
1158.0,0.0428
1157.0,0.0431
1156.0,0.0434
1155.0,0.0438
1154.0,0.0441
1153.0,0.0444
1152.0,0.0445
1151.0,0.0447
1150.0,0.0449
1149.0,0.0452
1148.0,0.0455
1147.0,0.0458
1146.0,0.046
1145.0,0.0463
1144.0,0.0465
1143.0,0.0467
1142.0,0.0469
1141.0,0.0472
1140.0,0.0474
1139.0,0.0476
1138.0,0.0478
1137.0,0.048
1136.0,0.0482
1135.0,0.0484
1134.0,0.0487
1133.0,0.049
1132.0,0.0492
1131.0,0.0494
1130.0,0.0496
1129.0,0.0496
1128.0,0.0496
1127.0,0.0496
1126.0,0.0495
1125.0,0.0495
1124.0,0.0493
1123.0,0.0492
1122.0,0.049
1121.0,0.0489
1120.0,0.0489
1119.0,0.0488
1118.0,0.0488
1117.0,0.0488
1116.0,0.0488
1115.0,0.0488
1114.0,0.0487
1113.0,0.0487
1112.0,0.0486
1111.0,0.0485
1110.0,0.0484
1109.0,0.0483
1108.0,0.0482
1107.0,0.0481
1106.0,0.0479
1105.0,0.0478
1104.0,0.0476
1103.0,0.0475
1102.0,0.0473
1101.0,0.0472
1100.0,0.047
1099.0,0.0468
1098.0,0.0466
1097.0,0.0464
1096.0,0.0462
1095.0,0.046
1094.0,0.0459
1093.0,0.0457
1092.0,0.0455
1091.0,0.0453
1090.0,0.0452
1089.0,0.045
1088.0,0.0448
1087.0,0.0446
1086.0,0.0444
1085.0,0.0442
1084.0,0.0439
1083.0,0.0437
1082.0,0.0435
1081.0,0.0433
1080.0,0.043
1079.0,0.0428
1078.0,0.0425
1077.0,0.0422
1076.0,0.0419
1075.0,0.0416
1074.0,0.0412
1073.0,0.0409
1072.0,0.0405
1071.0,0.0402
1070.0,0.0399
1069.0,0.0397
1068.0,0.0394
1067.0,0.0391
1066.0,0.0389
1065.0,0.0387
1064.0,0.0384
1063.0,0.0382
1062.0,0.038
1061.0,0.0377
1060.0,0.0375
1059.0,0.0373
1058.0,0.0371
1057.0,0.0369
1056.0,0.0366
1055.0,0.0364
1054.0,0.0362
1053.0,0.036
1052.0,0.0359
1051.0,0.0359
1050.0,0.0358
1049.0,0.0357
1048.0,0.0356
1047.0,0.0355
1046.0,0.0355
1045.0,0.0354
1044.0,0.0353
1043.0,0.0352
1042.0,0.0351
1041.0,0.035
1040.0,0.0348
1039.0,0.0347
1038.0,0.0346
1037.0,0.0344
1036.0,0.0343
1035.0,0.0342
1034.0,0.0341
1033.0,0.0341
1032.0,0.0341
1031.0,0.0341
1030.0,0.0341
1029.0,0.0341
1028.0,0.034
1027.0,0.0341
1026.0,0.0341
1025.0,0.034
1024.0,0.0339
1023.0,0.0338
1022.0,0.0338
1021.0,0.0337
1020.0,0.0336
1019.0,0.0334
1018.0,0.0333
1017.0,0.0333
1016.0,0.0334
1015.0,0.0334
1014.0,0.0334
1013.0,0.0333
1012.0,0.0333
1011.0,0.0332
1010.0,0.0331
1009.0,0.033
1008.0,0.0329
1007.0,0.0329
1006.0,0.0328
1005.0,0.0327
1004.0,0.0327
1003.0,0.0326
1002.0,0.0325
1001.0,0.0325
1000.0,0.0324
999.0,0.0324
998.0,0.0324
997.0,0.0324
996.0,0.0325
995.0,0.0325
994.0,0.0325
993.0,0.0324
992.0,0.0324
991.0,0.0323
990.0,0.0323
989.0,0.0323
988.0,0.0322
987.0,0.0322
986.0,0.0322
985.0,0.0322
984.0,0.0322
983.0,0.0322
982.0,0.0321
981.0,0.0321
980.0,0.032
979.0,0.0319
978.0,0.0319
977.0,0.0318
976.0,0.0318
975.0,0.0318
974.0,0.0318
973.0,0.0319
972.0,0.0319
971.0,0.0319
970.0,0.0318
969.0,0.0318
968.0,0.0317
967.0,0.0317
966.0,0.0317
965.0,0.0318
964.0,0.0318
963.0,0.0317
962.0,0.0318
961.0,0.0318
960.0,0.0318
959.0,0.0319
958.0,0.0319
957.0,0.0319
956.0,0.0319
955.0,0.0319
954.0,0.0319
953.0,0.0319
952.0,0.0318
951.0,0.0318
950.0,0.0319
949.0,0.0319
948.0,0.0318
947.0,0.0318
946.0,0.0319
945.0,0.0321
944.0,0.0322
943.0,0.0323
942.0,0.0324
941.0,0.0324
940.0,0.0323
939.0,0.0323
938.0,0.0322
937.0,0.0322
936.0,0.0323
935.0,0.0323
934.0,0.0324
933.0,0.0324
932.0,0.0324
931.0,0.0324
930.0,0.0325
929.0,0.0325
928.0,0.0325
927.0,0.0325
926.0,0.0326
925.0,0.0326
924.0,0.0326
923.0,0.0326
922.0,0.0326
921.0,0.0326
920.0,0.0326
919.0,0.0327
918.0,0.0328
917.0,0.0329
916.0,0.033
915.0,0.0331
914.0,0.0332
913.0,0.0334
912.0,0.0335
911.0,0.0336
910.0,0.0336
909.0,0.0337
908.0,0.0337
907.0,0.0337
906.0,0.0337
905.0,0.0338
904.0,0.0339
903.0,0.0341
902.0,0.0342
901.0,0.0342
900.0,0.0342
899.0,0.0343
898.0,0.0343
897.0,0.0344
896.0,0.0344
895.0,0.0345
894.0,0.0346
893.0,0.0347
892.0,0.0348
891.0,0.035
890.0,0.0351
889.0,0.0353
888.0,0.0355
887.0,0.0357
886.0,0.0359
885.0,0.036
884.0,0.036
883.0,0.036
882.0,0.0361
881.0,0.0361
880.0,0.0362
879.0,0.0363
878.0,0.0364
877.0,0.0365
876.0,0.0365
875.0,0.0366
874.0,0.0367
873.0,0.0368
872.0,0.0368
871.0,0.0367
870.0,0.0366
869.0,0.0365
868.0,0.0365
867.0,0.0366
866.0,0.0369
865.0,0.0371
864.0,0.0371
863.0,0.0371
862.0,0.037
861.0,0.0369
860.0,0.0369
859.0,0.0369
858.0,0.037
857.0,0.0371
856.0,0.0373
855.0,0.0375
854.0,0.0376
853.0,0.0377
852.0,0.0378
851.0,0.0378
850.0,0.0378
849.0,0.0379
848.0,0.0378
847.0,0.0377
846.0,0.0377
845.0,0.0378
844.0,0.0379
843.0,0.0381
842.0,0.0384
841.0,0.0386
840.0,0.0387
839.0,0.0387
838.0,0.0388
837.0,0.0389
836.0,0.039
835.0,0.039
834.0,0.039
833.0,0.039
832.0,0.0391
831.0,0.0392
830.0,0.0394
829.0,0.0394
828.0,0.0395
827.0,0.0397
826.0,0.0399
825.0,0.0402
824.0,0.0404
823.0,0.0406
822.0,0.0408
821.0,0.0409
820.0,0.041
819.0,0.0411
818.0,0.0411
817.0,0.0412
816.0,0.0413
815.0,0.0415
814.0,0.0417
813.0,0.0419
812.0,0.0421
811.0,0.0423
810.0,0.0424
809.0,0.0426
808.0,0.0427
807.0,0.043
806.0,0.0434
805.0,0.0437
804.0,0.0438
803.0,0.0439
802.0,0.0441
801.0,0.0443
800.0,0.0446
799.0,0.0449
798.0,0.0451
797.0,0.0452
796.0,0.0452
795.0,0.0453
794.0,0.0454
793.0,0.0456
792.0,0.0459
791.0,0.046
790.0,0.0461
789.0,0.0462
788.0,0.0463
787.0,0.0465
786.0,0.0467
785.0,0.0468
784.0,0.0469
783.0,0.0471
782.0,0.0474
781.0,0.0477
780.0,0.048
779.0,0.0483
778.0,0.0487
777.0,0.0492
776.0,0.0495
775.0,0.0499
774.0,0.0502
773.0,0.0504
772.0,0.0504
771.0,0.0503
770.0,0.0502
769.0,0.0503
768.0,0.0503
767.0,0.0502
766.0,0.0501
765.0,0.05
764.0,0.0501
763.0,0.0502
762.0,0.0504
761.0,0.0507
760.0,0.0511
759.0,0.0513
758.0,0.0513
757.0,0.0511
756.0,0.0509
755.0,0.0508
754.0,0.0508
753.0,0.0509
752.0,0.051
751.0,0.0511
750.0,0.0513
749.0,0.0516
748.0,0.052
747.0,0.0522
746.0,0.0524
745.0,0.0526
744.0,0.0527
743.0,0.0527
742.0,0.0527
741.0,0.053
740.0,0.0532
739.0,0.0535
738.0,0.0539
737.0,0.0547
736.0,0.0559
735.0,0.0584
734.0,0.0635
733.0,0.0726
732.0,0.085
731.0,0.0973
730.0,0.1053
729.0,0.1068
728.0,0.1033
727.0,0.0984
726.0,0.0952
725.0,0.0951
724.0,0.0981
723.0,0.1046
722.0,0.1155
721.0,0.1299
720.0,0.1433
719.0,0.1499
718.0,0.1472
717.0,0.1379
716.0,0.1262
715.0,0.1151
714.0,0.106
713.0,0.0989
712.0,0.0935
711.0,0.0891
710.0,0.0854
709.0,0.0822
708.0,0.0797
707.0,0.078
706.0,0.0768
705.0,0.0756
704.0,0.0742
703.0,0.0727
702.0,0.0715
701.0,0.0708
700.0,0.0704
699.0,0.0702
698.0,0.0699
697.0,0.0697
696.0,0.0694
695.0,0.0688
694.0,0.0677
693.0,0.0662
692.0,0.0648
691.0,0.0644
690.0,0.0649
689.0,0.0657
688.0,0.0661
687.0,0.0659
686.0,0.0657
685.0,0.0661
684.0,0.0667
683.0,0.0671
682.0,0.0669
681.0,0.066
680.0,0.0648
679.0,0.0639
678.0,0.0635
677.0,0.0636
676.0,0.0639
675.0,0.0643
674.0,0.0646
673.0,0.0651
672.0,0.0659
671.0,0.0669
670.0,0.0685
669.0,0.0698
668.0,0.069
667.0,0.067
666.0,0.0655
665.0,0.0648
664.0,0.0646
663.0,0.0645
662.0,0.0637
661.0,0.0625
660.0,0.0615
659.0,0.0616
658.0,0.0628
657.0,0.0645
656.0,0.0658
655.0,0.0665
654.0,0.0668
653.0,0.0666
652.0,0.0661
651.0,0.0652
650.0,0.0642
649.0,0.0632
648.0,0.0626
647.0,0.0625
646.0,0.063
645.0,0.0635
644.0,0.0638
643.0,0.0637
642.0,0.0635
641.0,0.0632
640.0,0.0632
639.0,0.0635
638.0,0.0644
637.0,0.066
636.0,0.068
635.0,0.0701
634.0,0.0715
633.0,0.0714
632.0,0.0699
631.0,0.0682
630.0,0.0672
629.0,0.0667
628.0,0.0664
627.0,0.0662
626.0,0.0659
625.0,0.0656
624.0,0.0652
623.0,0.0648
622.0,0.0649
621.0,0.0653
620.0,0.0656
619.0,0.0654
618.0,0.0645
617.0,0.0631
616.0,0.0621
615.0,0.0617
614.0,0.062
613.0,0.0625
612.0,0.0631
611.0,0.0638
610.0,0.0645
609.0,0.0651
608.0,0.0652
607.0,0.0648
606.0,0.0641
605.0,0.0631
604.0,0.0619
603.0,0.0611
602.0,0.0609
601.0,0.0608
600.0,0.0602
