cm-1,A
4000.0,0.001609869681952425
3999.0,0.0014791171649619628
3998.0,0.0013919706849057079
3997.0,0.001348404001626502
3996.0,0.001304841688344327
3995.0,0.001304841688344327
3994.0,0.001304841688344327
3993.0,0.0012612837441823288
3992.0,0.0012612837441823288
3991.0,0.0012612837441823288
3990.0,0.001304841688344327
3989.0,0.0013919706849057079
3988.0,0.0014355417390583547
3987.0,0.0014791171649619628
3986.0,0.0014355417390583547
3985.0,0.0014355417390583547
3984.0,0.0014355417390583547
3983.0,0.0014791171649619628
3982.0,0.0014355417390583547
3981.0,0.0013919706849057079
3980.0,0.001304841688344327
3979.0,0.0012177301682640973
3978.0,0.0012612837441823288
3977.0,0.0014355417390583547
3976.0,0.001609869681952425
3975.0,0.0017406615763013722
3974.0,0.0017406615763013722
3973.0,0.0016534626036355249
3972.0,0.0015662811355310335
3971.0,0.0014791171649619628
3970.0,0.0014791171649619628
3969.0,0.0015662811355310335
3968.0,0.001609869681952425
3967.0,0.001609869681952425
3966.0,0.0015662811355310335
3965.0,0.0015226969634936083
3964.0,0.0015662811355310335
3963.0,0.0015662811355310335
3962.0,0.001609869681952425
3961.0,0.001609869681952425
3960.0,0.001609869681952425
3959.0,0.0015662811355310335
3958.0,0.0015662811355310335
3957.0,0.0015662811355310335
3956.0,0.0015226969634936083
3955.0,0.0014791171649619628
3954.0,0.0013919706849057079
3953.0,0.001304841688344327
3952.0,0.001304841688344327
3951.0,0.001304841688344327
3950.0,0.001348404001626502
3949.0,0.0013919706849057079
3948.0,0.0014355417390583547
3947.0,0.0014791171649619628
3946.0,0.0014355417390583547
3945.0,0.0014355417390583547
3944.0,0.0014791171649619628
3943.0,0.0015226969634936083
3942.0,0.001609869681952425
3941.0,0.001609869681952425
3940.0,0.0015662811355310335
3939.0,0.0015226969634936083
3938.0,0.0015226969634936083
3937.0,0.0015662811355310335
3936.0,0.0015662811355310335
3935.0,0.0014791171649619628
3934.0,0.0013919706849057079
3933.0,0.001348404001626502
3932.0,0.0013919706849057079
3931.0,0.0014791171649619628
3930.0,0.0015662811355310335
3929.0,0.0016534626036355249
3928.0,0.0016970599014589638
3927.0,0.0017406615763013722
3926.0,0.0017406615763013722
3925.0,0.0016970599014589638
3924.0,0.0016534626036355249
3923.0,0.001609869681952425
3922.0,0.0015662811355310335
3921.0,0.0015226969634936083
3920.0,0.0014791171649619628
3919.0,0.0014355417390583547
3918.0,0.001348404001626502
3917.0,0.001304841688344327
3916.0,0.001304841688344327
3915.0,0.0013919706849057079
3914.0,0.0014355417390583547
3913.0,0.0014791171649619628
3912.0,0.0014791171649619628
3911.0,0.0014791171649619628
3910.0,0.0014791171649619628
3909.0,0.0015226969634936083
3908.0,0.0015662811355310335
3907.0,0.0016534626036355249
3906.0,0.0017406615763013722
3905.0,0.0018278780605593958
3904.0,0.0018714928717336043
3903.0,0.001915112063444413
3902.0,0.001915112063444413
3901.0,0.001915112063444413
3900.0,0.001915112063444413
3899.0,0.0019587356365717845
3898.0,0.0019587356365717845
3897.0,0.0019587356365717845
3896.0,0.001915112063444413
3895.0,0.001915112063444413
3894.0,0.0019587356365717845
3893.0,0.0019587356365717845
3892.0,0.001915112063444413
3891.0,0.0017406615763013722
3890.0,0.0015662811355310335
3889.0,0.0014791171649619628
3888.0,0.0013919706849057079
3887.0,0.001348404001626502
3886.0,0.0014355417390583547
3885.0,0.0015662811355310335
3884.0,0.0017406615763013722
3883.0,0.001915112063444413
3882.0,0.0019587356365717845
3881.0,0.0019587356365717845
3880.0,0.001915112063444413
3879.0,0.001915112063444413
3878.0,0.001915112063444413
3877.0,0.001915112063444413
3876.0,0.0018714928717336043
3875.0,0.0018278780605593958
3874.0,0.0018278780605593958
3873.0,0.0018278780605593958
3872.0,0.0017842676290416026
3871.0,0.001609869681952425
3870.0,0.0015226969634936083
3869.0,0.0015662811355310335
3868.0,0.0016534626036355249
3867.0,0.0016970599014589638
3866.0,0.001609869681952425
3865.0,0.0015226969634936083
3864.0,0.0015662811355310335
3863.0,0.0016534626036355249
3862.0,0.0017842676290416026
3861.0,0.0018714928717336043
3860.0,0.0019587356365717845
3859.0,0.0020459959305969555
3858.0,0.0021332737608552588
3857.0,0.0023078820582733695
3856.0,0.002482560585275184
3855.0,0.002482560585275184
3854.0,0.002395212539545666
3853.0,0.002395212539545666
3852.0,0.002395212539545666
3851.0,0.0022642234021015284
3850.0,0.0021332737608552588
3849.0,0.0019587356365717845
3848.0,0.0018278780605593958
3847.0,0.0017406615763013722
3846.0,0.0016534626036355249
3845.0,0.0016970599014589638
3844.0,0.0017406615763013722
3843.0,0.0018278780605593958
3842.0,0.001915112063444413
3841.0,0.002089632653256679
3840.0,0.0022205691343961664
3839.0,0.002395212539545666
3838.0,0.002482560585275184
3837.0,0.002395212539545666
3836.0,0.0022642234021015284
3835.0,0.002089632653256679
3834.0,0.0019587356365717845
3833.0,0.0018278780605593958
3832.0,0.0017406615763013722
3831.0,0.0017406615763013722
3830.0,0.0017842676290416026
3829.0,0.0018714928717336043
3828.0,0.0019587356365717845
3827.0,0.0020023635919956817
3826.0,0.0021332737608552588
3825.0,0.0023078820582733695
3824.0,0.002569926202528716
3823.0,0.002701007590486082
3822.0,0.002613615602686581
3821.0,0.0024388843664115978
3820.0,0.0023078820582733695
3819.0,0.0021769192542746563
3818.0,0.002089632653256679
3817.0,0.0020023635919956817
3816.0,0.001915112063444413
3815.0,0.0018714928717336043
3814.0,0.0018278780605593958
3813.0,0.0017842676290416026
3812.0,0.0017842676290416026
3811.0,0.0018278780605593958
3810.0,0.0019587356365717845
3809.0,0.0020023635919956817
3808.0,0.0019587356365717845
3807.0,0.0018714928717336043
3806.0,0.0017842676290416026
3805.0,0.0017406615763013722
3804.0,0.0016970599014589638
3803.0,0.001609869681952425
3802.0,0.001609869681952425
3801.0,0.0017842676290416026
3800.0,0.001915112063444413
3799.0,0.001915112063444413
3798.0,0.0018278780605593958
3797.0,0.0016534626036355249
3796.0,0.001609869681952425
3795.0,0.0016534626036355249
3794.0,0.0016970599014589638
3793.0,0.0016970599014589638
3792.0,0.0016970599014589638
3791.0,0.0016534626036355249
3790.0,0.0016534626036355249
3789.0,0.0017406615763013722
3788.0,0.0018714928717336043
3787.0,0.0019587356365717845
3786.0,0.0020459959305969555
3785.0,0.0020459959305969555
3784.0,0.002089632653256679
3783.0,0.002089632653256679
3782.0,0.002089632653256679
3781.0,0.002089632653256679
3780.0,0.0020459959305969555
3779.0,0.0020023635919956817
3778.0,0.0020023635919956817
3777.0,0.0019587356365717845
3776.0,0.0019587356365717845
3775.0,0.0020023635919956817
3774.0,0.0020459959305969555
3773.0,0.0020459959305969555
3772.0,0.0019587356365717845
3771.0,0.0018714928717336043
3770.0,0.0018278780605593958
3769.0,0.0018278780605593958
3768.0,0.0018714928717336043
3767.0,0.0018278780605593958
3766.0,0.0017842676290416026
3765.0,0.0017406615763013722
3764.0,0.0017842676290416026
3763.0,0.0018714928717336043
3762.0,0.0019587356365717845
3761.0,0.0020459959305969555
3760.0,0.0021332737608552588
3759.0,0.0021769192542746563
3758.0,0.0021769192542746563
3757.0,0.0021332737608552588
3756.0,0.0021332737608552588
3755.0,0.0021332737608552588
3754.0,0.0021332737608552588
3753.0,0.002089632653256679
3752.0,0.002089632653256679
3751.0,0.0021332737608552588
3750.0,0.0022205691343961664
3749.0,0.0022205691343961664
3748.0,0.0022205691343961664
3747.0,0.0022642234021015284
3746.0,0.0023078820582733695
3745.0,0.0023078820582733695
3744.0,0.0022642234021015284
3743.0,0.0021769192542746563
3742.0,0.0020459959305969555
3741.0,0.001915112063444413
3740.0,0.0018278780605593958
3739.0,0.0017842676290416026
3738.0,0.0017842676290416026
3737.0,0.0017406615763013722
3736.0,0.0016970599014589638
3735.0,0.0016534626036355249
3734.0,0.0016970599014589638
3733.0,0.0017406615763013722
3732.0,0.0017842676290416026
3731.0,0.0018278780605593958
3730.0,0.0018278780605593958
3729.0,0.0018278780605593958
3728.0,0.0018278780605593958
3727.0,0.0018714928717336043
3726.0,0.0020023635919956817
3725.0,0.0020459959305969555
3724.0,0.0020459959305969555
3723.0,0.0020023635919956817
3722.0,0.0018714928717336043
3721.0,0.0017842676290416026
3720.0,0.0017842676290416026
3719.0,0.0017406615763013722
3718.0,0.0017406615763013722
3717.0,0.0017406615763013722
3716.0,0.0018714928717336043
3715.0,0.0020023635919956817
3714.0,0.002089632653256679
3713.0,0.002089632653256679
3712.0,0.0020459959305969555
3711.0,0.0020459959305969555
3710.0,0.002089632653256679
3709.0,0.0021332737608552588
3708.0,0.0021332737608552588
3707.0,0.002089632653256679
3706.0,0.0020459959305969555
3705.0,0.0019587356365717845
3704.0,0.0018278780605593958
3703.0,0.0016970599014589638
3702.0,0.0016534626036355249
3701.0,0.0016534626036355249
3700.0,0.0016970599014589638
3699.0,0.0016970599014589638
3698.0,0.0016534626036355249
3697.0,0.001609869681952425
3696.0,0.001609869681952425
3695.0,0.0016534626036355249
3694.0,0.0017406615763013722
3693.0,0.0018714928717336043
3692.0,0.0019587356365717845
3691.0,0.0019587356365717845
3690.0,0.0018714928717336043
3689.0,0.0017842676290416026
3688.0,0.0017406615763013722
3687.0,0.0016970599014589638
3686.0,0.0016534626036355249
3685.0,0.001609869681952425
3684.0,0.0015226969634936083
3683.0,0.0014355417390583547
3682.0,0.001348404001626502
3681.0,0.001348404001626502
3680.0,0.0013919706849057079
3679.0,0.0015662811355310335
3678.0,0.0017406615763013722
3677.0,0.001915112063444413
3676.0,0.002089632653256679
3675.0,0.0023078820582733695
3674.0,0.0024388843664115978
3673.0,0.0024388843664115978
3672.0,0.002351545103793873
3671.0,0.0021769192542746563
3670.0,0.0020023635919956817
3669.0,0.0018714928717336043
3668.0,0.0017406615763013722
3667.0,0.0015662811355310335
3666.0,0.0014791171649619628
3665.0,0.0014355417390583547
3664.0,0.0014791171649619628
3663.0,0.0014791171649619628
3662.0,0.0014791171649619628
3661.0,0.0015226969634936083
3660.0,0.0015226969634936083
3659.0,0.0015662811355310335
3658.0,0.0016534626036355249
3657.0,0.0016970599014589638
3656.0,0.0017406615763013722
3655.0,0.0017842676290416026
3654.0,0.0018714928717336043
3653.0,0.001915112063444413
3652.0,0.0019587356365717845
3651.0,0.0019587356365717845
3650.0,0.001915112063444413
3649.0,0.001915112063444413
3648.0,0.0018714928717336043
3647.0,0.0017842676290416026
3646.0,0.0016534626036355249
3645.0,0.0015226969634936083
3644.0,0.0014355417390583547
3643.0,0.0013919706849057079
3642.0,0.0014355417390583547
3641.0,0.0014791171649619628
3640.0,0.0015662811355310335
3639.0,0.0016970599014589638
3638.0,0.0017842676290416026
3637.0,0.0019587356365717845
3636.0,0.0020459959305969555
3635.0,0.002089632653256679
3634.0,0.002089632653256679
3633.0,0.0020023635919956817
3632.0,0.001915112063444413
3631.0,0.0017842676290416026
3630.0,0.001609869681952425
3629.0,0.0016534626036355249
3628.0,0.0018278780605593958
3627.0,0.001915112063444413
3626.0,0.0018714928717336043
3625.0,0.0017842676290416026
3624.0,0.0017406615763013722
3623.0,0.0016970599014589638
3622.0,0.0017406615763013722
3621.0,0.0017406615763013722
3620.0,0.0017842676290416026
3619.0,0.0018278780605593958
3618.0,0.0018714928717336043
3617.0,0.001915112063444413
3616.0,0.001915112063444413
3615.0,0.001915112063444413
3614.0,0.001915112063444413
3613.0,0.0018714928717336043
3612.0,0.0018278780605593958
3611.0,0.0017406615763013722
3610.0,0.0016534626036355249
3609.0,0.0016970599014589638
3608.0,0.0018278780605593958
3607.0,0.0020023635919956817
3606.0,0.002089632653256679
3605.0,0.0021332737608552588
3604.0,0.002089632653256679
3603.0,0.0020459959305969555
3602.0,0.0019587356365717845
3601.0,0.001915112063444413
3600.0,0.0019587356365717845
3599.0,0.0020023635919956817
3598.0,0.0020459959305969555
3597.0,0.0020023635919956817
3596.0,0.0019587356365717845
3595.0,0.001915112063444413
3594.0,0.0018714928717336043
3593.0,0.0018278780605593958
3592.0,0.0017842676290416026
3591.0,0.0017842676290416026
3590.0,0.0018278780605593958
3589.0,0.0018714928717336043
3588.0,0.001915112063444413
3587.0,0.001915112063444413
3586.0,0.0020023635919956817
3585.0,0.002089632653256679
3584.0,0.0021769192542746563
3583.0,0.0022205691343961664
3582.0,0.0022205691343961664
3581.0,0.0021332737608552588
3580.0,0.002089632653256679
3579.0,0.002089632653256679
3578.0,0.002089632653256679
3577.0,0.002089632653256679
3576.0,0.0020459959305969555
3575.0,0.0020459959305969555
3574.0,0.0020459959305969555
3573.0,0.0020459959305969555
3572.0,0.0020023635919956817
3571.0,0.0018714928717336043
3570.0,0.0016534626036355249
3569.0,0.0013919706849057079
3568.0,0.0012177301682640973
3567.0,0.0013919706849057079
3566.0,0.0016970599014589638
3565.0,0.0019587356365717845
3564.0,0.0020459959305969555
3563.0,0.002089632653256679
3562.0,0.0021332737608552588
3561.0,0.0022205691343961664
3560.0,0.0023078820582733695
3559.0,0.002351545103793873
3558.0,0.0022642234021015284
3557.0,0.0021769192542746563
3556.0,0.0022205691343961664
3555.0,0.0022642234021015284
3554.0,0.0023078820582733695
3553.0,0.0023078820582733695
3552.0,0.0021332737608552588
3551.0,0.0019587356365717845
3550.0,0.0017842676290416026
3549.0,0.0016970599014589638
3548.0,0.001609869681952425
3547.0,0.001609869681952425
3546.0,0.001609869681952425
3545.0,0.0016534626036355249
3544.0,0.0016534626036355249
3543.0,0.0016970599014589638
3542.0,0.0017842676290416026
3541.0,0.0018714928717336043
3540.0,0.0020023635919956817
3539.0,0.002089632653256679
3538.0,0.0021769192542746563
3537.0,0.0022642234021015284
3536.0,0.0023078820582733695
3535.0,0.0022642234021015284
3534.0,0.0022205691343961664
3533.0,0.0021332737608552588
3532.0,0.0021332737608552588
3531.0,0.0021769192542746563
3530.0,0.0021769192542746563
3529.0,0.0021332737608552588
3528.0,0.0020459959305969555
3527.0,0.0020023635919956817
3526.0,0.0020023635919956817
3525.0,0.0020459959305969555
3524.0,0.002089632653256679
3523.0,0.0021332737608552588
3522.0,0.0021769192542746563
3521.0,0.0021769192542746563
3520.0,0.0021332737608552588
3519.0,0.0020459959305969555
3518.0,0.0019587356365717845
3517.0,0.001915112063444413
3516.0,0.0020023635919956817
3515.0,0.002089632653256679
3514.0,0.0021332737608552588
3513.0,0.0021332737608552588
3512.0,0.002089632653256679
3511.0,0.002089632653256679
3510.0,0.0021332737608552588
3509.0,0.0022205691343961664
3508.0,0.0022642234021015284
3507.0,0.0022205691343961664
3506.0,0.002089632653256679
3505.0,0.0020023635919956817
3504.0,0.001915112063444413
3503.0,0.001915112063444413
3502.0,0.0019587356365717845
3501.0,0.0020459959305969555
3500.0,0.0021332737608552588
3499.0,0.0021769192542746563
3498.0,0.0021769192542746563
3497.0,0.002089632653256679
3496.0,0.0019587356365717845
3495.0,0.0018714928717336043
3494.0,0.0017406615763013722
3493.0,0.0016534626036355249
3492.0,0.0016534626036355249
3491.0,0.0017406615763013722
3490.0,0.0019587356365717845
3489.0,0.0021332737608552588
3488.0,0.0022642234021015284
3487.0,0.0023078820582733695
3486.0,0.0023078820582733695
3485.0,0.0022642234021015284
3484.0,0.0022642234021015284
3483.0,0.0022642234021015284
3482.0,0.002351545103793873
3481.0,0.0024388843664115978
3480.0,0.002482560585275184
3479.0,0.0024388843664115978
3478.0,0.0023078820582733695
3477.0,0.0021332737608552588
3476.0,0.0020023635919956817
3475.0,0.0019587356365717845
3474.0,0.0020023635919956817
3473.0,0.002089632653256679
3472.0,0.002089632653256679
3471.0,0.0020459959305969555
3470.0,0.0019587356365717845
3469.0,0.001915112063444413
3468.0,0.0019587356365717845
3467.0,0.002089632653256679
3466.0,0.0021769192542746563
3465.0,0.0022205691343961664
3464.0,0.0022205691343961664
3463.0,0.0022205691343961664
3462.0,0.0021769192542746563
3461.0,0.0021332737608552588
3460.0,0.0020459959305969555
3459.0,0.0020023635919956817
3458.0,0.0019587356365717845
3457.0,0.0019587356365717845
3456.0,0.0019587356365717845
3455.0,0.0020023635919956817
3454.0,0.0020023635919956817
3453.0,0.0020023635919956817
3452.0,0.0020023635919956817
3451.0,0.0020023635919956817
3450.0,0.0019587356365717845
3449.0,0.0019587356365717845
3448.0,0.0020023635919956817
3447.0,0.0020459959305969555
3446.0,0.0020023635919956817
3445.0,0.001915112063444413
3444.0,0.0017842676290416026
3443.0,0.001609869681952425
3442.0,0.0015226969634936083
3441.0,0.0016534626036355249
3440.0,0.0017842676290416026
3439.0,0.001915112063444413
3438.0,0.001915112063444413
3437.0,0.0018714928717336043
3436.0,0.001915112063444413
3435.0,0.0020023635919956817
3434.0,0.0022205691343961664
3433.0,0.002351545103793873
3432.0,0.002351545103793873
3431.0,0.0022205691343961664
3430.0,0.0020023635919956817
3429.0,0.0018278780605593958
3428.0,0.0017406615763013722
3427.0,0.0017842676290416026
3426.0,0.001915112063444413
3425.0,0.002089632653256679
3424.0,0.0022205691343961664
3423.0,0.0022642234021015284
3422.0,0.0021769192542746563
3421.0,0.0020023635919956817
3420.0,0.0018714928717336043
3419.0,0.0018278780605593958
3418.0,0.0019587356365717845
3417.0,0.0021332737608552588
3416.0,0.0022642234021015284
3415.0,0.002351545103793873
3414.0,0.0023078820582733695
3413.0,0.0022205691343961664
3412.0,0.0021769192542746563
3411.0,0.0021332737608552588
3410.0,0.002089632653256679
3409.0,0.002089632653256679
3408.0,0.0020459959305969555
3407.0,0.0020023635919956817
3406.0,0.0020023635919956817
3405.0,0.0020459959305969555
3404.0,0.0020459959305969555
3403.0,0.0020459959305969555
3402.0,0.0020459959305969555
3401.0,0.0020023635919956817
3400.0,0.0019587356365717845
3399.0,0.001915112063444413
3398.0,0.001915112063444413
3397.0,0.0019587356365717845
3396.0,0.0020459959305969555
3395.0,0.0021769192542746563
3394.0,0.0022642234021015284
3393.0,0.0023078820582733695
3392.0,0.0023078820582733695
3391.0,0.0023078820582733695
3390.0,0.0022642234021015284
3389.0,0.0021769192542746563
3388.0,0.002089632653256679
3387.0,0.0020023635919956817
3386.0,0.0020023635919956817
3385.0,0.0020023635919956817
3384.0,0.0020459959305969555
3383.0,0.0020459959305969555
3382.0,0.0020023635919956817
3381.0,0.0020459959305969555
3380.0,0.0020459959305969555
3379.0,0.0020023635919956817
3378.0,0.0019587356365717845
3377.0,0.0018714928717336043
3376.0,0.0018714928717336043
3375.0,0.001915112063444413
3374.0,0.0020023635919956817
3373.0,0.0020459959305969555
3372.0,0.002089632653256679
3371.0,0.002089632653256679
3370.0,0.002089632653256679
3369.0,0.002089632653256679
3368.0,0.0021332737608552588
3367.0,0.0021769192542746563
3366.0,0.0022205691343961664
3365.0,0.0022642234021015284
3364.0,0.0023078820582733695
3363.0,0.0023078820582733695
3362.0,0.0022205691343961664
3361.0,0.0021332737608552588
3360.0,0.0020459959305969555
3359.0,0.0020459959305969555
3358.0,0.0020459959305969555
3357.0,0.002089632653256679
3356.0,0.0021332737608552588
3355.0,0.0021332737608552588
3354.0,0.0021769192542746563
3353.0,0.0021769192542746563
3352.0,0.0021769192542746563
3351.0,0.0021769192542746563
3350.0,0.0021769192542746563
3349.0,0.0021769192542746563
3348.0,0.0021769192542746563
3347.0,0.0021332737608552588
3346.0,0.0020459959305969555
3345.0,0.0019587356365717845
3344.0,0.0018714928717336043
3343.0,0.0017406615763013722
3342.0,0.0016534626036355249
3341.0,0.001609869681952425
3340.0,0.001609869681952425
3339.0,0.0016970599014589638
3338.0,0.0017842676290416026
3337.0,0.0018278780605593958
3336.0,0.001915112063444413
3335.0,0.0020023635919956817
3334.0,0.0020459959305969555
3333.0,0.002089632653256679
3332.0,0.0021332737608552588
3331.0,0.0021769192542746563
3330.0,0.0022642234021015284
3329.0,0.002351545103793873
3328.0,0.002351545103793873
3327.0,0.002351545103793873
3326.0,0.0023078820582733695
3325.0,0.0022205691343961664
3324.0,0.0020459959305969555
3323.0,0.0018714928717336043
3322.0,0.0017406615763013722
3321.0,0.0016970599014589638
3320.0,0.0017842676290416026
3319.0,0.0019587356365717845
3318.0,0.002089632653256679
3317.0,0.0021332737608552588
3316.0,0.002089632653256679
3315.0,0.0019587356365717845
3314.0,0.0018278780605593958
3313.0,0.0017406615763013722
3312.0,0.0017406615763013722
3311.0,0.0017842676290416026
3310.0,0.0018278780605593958
3309.0,0.0018714928717336043
3308.0,0.0019587356365717845
3307.0,0.0020023635919956817
3306.0,0.0020459959305969555
3305.0,0.002089632653256679
3304.0,0.002089632653256679
3303.0,0.002089632653256679
3302.0,0.002089632653256679
3301.0,0.0021332737608552588
3300.0,0.0022205691343961664
3299.0,0.0022642234021015284
3298.0,0.0023078820582733695
3297.0,0.0023078820582733695
3296.0,0.0022205691343961664
3295.0,0.002089632653256679
3294.0,0.001915112063444413
3293.0,0.0018714928717336043
3292.0,0.0019587356365717845
3291.0,0.002089632653256679
3290.0,0.0021769192542746563
3289.0,0.0021332737608552588
3288.0,0.0020023635919956817
3287.0,0.0018714928717336043
3286.0,0.0017842676290416026
3285.0,0.0017842676290416026
3284.0,0.0018714928717336043
3283.0,0.0019587356365717845
3282.0,0.0021332737608552588
3281.0,0.0023078820582733695
3280.0,0.002395212539545666
3279.0,0.002395212539545666
3278.0,0.002351545103793873
3277.0,0.0022205691343961664
3276.0,0.0021332737608552588
3275.0,0.0020023635919956817
3274.0,0.0019587356365717845
3273.0,0.001915112063444413
3272.0,0.0019587356365717845
3271.0,0.0020023635919956817
3270.0,0.0020459959305969555
3269.0,0.0020023635919956817
3268.0,0.0020023635919956817
3267.0,0.0020023635919956817
3266.0,0.0020023635919956817
3265.0,0.0019587356365717845
3264.0,0.0018714928717336043
3263.0,0.0018278780605593958
3262.0,0.0018278780605593958
3261.0,0.0018714928717336043
3260.0,0.0020023635919956817
3259.0,0.0020459959305969555
3258.0,0.002089632653256679
3257.0,0.0020459959305969555
3256.0,0.0020459959305969555
3255.0,0.002089632653256679
3254.0,0.002089632653256679
3253.0,0.002089632653256679
3252.0,0.0020459959305969555
3251.0,0.002089632653256679
3250.0,0.0022205691343961664
3249.0,0.0023078820582733695
3248.0,0.0023078820582733695
3247.0,0.0021769192542746563
3246.0,0.0020023635919956817
3245.0,0.001915112063444413
3244.0,0.0019587356365717845
3243.0,0.0020459959305969555
3242.0,0.0021332737608552588
3241.0,0.0021769192542746563
3240.0,0.002089632653256679
3239.0,0.0020023635919956817
3238.0,0.001915112063444413
3237.0,0.0018714928717336043
3236.0,0.001915112063444413
3235.0,0.0019587356365717845
3234.0,0.0020023635919956817
3233.0,0.0019587356365717845
3232.0,0.001915112063444413
3231.0,0.001915112063444413
3230.0,0.0019587356365717845
3229.0,0.0020459959305969555
3228.0,0.0021332737608552588
3227.0,0.0021769192542746563
3226.0,0.0021769192542746563
3225.0,0.0021332737608552588
3224.0,0.002089632653256679
3223.0,0.002089632653256679
3222.0,0.0021332737608552588
3221.0,0.0021332737608552588
3220.0,0.0020459959305969555
3219.0,0.0019587356365717845
3218.0,0.001915112063444413
3217.0,0.001915112063444413
3216.0,0.0019587356365717845
3215.0,0.0019587356365717845
3214.0,0.0019587356365717845
3213.0,0.0019587356365717845
3212.0,0.0020459959305969555
3211.0,0.0021332737608552588
3210.0,0.0021769192542746563
3209.0,0.0021769192542746563
3208.0,0.0021332737608552588
3207.0,0.002089632653256679
3206.0,0.0020459959305969555
3205.0,0.0019587356365717845
3204.0,0.0018714928717336043
3203.0,0.0017842676290416026
3202.0,0.0017842676290416026
3201.0,0.0018714928717336043
3200.0,0.0019587356365717845
3199.0,0.002089632653256679
3198.0,0.0021332737608552588
3197.0,0.0021769192542746563
3196.0,0.0022205691343961664
3195.0,0.0022205691343961664
3194.0,0.0022205691343961664
3193.0,0.0021769192542746563
3192.0,0.002089632653256679
3191.0,0.0020459959305969555
3190.0,0.0020023635919956817
3189.0,0.001915112063444413
3188.0,0.0018714928717336043
3187.0,0.0018278780605593958
3186.0,0.0018278780605593958
3185.0,0.0018714928717336043
3184.0,0.001915112063444413
3183.0,0.0019587356365717845
3182.0,0.0019587356365717845
3181.0,0.0019587356365717845
3180.0,0.0018714928717336043
3179.0,0.0018278780605593958
3178.0,0.0017842676290416026
3177.0,0.0017842676290416026
3176.0,0.0017842676290416026
3175.0,0.0017406615763013722
3174.0,0.0016970599014589638
3173.0,0.0016970599014589638
3172.0,0.0017406615763013722
3171.0,0.0017842676290416026
3170.0,0.0018278780605593958
3169.0,0.001915112063444413
3168.0,0.001915112063444413
3167.0,0.001915112063444413
3166.0,0.001915112063444413
3165.0,0.0019587356365717845
3164.0,0.0020023635919956817
3163.0,0.0020459959305969555
3162.0,0.0020023635919956817
3161.0,0.0019587356365717845
3160.0,0.001915112063444413
3159.0,0.0019587356365717845
3158.0,0.0020459959305969555
3157.0,0.002089632653256679
3156.0,0.0020459959305969555
3155.0,0.0019587356365717845
3154.0,0.0018714928717336043
3153.0,0.0018278780605593958
3152.0,0.0018714928717336043
3151.0,0.001915112063444413
3150.0,0.0019587356365717845
3149.0,0.0020023635919956817
3148.0,0.0020459959305969555
3147.0,0.0020459959305969555
3146.0,0.0020459959305969555
3145.0,0.0020023635919956817
3144.0,0.0019587356365717845
3143.0,0.001915112063444413
3142.0,0.0018714928717336043
3141.0,0.0018714928717336043
3140.0,0.0018278780605593958
3139.0,0.0018714928717336043
3138.0,0.0020023635919956817
3137.0,0.0021332737608552588
3136.0,0.0022205691343961664
3135.0,0.0022642234021015284
3134.0,0.0022642234021015284
3133.0,0.0022642234021015284
3132.0,0.0022205691343961664
3131.0,0.0021332737608552588
3130.0,0.0020459959305969555
3129.0,0.001915112063444413
3128.0,0.0018714928717336043
3127.0,0.0018714928717336043
3126.0,0.001915112063444413
3125.0,0.0019587356365717845
3124.0,0.0020023635919956817
3123.0,0.0020459959305969555
3122.0,0.0020459959305969555
3121.0,0.0020023635919956817
3120.0,0.001915112063444413
3119.0,0.0018278780605593958
3118.0,0.0017842676290416026
3117.0,0.0017842676290416026
3116.0,0.0018278780605593958
3115.0,0.0018714928717336043
3114.0,0.0018714928717336043
3113.0,0.001915112063444413
3112.0,0.0019587356365717845
3111.0,0.0020023635919956817
3110.0,0.0021332737608552588
3109.0,0.0022205691343961664
3108.0,0.0022205691343961664
3107.0,0.0021769192542746563
3106.0,0.0021769192542746563
3105.0,0.0021769192542746563
3104.0,0.0022205691343961664
3103.0,0.0022642234021015284
3102.0,0.0022205691343961664
3101.0,0.002089632653256679
3100.0,0.001915112063444413
3099.0,0.0018714928717336043
3098.0,0.0018714928717336043
3097.0,0.0019587356365717845
3096.0,0.0020459959305969555
3095.0,0.0021332737608552588
3094.0,0.0021769192542746563
3093.0,0.0021769192542746563
3092.0,0.0021332737608552588
3091.0,0.0020459959305969555
3090.0,0.0019587356365717845
3089.0,0.0018714928717336043
3088.0,0.0018278780605593958
3087.0,0.0018278780605593958
3086.0,0.001915112063444413
3085.0,0.0020023635919956817
3084.0,0.002089632653256679
3083.0,0.0021769192542746563
3082.0,0.0023078820582733695
3081.0,0.002395212539545666
3080.0,0.002395212539545666
3079.0,0.0023078820582733695
3078.0,0.0021769192542746563
3077.0,0.0020459959305969555
3076.0,0.0020023635919956817
3075.0,0.0020459959305969555
3074.0,0.002089632653256679
3073.0,0.0021332737608552588
3072.0,0.0021769192542746563
3071.0,0.0021769192542746563
3070.0,0.002089632653256679
3069.0,0.0020023635919956817
3068.0,0.001915112063444413
3067.0,0.001915112063444413
3066.0,0.001915112063444413
3065.0,0.0019587356365717845
3064.0,0.0019587356365717845
3063.0,0.0020023635919956817
3062.0,0.0020023635919956817
3061.0,0.0020023635919956817
3060.0,0.0020459959305969555
3059.0,0.002089632653256679
3058.0,0.0021332737608552588
3057.0,0.0021332737608552588
3056.0,0.002089632653256679
3055.0,0.0020459959305969555
3054.0,0.0020459959305969555
3053.0,0.002089632653256679
3052.0,0.0021769192542746563
3051.0,0.0022642234021015284
3050.0,0.0023078820582733695
3049.0,0.0023078820582733695
3048.0,0.0022642234021015284
3047.0,0.0022205691343961664
3046.0,0.0021769192542746563
3045.0,0.0021769192542746563
3044.0,0.0021332737608552588
3043.0,0.002089632653256679
3042.0,0.0020023635919956817
3041.0,0.001915112063444413
3040.0,0.0018714928717336043
3039.0,0.0018714928717336043
3038.0,0.001915112063444413
3037.0,0.0019587356365717845
3036.0,0.0020023635919956817
3035.0,0.0020023635919956817
3034.0,0.0019587356365717845
3033.0,0.001915112063444413
3032.0,0.0017842676290416026
3031.0,0.0016970599014589638
3030.0,0.0016970599014589638
3029.0,0.0016970599014589638
3028.0,0.0017842676290416026
3027.0,0.0018714928717336043
3026.0,0.001915112063444413
3025.0,0.0020023635919956817
3024.0,0.0020023635919956817
3023.0,0.0020023635919956817
3022.0,0.0020023635919956817
3021.0,0.0019587356365717845
3020.0,0.001915112063444413
3019.0,0.0018714928717336043
3018.0,0.0018714928717336043
3017.0,0.0018714928717336043
3016.0,0.0018714928717336043
3015.0,0.0018714928717336043
3014.0,0.001915112063444413
3013.0,0.0019587356365717845
3012.0,0.0020023635919956817
3011.0,0.002089632653256679
3010.0,0.0021769192542746563
3009.0,0.0023078820582733695
3008.0,0.002351545103793873
3007.0,0.002351545103793873
3006.0,0.0023078820582733695
3005.0,0.0022642234021015284
3004.0,0.0023078820582733695
3003.0,0.002351545103793873
3002.0,0.0024388843664115978
3001.0,0.002482560585275184
3000.0,0.002569926202528716
2999.0,0.002701007590486082
2998.0,0.0027884171674950053
2997.0,0.0028321285541661467
2996.0,0.0027884171674950053
2995.0,0.002701007590486082
2994.0,0.0025262411970197185
2993.0,0.002351545103793873
2992.0,0.0022205691343961664
2991.0,0.002089632653256679
2990.0,0.0020459959305969555
2989.0,0.0019587356365717845
2988.0,0.0018714928717336043
2987.0,0.0018278780605593958
2986.0,0.0017406615763013722
2985.0,0.0016534626036355249
2984.0,0.001609869681952425
2983.0,0.0015226969634936083
2982.0,0.0014355417390583547
2981.0,0.001348404001626502
2980.0,0.001304841688344327
2979.0,0.0012612837441823288
2978.0,0.0012177301682640973
2977.0,0.0011741809597138886
2976.0,0.0011741809597138886
2975.0,0.0011741809597138886
2974.0,0.0012177301682640973
2973.0,0.0012177301682640973
2972.0,0.0011741809597138886
2971.0,0.0011306361176557367
2970.0,0.0010870956412141197
2969.0,0.0010870956412141197
2968.0,0.0011306361176557367
2967.0,0.0011741809597138886
2966.0,0.0012177301682640973
2965.0,0.0012177301682640973
2964.0,0.0012612837441823288
2963.0,0.001304841688344327
2962.0,0.0013919706849057079
2961.0,0.0014355417390583547
2960.0,0.0014791171649619628
2959.0,0.0015662811355310335
2958.0,0.0016534626036355249
2957.0,0.0017406615763013722
2956.0,0.0018714928717336043
2955.0,0.0019587356365717845
2954.0,0.0020023635919956817
2953.0,0.002089632653256679
2952.0,0.0022205691343961664
2951.0,0.002395212539545666
2950.0,0.002569926202528716
2949.0,0.002613615602686581
2948.0,0.002613615602686581
2947.0,0.0025262411970197185
2946.0,0.0024388843664115978
2945.0,0.0024388843664115978
2944.0,0.002482560585275184
2943.0,0.0025262411970197185
2942.0,0.0025262411970197185
2941.0,0.0025262411970197185
2940.0,0.002482560585275184
2939.0,0.002395212539545666
2938.0,0.0022642234021015284
2937.0,0.0021332737608552588
2936.0,0.0020023635919956817
2935.0,0.001915112063444413
2934.0,0.0018714928717336043
2933.0,0.001915112063444413
2932.0,0.0019587356365717845
2931.0,0.0020023635919956817
2930.0,0.0019587356365717845
2929.0,0.0018278780605593958
2928.0,0.0016970599014589638
2927.0,0.0015662811355310335
2926.0,0.0015226969634936083
2925.0,0.0015226969634936083
2924.0,0.0015226969634936083
2923.0,0.0015226969634936083
2922.0,0.0014355417390583547
2921.0,0.001304841688344327
2920.0,0.0012177301682640973
2919.0,0.0011306361176557367
2918.0,0.0010870956412141197
2917.0,0.0010870956412141197
2916.0,0.0010435595295137379
2915.0,0.0010870956412141197
2914.0,0.0011741809597138886
2913.0,0.0012612837441823288
2912.0,0.001304841688344327
2911.0,0.0012177301682640973
2910.0,0.0011306361176557367
2909.0,0.0010870956412141197
2908.0,0.0010870956412141197
2907.0,0.0011741809597138886
2906.0,0.0012177301682640973
2905.0,0.0012612837441823288
2904.0,0.0012612837441823288
2903.0,0.0012177301682640973
2902.0,0.0011741809597138886
2901.0,0.0011741809597138886
2900.0,0.0011306361176557367
2899.0,0.0011741809597138886
2898.0,0.0012612837441823288
2897.0,0.0013919706849057079
2896.0,0.0014355417390583547
2895.0,0.0014791171649619628
2894.0,0.0014355417390583547
2893.0,0.0013919706849057079
2892.0,0.001348404001626502
2891.0,0.001304841688344327
2890.0,0.001304841688344327
2889.0,0.001304841688344327
2888.0,0.001304841688344327
2887.0,0.0013919706849057079
2886.0,0.0014791171649619628
2885.0,0.001609869681952425
2884.0,0.0016534626036355249
2883.0,0.0017406615763013722
2882.0,0.0018278780605593958
2881.0,0.0018714928717336043
2880.0,0.0019587356365717845
2879.0,0.001915112063444413
2878.0,0.001915112063444413
2877.0,0.0018714928717336043
2876.0,0.0018714928717336043
2875.0,0.0018278780605593958
2874.0,0.0017842676290416026
2873.0,0.0016970599014589638
2872.0,0.0016534626036355249
2871.0,0.001609869681952425
2870.0,0.0016534626036355249
2869.0,0.0016970599014589638
2868.0,0.0018278780605593958
2867.0,0.0018714928717336043
2866.0,0.001915112063444413
2865.0,0.001915112063444413
2864.0,0.0018714928717336043
2863.0,0.0018278780605593958
2862.0,0.0018714928717336043
2861.0,0.001915112063444413
2860.0,0.0020023635919956817
2859.0,0.0020023635919956817
2858.0,0.0020023635919956817
2857.0,0.0019587356365717845
2856.0,0.0019587356365717845
2855.0,0.0020023635919956817
2854.0,0.0020459959305969555
2853.0,0.002089632653256679
2852.0,0.0021332737608552588
2851.0,0.0021332737608552588
2850.0,0.002089632653256679
2849.0,0.002089632653256679
2848.0,0.0021332737608552588
2847.0,0.0021332737608552588
2846.0,0.0021769192542746563
2845.0,0.0022205691343961664
2844.0,0.0022205691343961664
2843.0,0.0021769192542746563
2842.0,0.002089632653256679
2841.0,0.0020459959305969555
2840.0,0.0020459959305969555
2839.0,0.0021332737608552588
2838.0,0.0022205691343961664
2837.0,0.002351545103793873
2836.0,0.0024388843664115978
2835.0,0.0024388843664115978
2834.0,0.002351545103793873
2833.0,0.0022642234021015284
2832.0,0.0022642234021015284
2831.0,0.002351545103793873
2830.0,0.0024388843664115978
2829.0,0.002482560585275184
2828.0,0.0025262411970197185
2827.0,0.002613615602686581
2826.0,0.0026573093983774942
2825.0,0.002701007590486082
2824.0,0.0026573093983774942
2823.0,0.002613615602686581
2822.0,0.002569926202528716
2821.0,0.002569926202528716
2820.0,0.002569926202528716
2819.0,0.002482560585275184
2818.0,0.002395212539545666
2817.0,0.0023078820582733695
2816.0,0.0023078820582733695
2815.0,0.002395212539545666
2814.0,0.002482560585275184
2813.0,0.002569926202528716
2812.0,0.0025262411970197185
2811.0,0.0024388843664115978
2810.0,0.0023078820582733695
2809.0,0.0022642234021015284
2808.0,0.0022642234021015284
2807.0,0.0023078820582733695
2806.0,0.002395212539545666
2805.0,0.002482560585275184
2804.0,0.002482560585275184
2803.0,0.002482560585275184
2802.0,0.0024388843664115978
2801.0,0.002482560585275184
2800.0,0.0025262411970197185
2799.0,0.0025262411970197185
2798.0,0.0025262411970197185
2797.0,0.0024388843664115978
2796.0,0.002395212539545666
2795.0,0.002351545103793873
2794.0,0.002351545103793873
2793.0,0.002395212539545666
2792.0,0.0024388843664115978
2791.0,0.002395212539545666
2790.0,0.002395212539545666
2789.0,0.002395212539545666
2788.0,0.002482560585275184
2787.0,0.002482560585275184
2786.0,0.002482560585275184
2785.0,0.0024388843664115978
2784.0,0.0024388843664115978
2783.0,0.0024388843664115978
2782.0,0.0024388843664115978
2781.0,0.002395212539545666
2780.0,0.002395212539545666
2779.0,0.002395212539545666
2778.0,0.002395212539545666
2777.0,0.0024388843664115978
2776.0,0.0024388843664115978
2775.0,0.002482560585275184
2774.0,0.002569926202528716
2773.0,0.002569926202528716
2772.0,0.002569926202528716
2771.0,0.002569926202528716
2770.0,0.0025262411970197185
2769.0,0.0025262411970197185
2768.0,0.002482560585275184
2767.0,0.0024388843664115978
2766.0,0.002395212539545666
2765.0,0.002395212539545666
2764.0,0.002482560585275184
2763.0,0.0025262411970197185
2762.0,0.0025262411970197185
2761.0,0.002482560585275184
2760.0,0.002395212539545666
2759.0,0.0023078820582733695
2758.0,0.0022642234021015284
2757.0,0.0022642234021015284
2756.0,0.002351545103793873
2755.0,0.0024388843664115978
2754.0,0.0025262411970197185
2753.0,0.0025262411970197185
2752.0,0.002482560585275184
2751.0,0.0024388843664115978
2750.0,0.002395212539545666
2749.0,0.002395212539545666
2748.0,0.0024388843664115978
2747.0,0.002482560585275184
2746.0,0.002482560585275184
2745.0,0.0025262411970197185
2744.0,0.0025262411970197185
2743.0,0.002569926202528716
2742.0,0.002569926202528716
2741.0,0.0025262411970197185
2740.0,0.002482560585275184
2739.0,0.0024388843664115978
2738.0,0.0024388843664115978
2737.0,0.002482560585275184
2736.0,0.002482560585275184
2735.0,0.002482560585275184
2734.0,0.0024388843664115978
2733.0,0.002395212539545666
2732.0,0.002351545103793873
2731.0,0.0023078820582733695
2730.0,0.0023078820582733695
2729.0,0.002351545103793873
2728.0,0.0024388843664115978
2727.0,0.002482560585275184
2726.0,0.002482560585275184
2725.0,0.002482560585275184
2724.0,0.0025262411970197185
2723.0,0.0025262411970197185
2722.0,0.002482560585275184
2721.0,0.002482560585275184
2720.0,0.002482560585275184
2719.0,0.0025262411970197185
2718.0,0.002569926202528716
2717.0,0.002613615602686581
2716.0,0.002613615602686581
2715.0,0.002569926202528716
2714.0,0.0025262411970197185
2713.0,0.002482560585275184
2712.0,0.0024388843664115978
2711.0,0.002395212539545666
2710.0,0.002395212539545666
2709.0,0.002395212539545666
2708.0,0.002395212539545666
2707.0,0.002395212539545666
2706.0,0.002351545103793873
2705.0,0.002351545103793873
2704.0,0.0024388843664115978
2703.0,0.002569926202528716
2702.0,0.002701007590486082
2701.0,0.0027447101798967477
2700.0,0.0026573093983774942
2699.0,0.002569926202528716
2698.0,0.002482560585275184
2697.0,0.002482560585275184
2696.0,0.002482560585275184
2695.0,0.002482560585275184
2694.0,0.002482560585275184
2693.0,0.0024388843664115978
2692.0,0.002395212539545666
2691.0,0.002395212539545666
2690.0,0.002351545103793873
2689.0,0.002351545103793873
2688.0,0.002351545103793873
2687.0,0.002395212539545666
2686.0,0.0024388843664115978
2685.0,0.002482560585275184
2684.0,0.002569926202528716
2683.0,0.002613615602686581
2682.0,0.0026573093983774942
2681.0,0.002613615602686581
2680.0,0.002613615602686581
2679.0,0.002613615602686581
2678.0,0.002569926202528716
2677.0,0.0025262411970197185
2676.0,0.002482560585275184
2675.0,0.0024388843664115978
2674.0,0.002395212539545666
2673.0,0.002351545103793873
2672.0,0.0023078820582733695
2671.0,0.0023078820582733695
2670.0,0.002351545103793873
2669.0,0.002395212539545666
2668.0,0.0024388843664115978
2667.0,0.002395212539545666
2666.0,0.002395212539545666
2665.0,0.002395212539545666
2664.0,0.002482560585275184
2663.0,0.002569926202528716
2662.0,0.0026573093983774942
2661.0,0.0027884171674950053
2660.0,0.0028321285541661467
2659.0,0.0028321285541661467
2658.0,0.0028321285541661467
2657.0,0.0027884171674950053
2656.0,0.0027447101798967477
2655.0,0.002701007590486082
2654.0,0.0026573093983774942
2653.0,0.002569926202528716
2652.0,0.002482560585275184
2651.0,0.002395212539545666
2650.0,0.002351545103793873
2649.0,0.002351545103793873
2648.0,0.002395212539545666
2647.0,0.002351545103793873
2646.0,0.0023078820582733695
2645.0,0.0023078820582733695
2644.0,0.002395212539545666
2643.0,0.002482560585275184
2642.0,0.002569926202528716
2641.0,0.002613615602686581
2640.0,0.002613615602686581
2639.0,0.002569926202528716
2638.0,0.002569926202528716
2637.0,0.002569926202528716
2636.0,0.002613615602686581
2635.0,0.0026573093983774942
2634.0,0.0027447101798967477
2633.0,0.0027447101798967477
2632.0,0.002701007590486082
2631.0,0.002613615602686581
2630.0,0.0025262411970197185
2629.0,0.0024388843664115978
2628.0,0.0024388843664115978
2627.0,0.0024388843664115978
2626.0,0.002482560585275184
2625.0,0.002482560585275184
2624.0,0.002482560585275184
2623.0,0.002482560585275184
2622.0,0.0024388843664115978
2621.0,0.0025262411970197185
2620.0,0.0026573093983774942
2619.0,0.0027447101798967477
2618.0,0.0027884171674950053
2617.0,0.0027884171674950053
2616.0,0.002701007590486082
2615.0,0.002569926202528716
2614.0,0.002482560585275184
2613.0,0.0024388843664115978
2612.0,0.002395212539545666
2611.0,0.002395212539545666
2610.0,0.0024388843664115978
2609.0,0.002482560585275184
2608.0,0.0025262411970197185
2607.0,0.002569926202528716
2606.0,0.002569926202528716
2605.0,0.0025262411970197185
2604.0,0.0025262411970197185
2603.0,0.0025262411970197185
2602.0,0.0025262411970197185
2601.0,0.0025262411970197185
2600.0,0.0025262411970197185
2599.0,0.002482560585275184
2598.0,0.0024388843664115978
2597.0,0.0024388843664115978
2596.0,0.002482560585275184
2595.0,0.002613615602686581
2594.0,0.002701007590486082
2593.0,0.002701007590486082
2592.0,0.002701007590486082
2591.0,0.002701007590486082
2590.0,0.002701007590486082
2589.0,0.0027447101798967477
2588.0,0.0027447101798967477
2587.0,0.0027447101798967477
2586.0,0.0026573093983774942
2585.0,0.002569926202528716
2584.0,0.0024388843664115978
2583.0,0.002395212539545666
2582.0,0.002395212539545666
2581.0,0.0024388843664115978
2580.0,0.0025262411970197185
2579.0,0.002569926202528716
2578.0,0.0026573093983774942
2577.0,0.0026573093983774942
2576.0,0.0026573093983774942
2575.0,0.002613615602686581
2574.0,0.002569926202528716
2573.0,0.0025262411970197185
2572.0,0.0025262411970197185
2571.0,0.0025262411970197185
2570.0,0.0025262411970197185
2569.0,0.002569926202528716
2568.0,0.002613615602686581
2567.0,0.002613615602686581
2566.0,0.002569926202528716
2565.0,0.0025262411970197185
2564.0,0.002482560585275184
2563.0,0.0024388843664115978
2562.0,0.002395212539545666
2561.0,0.002351545103793873
2560.0,0.0022642234021015284
2559.0,0.0022205691343961664
2558.0,0.0022642234021015284
2557.0,0.002395212539545666
2556.0,0.0025262411970197185
2555.0,0.0026573093983774942
2554.0,0.0026573093983774942
2553.0,0.002569926202528716
2552.0,0.002482560585275184
2551.0,0.002482560585275184
2550.0,0.0025262411970197185
2549.0,0.002569926202528716
2548.0,0.002569926202528716
2547.0,0.002569926202528716
2546.0,0.0025262411970197185
2545.0,0.0025262411970197185
2544.0,0.0025262411970197185
2543.0,0.002569926202528716
2542.0,0.002613615602686581
2541.0,0.002613615602686581
2540.0,0.002569926202528716
2539.0,0.0025262411970197185
2538.0,0.0025262411970197185
2537.0,0.002482560585275184
2536.0,0.0024388843664115978
2535.0,0.0024388843664115978
2534.0,0.0024388843664115978
2533.0,0.002395212539545666
2532.0,0.002395212539545666
2531.0,0.002351545103793873
2530.0,0.002351545103793873
2529.0,0.002395212539545666
2528.0,0.0024388843664115978
2527.0,0.0024388843664115978
2526.0,0.0024388843664115978
2525.0,0.002482560585275184
2524.0,0.002482560585275184
2523.0,0.002482560585275184
2522.0,0.0025262411970197185
2521.0,0.002569926202528716
2520.0,0.002613615602686581
2519.0,0.0026573093983774942
2518.0,0.002613615602686581
2517.0,0.002613615602686581
2516.0,0.002569926202528716
2515.0,0.002482560585275184
2514.0,0.002395212539545666
2513.0,0.002351545103793873
2512.0,0.002351545103793873
2511.0,0.002351545103793873
2510.0,0.002395212539545666
2509.0,0.002482560585275184
2508.0,0.002569926202528716
2507.0,0.0026573093983774942
2506.0,0.0026573093983774942
2505.0,0.002613615602686581
2504.0,0.002569926202528716
2503.0,0.0025262411970197185
2502.0,0.0025262411970197185
2501.0,0.002482560585275184
2500.0,0.0024388843664115978
2499.0,0.0024388843664115978
2498.0,0.002395212539545666
2497.0,0.002395212539545666
2496.0,0.002395212539545666
2495.0,0.002395212539545666
2494.0,0.002351545103793873
2493.0,0.002351545103793873
2492.0,0.002395212539545666
2491.0,0.002482560585275184
2490.0,0.002569926202528716
2489.0,0.002613615602686581
2488.0,0.002613615602686581
2487.0,0.0025262411970197185
2486.0,0.0024388843664115978
2485.0,0.002395212539545666
2484.0,0.002351545103793873
2483.0,0.002395212539545666
2482.0,0.002395212539545666
2481.0,0.002395212539545666
2480.0,0.002351545103793873
2479.0,0.0022642234021015284
2478.0,0.0022205691343961664
2477.0,0.0021769192542746563
2476.0,0.0022205691343961664
2475.0,0.0022205691343961664
2474.0,0.0022642234021015284
2473.0,0.0023078820582733695
2472.0,0.002395212539545666
2471.0,0.002395212539545666
2470.0,0.002395212539545666
2469.0,0.002351545103793873
2468.0,0.0023078820582733695
2467.0,0.0022642234021015284
2466.0,0.0023078820582733695
2465.0,0.002351545103793873
2464.0,0.002395212539545666
2463.0,0.0024388843664115978
2462.0,0.0024388843664115978
2461.0,0.002395212539545666
2460.0,0.002351545103793873
2459.0,0.0023078820582733695
2458.0,0.0023078820582733695
2457.0,0.002351545103793873
2456.0,0.002351545103793873
2455.0,0.002351545103793873
2454.0,0.002351545103793873
2453.0,0.0023078820582733695
2452.0,0.0023078820582733695
2451.0,0.002351545103793873
2450.0,0.002351545103793873
2449.0,0.002395212539545666
2448.0,0.002482560585275184
2447.0,0.0025262411970197185
2446.0,0.002569926202528716
2445.0,0.0025262411970197185
2444.0,0.0025262411970197185
2443.0,0.002569926202528716
2442.0,0.002569926202528716
2441.0,0.002569926202528716
2440.0,0.002569926202528716
2439.0,0.002569926202528716
2438.0,0.0025262411970197185
2437.0,0.002482560585275184
2436.0,0.0024388843664115978
2435.0,0.0024388843664115978
2434.0,0.002395212539545666
2433.0,0.0023078820582733695
2432.0,0.0023078820582733695
2431.0,0.0023078820582733695
2430.0,0.002351545103793873
2429.0,0.002351545103793873
2428.0,0.002351545103793873
2427.0,0.0023078820582733695
2426.0,0.0022642234021015284
2425.0,0.0022642234021015284
2424.0,0.0022642234021015284
2423.0,0.0022205691343961664
2422.0,0.0022205691343961664
2421.0,0.0022205691343961664
2420.0,0.0022642234021015284
2419.0,0.0023078820582733695
2418.0,0.002395212539545666
2417.0,0.0024388843664115978
2416.0,0.0025262411970197185
2415.0,0.0025262411970197185
2414.0,0.0025262411970197185
2413.0,0.0025262411970197185
2412.0,0.002482560585275184
2411.0,0.0024388843664115978
2410.0,0.002351545103793873
2409.0,0.0023078820582733695
2408.0,0.0023078820582733695
2407.0,0.0023078820582733695
2406.0,0.002351545103793873
2405.0,0.002351545103793873
2404.0,0.002395212539545666
2403.0,0.002395212539545666
2402.0,0.002395212539545666
2401.0,0.002395212539545666
2400.0,0.002395212539545666
2399.0,0.002395212539545666
2398.0,0.0024388843664115978
2397.0,0.002482560585275184
2396.0,0.002482560585275184
2395.0,0.002482560585275184
2394.0,0.002395212539545666
2393.0,0.0023078820582733695
2392.0,0.0022205691343961664
2391.0,0.0022642234021015284
2390.0,0.0022642234021015284
2389.0,0.0022205691343961664
2388.0,0.0021332737608552588
2387.0,0.0020023635919956817
2386.0,0.0018714928717336043
2385.0,0.0017842676290416026
2384.0,0.0018278780605593958
2383.0,0.001915112063444413
2382.0,0.0020023635919956817
2381.0,0.0021332737608552588
2380.0,0.0022205691343961664
2379.0,0.0023078820582733695
2378.0,0.002395212539545666
2377.0,0.0024388843664115978
2376.0,0.002482560585275184
2375.0,0.002482560585275184
2374.0,0.002395212539545666
2373.0,0.0022642234021015284
2372.0,0.0021332737608552588
2371.0,0.0020459959305969555
2370.0,0.002089632653256679
2369.0,0.0022205691343961664
2368.0,0.0024388843664115978
2367.0,0.002613615602686581
2366.0,0.002569926202528716
2365.0,0.0022642234021015284
2364.0,0.002089632653256679
2363.0,0.002351545103793873
2362.0,0.0028758443407954637
2361.0,0.0031819781204844855
2360.0,0.0028321285541661467
2359.0,0.0021769192542746563
2358.0,0.0017406615763013722
2357.0,0.001915112063444413
2356.0,0.002482560585275184
2355.0,0.003050751504618754
2354.0,0.0033132443998284966
2353.0,0.0032257291386954545
2352.0,0.0028321285541661467
2351.0,0.002351545103793873
2350.0,0.0021769192542746563
2349.0,0.0024388843664115978
2348.0,0.0030070181092942683
2347.0,0.0034445503666347133
2346.0,0.0034445503666347133
2345.0,0.003050751504618754
2344.0,0.002482560585275184
2343.0,0.0020459959305969555
2342.0,0.001915112063444413
2341.0,0.0019587356365717845
2340.0,0.0019587356365717845
2339.0,0.0016970599014589638
2338.0,0.0015226969634936083
2337.0,0.0017842676290416026
2336.0,0.002351545103793873
2335.0,0.0029195645282691363
2334.0,0.0032257291386954545
2333.0,0.0032257291386954545
2332.0,0.0028758443407954637
2331.0,0.002395212539545666
2330.0,0.0020023635919956817
2329.0,0.0019587356365717845
2328.0,0.0021332737608552588
2327.0,0.0022205691343961664
2326.0,0.0021769192542746563
2325.0,0.0020023635919956817
2324.0,0.0018714928717336043
2323.0,0.0018278780605593958
2322.0,0.0018714928717336043
2321.0,0.001915112063444413
2320.0,0.001915112063444413
2319.0,0.0018714928717336043
2318.0,0.0016970599014589638
2317.0,0.001609869681952425
2316.0,0.0015226969634936083
2315.0,0.0015662811355310335
2314.0,0.0015226969634936083
2313.0,0.0015226969634936083
2312.0,0.0015226969634936083
2311.0,0.001609869681952425
2310.0,0.0017406615763013722
2309.0,0.0018714928717336043
2308.0,0.001915112063444413
2307.0,0.001915112063444413
2306.0,0.0018714928717336043
2305.0,0.0018278780605593958
2304.0,0.0018278780605593958
2303.0,0.0018714928717336043
2302.0,0.0018714928717336043
2301.0,0.0018714928717336043
2300.0,0.0018714928717336043
2299.0,0.001915112063444413
2298.0,0.0020023635919956817
2297.0,0.0021332737608552588
2296.0,0.0022642234021015284
2295.0,0.002351545103793873
2294.0,0.002395212539545666
2293.0,0.002395212539545666
2292.0,0.002395212539545666
2291.0,0.002395212539545666
2290.0,0.002395212539545666
2289.0,0.0023078820582733695
2288.0,0.0022205691343961664
2287.0,0.0021332737608552588
2286.0,0.0020459959305969555
2285.0,0.0020023635919956817
2284.0,0.0019587356365717845
2283.0,0.001915112063444413
2282.0,0.001915112063444413
2281.0,0.0019587356365717845
2280.0,0.0019587356365717845
2279.0,0.0019587356365717845
2278.0,0.0020023635919956817
2277.0,0.0020459959305969555
2276.0,0.002089632653256679
2275.0,0.0021769192542746563
2274.0,0.0021769192542746563
2273.0,0.0021769192542746563
2272.0,0.002089632653256679
2271.0,0.0020023635919956817
2270.0,0.0020023635919956817
2269.0,0.0020459959305969555
2268.0,0.0021769192542746563
2267.0,0.0022642234021015284
2266.0,0.0022642234021015284
2265.0,0.0022205691343961664
2264.0,0.0021332737608552588
2263.0,0.0020459959305969555
2262.0,0.0020459959305969555
2261.0,0.002089632653256679
2260.0,0.002089632653256679
2259.0,0.0020459959305969555
2258.0,0.0020023635919956817
2257.0,0.0020023635919956817
2256.0,0.0020459959305969555
2255.0,0.0021332737608552588
2254.0,0.0022205691343961664
2253.0,0.0022205691343961664
2252.0,0.0021769192542746563
2251.0,0.0021332737608552588
2250.0,0.002089632653256679
2249.0,0.0020459959305969555
2248.0,0.0020459959305969555
2247.0,0.002089632653256679
2246.0,0.0021332737608552588
2245.0,0.0021769192542746563
2244.0,0.0021769192542746563
2243.0,0.0021332737608552588
2242.0,0.002089632653256679
2241.0,0.002089632653256679
2240.0,0.002089632653256679
2239.0,0.002089632653256679
2238.0,0.002089632653256679
2237.0,0.0020459959305969555
2236.0,0.0020459959305969555
2235.0,0.0020459959305969555
2234.0,0.002089632653256679
2233.0,0.002089632653256679
2232.0,0.002089632653256679
2231.0,0.0021332737608552588
2230.0,0.0021332737608552588
2229.0,0.0021769192542746563
2228.0,0.0021332737608552588
2227.0,0.0021332737608552588
2226.0,0.0021332737608552588
2225.0,0.0021769192542746563
2224.0,0.0021769192542746563
2223.0,0.0022205691343961664
2222.0,0.0021769192542746563
2221.0,0.0021769192542746563
2220.0,0.0021332737608552588
2219.0,0.002089632653256679
2218.0,0.002089632653256679
2217.0,0.002089632653256679
2216.0,0.002089632653256679
2215.0,0.002089632653256679
2214.0,0.0020459959305969555
2213.0,0.0020459959305969555
2212.0,0.0020459959305969555
2211.0,0.002089632653256679
2210.0,0.0021332737608552588
2209.0,0.002089632653256679
2208.0,0.0020459959305969555
2207.0,0.0020459959305969555
2206.0,0.0020459959305969555
2205.0,0.0020459959305969555
2204.0,0.0020459959305969555
2203.0,0.0020459959305969555
2202.0,0.0020459959305969555
2201.0,0.0020023635919956817
2200.0,0.0020023635919956817
2199.0,0.0019587356365717845
2198.0,0.001915112063444413
2197.0,0.0018278780605593958
2196.0,0.0018278780605593958
2195.0,0.0018278780605593958
2194.0,0.001915112063444413
2193.0,0.0020023635919956817
2192.0,0.0020459959305969555
2191.0,0.0020459959305969555
2190.0,0.0020023635919956817
2189.0,0.0020023635919956817
2188.0,0.0019587356365717845
2187.0,0.0019587356365717845
2186.0,0.0019587356365717845
2185.0,0.001915112063444413
2184.0,0.0019587356365717845
2183.0,0.0020023635919956817
2182.0,0.0020459959305969555
2181.0,0.0020459959305969555
2180.0,0.0020023635919956817
2179.0,0.0019587356365717845
2178.0,0.0019587356365717845
2177.0,0.0019587356365717845
2176.0,0.0020023635919956817
2175.0,0.0020023635919956817
2174.0,0.0019587356365717845
2173.0,0.0019587356365717845
2172.0,0.001915112063444413
2171.0,0.001915112063444413
2170.0,0.001915112063444413
2169.0,0.001915112063444413
2168.0,0.0018714928717336043
2167.0,0.0018278780605593958
2166.0,0.0018278780605593958
2165.0,0.0018714928717336043
2164.0,0.001915112063444413
2163.0,0.0018714928717336043
2162.0,0.0017842676290416026
2161.0,0.0017406615763013722
2160.0,0.0016970599014589638
2159.0,0.0016970599014589638
2158.0,0.0017406615763013722
2157.0,0.0017842676290416026
2156.0,0.001915112063444413
2155.0,0.0019587356365717845
2154.0,0.0020023635919956817
2153.0,0.0020459959305969555
2152.0,0.0020459959305969555
2151.0,0.0020459959305969555
2150.0,0.0020459959305969555
2149.0,0.0020023635919956817
2148.0,0.0020023635919956817
2147.0,0.0020023635919956817
2146.0,0.0020023635919956817
2145.0,0.0020459959305969555
2144.0,0.0020459959305969555
2143.0,0.0020459959305969555
2142.0,0.0020023635919956817
2141.0,0.0019587356365717845
2140.0,0.001915112063444413
2139.0,0.001915112063444413
2138.0,0.0018714928717336043
2137.0,0.0018714928717336043
2136.0,0.0018714928717336043
2135.0,0.0018714928717336043
2134.0,0.0018714928717336043
2133.0,0.0018714928717336043
2132.0,0.001915112063444413
2131.0,0.0019587356365717845
2130.0,0.0019587356365717845
2129.0,0.001915112063444413
2128.0,0.0018278780605593958
2127.0,0.0017842676290416026
2126.0,0.0017842676290416026
2125.0,0.0018278780605593958
2124.0,0.0018714928717336043
2123.0,0.001915112063444413
2122.0,0.001915112063444413
2121.0,0.001915112063444413
2120.0,0.001915112063444413
2119.0,0.001915112063444413
2118.0,0.0019587356365717845
2117.0,0.0020023635919956817
2116.0,0.0020023635919956817
2115.0,0.0020023635919956817
2114.0,0.0019587356365717845
2113.0,0.0019587356365717845
2112.0,0.001915112063444413
2111.0,0.001915112063444413
2110.0,0.001915112063444413
2109.0,0.0019587356365717845
2108.0,0.0020023635919956817
2107.0,0.0020023635919956817
2106.0,0.0019587356365717845
2105.0,0.0018714928717336043
2104.0,0.0018714928717336043
2103.0,0.001915112063444413
2102.0,0.0020023635919956817
2101.0,0.0021332737608552588
2100.0,0.0021769192542746563
2099.0,0.0021332737608552588
2098.0,0.002089632653256679
2097.0,0.0020459959305969555
2096.0,0.0020023635919956817
2095.0,0.001915112063444413
2094.0,0.0018714928717336043
2093.0,0.0017842676290416026
2092.0,0.0017406615763013722
2091.0,0.0017406615763013722
2090.0,0.0017406615763013722
2089.0,0.0017406615763013722
2088.0,0.0018278780605593958
2087.0,0.0018714928717336043
2086.0,0.001915112063444413
2085.0,0.0019587356365717845
2084.0,0.0020023635919956817
2083.0,0.0020023635919956817
2082.0,0.0020023635919956817
2081.0,0.001915112063444413
2080.0,0.0018714928717336043
2079.0,0.0018278780605593958
2078.0,0.0017842676290416026
2077.0,0.0017842676290416026
2076.0,0.0017406615763013722
2075.0,0.0017842676290416026
2074.0,0.0018278780605593958
2073.0,0.0018714928717336043
2072.0,0.001915112063444413
2071.0,0.001915112063444413
2070.0,0.0018714928717336043
2069.0,0.0017842676290416026
2068.0,0.0017406615763013722
2067.0,0.0016534626036355249
2066.0,0.0016970599014589638
2065.0,0.0017406615763013722
2064.0,0.0018714928717336043
2063.0,0.001915112063444413
2062.0,0.001915112063444413
2061.0,0.0018714928717336043
2060.0,0.0018714928717336043
2059.0,0.0018714928717336043
2058.0,0.0018278780605593958
2057.0,0.0018278780605593958
2056.0,0.0018278780605593958
2055.0,0.0017842676290416026
2054.0,0.0017842676290416026
2053.0,0.0018278780605593958
2052.0,0.0018714928717336043
2051.0,0.001915112063444413
2050.0,0.001915112063444413
2049.0,0.0019587356365717845
2048.0,0.001915112063444413
2047.0,0.0018714928717336043
2046.0,0.0017842676290416026
2045.0,0.0017406615763013722
2044.0,0.0016970599014589638
2043.0,0.0016970599014589638
2042.0,0.0016970599014589638
2041.0,0.0016534626036355249
2040.0,0.0016534626036355249
2039.0,0.0015662811355310335
2038.0,0.0014791171649619628
2037.0,0.0014355417390583547
2036.0,0.0014791171649619628
2035.0,0.0015226969634936083
2034.0,0.0015662811355310335
2033.0,0.0015662811355310335
2032.0,0.0015226969634936083
2031.0,0.0015226969634936083
2030.0,0.001609869681952425
2029.0,0.0016970599014589638
2028.0,0.0017842676290416026
2027.0,0.0017406615763013722
2026.0,0.0016970599014589638
2025.0,0.0016534626036355249
2024.0,0.001609869681952425
2023.0,0.0015662811355310335
2022.0,0.0015226969634936083
2021.0,0.0014791171649619628
2020.0,0.0014791171649619628
2019.0,0.0014791171649619628
2018.0,0.0015226969634936083
2017.0,0.001609869681952425
2016.0,0.0016970599014589638
2015.0,0.0017406615763013722
2014.0,0.0016970599014589638
2013.0,0.001609869681952425
2012.0,0.0015662811355310335
2011.0,0.0014791171649619628
2010.0,0.0014791171649619628
2009.0,0.0015226969634936083
2008.0,0.0016534626036355249
2007.0,0.0016970599014589638
2006.0,0.0016970599014589638
2005.0,0.0016534626036355249
2004.0,0.001609869681952425
2003.0,0.001609869681952425
2002.0,0.001609869681952425
2001.0,0.0016534626036355249
2000.0,0.0016534626036355249
1999.0,0.0016534626036355249
1998.0,0.0016534626036355249
1997.0,0.0016970599014589638
1996.0,0.0017406615763013722
1995.0,0.0017406615763013722
1994.0,0.0016970599014589638
1993.0,0.001609869681952425
1992.0,0.0015662811355310335
1991.0,0.0015662811355310335
1990.0,0.001609869681952425
1989.0,0.0016534626036355249
1988.0,0.001609869681952425
1987.0,0.0015662811355310335
1986.0,0.0015226969634936083
1985.0,0.0014791171649619628
1984.0,0.0015226969634936083
1983.0,0.0015226969634936083
1982.0,0.0015226969634936083
1981.0,0.0014791171649619628
1980.0,0.0014791171649619628
1979.0,0.0014791171649619628
1978.0,0.0014791171649619628
1977.0,0.0015226969634936083
1976.0,0.0015662811355310335
1975.0,0.0015662811355310335
1974.0,0.0015662811355310335
1973.0,0.0015662811355310335
1972.0,0.001609869681952425
1971.0,0.001609869681952425
1970.0,0.001609869681952425
1969.0,0.001609869681952425
1968.0,0.0015662811355310335
1967.0,0.0015662811355310335
1966.0,0.0015226969634936083
1965.0,0.0015226969634936083
1964.0,0.0015226969634936083
1963.0,0.0014791171649619628
1962.0,0.0014355417390583547
1961.0,0.0013919706849057079
1960.0,0.0013919706849057079
1959.0,0.0013919706849057079
1958.0,0.0013919706849057079
1957.0,0.0014355417390583547
1956.0,0.0014791171649619628
1955.0,0.0014791171649619628
1954.0,0.0014791171649619628
1953.0,0.0014355417390583547
1952.0,0.0014355417390583547
1951.0,0.0013919706849057079
1950.0,0.0013919706849057079
1949.0,0.0013919706849057079
1948.0,0.001348404001626502
1947.0,0.001304841688344327
1946.0,0.001304841688344327
1945.0,0.001348404001626502
1944.0,0.001348404001626502
1943.0,0.001304841688344327
1942.0,0.001348404001626502
1941.0,0.001348404001626502
1940.0,0.0013919706849057079
1939.0,0.0014355417390583547
1938.0,0.0013919706849057079
1937.0,0.001348404001626502
1936.0,0.001348404001626502
1935.0,0.001348404001626502
1934.0,0.0013919706849057079
1933.0,0.0013919706849057079
1932.0,0.0013919706849057079
1931.0,0.001304841688344327
1930.0,0.0012177301682640973
1929.0,0.0011306361176557367
1928.0,0.0010435595295137379
1927.0,0.0010435595295137379
1926.0,0.0010435595295137379
1925.0,0.0010870956412141197
1924.0,0.0010870956412141197
1923.0,0.0010870956412141197
1922.0,0.0010870956412141197
1921.0,0.0011306361176557367
1920.0,0.0011741809597138886
1919.0,0.0011741809597138886
1918.0,0.0011741809597138886
1917.0,0.0011741809597138886
1916.0,0.0011741809597138886
1915.0,0.0011741809597138886
1914.0,0.0011306361176557367
1913.0,0.0011306361176557367
1912.0,0.0011306361176557367
1911.0,0.0011306361176557367
1910.0,0.0010870956412141197
1909.0,0.0010870956412141197
1908.0,0.0010870956412141197
1907.0,0.0010870956412141197
1906.0,0.0010870956412141197
1905.0,0.0010435595295137379
1904.0,0.0010435595295137379
1903.0,0.0010435595295137379
1902.0,0.0010435595295137379
1901.0,0.0010000277816797354
1900.0,0.0010000277816797354
1899.0,0.0010000277816797354
1898.0,0.0010000277816797354
1897.0,0.0009565003968372565
1896.0,0.000869458712629001
1895.0,0.0008259444115150671
1894.0,0.0007824344698965646
1893.0,0.0007824344698965646
1892.0,0.0008259444115150671
1891.0,0.000869458712629001
1890.0,0.0009129773741116676
1889.0,0.0009565003968372565
1888.0,0.0009565003968372565
1887.0,0.0009129773741116676
1886.0,0.0009129773741116676
1885.0,0.000869458712629001
1884.0,0.000869458712629001
1883.0,0.0008259444115150671
1882.0,0.0008259444115150671
1881.0,0.0008259444115150671
1880.0,0.000869458712629001
1879.0,0.000869458712629001
1878.0,0.0009129773741116676
1877.0,0.0009129773741116676
1876.0,0.0009129773741116676
1875.0,0.0008259444115150671
1874.0,0.0007824344698965646
1873.0,0.0007824344698965646
1872.0,0.000869458712629001
1871.0,0.0009129773741116676
1870.0,0.0009129773741116676
1869.0,0.000869458712629001
1868.0,0.0008259444115150671
1867.0,0.0008259444115150671
1866.0,0.0007824344698965646
1865.0,0.0007389288868995258
1864.0,0.0007389288868995258
1863.0,0.0007389288868995258
1862.0,0.0007389288868995258
1861.0,0.0007389288868995258
1860.0,0.0006954276616513155
1859.0,0.0006084382809090627
1858.0,0.0005649501236701937
1857.0,0.000521466320689834
1856.0,0.0005649501236701937
1855.0,0.0005649501236701937
1854.0,0.0005649501236701937
1853.0,0.0006084382809090627
1852.0,0.0006519307932786322
1851.0,0.0007389288868995258
1850.0,0.0008259444115150671
1849.0,0.0009129773741116676
1848.0,0.0009129773741116676
1847.0,0.000869458712629001
1846.0,0.0008259444115150671
1845.0,0.0007824344698965646
1844.0,0.0007389288868995258
1843.0,0.0006954276616513155
1842.0,0.0006519307932786322
1841.0,0.0006084382809090627
1840.0,0.0006084382809090627
1839.0,0.0006084382809090627
1838.0,0.0006954276616513155
1837.0,0.0007389288868995258
1836.0,0.0007824344698965646
1835.0,0.0007389288868995258
1834.0,0.0007389288868995258
1833.0,0.0007824344698965646
1832.0,0.0008259444115150671
1831.0,0.0008259444115150671
1830.0,0.0007389288868995258
1829.0,0.0006954276616513155
1828.0,0.0006954276616513155
1827.0,0.0007389288868995258
1826.0,0.0007824344698965646
1825.0,0.0008259444115150671
1824.0,0.0008259444115150671
1823.0,0.0008259444115150671
1822.0,0.0008259444115150671
1821.0,0.0007824344698965646
1820.0,0.0007389288868995258
1819.0,0.0006954276616513155
1818.0,0.0006519307932786322
1817.0,0.0006084382809090627
1816.0,0.0006084382809090627
1815.0,0.0005649501236701937
1814.0,0.0005649501236701937
1813.0,0.0006084382809090627
1812.0,0.0006519307932786322
1811.0,0.0006954276616513155
1810.0,0.0006954276616513155
1809.0,0.0006954276616513155
1808.0,0.0006954276616513155
1807.0,0.0007389288868995258
1806.0,0.0006954276616513155
1805.0,0.0006519307932786322
1804.0,0.0006519307932786322
1803.0,0.0006519307932786322
1802.0,0.0006519307932786322
1801.0,0.0006519307932786322
1800.0,0.0006954276616513155
1799.0,0.0007389288868995258
1798.0,0.000869458712629001
1797.0,0.0010870956412141197
1796.0,0.0012612837441823288
1795.0,0.0013919706849057079
1794.0,0.0013919706849057079
1793.0,0.0013919706849057079
1792.0,0.0015226969634936083
1791.0,0.0017842676290416026
1790.0,0.0020459959305969555
1789.0,0.002351545103793873
1788.0,0.002701007590486082
1787.0,0.0030944893043338695
1786.0,0.0035321097382827737
1785.0,0.004101676353562844
1784.0,0.004671990922590297
1783.0,0.005199100705396198
1782.0,0.00577085918230158
1781.0,0.006387442061109638
1780.0,0.007049039429553483
1779.0,0.00762324020119709
1778.0,0.008065450281052211
1777.0,0.008463824699968647
1776.0,0.008951223547323472
1775.0,0.009483555971770974
1774.0,0.01001654169860089
1773.0,0.01077272626946324
1772.0,0.011753276624621556
1771.0,0.012557195064198723
1770.0,0.013138729709955221
1769.0,0.013765869865004277
1768.0,0.014573525916998342
1767.0,0.01547268665620738
1766.0,0.01632861713980338
1765.0,0.017095882207371904
1764.0,0.017909760704207134
1763.0,0.019042683770379876
1762.0,0.02045162529590483
1761.0,0.021865152601710403
1760.0,0.02300845469384938
1759.0,0.023925268380126097
1758.0,0.024936003904763915
1757.0,0.02613355016462182
1756.0,0.027195677663422346
1755.0,0.027797161620935595
1754.0,0.028075050815808744
1753.0,0.02839947976994095
1752.0,0.028956208163971375
1751.0,0.029746130405213123
1750.0,0.030490901403433135
1749.0,0.03105031901865729
1748.0,0.03133029827960798
1747.0,0.03137697904301118
1746.0,0.031143625385307683
1745.0,0.030863766403287585
1744.0,0.030490901403433135
1743.0,0.029978734171634214
1742.0,0.029281296279810798
1741.0,0.02849221828874393
1740.0,0.0277045713888604
1739.0,0.02691835039863255
1738.0,0.026041313893296225
1737.0,0.02498200236711723
1736.0,0.023787622882622816
1735.0,0.02255077261765881
1734.0,0.021636852916117055
1733.0,0.021043834782408455
1732.0,0.020406104151069693
1731.0,0.01958753839310856
1730.0,0.018770512579999288
1729.0,0.01800028587012159
1728.0,0.017321806616515723
1727.0,0.016734647433454652
1726.0,0.016238439713835096
1725.0,0.01578783323856614
1724.0,0.015337693809893471
1723.0,0.014977917890464765
1722.0,0.014618439768003144
1721.0,0.014259258949925524
1720.0,0.01381070026317599
1719.0,0.013362604389846044
1718.0,0.013093968619278806
1717.0,0.012959713020733288
1716.0,0.012736045877764557
1715.0,0.012333735073725371
1714.0,0.012021084124518078
1713.0,0.011708658092512314
1712.0,0.011441043121384498
1711.0,0.011129033935354915
1710.0,0.010906307389674463
1709.0,0.010683695010048622
1708.0,0.01046119667949763
1707.0,0.01023881228122181
1706.0,0.009972101229705377
1705.0,0.00974996707218323
1704.0,0.00939478857608056
1703.0,0.008995559669244813
1702.0,0.008552401996197112
1701.0,0.008286724286910463
1700.0,0.008242460465651913
1699.0,0.008198201155356077
1698.0,0.008153946355103248
1697.0,0.008109696063975047
1696.0,0.008109696063975047
1695.0,0.008065450281052211
1694.0,0.007932739972333236
1693.0,0.007800070204414977
1692.0,0.00762324020119709
1691.0,0.007490664932224611
1690.0,0.007402303897961815
1689.0,0.007313960837872058
1688.0,0.007225635744644521
1687.0,0.007137328610972382
1686.0,0.007004901568658406
1685.0,0.00696076819309055
1684.0,0.007004901568658406
1683.0,0.007004901568658406
1682.0,0.006828394969235152
1681.0,0.006651960076740071
1680.0,0.006519680930003435
1679.0,0.006431517210272464
1678.0,0.006343371384537999
1677.0,0.00625524344553785
1676.0,0.006167133386013823
1675.0,0.00612308505878878
1674.0,0.006079041198713275
1673.0,0.006079041198713275
1672.0,0.006079041198713275
1671.0,0.00612308505878878
1670.0,0.00621118618129457
1669.0,0.006167133386013823
1668.0,0.005990966876386672
1667.0,0.005814871797682919
1666.0,0.005682847330363394
1665.0,0.005594853310833647
1664.0,0.005550862985963967
1663.0,0.005462895701502157
1662.0,0.00537494623139545
1661.0,0.005330978174470591
1660.0,0.005243055412371911
1659.0,0.005199100705396198
1658.0,0.005199100705396198
1657.0,0.005155150446602086
1656.0,0.005111204635089406
1655.0,0.004979393875242044
1654.0,0.004803708402820517
1653.0,0.004803708402820517
1652.0,0.004935465843858511
1651.0,0.004935465843858511
1650.0,0.004935465843858511
1649.0,0.004803708402820517
1648.0,0.00458420145758498
1647.0,0.004408675747646695
1646.0,0.004408675747646695
1645.0,0.004452550524862486
1644.0,0.004452550524862486
1643.0,0.0044964297349936455
1642.0,0.004540313378935901
1641.0,0.004628093971837721
1640.0,0.004715892310740433
1639.0,0.004759798137184523
1638.0,0.004759798137184523
1637.0,0.004715892310740433
1636.0,0.004671990922590297
1635.0,0.004671990922590297
1634.0,0.004540313378935901
1633.0,0.0043648054024501
1632.0,0.004233220950025984
1631.0,0.004189368323957332
1630.0,0.004145520125434121
1629.0,0.004189368323957332
1628.0,0.004233220950025984
1627.0,0.004233220950025984
1626.0,0.004189368323957332
1625.0,0.004101676353562844
1624.0,0.0040578370074493275
1623.0,0.0040578370074493275
1622.0,0.004101676353562844
1621.0,0.004101676353562844
1620.0,0.0040578370074493275
1619.0,0.0040578370074493275
1618.0,0.004101676353562844
1617.0,0.004101676353562844
1616.0,0.004101676353562844
1615.0,0.004101676353562844
1614.0,0.0040578370074493275
1613.0,0.003970171588923321
1612.0,0.0038825238627120395
1611.0,0.003794893821675638
1610.0,0.0037510854308679953
1609.0,0.0037510854308679953
1608.0,0.003794893821675638
1607.0,0.0038387066319929275
1606.0,0.0038387066319929275
1605.0,0.0038387066319929275
1604.0,0.0037510854308679953
1603.0,0.0036634819042162814
1602.0,0.0035321097382827737
1601.0,0.003488327845821315
1600.0,0.0034445503666347133
1599.0,0.0034007772998332353
1598.0,0.0034445503666347133
1597.0,0.0034445503666347133
1596.0,0.0034445503666347133
1595.0,0.003488327845821315
1594.0,0.0035321097382827737
1593.0,0.003488327845821315
1592.0,0.0034007772998332353
1591.0,0.0032694845648473247
1590.0,0.0032257291386954545
1589.0,0.0032257291386954545
1588.0,0.0032694845648473247
1587.0,0.0032694845648473247
1586.0,0.0033132443998284966
1585.0,0.0033132443998284966
1584.0,0.0032694845648473247
1583.0,0.0032694845648473247
1582.0,0.0032257291386954545
1581.0,0.0031819781204844855
1580.0,0.0031382315093266833
1579.0,0.0030944893043338695
1578.0,0.0031382315093266833
1577.0,0.0032257291386954545
1576.0,0.0032694845648473247
1575.0,0.0032257291386954545
1574.0,0.0031819781204844855
1573.0,0.0031382315093266833
1572.0,0.0030944893043338695
1571.0,0.0030070181092942683
1570.0,0.0029195645282691363
1569.0,0.0029195645282691363
1568.0,0.0030070181092942683
1567.0,0.003050751504618754
1566.0,0.0030944893043338695
1565.0,0.0030944893043338695
1564.0,0.003050751504618754
1563.0,0.0030944893043338695
1562.0,0.0032694845648473247
1561.0,0.0034445503666347133
1560.0,0.003488327845821315
1559.0,0.0032694845648473247
1558.0,0.0031382315093266833
1557.0,0.0030070181092942683
1556.0,0.0029632891174733444
1555.0,0.0029632891174733444
1554.0,0.0029195645282691363
1553.0,0.0028758443407954637
1552.0,0.0028321285541661467
1551.0,0.0027884171674950053
1550.0,0.0027447101798967477
1549.0,0.002701007590486082
1548.0,0.002613615602686581
1547.0,0.002613615602686581
1546.0,0.002613615602686581
1545.0,0.002569926202528716
1544.0,0.002482560585275184
1543.0,0.0024388843664115978
1542.0,0.002482560585275184
1541.0,0.002701007590486082
1540.0,0.0028758443407954637
1539.0,0.0028321285541661467
1538.0,0.002701007590486082
1537.0,0.0026573093983774942
1536.0,0.0026573093983774942
1535.0,0.002613615602686581
1534.0,0.0025262411970197185
1533.0,0.0025262411970197185
1532.0,0.002569926202528716
1531.0,0.002569926202528716
1530.0,0.0025262411970197185
1529.0,0.0024388843664115978
1528.0,0.002395212539545666
1527.0,0.0024388843664115978
1526.0,0.0024388843664115978
1525.0,0.002482560585275184
1524.0,0.0024388843664115978
1523.0,0.002351545103793873
1522.0,0.0022642234021015284
1521.0,0.0023078820582733695
1520.0,0.0024388843664115978
1519.0,0.0025262411970197185
1518.0,0.002569926202528716
1517.0,0.0025262411970197185
1516.0,0.002482560585275184
1515.0,0.0024388843664115978
1514.0,0.0024388843664115978
1513.0,0.0024388843664115978
1512.0,0.0024388843664115978
1511.0,0.002395212539545666
1510.0,0.002395212539545666
1509.0,0.002351545103793873
1508.0,0.0022642234021015284
1507.0,0.0022205691343961664
1506.0,0.0022205691343961664
1505.0,0.0022205691343961664
1504.0,0.0022205691343961664
1503.0,0.0022205691343961664
1502.0,0.0022205691343961664
1501.0,0.0022205691343961664
1500.0,0.0021769192542746563
1499.0,0.0020459959305969555
1498.0,0.001915112063444413
1497.0,0.0018278780605593958
1496.0,0.0018714928717336043
1495.0,0.0019587356365717845
1494.0,0.0020023635919956817
1493.0,0.0020459959305969555
1492.0,0.002089632653256679
1491.0,0.0021332737608552588
1490.0,0.0021769192542746563
1489.0,0.0022205691343961664
1488.0,0.0022642234021015284
1487.0,0.0021769192542746563
1486.0,0.0020459959305969555
1485.0,0.001915112063444413
1484.0,0.0018278780605593958
1483.0,0.0017842676290416026
1482.0,0.0017406615763013722
1481.0,0.0017842676290416026
1480.0,0.0018278780605593958
1479.0,0.0018278780605593958
1478.0,0.0018714928717336043
1477.0,0.0019587356365717845
1476.0,0.0020023635919956817
1475.0,0.0020023635919956817
1474.0,0.001915112063444413
1473.0,0.001915112063444413
1472.0,0.0021332737608552588
1471.0,0.0024388843664115978
1470.0,0.002701007590486082
1469.0,0.003050751504618754
1468.0,0.0034007772998332353
1467.0,0.003794893821675638
1466.0,0.0043648054024501
1465.0,0.005111204635089406
1464.0,0.005858888873877532
1463.0,0.006475596832934416
1462.0,0.006916639301937977
1461.0,0.007313960837872058
1460.0,0.007667440952535687
1459.0,0.008153946355103248
1458.0,0.008951223547323472
1457.0,0.010105436281226954
1456.0,0.01086177578421088
1455.0,0.011084479487313281
1454.0,0.01117359295472431
1453.0,0.011262724711199823
1452.0,0.011307297450183107
1451.0,0.011307297450183107
1450.0,0.011262724711199823
1449.0,0.011262724711199823
1448.0,0.011218156546359825
1447.0,0.010995384301463185
1446.0,0.010639186223752484
1445.0,0.010105436281226954
1444.0,0.009527946474380489
1443.0,0.008862564879688284
1442.0,0.008242460465651913
1441.0,0.0075790439479759275
1440.0,0.007049039429553483
1439.0,0.006607862550997545
1438.0,0.006167133386013823
1437.0,0.005550862985963967
1436.0,0.004979393875242044
1435.0,0.004540313378935901
1434.0,0.004277078004534696
1433.0,0.0040578370074493275
1432.0,0.0038387066319929275
1431.0,0.0036634819042162814
1430.0,0.0035321097382827737
1429.0,0.0034445503666347133
1428.0,0.0033132443998284966
1427.0,0.0032257291386954545
1426.0,0.0030944893043338695
1425.0,0.0029632891174733444
1424.0,0.0027884171674950053
1423.0,0.0026573093983774942
1422.0,0.0025262411970197185
1421.0,0.002395212539545666
1420.0,0.0023078820582733695
1419.0,0.0021769192542746563
1418.0,0.002089632653256679
1417.0,0.0020023635919956817
1416.0,0.0019587356365717845
1415.0,0.0018714928717336043
1414.0,0.0017842676290416026
1413.0,0.0016970599014589638
1412.0,0.001609869681952425
1411.0,0.0015662811355310335
1410.0,0.0015226969634936083
1409.0,0.0014791171649619628
1408.0,0.0013919706849057079
1407.0,0.001348404001626502
1406.0,0.0012612837441823288
1405.0,0.0012612837441823288
1404.0,0.001304841688344327
1403.0,0.0013919706849057079
1402.0,0.0015226969634936083
1401.0,0.0016534626036355249
1400.0,0.0017842676290416026
1399.0,0.0020023635919956817
1398.0,0.0022205691343961664
1397.0,0.002395212539545666
1396.0,0.0026573093983774942
1395.0,0.0030070181092942683
1394.0,0.0035321097382827737
1393.0,0.0040578370074493275
1392.0,0.00458420145758498
1391.0,0.005111204635089406
1390.0,0.005682847330363394
1389.0,0.00625524344553785
1388.0,0.006916639301937977
1387.0,0.0075790439479759275
1386.0,0.008153946355103248
1385.0,0.00850811108984062
1384.0,0.0087296108049002
1383.0,0.008951223547323472
1382.0,0.00908424549391551
1381.0,0.009172949432521227
1380.0,0.009128595198514056
1379.0,0.008995559669244813
1378.0,0.008773924307505121
1377.0,0.008463824699968647
1376.0,0.008153946355103248
1375.0,0.007976972236149349
1374.0,0.007888512213050314
1373.0,0.008021209005416363
1372.0,0.008198201155356077
1371.0,0.008463824699968647
1370.0,0.008818242332126802
1369.0,0.009172949432521227
1368.0,0.009483555971770974
1367.0,0.00966114521239847
1366.0,0.009794384815193347
1365.0,0.009838807101520963
1364.0,0.009927665307847056
1363.0,0.01001654169860089
1362.0,0.010149890396819572
1361.0,0.01023881228122181
1360.0,0.010283280051895272
1359.0,0.010327752376126709
1358.0,0.010327752376126709
1357.0,0.010327752376126709
1356.0,0.010327752376126709
1355.0,0.01023881228122181
1354.0,0.010105436281226954
1353.0,0.009927665307847056
1352.0,0.00974996707218323
1351.0,0.009572341514736404
1350.0,0.009350411681145587
1349.0,0.009128595198514056
1348.0,0.008906891951112605
1347.0,0.008685301823389224
1346.0,0.008419542825660153
1345.0,0.008198201155356077
1344.0,0.007976972236149349
1343.0,0.007800070204414977
1342.0,0.0075790439479759275
1341.0,0.007402303897961815
1340.0,0.007225635744644521
1339.0,0.007093181776687496
1338.0,0.007004901568658406
1337.0,0.006916639301937977
1336.0,0.006784279525863024
1335.0,0.006651960076740071
1334.0,0.006519680930003435
1333.0,0.006387442061109638
1332.0,0.006343371384537999
1331.0,0.00625524344553785
1330.0,0.00612308505878878
1329.0,0.005990966876386672
1328.0,0.005858888873877532
1327.0,0.00577085918230158
1326.0,0.005726851026829571
1325.0,0.005682847330363394
1324.0,0.005682847330363394
1323.0,0.005638848091999105
1322.0,0.005594853310833647
1321.0,0.005594853310833647
1320.0,0.005638848091999105
1319.0,0.005682847330363394
1318.0,0.005726851026829571
1317.0,0.005682847330363394
1316.0,0.005638848091999105
1315.0,0.005638848091999105
1314.0,0.005638848091999105
1313.0,0.005682847330363394
1312.0,0.005638848091999105
1311.0,0.005638848091999105
1310.0,0.005638848091999105
1309.0,0.005682847330363394
1308.0,0.005726851026829571
1307.0,0.005726851026829571
1306.0,0.005726851026829571
1305.0,0.005682847330363394
1304.0,0.005682847330363394
1303.0,0.005638848091999105
1302.0,0.005638848091999105
1301.0,0.005638848091999105
1300.0,0.005594853310833647
1299.0,0.005462895701502157
1298.0,0.005330978174470591
1297.0,0.005199100705396198
1296.0,0.005067263269958211
1295.0,0.004935465843858511
1294.0,0.004803708402820517
1293.0,0.004715892310740433
1292.0,0.00458420145758498
1291.0,0.0044964297349936455
1290.0,0.004452550524862486
1289.0,0.0044964297349936455
1288.0,0.00458420145758498
1287.0,0.004715892310740433
1286.0,0.00489154225525934
1285.0,0.005155150446602086
1284.0,0.00541891874010525
1283.0,0.005726851026829571
1282.0,0.00612308505878878
1281.0,0.006475596832934416
1280.0,0.006872514894289861
1279.0,0.007225635744644521
1278.0,0.007534852191956709
1277.0,0.007844288957383316
1276.0,0.008109696063975047
1275.0,0.008375265465994541
1274.0,0.008640997362049818
1273.0,0.008906891951112605
1272.0,0.009128595198514056
1271.0,0.009306039320248427
1270.0,0.00939478857608056
1269.0,0.009439170005980158
1268.0,0.009483555971770974
1267.0,0.009527946474380489
1266.0,0.009527946474380489
1265.0,0.009527946474380489
1264.0,0.009483555971770974
1263.0,0.00939478857608056
1262.0,0.009261671492462709
1261.0,0.00908424549391551
1260.0,0.008951223547323472
1259.0,0.008818242332126802
1258.0,0.008640997362049818
1257.0,0.008463824699968647
1256.0,0.008286724286910463
1255.0,0.008153946355103248
1254.0,0.007976972236149349
1253.0,0.007888512213050314
1252.0,0.007800070204414977
1251.0,0.007711646202907652
1250.0,0.007711646202907652
1249.0,0.007711646202907652
1248.0,0.007711646202907652
1247.0,0.007711646202907652
1246.0,0.007667440952535687
1245.0,0.00762324020119709
1244.0,0.00762324020119709
1243.0,0.00762324020119709
1242.0,0.00762324020119709
1241.0,0.007667440952535687
1240.0,0.007800070204414977
1239.0,0.007976972236149349
1238.0,0.008153946355103248
1237.0,0.008286724286910463
1236.0,0.008419542825660153
1235.0,0.008552401996197112
1234.0,0.0087296108049002
1233.0,0.008906891951112605
1232.0,0.009039900317800775
1231.0,0.009261671492462709
1230.0,0.009483555971770974
1229.0,0.009838807101520963
1228.0,0.010283280051895272
1227.0,0.010683695010048622
1226.0,0.011129033935354915
1225.0,0.011530229790124524
1224.0,0.012021084124518078
1223.0,0.012557195064198723
1222.0,0.013138729709955221
1221.0,0.01372104409400876
1220.0,0.014259258949925524
1219.0,0.014843078722943437
1218.0,0.015427684378367834
1217.0,0.016013078034810446
1216.0,0.01646391839700767
1215.0,0.016824927962187042
1214.0,0.017231422748988034
1213.0,0.017638298366853045
1212.0,0.018045555530026514
1211.0,0.018362575344230914
1210.0,0.018634490921455527
1209.0,0.018815862601645694
1208.0,0.01899731005860028
1207.0,0.0192242260373785
1206.0,0.01940584422377989
1205.0,0.01954210772389997
1204.0,0.019678413991243593
1203.0,0.019769308608968306
1202.0,0.01990568621470623
1201.0,0.02013307743509718
1200.0,0.020406104151069693
1199.0,0.02067930261797568
1198.0,0.021043834782408455
1197.0,0.02140867317992523
1196.0,0.021910826943857264
1195.0,0.022413561996148967
1194.0,0.02300845469384938
1193.0,0.023695883447997224
1192.0,0.024476287039668643
1191.0,0.025350165561278004
1190.0,0.026318081496016443
1189.0,0.02738066094037661
1188.0,0.028538594975413334
1187.0,0.029653123769906697
1186.0,0.030770520137356927
1185.0,0.03184406285002961
1184.0,0.03282657704446046
1183.0,0.03362357691107709
1182.0,0.03414006319292828
1181.0,0.03432802877989327
1180.0,0.03428102975577918
1179.0,0.03385826726096752
1178.0,0.03310770413286357
1177.0,0.03207779326948268
1176.0,0.0307239045110681
1175.0,0.029141943003497595
1174.0,0.02738066094037661
1173.0,0.02562649291857677
1172.0,0.023879381700184332
1171.0,0.022230681908425698
1170.0,0.02067930261797568
1169.0,0.0192242260373785
1168.0,0.017909760704207134
1167.0,0.016734647433454652
1166.0,0.015607721475734415
1165.0,0.014573525916998342
1164.0,0.013586594534531482
1163.0,0.012691326268817527
1162.0,0.011887159731648111
1161.0,0.01117359295472431
1160.0,0.010505687227290839
1159.0,0.009883233932095559
1158.0,0.009350411681145587
1157.0,0.008906891951112605
1156.0,0.008552401996197112
1155.0,0.008198201155356077
1154.0,0.007932739972333236
1153.0,0.007711646202907652
1152.0,0.00762324020119709
1151.0,0.007667440952535687
1150.0,0.007800070204414977
1149.0,0.008065450281052211
1148.0,0.00850811108984062
1147.0,0.00908424549391551
1146.0,0.009794384815193347
1145.0,0.010639186223752484
1144.0,0.011530229790124524
1143.0,0.012557195064198723
1142.0,0.01372104409400876
1141.0,0.014932966849499074
1140.0,0.016193358021584725
1139.0,0.017412209298337533
1138.0,0.01845319495476394
1137.0,0.019451260640229506
1136.0,0.020406104151069693
1135.0,0.021271822861508305
1134.0,0.02204787879853809
1133.0,0.022688026603074007
1132.0,0.023283295636617574
1131.0,0.023741750742954926
1130.0,0.024108863598207186
1129.0,0.024338466818941473
1128.0,0.024338466818941473
1127.0,0.024246610963712723
1126.0,0.024017056287453542
1125.0,0.023695883447997224
1124.0,0.023329119375188556
1123.0,0.022871099419317753
1122.0,0.022413561996148967
1121.0,0.021956506090037076
1120.0,0.021545566634771474
1119.0,0.02122621566987748
1118.0,0.0209982515252789
1117.0,0.020770406977844713
1116.0,0.02058821736556471
1115.0,0.02045162529590483
1114.0,0.020406104151069693
1113.0,0.020497151212598652
1112.0,0.020724852408976924
1111.0,0.021043834782408455
1110.0,0.021545566634771474
1109.0,0.0221849739168134
1108.0,0.02291687968414724
1107.0,0.02365002099672653
1106.0,0.02438440203310499
1105.0,0.02516604495145991
1104.0,0.026041313893296225
1103.0,0.02696455931306696
1102.0,0.027889771597169544
1101.0,0.028816959143838528
1100.0,0.029746130405213123
1099.0,0.03063068826647264
1098.0,0.03151705144606498
1097.0,0.03240522732811035
1096.0,0.03334211579824231
1095.0,0.03423403581731388
1094.0,0.03508070571335731
1093.0,0.03583468937826462
1092.0,0.03658998431977123
1091.0,0.037251946641359446
1090.0,0.03786753070176463
1089.0,0.03857890593355173
1088.0,0.039338992729018196
1087.0,0.0400527842915015
1086.0,0.04062466342415694
1085.0,0.04105406750606355
1084.0,0.041436116778032606
1083.0,0.04167506835594681
1082.0,0.04181850243505214
1081.0,0.04181850243505214
1080.0,0.04172287445230238
1079.0,0.04153168163305643
1078.0,0.041197296600497646
1077.0,0.04086316882962593
1076.0,0.040481623027001756
1075.0,0.03995754427315856
1074.0,0.03929144831144349
1073.0,0.038436537637930535
1072.0,0.037583306554248797
1071.0,0.036731748473764814
1070.0,0.03583468937826462
1069.0,0.0349394793888016
1068.0,0.033905220553829274
1067.0,0.03277974021703267
1066.0,0.031657169041054534
1065.0,0.03058408764601861
1064.0,0.029653123769906697
1063.0,0.02890978686288448
1062.0,0.02826040911222183
1061.0,0.027750864037404455
1060.0,0.027334407733889066
1059.0,0.027010773144651168
1058.0,0.02682594731702781
1057.0,0.02682594731702781
1056.0,0.02691835039863255
1055.0,0.027056991894431892
1054.0,0.027149444152769986
1053.0,0.027334407733889066
1052.0,0.027565723042634938
1051.0,0.027797161620935595
1050.0,0.028075050815808744
1049.0,0.028353117935693284
1048.0,0.028677754757187035
1047.0,0.02904906565457588
1046.0,0.02942069428514915
1045.0,0.029746130405213123
1044.0,0.030071810571884017
1043.0,0.030397735151460825
1042.0,0.03058408764601861
1041.0,0.0307239045110681
1040.0,0.03067729388779794
1039.0,0.030537492025363155
1038.0,0.03025802323714588
1037.0,0.029932203450862893
1036.0,0.029653123769906697
1035.0,0.02942069428514915
1034.0,0.029141943003497595
1033.0,0.02890978686288448
1032.0,0.02858497661500481
1031.0,0.028214062120885508
1030.0,0.027750864037404455
1029.0,0.02738066094037661
1028.0,0.02710321556345563
1027.0,0.026872146400301444
1026.0,0.026687379547098322
1025.0,0.026502691267936695
1024.0,0.026318081496016443
1023.0,0.026041313893296225
1022.0,0.025718641122169483
1021.0,0.025304128090317013
1020.0,0.024890010313838973
1019.0,0.024476287039668643
1018.0,0.02406295751688936
1017.0,0.02365002099672653
1016.0,0.023191662661933732
1015.0,0.02282532397981263
1014.0,0.022413561996148967
1013.0,0.02204787879853809
1012.0,0.021773818325474092
1011.0,0.021499930688540836
1010.0,0.02122621566987748
1009.0,0.020952673052035298
1008.0,0.020633757603838898
1007.0,0.02036058777709271
1006.0,0.020087589665283012
1005.0,0.019814763052665052
1004.0,0.01958753839310856
1003.0,0.019360432556262852
1002.0,0.019178833355664393
1001.0,0.01899731005860028
1000.0,0.018770512579999288
999.0,0.018543833477873584
998.0,0.01840788278591865
997.0,0.018271974638383703
996.0,0.018136109008649592
995.0,0.017955020928509757
994.0,0.017728766960431575
993.0,0.017502630802287644
992.0,0.017321806616515723
991.0,0.017186237868137555
990.0,0.017095882207371904
989.0,0.017005545341335804
988.0,0.016915227262211507
987.0,0.016734647433454652
986.0,0.016509028184833463
985.0,0.016238439713835096
984.0,0.01596801972881945
983.0,0.015742798294583915
982.0,0.015562705203923999
981.0,0.015427684378367834
980.0,0.01538268676325183
979.0,0.015292705517326866
978.0,0.015112798935672522
977.0,0.014888020460646079
976.0,0.014708281407112
975.0,0.01452861671041239
974.0,0.0144837121472845
973.0,0.014438812226654996
972.0,0.014393916947563534
971.0,0.014259258949925524
970.0,0.014079779876432497
969.0,0.013945219230304673
968.0,0.01385553528947936
967.0,0.01381070026317599
966.0,0.01372104409400876
965.0,0.013586594534531482
964.0,0.013496984613259544
963.0,0.013452186585275916
962.0,0.013586594534531482
961.0,0.01385553528947936
960.0,0.014124642691606404
959.0,0.014259258949925524
958.0,0.014259258949925524
957.0,0.014259258949925524
956.0,0.014393916947563534
955.0,0.014618439768003144
954.0,0.014798141635428141
953.0,0.014798141635428141
952.0,0.014573525916998342
951.0,0.014304140310157809
950.0,0.013990068146738865
949.0,0.013765869865004277
948.0,0.013586594534531482
947.0,0.013452186585275916
946.0,0.013317820220494436
945.0,0.01322826573375524
944.0,0.013138729709955221
943.0,0.013049212141483357
942.0,0.012959713020733288
941.0,0.012870232340102872
940.0,0.012780770091995297
939.0,0.012691326268817527
938.0,0.01260190086298274
937.0,0.012512493866907004
936.0,0.012467797270160563
935.0,0.012423105273012602
934.0,0.012289056869694281
933.0,0.012199714248127602
932.0,0.01215504982870197
931.0,0.012199714248127602
930.0,0.012199714248127602
929.0,0.01215504982870197
928.0,0.012110390002254778
927.0,0.012021084124518078
926.0,0.011931796607364653
925.0,0.011842527443247208
924.0,0.011842527443247208
923.0,0.011887159731648111
922.0,0.011931796607364653
921.0,0.0119764380713403
920.0,0.0119764380713403
919.0,0.0119764380713403
918.0,0.012021084124518078
917.0,0.012021084124518078
916.0,0.012021084124518078
915.0,0.0119764380713403
914.0,0.011797899741219142
913.0,0.011619434777991433
912.0,0.011530229790124524
911.0,0.011485634166333858
910.0,0.011485634166333858
909.0,0.011530229790124524
908.0,0.011485634166333858
907.0,0.011396456654336085
906.0,0.011262724711199823
905.0,0.011129033935354915
904.0,0.010950843561779777
903.0,0.01086177578421088
902.0,0.01086177578421088
901.0,0.010950843561779777
900.0,0.010995384301463185
899.0,0.01086177578421088
898.0,0.010639186223752484
897.0,0.010416710688994968
896.0,0.01037222925484893
895.0,0.01046119667949763
894.0,0.010550182333308289
893.0,0.010550182333308289
892.0,0.010505687227290839
891.0,0.01046119667949763
890.0,0.010416710688994968
889.0,0.01037222925484893
888.0,0.01023881228122181
887.0,0.01001654169860089
886.0,0.009794384815193347
885.0,0.00966114521239847
884.0,0.009616741093766423
883.0,0.009705553871561357
882.0,0.009794384815193347
881.0,0.009972101229705377
880.0,0.010283280051895272
879.0,0.010728208358306901
878.0,0.011262724711199823
877.0,0.011797899741219142
876.0,0.012199714248127602
875.0,0.01260190086298274
874.0,0.013049212141483357
873.0,0.013541787262693505
872.0,0.01403492169512921
871.0,0.014438812226654996
870.0,0.014663358264387139
869.0,0.014753209197138295
868.0,0.014843078722943437
867.0,0.014977917890464765
866.0,0.015112798935672522
865.0,0.015247721884586563
864.0,0.01538268676325183
863.0,0.015562705203923999
862.0,0.015652742414136167
861.0,0.015562705203923999
860.0,0.015292705517326866
859.0,0.014798141635428141
858.0,0.014304140310157809
857.0,0.013765869865004277
856.0,0.013317820220494436
855.0,0.012914970375878188
854.0,0.01260190086298274
853.0,0.012378417874516323
852.0,0.012244383261476699
851.0,0.01215504982870197
850.0,0.012110390002254778
849.0,0.012110390002254778
848.0,0.012199714248127602
847.0,0.012289056869694281
846.0,0.012289056869694281
845.0,0.012244383261476699
844.0,0.012110390002254778
843.0,0.011931796607364653
842.0,0.011753276624621556
841.0,0.011619434777991433
840.0,0.011485634166333858
839.0,0.011351874764248926
838.0,0.01117359295472431
837.0,0.010950843561779777
836.0,0.010728208358306901
835.0,0.010505687227290839
834.0,0.010327752376126709
833.0,0.010283280051895272
832.0,0.010327752376126709
831.0,0.010283280051895272
830.0,0.010105436281226954
829.0,0.009972101229705377
828.0,0.009927665307847056
827.0,0.009972101229705377
826.0,0.009972101229705377
825.0,0.009883233932095559
824.0,0.009883233932095559
823.0,0.009972101229705377
822.0,0.010105436281226954
821.0,0.010149890396819572
820.0,0.01001654169860089
819.0,0.009794384815193347
818.0,0.009572341514736404
817.0,0.009483555971770974
816.0,0.009439170005980158
815.0,0.009350411681145587
814.0,0.009261671492462709
813.0,0.009217308196862062
812.0,0.009217308196862062
811.0,0.009261671492462709
810.0,0.009261671492462709
809.0,0.009306039320248427
808.0,0.00939478857608056
807.0,0.009439170005980158
806.0,0.009439170005980158
805.0,0.009350411681145587
804.0,0.009217308196862062
803.0,0.009039900317800775
802.0,0.008906891951112605
801.0,0.008818242332126802
800.0,0.008773924307505121
799.0,0.008685301823389224
798.0,0.008685301823389224
797.0,0.008773924307505121
796.0,0.008906891951112605
795.0,0.009039900317800775
794.0,0.009039900317800775
793.0,0.009039900317800775
792.0,0.009039900317800775
791.0,0.008995559669244813
790.0,0.008862564879688284
789.0,0.008685301823389224
788.0,0.008596697419959609
787.0,0.008640997362049818
786.0,0.0087296108049002
785.0,0.008862564879688284
784.0,0.009039900317800775
783.0,0.009261671492462709
782.0,0.009483555971770974
781.0,0.009527946474380489
780.0,0.009439170005980158
779.0,0.009350411681145587
778.0,0.009439170005980158
777.0,0.009705553871561357
776.0,0.01001654169860089
775.0,0.010149890396819572
774.0,0.010149890396819572
773.0,0.010283280051895272
772.0,0.010683695010048622
771.0,0.011351874764248926
770.0,0.011887159731648111
769.0,0.012199714248127602
768.0,0.012333735073725371
767.0,0.012423105273012602
766.0,0.01264661126420652
765.0,0.012959713020733288
764.0,0.013407393177789162
763.0,0.013765869865004277
762.0,0.01403492169512921
761.0,0.014169510141607944
760.0,0.014349026309051105
759.0,0.014618439768003144
758.0,0.015067833932588037
757.0,0.015607721475734415
756.0,0.016238439713835096
755.0,0.016734647433454652
754.0,0.016870075265299933
753.0,0.016554142658660398
752.0,0.016013078034810446
751.0,0.015562705203923999
750.0,0.015337693809893471
749.0,0.015427684378367834
748.0,0.015652742414136167
747.0,0.015832872853011715
746.0,0.015832872853011715
745.0,0.01578783323856614
744.0,0.015652742414136167
743.0,0.015427684378367834
742.0,0.015067833932588037
741.0,0.014663358264387139
740.0,0.014393916947563534
739.0,0.014259258949925524
738.0,0.014214382227394795
737.0,0.013990068146738865
736.0,0.013496984613259544
735.0,0.012870232340102872
734.0,0.012199714248127602
733.0,0.011664044143949504
732.0,0.011218156546359825
731.0,0.010906307389674463
730.0,0.010550182333308289
729.0,0.01023881228122181
728.0,0.010060986715464404
727.0,0.010060986715464404
726.0,0.010194349063173958
725.0,0.010327752376126709
724.0,0.01037222925484893
723.0,0.010283280051895272
722.0,0.01023881228122181
721.0,0.010283280051895272
720.0,0.010550182333308289
719.0,0.011084479487313281
718.0,0.011664044143949504
717.0,0.012199714248127602
716.0,0.012512493866907004
715.0,0.012557195064198723
714.0,0.012423105273012602
713.0,0.012199714248127602
712.0,0.012199714248127602
711.0,0.012557195064198723
710.0,0.01318349541446362
709.0,0.01385553528947936
708.0,0.014304140310157809
707.0,0.0144837121472845
706.0,0.014573525916998342
705.0,0.014573525916998342
704.0,0.014393916947563534
703.0,0.01403492169512921
702.0,0.013586594534531482
701.0,0.01318349541446362
700.0,0.012914970375878188
699.0,0.012825498912458322
698.0,0.012914970375878188
697.0,0.013138729709955221
696.0,0.013452186585275916
695.0,0.01372104409400876
694.0,0.01381070026317599
693.0,0.01372104409400876
692.0,0.013496984613259544
691.0,0.013317820220494436
690.0,0.013317820220494436
689.0,0.013541787262693505
688.0,0.014124642691606404
687.0,0.014753209197138295
686.0,0.015157768594724175
685.0,0.014977917890464765
684.0,0.014393916947563534
683.0,0.013765869865004277
682.0,0.013407393177789162
681.0,0.013362604389846044
680.0,0.013362604389846044
679.0,0.013452186585275916
678.0,0.01381070026317599
677.0,0.014259258949925524
676.0,0.014304140310157809
675.0,0.01381070026317599
674.0,0.01318349541446362
673.0,0.012870232340102872
672.0,0.012959713020733288
671.0,0.013362604389846044
670.0,0.014079779876432497
669.0,0.015202742910707112
668.0,0.015697768020096703
667.0,0.014888020460646079
666.0,0.01385553528947936
665.0,0.013273040668781544
664.0,0.012959713020733288
663.0,0.012870232340102872
662.0,0.013004460275618523
661.0,0.013273040668781544
660.0,0.013541787262693505
659.0,0.013586594534531482
658.0,0.013317820220494436
657.0,0.012959713020733288
656.0,0.012736045877764557
655.0,0.012914970375878188
654.0,0.013452186585275916
653.0,0.014259258949925524
652.0,0.014977917890464765
651.0,0.015337693809893471
650.0,0.015337693809893471
649.0,0.015022873584506602
648.0,0.0144837121472845
647.0,0.013900374944870508
646.0,0.013362604389846044
645.0,0.013093968619278806
644.0,0.013317820220494436
643.0,0.013945219230304673
642.0,0.014573525916998342
641.0,0.014843078722943437
640.0,0.014663358264387139
639.0,0.014438812226654996
638.0,0.014573525916998342
637.0,0.015067833932588037
636.0,0.01578783323856614
635.0,0.016599261819461697
634.0,0.017502630802287644
633.0,0.017909760704207134
632.0,0.017005545341335804
631.0,0.014798141635428141
630.0,0.01264661126420652
629.0,0.011574829993696856
628.0,0.011797899741219142
627.0,0.012691326268817527
626.0,0.013541787262693505
625.0,0.014169510141607944
624.0,0.014663358264387139
623.0,0.014977917890464765
622.0,0.014932966849499074
621.0,0.014438812226654996
620.0,0.013541787262693505
619.0,0.012378417874516323
618.0,0.011396456654336085
617.0,0.011084479487313281
616.0,0.011307297450183107
615.0,0.011485634166333858
614.0,0.011351874764248926
613.0,0.01117359295472431
612.0,0.011485634166333858
611.0,0.012289056869694281
610.0,0.013273040668781544
609.0,0.013900374944870508
608.0,0.01403492169512921
607.0,0.013631406429727155
606.0,0.012825498912458322
605.0,0.011530229790124524
604.0,0.009883233932095559
603.0,0.008330992620051436
602.0,0.00762324020119709
601.0,0.007932739972333236
600.0,0.008995559669244813
