cm-1,A
4000.0,0.0870343792958963
3999.0,0.08719360733870762
3998.0,0.08735289378168276
3997.0,0.08751223866767632
3996.0,0.08767164203958999
3995.0,0.08793744441149753
3994.0,0.0880970039559672
3993.0,0.08825662214406838
3992.0,0.08830984124613894
3991.0,0.08841629901892434
3990.0,0.0884695376928375
3989.0,0.0885227828938977
3988.0,0.0885227828938977
3987.0,0.0884695376928375
3986.0,0.0884695376928375
3985.0,0.08841629901892434
3984.0,0.08841629901892434
3983.0,0.0885227828938977
3982.0,0.08862929288386212
3981.0,0.08868255767596933
3980.0,0.08862929288386212
3979.0,0.08857603462370545
3978.0,0.0885227828938977
3977.0,0.0884695376928375
3976.0,0.0884695376928375
3975.0,0.0884695376928375
3974.0,0.08836306687055773
3973.0,0.0881502035005799
3972.0,0.08793744441149753
3971.0,0.08788427092114603
3970.0,0.08804381092731295
3969.0,0.08830984124613894
3968.0,0.0885227828938977
3967.0,0.0885227828938977
3966.0,0.08830984124613894
3965.0,0.08804381092731295
3964.0,0.08783110394037297
3963.0,0.08783110394037297
3962.0,0.08793744441149753
3961.0,0.08804381092731295
3960.0,0.08820340956274775
3959.0,0.08841629901892434
3958.0,0.08862929288386212
3957.0,0.08878910686244668
3956.0,0.08894897967187343
3955.0,0.08900228368935714
3954.0,0.08910891135547172
3953.0,0.08905559425002108
3952.0,0.08889568219596411
3951.0,0.08857603462370545
3950.0,0.08836306687055773
3949.0,0.08825662214406838
3948.0,0.0884695376928375
3947.0,0.08868255767596933
3946.0,0.08878910686244668
3945.0,0.08884239126002336
3944.0,0.08894897967187343
3943.0,0.08910891135547172
3942.0,0.08916223500731646
3941.0,0.08910891135547172
3940.0,0.08900228368935714
3939.0,0.08900228368935714
3938.0,0.08905559425002108
3937.0,0.08900228368935714
3936.0,0.08884239126002336
3935.0,0.08868255767596933
3934.0,0.08862929288386212
3933.0,0.08862929288386212
3932.0,0.08857603462370545
3931.0,0.08862929288386212
3930.0,0.08884239126002336
3929.0,0.08894897967187343
3928.0,0.08889568219596411
3927.0,0.08884239126002336
3926.0,0.08894897967187343
3925.0,0.08910891135547172
3924.0,0.08900228368935714
3923.0,0.08868255767596933
3922.0,0.0885227828938977
3921.0,0.08868255767596933
3920.0,0.08878910686244668
3919.0,0.08889568219596411
3918.0,0.08910891135547172
3917.0,0.08964244272712252
3916.0,0.09017663034908807
3915.0,0.09044397075882471
3914.0,0.0905509530187334
3913.0,0.09076499663169257
3912.0,0.09097914578884403
3911.0,0.0910326995816122
3910.0,0.09092559859909577
3909.0,0.09060445403289452
3908.0,0.08990945440593179
3907.0,0.08905559425002108
3906.0,0.08820340956274775
3905.0,0.08756536662442538
3904.0,0.0872997918091396
3903.0,0.08735289378168276
3902.0,0.08772478950118767
3901.0,0.08873582900163002
3900.0,0.09017663034908807
3899.0,0.09130056764777605
3898.0,0.09151498112135026
3897.0,0.0910326995816122
3896.0,0.09044397075882471
3895.0,0.09012318200960712
3894.0,0.08980263003399913
3893.0,0.08969583193143116
3892.0,0.0900697402471693
3891.0,0.09049745859458458
3890.0,0.09017663034908807
3889.0,0.0892689019566193
3888.0,0.08905559425002108
3887.0,0.08990945440593179
3886.0,0.09065796163869155
3885.0,0.09044397075882471
3884.0,0.08937559511079884
3883.0,0.08862929288386212
3882.0,0.08905559425002108
3881.0,0.0900697402471693
3880.0,0.09076499663169257
3879.0,0.09060445403289452
3878.0,0.08996287644694911
3877.0,0.08969583193143116
3876.0,0.09017663034908807
3875.0,0.0905509530187334
3874.0,0.08996287644694911
3873.0,0.08868255767596933
3872.0,0.08783110394037297
3871.0,0.08830984124613894
3870.0,0.08953568400438638
3869.0,0.08996287644694911
3868.0,0.08916223500731646
3867.0,0.08857603462370545
3866.0,0.0892689019566193
3865.0,0.08990945440593179
3864.0,0.08958906008531176
3863.0,0.0892689019566193
3862.0,0.08953568400438638
3861.0,0.08996287644694911
3860.0,0.0900697402471693
3859.0,0.08974922769985194
3858.0,0.0892689019566193
3857.0,0.08873582900163002
3856.0,0.08825662214406838
3855.0,0.08793744441149753
3854.0,0.08841629901892434
3853.0,0.08990945440593179
3852.0,0.0908185240221473
3851.0,0.08996287644694911
3850.0,0.08990945440593179
3849.0,0.09113982698272349
3848.0,0.09183679994445204
3847.0,0.0916222275676053
3846.0,0.09119340059432579
3845.0,0.0908185240221473
3844.0,0.09028354676565531
3843.0,0.08948231448273347
3842.0,0.0884695376928375
3841.0,0.08772478950118767
3840.0,0.08761850108119962
3839.0,0.08825662214406838
3838.0,0.0892155652071629
3837.0,0.08985603893548699
3836.0,0.08974922769985194
3835.0,0.08942895151874142
3834.0,0.08958906008531176
3833.0,0.09023008526723086
3832.0,0.09097914578884403
3831.0,0.09124698081546634
3830.0,0.0910326995816122
3829.0,0.0908185240221473
3828.0,0.09097914578884403
3827.0,0.09124698081546634
3826.0,0.09097914578884403
3825.0,0.0900163050601559
3824.0,0.08905559425002108
3823.0,0.08884239126002336
3822.0,0.08910891135547172
3821.0,0.0892155652071629
3820.0,0.08862929288386212
3819.0,0.08761850108119962
3818.0,0.08799062441302175
3817.0,0.09017663034908807
3816.0,0.09205147838772776
3815.0,0.09237369515673355
3814.0,0.0916222275676053
3813.0,0.09146136782804049
3812.0,0.09231997575758011
3811.0,0.09285746899685954
3810.0,0.09237369515673355
3809.0,0.0917831469106074
3808.0,0.09189045960744768
3807.0,0.0922125568893839
3806.0,0.0917295005042762
3805.0,0.09023008526723086
3804.0,0.08942895151874142
3803.0,0.0900697402471693
3802.0,0.0910326995816122
3801.0,0.09135416109288674
3800.0,0.0905509530187334
3799.0,0.08958906008531176
3798.0,0.0900697402471693
3797.0,0.09156860103399356
3796.0,0.09237369515673355
3795.0,0.09237369515673355
3794.0,0.09226626300234453
3793.0,0.09258863922541383
3792.0,0.09323411045927221
3791.0,0.0935572061829677
3790.0,0.0935572061829677
3789.0,0.09339562827501968
3788.0,0.09318028453345462
3787.0,0.09296504751658308
3786.0,0.09285746899685954
3785.0,0.09291125492570451
3784.0,0.09291125492570451
3783.0,0.09258863922541383
3782.0,0.0922125568893839
3781.0,0.09226626300234453
3780.0,0.09258863922541383
3779.0,0.09291125492570451
3778.0,0.09296504751658308
3777.0,0.09291125492570451
3776.0,0.09307265269104414
3775.0,0.09339562827501968
3774.0,0.09334178232840018
3773.0,0.09296504751658308
3772.0,0.09274991711867164
3771.0,0.09291125492570451
3770.0,0.09307265269104414
3769.0,0.09274991711867164
3768.0,0.09226626300234453
3767.0,0.09226626300234453
3766.0,0.09296504751658308
3765.0,0.0935572061829677
3764.0,0.09339562827501968
3763.0,0.09285746899685954
3762.0,0.09269615116603047
3761.0,0.09274991711867164
3760.0,0.09242742120144909
3759.0,0.09183679994445204
3758.0,0.0916222275676053
3757.0,0.0917295005042762
3756.0,0.09156860103399356
3755.0,0.09119340059432579
3754.0,0.09076499663169257
3753.0,0.09017663034908807
3752.0,0.08932224525729482
3751.0,0.08894897967187343
3750.0,0.08980263003399913
3749.0,0.0905509530187334
3748.0,0.09023008526723086
3747.0,0.09049745859458458
3746.0,0.09248115389337075
3745.0,0.0950141189006366
3744.0,0.096150661903319
3743.0,0.09463593123310776
3742.0,0.0922125568893839
3741.0,0.0919977988274463
3740.0,0.09312646527792956
3739.0,0.09328794305703592
3738.0,0.09253489323414388
3737.0,0.0917831469106074
3736.0,0.09130056764777605
3735.0,0.09097914578884403
3734.0,0.09119340059432579
3733.0,0.09210516458371698
3732.0,0.09301884677114591
3731.0,0.09318028453345462
3730.0,0.09285746899685954
3729.0,0.09307265269104414
3728.0,0.09404230090757282
3727.0,0.09485199814398393
3726.0,0.09490603167212863
3725.0,0.09452793807529569
3724.0,0.09441997176475758
3723.0,0.09474395125154866
3722.0,0.09512223303659528
3721.0,0.09517630019905599
3720.0,0.09512223303659528
3719.0,0.09506817260434741
3718.0,0.09517630019905599
3717.0,0.0950141189006366
3716.0,0.09463593123310776
3715.0,0.09425807260839858
3714.0,0.09398837472858723
3713.0,0.0935572061829677
3712.0,0.09285746899685954
3711.0,0.09258863922541383
3710.0,0.09307265269104414
3709.0,0.09371884422784693
3708.0,0.09420411963213149
3707.0,0.09458193129745807
3706.0,0.09463593123310776
3705.0,0.09447395156495153
3704.0,0.09441997176475758
3703.0,0.09458193129745807
3702.0,0.09496007192378841
3701.0,0.09528445472131919
3700.0,0.09512223303659528
3699.0,0.09474395125154866
3698.0,0.09474395125154866
3697.0,0.0950141189006366
3696.0,0.09496007192378841
3695.0,0.09447395156495153
3694.0,0.09388054245443844
3693.0,0.09334178232840018
3692.0,0.09269615116603047
3691.0,0.0919977988274463
3690.0,0.0917831469106074
3689.0,0.09248115389337075
3688.0,0.09323411045927221
3687.0,0.09334178232840018
3686.0,0.09344948089854999
3685.0,0.09431203228814788
3684.0,0.09533854208447545
3683.0,0.0955549589230904
3682.0,0.0950141189006366
3681.0,0.09425807260839858
3680.0,0.0935033402006471
3679.0,0.09242742120144909
3678.0,0.09130056764777605
3677.0,0.0908185240221473
3676.0,0.09135416109288674
3675.0,0.09215885741705532
3674.0,0.0917831469106074
3673.0,0.09071147583774919
3672.0,0.09124698081546634
3671.0,0.09269615116603047
3670.0,0.0935033402006471
3669.0,0.0937727369476411
3668.0,0.09398837472858723
3667.0,0.09441997176475758
3666.0,0.09528445472131919
3665.0,0.09604229147682952
3664.0,0.09631326826349751
3663.0,0.09625905937846135
3662.0,0.096150661903319
3661.0,0.09587978652380036
3660.0,0.09539263618455207
3659.0,0.09496007192378841
3658.0,0.0950141189006366
3657.0,0.09560907998763835
3656.0,0.09625905937846135
3655.0,0.096150661903319
3654.0,0.09544673702322726
3653.0,0.09490603167212863
3652.0,0.09463593123310776
3651.0,0.09398837472858723
3650.0,0.09307265269104414
3649.0,0.09334178232840018
3648.0,0.09474395125154866
3647.0,0.09566320779750503
3646.0,0.0957714836599215
3645.0,0.09604229147682952
3644.0,0.09663866374468144
3643.0,0.09734452478207412
3642.0,0.09767069414168117
3641.0,0.09772507952549825
3640.0,0.09772507952549825
3639.0,0.0978882765519955
3638.0,0.09799710864927058
3637.0,0.0978882765519955
3636.0,0.0978882765519955
3635.0,0.09805153492691598
3634.0,0.09810596802617932
3633.0,0.09777947172068524
3632.0,0.09729018703012282
3631.0,0.0972358560759139
3630.0,0.0975619438013351
3629.0,0.09810596802617932
3628.0,0.09870518283443275
3627.0,0.09881421986284966
3626.0,0.09886874864462802
3625.0,0.09968750301627338
3624.0,0.10023419805561384
3623.0,0.09979678698310646
3622.0,0.09903237608087578
3621.0,0.09859617317474823
3620.0,0.09854167860388774
3619.0,0.09865067458435761
3618.0,0.09854167860388774
3617.0,0.09799710864927058
3616.0,0.09761631556752848
3615.0,0.09783387072894878
3614.0,0.09843270997155007
3613.0,0.09903237608087578
3612.0,0.09941441335003853
3611.0,0.09952362861074304
3610.0,0.09957824654226233
3609.0,0.09963287134352972
3608.0,0.09974214156222239
3607.0,0.10012480397898926
3606.0,0.1005078038618683
3605.0,0.10078158214862709
3604.0,0.10078158214862709
3603.0,0.1005078038618683
3602.0,0.10017949757290379
3601.0,0.09996076451267522
3600.0,0.09974214156222239
3599.0,0.09935981601739963
3598.0,0.09886874864462802
3597.0,0.09859617317474823
3596.0,0.09870518283443275
3595.0,0.09935981601739963
3594.0,0.10034361969436434
3593.0,0.10100072911021085
3592.0,0.10105553313349058
3591.0,0.10061729446673495
3590.0,0.10017949757290379
3589.0,0.10001543745060903
3588.0,0.10028890542885538
3587.0,0.10100072911021085
3586.0,0.10165883427249067
3585.0,0.10193333935836524
3584.0,0.10193333935836524
3583.0,0.10193333935836524
3582.0,0.10182351650232357
3581.0,0.10154908080162528
3580.0,0.10132965703447017
3579.0,0.10116516193172598
3578.0,0.10100072911021085
3577.0,0.10094593200182911
3576.0,0.10094593200182911
3575.0,0.1012199867101744
3574.0,0.10160395406999112
3573.0,0.10198826120249849
3572.0,0.1022080180607754
3571.0,0.10204318999304807
3570.0,0.10154908080162528
3569.0,0.10089114180660053
3568.0,0.10028890542885538
3567.0,0.10023419805561384
3566.0,0.10067205012234592
3565.0,0.10132965703447017
3564.0,0.10182351650232357
3563.0,0.10231793820358015
3562.0,0.10275789719463457
3561.0,0.10319830233507843
3560.0,0.10358402352687701
3559.0,0.1038045895457893
3558.0,0.10374943753836186
3557.0,0.10347378251044459
3556.0,0.10308815917397474
3555.0,0.10297804393963661
3554.0,0.10314322726279568
3553.0,0.10352889952072264
3552.0,0.10369429253391926
3551.0,0.10352889952072264
3550.0,0.10314322726279568
3549.0,0.1028679566179056
3548.0,0.10270287794050348
3547.0,0.10270287794050348
3546.0,0.10303309806684524
3545.0,0.10363915453068362
3544.0,0.10435649517592083
3543.0,0.10479852522110678
3542.0,0.10501970907203151
3541.0,0.10513034325474746
3540.0,0.10507502264045665
3539.0,0.10496440254767725
3538.0,0.10485381062400778
3537.0,0.10479852522110678
3536.0,0.1047432468551055
3535.0,0.10463271122663809
3534.0,0.10441172433373724
3533.0,0.10430127304069425
3532.0,0.10424605792627206
3531.0,0.10413564875270076
3530.0,0.10385974855798041
3529.0,0.1033635694704158
3528.0,0.10297804393963661
3527.0,0.1028679566179056
3526.0,0.10325338439259446
3525.0,0.10397008760377302
3524.0,0.10479852522110678
3523.0,0.10546241500425357
3522.0,0.10562854614376227
3521.0,0.1052410056281079
3520.0,0.10457745396059215
3519.0,0.10408045468998406
3518.0,0.10385974855798041
3517.0,0.10408045468998406
3516.0,0.10441172433373724
3515.0,0.10479852522110678
3514.0,0.10490910306560064
3513.0,0.1047432468551055
3512.0,0.10435649517592083
3511.0,0.10391491457671487
3510.0,0.10352889952072264
3509.0,0.10347378251044459
3508.0,0.10363915453068362
3507.0,0.10397008760377302
3506.0,0.10424605792627206
3505.0,0.10441172433373724
3504.0,0.10446696051592963
3503.0,0.10463271122663809
3502.0,0.10496440254767725
3501.0,0.10535169620648288
3500.0,0.10551778498990938
3499.0,0.10540705207704448
3498.0,0.10501970907203151
3497.0,0.10463271122663809
3496.0,0.10441172433373724
3495.0,0.10446696051592963
3494.0,0.10468797552421272
3493.0,0.10496440254767725
3492.0,0.10513034325474746
3491.0,0.1052410056281079
3490.0,0.10529634739076998
3489.0,0.10529634739076998
3488.0,0.10529634739076998
3487.0,0.10535169620648288
3486.0,0.1052410056281079
3485.0,0.10507502264045665
3484.0,0.10485381062400778
3483.0,0.1047432468551055
3482.0,0.10490910306560064
3481.0,0.1052410056281079
3480.0,0.10540705207704448
3479.0,0.10546241500425357
3478.0,0.10551778498990938
3477.0,0.10562854614376227
3476.0,0.10585015323207791
3475.0,0.10601643278815298
3474.0,0.10612732120491852
3473.0,0.10601643278815298
3472.0,0.10573933555301185
3471.0,0.10546241500425357
3470.0,0.10529634739076998
3469.0,0.10529634739076998
3468.0,0.10551778498990938
3467.0,0.10585015323207791
3466.0,0.10623823794205656
3465.0,0.10651565378151395
3464.0,0.10662666975397506
3463.0,0.10662666975397506
3462.0,0.10651565378151395
3461.0,0.10646015643533868
3460.0,0.10662666975397506
3459.0,0.10695988804288215
3458.0,0.10729336219433439
3457.0,0.10746019534136453
3456.0,0.10762709260156367
3455.0,0.10773839308446487
3454.0,0.10796107965870849
3453.0,0.10823959854332843
3452.0,0.10851829616048003
3451.0,0.10862982530385179
3450.0,0.10862982530385179
3449.0,0.10862982530385179
3448.0,0.10874138309586101
3447.0,0.10902040301031102
3446.0,0.10941133229451272
3445.0,0.10969078310005154
3444.0,0.11002636159600376
3443.0,0.11036219959333216
3442.0,0.11075433910702048
3441.0,0.11109074073646874
3440.0,0.11125903931710734
3439.0,0.11120293254331926
3438.0,0.11086644403327606
3437.0,0.11047420332880886
3436.0,0.11008231656379408
3435.0,0.10991447328367476
3434.0,0.10991447328367476
3433.0,0.11002636159600376
3432.0,0.11013827874181148
3431.0,0.11025022473596224
3430.0,0.11036219959333216
3429.0,0.11047420332880886
3428.0,0.11058623595729111
3427.0,0.11075433910702048
3426.0,0.11103465569966264
3425.0,0.11142740314240007
3424.0,0.11176432672943282
3423.0,0.11182050608167504
3422.0,0.11159583226295333
3421.0,0.11120293254331926
3420.0,0.11092250734993603
3419.0,0.11086644403327606
3418.0,0.11097857790477517
3417.0,0.11092250734993603
3416.0,0.11069829749368965
3415.0,0.11030620855581463
3414.0,0.10991447328367476
3413.0,0.10969078310005154
3412.0,0.10957898119908571
3411.0,0.10952309103982927
3410.0,0.10952309103982927
3409.0,0.10957898119908571
3408.0,0.10974669484546551
3407.0,0.10991447328367476
3406.0,0.10997041383658313
3405.0,0.1098585399354226
3404.0,0.10952309103982927
3403.0,0.10913206118855912
3402.0,0.10868560061785693
3401.0,0.10835105612944096
3400.0,0.10812816955441629
3399.0,0.10807246577932506
3398.0,0.10823959854332843
3397.0,0.10846254232743546
3396.0,0.10862982530385179
3395.0,0.10868560061785693
3394.0,0.10862982530385179
3393.0,0.10851829616048003
3392.0,0.10840679565103484
3391.0,0.10823959854332843
3390.0,0.10807246577932506
3389.0,0.10796107965870849
3388.0,0.10784972209863586
3387.0,0.10779405402422748
3386.0,0.10773839308446487
3385.0,0.10779405402422748
3384.0,0.10796107965870849
3383.0,0.10812816955441629
3382.0,0.10823959854332843
3381.0,0.1081838804751396
3380.0,0.10812816955441629
3379.0,0.1081838804751396
3378.0,0.10835105612944096
3377.0,0.10846254232743546
3376.0,0.10846254232743546
3375.0,0.1082953237608173
3374.0,0.10807246577932506
3373.0,0.10807246577932506
3372.0,0.10823959854332843
3371.0,0.10857405715200596
3370.0,0.10896458468468917
3369.0,0.10918790104487552
3368.0,0.10918790104487552
3367.0,0.10902040301031102
3366.0,0.10874138309586101
3365.0,0.10857405715200596
3364.0,0.10857405715200596
3363.0,0.10868560061785693
3362.0,0.10879717273970457
3361.0,0.10868560061785693
3360.0,0.10851829616048003
3359.0,0.10835105612944096
3358.0,0.10835105612944096
3357.0,0.10840679565103484
3356.0,0.10835105612944096
3355.0,0.10823959854332843
3354.0,0.10823959854332843
3353.0,0.10840679565103484
3352.0,0.10868560061785693
3351.0,0.10885296955122903
3350.0,0.10885296955122903
3349.0,0.10857405715200596
3348.0,0.1082953237608173
3347.0,0.10812816955441629
3346.0,0.1082953237608173
3345.0,0.10862982530385179
3344.0,0.10890877353227624
3343.0,0.10896458468468917
3342.0,0.10885296955122903
3341.0,0.10862982530385179
3340.0,0.10840679565103484
3339.0,0.1082953237608173
3338.0,0.1082953237608173
3337.0,0.10840679565103484
3336.0,0.10862982530385179
3335.0,0.10885296955122903
3334.0,0.10902040301031102
3333.0,0.10902040301031102
3332.0,0.10890877353227624
3331.0,0.10868560061785693
3330.0,0.10857405715200596
3329.0,0.10851829616048003
3328.0,0.10851829616048003
3327.0,0.10846254232743546
3326.0,0.10846254232743546
3325.0,0.10857405715200596
3324.0,0.10885296955122903
3323.0,0.10918790104487552
3322.0,0.10946720807225518
3321.0,0.10941133229451272
3320.0,0.10918790104487552
3319.0,0.10896458468468917
3318.0,0.10896458468468917
3317.0,0.10907622851098608
3316.0,0.10913206118855912
3315.0,0.10896458468468917
3314.0,0.10879717273970457
3313.0,0.10868560061785693
3312.0,0.10862982530385179
3311.0,0.10862982530385179
3310.0,0.10851829616048003
3309.0,0.10846254232743546
3308.0,0.10851829616048003
3307.0,0.10879717273970457
3306.0,0.10913206118855912
3305.0,0.10946720807225518
3304.0,0.10957898119908571
3303.0,0.10957898119908571
3302.0,0.10952309103982927
3301.0,0.10946720807225518
3300.0,0.10946720807225518
3299.0,0.10946720807225518
3298.0,0.10952309103982927
3297.0,0.10952309103982927
3296.0,0.10929960230112479
3295.0,0.10902040301031102
3294.0,0.10885296955122903
3293.0,0.10885296955122903
3292.0,0.10907622851098608
3291.0,0.10924374808178183
3290.0,0.10935546370475246
3289.0,0.10946720807225518
3288.0,0.10963487855187593
3287.0,0.10974669484546551
3286.0,0.10980261378997125
3285.0,0.10980261378997125
3284.0,0.10974669484546551
3283.0,0.10974669484546551
3282.0,0.10974669484546551
3281.0,0.1098585399354226
3280.0,0.11002636159600376
3279.0,0.11025022473596224
3278.0,0.11036219959333216
3277.0,0.11019424813191447
3276.0,0.1098585399354226
3275.0,0.10952309103982927
3274.0,0.10935546370475246
3273.0,0.10935546370475246
3272.0,0.10957898119908571
3271.0,0.10980261378997125
3270.0,0.10991447328367476
3269.0,0.10991447328367476
3268.0,0.10991447328367476
3267.0,0.11008231656379408
3266.0,0.11025022473596224
3265.0,0.11041819785037621
3264.0,0.11036219959333216
3263.0,0.11025022473596224
3262.0,0.11013827874181148
3261.0,0.11008231656379408
3260.0,0.10991447328367476
3259.0,0.10969078310005154
3258.0,0.10952309103982927
3257.0,0.10941133229451272
3256.0,0.10957898119908571
3255.0,0.10974669484546551
3254.0,0.1098585399354226
3253.0,0.10991447328367476
3252.0,0.10997041383658313
3251.0,0.11002636159600376
3250.0,0.11002636159600376
3249.0,0.10980261378997125
3248.0,0.10946720807225518
3247.0,0.10935546370475246
3246.0,0.10957898119908571
3245.0,0.10997041383658313
3244.0,0.11019424813191447
3243.0,0.11025022473596224
3242.0,0.11019424813191447
3241.0,0.11019424813191447
3240.0,0.11030620855581463
3239.0,0.11053021603049262
3238.0,0.11075433910702048
3237.0,0.11092250734993603
3236.0,0.11092250734993603
3235.0,0.11081038795292675
3234.0,0.1106422631110684
3233.0,0.11047420332880886
3232.0,0.11041819785037621
3231.0,0.11041819785037621
3230.0,0.11036219959333216
3229.0,0.11036219959333216
3228.0,0.11036219959333216
3227.0,0.11025022473596224
3226.0,0.11013827874181148
3225.0,0.10997041383658313
3224.0,0.10980261378997125
3223.0,0.10969078310005154
3222.0,0.10952309103982927
3221.0,0.10946720807225518
3220.0,0.10946720807225518
3219.0,0.10957898119908571
3218.0,0.10974669484546551
3217.0,0.10991447328367476
3216.0,0.11013827874181148
3215.0,0.11036219959333216
3214.0,0.1106422631110684
3213.0,0.11081038795292675
3212.0,0.11075433910702048
3211.0,0.1106422631110684
3210.0,0.11053021603049262
3209.0,0.11058623595729111
3208.0,0.1106422631110684
3207.0,0.11069829749368965
3206.0,0.1106422631110684
3205.0,0.11058623595729111
3204.0,0.1106422631110684
3203.0,0.11081038795292675
3202.0,0.11081038795292675
3201.0,0.11075433910702048
3200.0,0.11058623595729111
3199.0,0.11053021603049262
3198.0,0.11053021603049262
3197.0,0.11053021603049262
3196.0,0.11053021603049262
3195.0,0.11053021603049262
3194.0,0.11058623595729111
3193.0,0.11069829749368965
3192.0,0.11075433910702048
3191.0,0.11075433910702048
3190.0,0.11081038795292675
3189.0,0.11103465569966264
3188.0,0.11131515334030118
3187.0,0.11153968196461372
3186.0,0.11159583226295333
3185.0,0.11137127461477392
3184.0,0.11109074073646874
3183.0,0.11086644403327606
3182.0,0.11081038795292675
3181.0,0.11086644403327606
3180.0,0.11086644403327606
3179.0,0.11075433910702048
3178.0,0.11047420332880886
3177.0,0.11019424813191447
3176.0,0.10997041383658313
3175.0,0.10997041383658313
3174.0,0.11013827874181148
3173.0,0.11041819785037621
3172.0,0.11058623595729111
3171.0,0.11069829749368965
3170.0,0.11075433910702048
3169.0,0.11075433910702048
3168.0,0.11075433910702048
3167.0,0.11075433910702048
3166.0,0.11081038795292675
3165.0,0.11086644403327606
3164.0,0.11097857790477517
3163.0,0.11097857790477517
3162.0,0.11097857790477517
3161.0,0.11092250734993603
3160.0,0.11081038795292675
3159.0,0.11058623595729111
3158.0,0.11019424813191447
3157.0,0.10997041383658313
3156.0,0.11008231656379408
3155.0,0.11041819785037621
3154.0,0.11097857790477517
3153.0,0.1114835389250548
3152.0,0.11187669270209155
3151.0,0.11198908775497118
3150.0,0.11193288659256306
3149.0,0.11176432672943282
3148.0,0.11159583226295333
3147.0,0.1114835389250548
3146.0,0.11131515334030118
3145.0,0.11125903931710734
3144.0,0.11131515334030118
3143.0,0.11142740314240007
3142.0,0.11153968196461372
3141.0,0.1114835389250548
3140.0,0.11142740314240007
3139.0,0.1114835389250548
3138.0,0.1117081546434846
3137.0,0.11193288659256306
3136.0,0.11215773489264302
3135.0,0.11221396516162851
3134.0,0.1120452961911984
3133.0,0.11187669270209155
3132.0,0.11176432672943282
3131.0,0.11182050608167504
3130.0,0.11198908775497118
3129.0,0.11215773489264302
3128.0,0.11227020271196975
3127.0,0.11238269966426384
3126.0,0.11238269966426384
3125.0,0.11232644754555254
3124.0,0.11221396516162851
3123.0,0.11215773489264302
3122.0,0.11221396516162851
3121.0,0.11232644754555254
3120.0,0.11249522576462212
3119.0,0.11266406960083297
3118.0,0.11266406960083297
3117.0,0.1125514997500463
3116.0,0.11243895906999102
3115.0,0.11238269966426384
3114.0,0.11238269966426384
3113.0,0.11238269966426384
3112.0,0.11243895906999102
3111.0,0.1125514997500463
3110.0,0.11277666863747693
3109.0,0.11311464101399138
3108.0,0.11356568037106163
3107.0,0.11401718864502697
3106.0,0.11424311893073247
3105.0,0.11441264381034388
3104.0,0.11441264381034388
3103.0,0.11441264381034388
3102.0,0.11441264381034388
3101.0,0.11458223488906394
3100.0,0.11475189221861393
3099.0,0.11492161585077598
3098.0,0.1148084593931522
3097.0,0.1145256971708426
3096.0,0.11418662533951118
3095.0,0.11401718864502697
3094.0,0.11396072443355765
3093.0,0.11396072443355765
3092.0,0.11396072443355765
3091.0,0.11401718864502697
3090.0,0.11418662533951118
3089.0,0.11441264381034388
3088.0,0.11475189221861393
3087.0,0.11509140583739286
3086.0,0.11531789579397489
3085.0,0.11543118508166672
3084.0,0.11537453674376552
3083.0,0.11531789579397489
3082.0,0.11537453674376552
3081.0,0.11554450392951199
3080.0,0.11577123036739612
3079.0,0.11599807523121286
3078.0,0.11611154211151953
3077.0,0.11611154211151953
3076.0,0.11599807523121286
3075.0,0.11588463798833115
3074.0,0.11588463798833115
3073.0,0.11599807523121286
3072.0,0.11605480496572018
3071.0,0.11605480496572018
3070.0,0.11611154211151953
3069.0,0.11616828667054757
3068.0,0.11616828667054757
3067.0,0.11622503864474187
3066.0,0.11622503864474187
3065.0,0.11622503864474187
3064.0,0.11628179803604044
3063.0,0.11633856484638239
3062.0,0.11633856484638239
3061.0,0.11628179803604044
3060.0,0.11622503864474187
3059.0,0.11616828667054757
3058.0,0.11622503864474187
3057.0,0.11622503864474187
3056.0,0.11633856484638239
3055.0,0.1165089098110701
3054.0,0.11679296664760996
3053.0,0.11713408027837091
3052.0,0.11741854644554883
3051.0,0.1174754620451195
3050.0,0.11719095860756013
3049.0,0.116736140415026
3048.0,0.11611154211151953
3047.0,0.11560117444331386
3046.0,0.11526126223036814
3045.0,0.11514801725400226
3044.0,0.11520463605101905
3043.0,0.11526126223036814
3042.0,0.11514801725400226
3041.0,0.114865033936566
3040.0,0.11435612816423602
3039.0,0.1138478180292033
3038.0,0.11345287660889425
3037.0,0.11322735694556196
3036.0,0.11311464101399138
3035.0,0.11305829401658474
3034.0,0.11305829401658474
3033.0,0.11305829401658474
3032.0,0.11305829401658474
3031.0,0.11311464101399138
3030.0,0.11311464101399138
3029.0,0.11305829401658474
3028.0,0.11288929687511629
3027.0,0.11266406960083297
3026.0,0.11243895906999102
3025.0,0.11238269966426384
3024.0,0.11238269966426384
3023.0,0.11243895906999102
3022.0,0.11249522576462212
3021.0,0.11249522576462212
3020.0,0.1125514997500463
3019.0,0.1125514997500463
3018.0,0.1125514997500463
3017.0,0.11249522576462212
3016.0,0.11249522576462212
3015.0,0.11249522576462212
3014.0,0.11243895906999102
3013.0,0.11238269966426384
3012.0,0.11227020271196975
3011.0,0.11221396516162851
3010.0,0.11215773489264302
3009.0,0.1120452961911984
3008.0,0.11193288659256306
3007.0,0.11187669270209155
3006.0,0.11198908775497118
3005.0,0.11215773489264302
3004.0,0.11232644754555254
3003.0,0.11243895906999102
3002.0,0.11238269966426384
3001.0,0.11227020271196975
3000.0,0.11210151190312767
2999.0,0.11198908775497118
2998.0,0.11210151190312767
2997.0,0.11227020271196975
2996.0,0.11243895906999102
2995.0,0.11243895906999102
2994.0,0.11249522576462212
2993.0,0.11249522576462212
2992.0,0.11243895906999102
2991.0,0.11221396516162851
2990.0,0.11193288659256306
2989.0,0.11176432672943282
2988.0,0.11198908775497118
2987.0,0.11249522576462212
2986.0,0.11311464101399138
2985.0,0.11367851344052027
2984.0,0.1141301390960936
2983.0,0.11446916681190777
2982.0,0.11469533241103202
2981.0,0.11492161585077598
2980.0,0.11520463605101905
2979.0,0.11560117444331386
2978.0,0.11616828667054757
2977.0,0.116736140415026
2976.0,0.11730473761840288
2975.0,0.11776015198117662
2974.0,0.11804502866039956
2973.0,0.11827306462358211
2972.0,0.11872949607064243
2971.0,0.11952940719622163
2970.0,0.12067469921519258
2969.0,0.12176553132495593
2968.0,0.12268625668776156
2967.0,0.12343578601615435
2966.0,0.12412880927263426
2965.0,0.12482294018529605
2964.0,0.12575017722159698
2963.0,0.12679569072295926
2962.0,0.12784372725170723
2961.0,0.12889429901441463
2960.0,0.12994741830645506
2959.0,0.13094438129809216
2958.0,0.1316495003520317
2957.0,0.132179091954427
2956.0,0.13247358880025661
2955.0,0.13276828548110586
2954.0,0.13306318226836056
2953.0,0.13335827943396006
2952.0,0.13341732293645103
2951.0,0.13335827943396006
2950.0,0.13318119707395182
2949.0,0.13306318226836056
2948.0,0.13282724882135022
2947.0,0.13235576609690147
2946.0,0.1316495003520317
2945.0,0.13076828026902376
2944.0,0.13000599987825812
2943.0,0.12930354201075
2942.0,0.1287190271420271
2941.0,0.1281352979118051
2940.0,0.12749410065407507
2939.0,0.12691201440971422
2938.0,0.12638880300353272
2937.0,0.12586622117202761
2936.0,0.12540223129680017
2935.0,0.124996646399959
2934.0,0.12482294018529605
2933.0,0.12476505354983503
2932.0,0.12476505354983503
2931.0,0.12464930342071079
2930.0,0.12441789567211425
2929.0,0.12424442074194553
2928.0,0.12407101507707297
2927.0,0.12395544975390482
2926.0,0.12378215940835768
2925.0,0.12360893818081231
2924.0,0.12343578601615435
2923.0,0.12320502379929943
2922.0,0.12303203256741524
2921.0,0.12285911021517903
2920.0,0.12280148472821018
2919.0,0.12274386688641381
2918.0,0.12257105921178035
2917.0,0.12239832027072817
2916.0,0.12211057462851604
2915.0,0.12188051530283239
2914.0,0.12153565465853111
2913.0,0.12113366304327466
2912.0,0.12067469921519258
2911.0,0.1202162199095842
2910.0,0.11987267778337518
2909.0,0.11964380058076385
2908.0,0.11958660012208333
2907.0,0.11958660012208333
2906.0,0.11964380058076385
2905.0,0.11970100857424737
2904.0,0.11975822410451964
2903.0,0.11970100857424737
2902.0,0.11947222180119477
2901.0,0.11930071078129845
2900.0,0.11930071078129845
2899.0,0.11964380058076385
2898.0,0.12015894401343741
2897.0,0.12067469921519258
2896.0,0.12090412049992727
2895.0,0.12101887660626365
2894.0,0.12107626603243293
2893.0,0.12119106764079435
2892.0,0.12147820449879343
2891.0,0.12182301950849372
2890.0,0.12205304837081177
2889.0,0.12205304837081177
2888.0,0.12182301950849372
2887.0,0.12165057778222454
2886.0,0.12159311241900439
2885.0,0.12165057778222454
2884.0,0.12176553132495593
2883.0,0.12182301950849372
2882.0,0.12188051530283239
2881.0,0.1219955297319748
2880.0,0.12205304837081177
2879.0,0.12205304837081177
2878.0,0.12205304837081177
2877.0,0.12205304837081177
2876.0,0.12222565000860186
2875.0,0.12239832027072817
2874.0,0.12257105921178035
2873.0,0.12257105921178035
2872.0,0.12245589228405596
2871.0,0.12239832027072817
2870.0,0.12234075588839133
2869.0,0.12239832027072817
2868.0,0.12239832027072817
2867.0,0.12222565000860186
2866.0,0.12205304837081177
2865.0,0.12193801870998744
2864.0,0.12205304837081177
2863.0,0.12222565000860186
2862.0,0.12251347193039863
2861.0,0.12280148472821018
2860.0,0.12326270285933538
2859.0,0.12378215940835768
2858.0,0.12424442074194553
2857.0,0.1244757360506914
2856.0,0.12453358413361437
2855.0,0.1244757360506914
2854.0,0.1244757360506914
2853.0,0.12441789567211425
2852.0,0.12436006299583169
2851.0,0.12418661116024232
2850.0,0.12412880927263426
2849.0,0.12407101507707297
2848.0,0.12401322857151209
2847.0,0.12383991517437187
2846.0,0.12349349573411894
2845.0,0.12326270285933538
2844.0,0.12303203256741524
2843.0,0.12274386688641381
2842.0,0.12234075588839133
2841.0,0.1219955297319748
2840.0,0.12193801870998744
2839.0,0.12211057462851604
2838.0,0.12222565000860186
2837.0,0.12216810850710624
2836.0,0.1219955297319748
2835.0,0.12170805075020397
2834.0,0.12142076193778073
2833.0,0.12124847982699793
2832.0,0.12119106764079435
2831.0,0.12124847982699793
2830.0,0.12136332697348307
2829.0,0.12142076193778073
2828.0,0.12142076193778073
2827.0,0.12147820449879343
2826.0,0.12147820449879343
2825.0,0.12142076193778073
2824.0,0.1213058996038916
2823.0,0.12124847982699793
2822.0,0.12136332697348307
2821.0,0.12147820449879343
2820.0,0.12165057778222454
2819.0,0.12176553132495593
2818.0,0.12176553132495593
2817.0,0.12170805075020397
2816.0,0.12159311241900439
2815.0,0.12147820449879343
2814.0,0.12142076193778073
2813.0,0.1213058996038916
2812.0,0.12119106764079435
2811.0,0.12107626603243293
2810.0,0.12101887660626365
2809.0,0.12101887660626365
2808.0,0.12096149476276286
2807.0,0.12084675381575383
2806.0,0.12067469921519258
2805.0,0.12056003400478299
2804.0,0.12050271275057156
2803.0,0.12050271275057156
2802.0,0.12050271275057156
2801.0,0.12044539906102569
2800.0,0.12044539906102569
2799.0,0.12056003400478299
2798.0,0.12067469921519258
2797.0,0.1207893947082408
2796.0,0.12090412049992727
2795.0,0.12101887660626365
2794.0,0.12119106764079435
2793.0,0.1213058996038916
2792.0,0.12136332697348307
2791.0,0.12136332697348307
2790.0,0.1213058996038916
2789.0,0.12119106764079435
2788.0,0.12107626603243293
2787.0,0.12096149476276286
2786.0,0.1207893947082408
2785.0,0.12061736282565727
2784.0,0.12061736282565727
2783.0,0.12067469921519258
2782.0,0.1207320431753871
2781.0,0.12067469921519258
2780.0,0.12061736282565727
2779.0,0.12061736282565727
2778.0,0.1207320431753871
2777.0,0.12084675381575383
2776.0,0.12084675381575383
2775.0,0.1207320431753871
2774.0,0.12067469921519258
2773.0,0.12067469921519258
2772.0,0.12067469921519258
2771.0,0.12067469921519258
2770.0,0.1207893947082408
2769.0,0.12084675381575383
2768.0,0.12096149476276286
2767.0,0.12096149476276286
2766.0,0.12101887660626365
2765.0,0.12107626603243293
2764.0,0.12119106764079435
2763.0,0.1213058996038916
2762.0,0.12136332697348307
2761.0,0.12124847982699793
2760.0,0.12107626603243293
2759.0,0.12101887660626365
2758.0,0.12101887660626365
2757.0,0.12101887660626365
2756.0,0.12096149476276286
2755.0,0.12090412049992727
2754.0,0.12084675381575383
2753.0,0.1207320431753871
2752.0,0.1207320431753871
2751.0,0.12090412049992727
2750.0,0.12119106764079435
2749.0,0.12147820449879343
2748.0,0.12176553132495593
2747.0,0.12193801870998744
2746.0,0.12193801870998744
2745.0,0.12188051530283239
2744.0,0.12176553132495593
2743.0,0.12159311241900439
2742.0,0.12142076193778073
2741.0,0.12124847982699793
2740.0,0.12113366304327466
2739.0,0.12101887660626365
2738.0,0.12107626603243293
2737.0,0.12119106764079435
2736.0,0.1213058996038916
2735.0,0.12124847982699793
2734.0,0.12113366304327466
2733.0,0.12101887660626365
2732.0,0.12096149476276286
2731.0,0.12096149476276286
2730.0,0.12107626603243293
2729.0,0.12124847982699793
2728.0,0.12147820449879343
2727.0,0.12153565465853111
2726.0,0.12153565465853111
2725.0,0.12142076193778073
2724.0,0.12124847982699793
2723.0,0.12113366304327466
2722.0,0.12107626603243293
2721.0,0.12107626603243293
2720.0,0.12119106764079435
2719.0,0.1213058996038916
2718.0,0.12136332697348307
2717.0,0.12142076193778073
2716.0,0.12136332697348307
2715.0,0.12124847982699793
2714.0,0.12119106764079435
2713.0,0.12107626603243293
2712.0,0.12096149476276286
2711.0,0.12084675381575383
2710.0,0.1207893947082408
2709.0,0.12056003400478299
2708.0,0.1203880929341492
2707.0,0.1203880929341492
2706.0,0.12056003400478299
2705.0,0.12090412049992727
2704.0,0.12119106764079435
2703.0,0.12124847982699793
2702.0,0.12119106764079435
2701.0,0.12113366304327466
2700.0,0.12119106764079435
2699.0,0.12124847982699793
2698.0,0.12136332697348307
2697.0,0.12136332697348307
2696.0,0.12124847982699793
2695.0,0.12113366304327466
2694.0,0.12101887660626365
2693.0,0.12096149476276286
2692.0,0.12084675381575383
2691.0,0.1207893947082408
2690.0,0.12067469921519258
2689.0,0.12067469921519258
2688.0,0.12067469921519258
2687.0,0.1207893947082408
2686.0,0.12096149476276286
2685.0,0.12119106764079435
2684.0,0.12142076193778073
2683.0,0.12159311241900439
2682.0,0.12176553132495593
2681.0,0.12188051530283239
2680.0,0.12193801870998744
2679.0,0.12205304837081177
2678.0,0.12205304837081177
2677.0,0.1219955297319748
2676.0,0.12182301950849372
2675.0,0.12159311241900439
2674.0,0.12147820449879343
2673.0,0.12147820449879343
2672.0,0.12159311241900439
2671.0,0.12170805075020397
2670.0,0.12182301950849372
2669.0,0.12176553132495593
2668.0,0.12170805075020397
2667.0,0.12153565465853111
2666.0,0.12142076193778073
2665.0,0.12142076193778073
2664.0,0.12136332697348307
2663.0,0.1213058996038916
2662.0,0.12124847982699793
2661.0,0.12124847982699793
2660.0,0.12142076193778073
2659.0,0.12159311241900439
2658.0,0.12170805075020397
2657.0,0.12170805075020397
2656.0,0.12170805075020397
2655.0,0.12182301950849372
2654.0,0.12193801870998744
2653.0,0.12205304837081177
2652.0,0.12211057462851604
2651.0,0.12211057462851604
2650.0,0.12216810850710624
2649.0,0.12211057462851604
2648.0,0.12193801870998744
2647.0,0.12176553132495593
2646.0,0.12159311241900439
2645.0,0.12153565465853111
2644.0,0.12165057778222454
2643.0,0.12188051530283239
2642.0,0.12205304837081177
2641.0,0.12216810850710624
2640.0,0.12211057462851604
2639.0,0.12205304837081177
2638.0,0.12205304837081177
2637.0,0.12216810850710624
2636.0,0.12222565000860186
2635.0,0.12222565000860186
2634.0,0.12222565000860186
2633.0,0.12234075588839133
2632.0,0.12251347193039863
2631.0,0.12274386688641381
2630.0,0.12285911021517903
2629.0,0.12297438413275108
2628.0,0.12303203256741524
2627.0,0.12320502379929943
2626.0,0.12326270285933538
2625.0,0.12326270285933538
2624.0,0.12320502379929943
2623.0,0.12314735239865637
2622.0,0.12314735239865637
2621.0,0.12314735239865637
2620.0,0.12320502379929943
2619.0,0.12326270285933538
2618.0,0.12326270285933538
2617.0,0.1233203895807995
2616.0,0.12326270285933538
2615.0,0.12320502379929943
2614.0,0.12308968865537295
2613.0,0.12297438413275108
2612.0,0.12285911021517903
2611.0,0.12280148472821018
2610.0,0.12280148472821018
2609.0,0.12285911021517903
2608.0,0.12303203256741524
2607.0,0.12326270285933538
2606.0,0.12360893818081231
2605.0,0.12389767862220635
2604.0,0.12412880927263426
2603.0,0.12418661116024232
2602.0,0.12401322857151209
2601.0,0.1236666709136196
2600.0,0.1233203895807995
2599.0,0.12308968865537295
2598.0,0.12303203256741524
2597.0,0.12320502379929943
2596.0,0.12343578601615435
2595.0,0.12360893818081231
2594.0,0.1236666709136196
2593.0,0.1236666709136196
2592.0,0.1236666709136196
2591.0,0.12372441132212098
2590.0,0.12383991517437187
2589.0,0.12395544975390482
2588.0,0.12407101507707297
2587.0,0.12407101507707297
2586.0,0.12401322857151209
2585.0,0.12401322857151209
2584.0,0.12407101507707297
2583.0,0.12418661116024232
2582.0,0.12430223801979201
2581.0,0.12436006299583169
2580.0,0.12430223801979201
2579.0,0.12430223801979201
2578.0,0.12430223801979201
2577.0,0.12436006299583169
2576.0,0.12436006299583169
2575.0,0.12441789567211425
2574.0,0.12441789567211425
2573.0,0.12430223801979201
2572.0,0.12412880927263426
2571.0,0.12389767862220635
2570.0,0.12383991517437187
2569.0,0.12395544975390482
2568.0,0.12407101507707297
2567.0,0.12412880927263426
2566.0,0.12412880927263426
2565.0,0.12407101507707297
2564.0,0.12418661116024232
2563.0,0.12430223801979201
2562.0,0.1244757360506914
2561.0,0.1244757360506914
2560.0,0.12436006299583169
2559.0,0.12424442074194553
2558.0,0.12418661116024232
2557.0,0.12436006299583169
2556.0,0.12459143992293642
2555.0,0.12482294018529605
2554.0,0.1248808345374317
2553.0,0.12476505354983503
2552.0,0.12453358413361437
2551.0,0.1244757360506914
2550.0,0.1244757360506914
2549.0,0.12453358413361437
2548.0,0.12459143992293642
2547.0,0.12464930342071079
2546.0,0.12464930342071079
2545.0,0.12470717462899183
2544.0,0.12482294018529605
2543.0,0.1249387366082999
2542.0,0.125054563914468
2541.0,0.12517042212027807
2540.0,0.12522836281570182
2539.0,0.12517042212027807
2538.0,0.1251124891538875
2537.0,0.124996646399959
2536.0,0.124996646399959
2535.0,0.125054563914468
2534.0,0.1251124891538875
2533.0,0.125054563914468
2532.0,0.1249387366082999
2531.0,0.12476505354983503
2530.0,0.12476505354983503
2529.0,0.12482294018529605
2528.0,0.1249387366082999
2527.0,0.125054563914468
2526.0,0.1251124891538875
2525.0,0.12517042212027807
2524.0,0.12517042212027807
2523.0,0.12517042212027807
2522.0,0.1251124891538875
2521.0,0.1251124891538875
2520.0,0.125054563914468
2519.0,0.1251124891538875
2518.0,0.12522836281570182
2517.0,0.12540223129680017
2516.0,0.12546020292898974
2515.0,0.12551818230053358
2514.0,0.12546020292898974
2513.0,0.12546020292898974
2512.0,0.12540223129680017
2511.0,0.12534426740189897
2510.0,0.1252863112422209
2509.0,0.12540223129680017
2508.0,0.12557616941349803
2507.0,0.12575017722159698
2506.0,0.12569216687196105
2505.0,0.12551818230053358
2504.0,0.1252863112422209
2503.0,0.1251124891538875
2502.0,0.1251124891538875
2501.0,0.12522836281570182
2500.0,0.12540223129680017
2499.0,0.12546020292898974
2498.0,0.12546020292898974
2497.0,0.12540223129680017
2496.0,0.12540223129680017
2495.0,0.12540223129680017
2494.0,0.12546020292898974
2493.0,0.12551818230053358
2492.0,0.12557616941349803
2491.0,0.12551818230053358
2490.0,0.1252863112422209
2489.0,0.1248808345374317
2488.0,0.12453358413361437
2487.0,0.1244757360506914
2486.0,0.12459143992293642
2485.0,0.1248808345374317
2484.0,0.1251124891538875
2483.0,0.12517042212027807
2482.0,0.124996646399959
2481.0,0.12470717462899183
2480.0,0.12436006299583169
2479.0,0.12418661116024232
2478.0,0.12418661116024232
2477.0,0.12430223801979201
2476.0,0.12436006299583169
2475.0,0.12441789567211425
2474.0,0.12441789567211425
2473.0,0.12436006299583169
2472.0,0.12430223801979201
2471.0,0.12441789567211425
2470.0,0.12453358413361437
2469.0,0.12464930342071079
2468.0,0.12470717462899183
2467.0,0.12464930342071079
2466.0,0.12459143992293642
2465.0,0.12453358413361437
2464.0,0.12453358413361437
2463.0,0.12453358413361437
2462.0,0.12459143992293642
2461.0,0.12464930342071079
2460.0,0.12470717462899183
2459.0,0.12476505354983503
2458.0,0.12482294018529605
2457.0,0.1248808345374317
2456.0,0.1248808345374317
2455.0,0.12476505354983503
2454.0,0.12464930342071079
2453.0,0.12459143992293642
2452.0,0.12453358413361437
2451.0,0.1244757360506914
2450.0,0.1244757360506914
2449.0,0.12453358413361437
2448.0,0.12470717462899183
2447.0,0.1249387366082999
2446.0,0.124996646399959
2445.0,0.1248808345374317
2444.0,0.12470717462899183
2443.0,0.12464930342071079
2442.0,0.12470717462899183
2441.0,0.12470717462899183
2440.0,0.12470717462899183
2439.0,0.12470717462899183
2438.0,0.12476505354983503
2437.0,0.1249387366082999
2436.0,0.125054563914468
2435.0,0.12522836281570182
2434.0,0.12534426740189897
2433.0,0.12546020292898974
2432.0,0.12546020292898974
2431.0,0.12551818230053358
2430.0,0.12551818230053358
2429.0,0.12551818230053358
2428.0,0.12551818230053358
2427.0,0.12557616941349803
2426.0,0.12563416426995122
2425.0,0.12569216687196105
2424.0,0.12575017722159698
2423.0,0.12575017722159698
2422.0,0.12575017722159698
2421.0,0.12575017722159698
2420.0,0.12575017722159698
2419.0,0.12563416426995122
2418.0,0.12557616941349803
2417.0,0.12557616941349803
2416.0,0.12557616941349803
2415.0,0.12563416426995122
2414.0,0.12575017722159698
2413.0,0.12586622117202761
2412.0,0.12598229613781387
2411.0,0.126156466776564
2410.0,0.1263307072932056
2409.0,0.12644690648638135
2408.0,0.12656313677796316
2407.0,0.12656313677796316
2406.0,0.12650501774383094
2405.0,0.12650501774383094
2404.0,0.12644690648638135
2403.0,0.12656313677796316
2402.0,0.12667939818460128
2401.0,0.12691201440971422
2400.0,0.12714475529518965
2399.0,0.12726117252733116
2398.0,0.12726117252733116
2397.0,0.12720296001040166
2396.0,0.1270865583796048
2395.0,0.12714475529518965
2394.0,0.12726117252733116
2393.0,0.12749410065407507
2392.0,0.1276688787697493
2391.0,0.12784372725170723
2390.0,0.12796033202671375
2389.0,0.12796033202671375
2388.0,0.12796033202671375
2387.0,0.12796033202671375
2386.0,0.12790202572577325
2385.0,0.12790202572577325
2384.0,0.12796033202671375
2383.0,0.1280186461566306
2382.0,0.1281352979118051
2381.0,0.1282519810081284
2380.0,0.12836869546244634
2379.0,0.1283103343144847
2378.0,0.1281352979118051
2377.0,0.12784372725170723
2376.0,0.12743585690934855
2375.0,0.12691201440971422
2374.0,0.126621263590859
2373.0,0.12679569072295926
2372.0,0.1275523522109867
2371.0,0.12877744324029283
2370.0,0.13000599987825812
2369.0,0.13070959579060148
2368.0,0.13053358991913355
2367.0,0.12965462891904034
2366.0,0.12889429901441463
2365.0,0.12883586719705065
2364.0,0.12924505510985984
2363.0,0.12971317100740865
2362.0,0.1294790499872358
2361.0,0.1286022185125162
2360.0,0.12866061890013913
2359.0,0.13053358991913355
2358.0,0.13347637446715632
2357.0,0.1360232160956132
2356.0,0.13727247168202528
2355.0,0.1373320497714121
2354.0,0.1366771398795441
2353.0,0.1354889189416082
2352.0,0.13483678049391368
2351.0,0.13578566953867033
2350.0,0.1388241644869712
2349.0,0.14206473528057106
2348.0,0.1425468829647336
2347.0,0.13864483980673992
2346.0,0.1316495003520317
2345.0,0.12575017722159698
2344.0,0.12378215940835768
2343.0,0.1258081953209289
2342.0,0.12953756841108
2341.0,0.1325325121409484
2340.0,0.1340081998737246
2339.0,0.13394907599072514
2338.0,0.13341732293645103
2337.0,0.13329924395750092
2336.0,0.13365357725039817
2335.0,0.13406733180681396
2334.0,0.13430394008392943
2333.0,0.13394907599072514
2332.0,0.13294519952329842
2331.0,0.13159069668503998
2330.0,0.13094438129809216
2329.0,0.1314731132317961
2328.0,0.13270933014511588
2327.0,0.13406733180681396
2326.0,0.134659094375416
2325.0,0.13471831500438958
2324.0,0.13418561983203192
2323.0,0.13388996015562338
2322.0,0.1340081998737246
2321.0,0.13442229258007088
2320.0,0.13477754370982087
2319.0,0.13471831500438958
2318.0,0.1345998818206986
2317.0,0.13436311230037123
2316.0,0.1340081998737246
2315.0,0.13347637446715632
2314.0,0.13282724882135022
2313.0,0.13235576609690147
2312.0,0.132179091954427
2311.0,0.13229686672990226
2310.0,0.1325325121409484
2309.0,0.13265038281120756
2308.0,0.1325325121409484
2307.0,0.13229686672990226
2306.0,0.13200248965504868
2305.0,0.13176713157753506
2304.0,0.13141433344123432
2303.0,0.13106182166708868
2302.0,0.13070959579060148
2301.0,0.13041629228657614
2300.0,0.13018179202067182
2299.0,0.13012318673323353
2298.0,0.13012318673323353
2297.0,0.13006458935314003
2296.0,0.12983027886355947
2295.0,0.12953756841108
2294.0,0.12918657608440243
2293.0,0.12889429901441463
2292.0,0.12877744324029283
2291.0,0.12889429901441463
2290.0,0.12901118623942476
2289.0,0.12924505510985984
2288.0,0.12936203678919433
2287.0,0.1294790499872358
2286.0,0.12953756841108
2285.0,0.12942053944731513
2284.0,0.12924505510985984
2283.0,0.12901118623942476
2282.0,0.12883586719705065
2281.0,0.1287190271420271
2280.0,0.1286022185125162
2279.0,0.12854382597704617
2278.0,0.1286022185125162
2277.0,0.12854382597704617
2276.0,0.1283103343144847
2275.0,0.12796033202671375
2274.0,0.1277271537757949
2273.0,0.1276688787697493
2272.0,0.1277271537757949
2271.0,0.12796033202671375
2270.0,0.12819363554127072
2269.0,0.12836869546244634
2268.0,0.12842706445412122
2267.0,0.12836869546244634
2266.0,0.12836869546244634
2265.0,0.12842706445412122
2264.0,0.12842706445412122
2263.0,0.1283103343144847
2262.0,0.1281352979118051
2261.0,0.12784372725170723
2260.0,0.12761061158217912
2259.0,0.12749410065407507
2258.0,0.12749410065407507
2257.0,0.1276688787697493
2256.0,0.12796033202671375
2255.0,0.1281352979118051
2254.0,0.12819363554127072
2253.0,0.1280769681176266
2252.0,0.1280769681176266
2251.0,0.1280769681176266
2250.0,0.1280769681176266
2249.0,0.1281352979118051
2248.0,0.12819363554127072
2247.0,0.1282519810081284
2246.0,0.1283103343144847
2245.0,0.1282519810081284
2244.0,0.1281352979118051
2243.0,0.12796033202671375
2242.0,0.12790202572577325
2241.0,0.12790202572577325
2240.0,0.12790202572577325
2239.0,0.12790202572577325
2238.0,0.12790202572577325
2237.0,0.12790202572577325
2236.0,0.12796033202671375
2235.0,0.1280769681176266
2234.0,0.1281352979118051
2233.0,0.1280769681176266
2232.0,0.12790202572577325
2231.0,0.12761061158217912
2230.0,0.12749410065407507
2229.0,0.1275523522109867
2228.0,0.1275523522109867
2227.0,0.12761061158217912
2226.0,0.1276688787697493
2225.0,0.12784372725170723
2224.0,0.12796033202671375
2223.0,0.12796033202671375
2222.0,0.12784372725170723
2221.0,0.1276688787697493
2220.0,0.12749410065407507
2219.0,0.12749410065407507
2218.0,0.12761061158217912
2217.0,0.12778543660241448
2216.0,0.12796033202671375
2215.0,0.12796033202671375
2214.0,0.12790202572577325
2213.0,0.12778543660241448
2212.0,0.1276688787697493
2211.0,0.1275523522109867
2210.0,0.12749410065407507
2209.0,0.12749410065407507
2208.0,0.12749410065407507
2207.0,0.12731939284807026
2206.0,0.12720296001040166
2205.0,0.12714475529518965
2204.0,0.12720296001040166
2203.0,0.12731939284807026
2202.0,0.12749410065407507
2201.0,0.12761061158217912
2200.0,0.1275523522109867
2199.0,0.12737762097471172
2198.0,0.12714475529518965
2197.0,0.12697018793895576
2196.0,0.12691201440971422
2195.0,0.12691201440971422
2194.0,0.12697018793895576
2193.0,0.12697018793895576
2192.0,0.12691201440971422
2191.0,0.1267375405612734
2190.0,0.126621263590859
2189.0,0.126621263590859
2188.0,0.12667939818460128
2187.0,0.12667939818460128
2186.0,0.126621263590859
2185.0,0.126621263590859
2184.0,0.12667939818460128
2183.0,0.12679569072295926
2182.0,0.12691201440971422
2181.0,0.12691201440971422
2180.0,0.12685384867174432
2179.0,0.12679569072295926
2178.0,0.12679569072295926
2177.0,0.1267375405612734
2176.0,0.1267375405612734
2175.0,0.12667939818460128
2174.0,0.12667939818460128
2173.0,0.126621263590859
2172.0,0.12656313677796316
2171.0,0.12644690648638135
2170.0,0.12644690648638135
2169.0,0.126621263590859
2168.0,0.12679569072295926
2167.0,0.12685384867174432
2166.0,0.12685384867174432
2165.0,0.12679569072295926
2164.0,0.12679569072295926
2163.0,0.12679569072295926
2162.0,0.1267375405612734
2161.0,0.12667939818460128
2160.0,0.1267375405612734
2159.0,0.12685384867174432
2158.0,0.12702836926155658
2157.0,0.1270865583796048
2156.0,0.12702836926155658
2155.0,0.12691201440971422
2154.0,0.12697018793895576
2153.0,0.12697018793895576
2152.0,0.12702836926155658
2151.0,0.12702836926155658
2150.0,0.12702836926155658
2149.0,0.12702836926155658
2148.0,0.12702836926155658
2147.0,0.1270865583796048
2146.0,0.1270865583796048
2145.0,0.12714475529518965
2144.0,0.12714475529518965
2143.0,0.12714475529518965
2142.0,0.1270865583796048
2141.0,0.12702836926155658
2140.0,0.12697018793895576
2139.0,0.12697018793895576
2138.0,0.12697018793895576
2137.0,0.12702836926155658
2136.0,0.12714475529518965
2135.0,0.12726117252733116
2134.0,0.12731939284807026
2133.0,0.12737762097471172
2132.0,0.12737762097471172
2131.0,0.12737762097471172
2130.0,0.12737762097471172
2129.0,0.12737762097471172
2128.0,0.12737762097471172
2127.0,0.12731939284807026
2126.0,0.12714475529518965
2125.0,0.12697018793895576
2124.0,0.12685384867174432
2123.0,0.12685384867174432
2122.0,0.12697018793895576
2121.0,0.12702836926155658
2120.0,0.12702836926155658
2119.0,0.12697018793895576
2118.0,0.12691201440971422
2117.0,0.12679569072295926
2116.0,0.12679569072295926
2115.0,0.12685384867174432
2114.0,0.12697018793895576
2113.0,0.12714475529518965
2112.0,0.12731939284807026
2111.0,0.12737762097471172
2110.0,0.12737762097471172
2109.0,0.12726117252733116
2108.0,0.1270865583796048
2107.0,0.1270865583796048
2106.0,0.12714475529518965
2105.0,0.12720296001040166
2104.0,0.12726117252733116
2103.0,0.12720296001040166
2102.0,0.12714475529518965
2101.0,0.1270865583796048
2100.0,0.12702836926155658
2099.0,0.12691201440971422
2098.0,0.12679569072295926
2097.0,0.12667939818460128
2096.0,0.12656313677796316
2095.0,0.12656313677796316
2094.0,0.12667939818460128
2093.0,0.12679569072295926
2092.0,0.12685384867174432
2091.0,0.12679569072295926
2090.0,0.12667939818460128
2089.0,0.12650501774383094
2088.0,0.12638880300353272
2087.0,0.1263307072932056
2086.0,0.12627261935332057
2085.0,0.12621453918179926
2084.0,0.12621453918179926
2083.0,0.1263307072932056
2082.0,0.12650501774383094
2081.0,0.126621263590859
2080.0,0.12650501774383094
2079.0,0.12621453918179926
2078.0,0.12598229613781387
2077.0,0.12598229613781387
2076.0,0.1260984021355387
2075.0,0.12621453918179926
2074.0,0.1260984021355387
2073.0,0.12586622117202761
2072.0,0.12563416426995122
2071.0,0.12546020292898974
2070.0,0.12546020292898974
2069.0,0.12557616941349803
2068.0,0.12557616941349803
2067.0,0.12546020292898974
2066.0,0.12540223129680017
2065.0,0.12534426740189897
2064.0,0.12522836281570182
2063.0,0.12517042212027807
2062.0,0.1251124891538875
2061.0,0.1251124891538875
2060.0,0.125054563914468
2059.0,0.1249387366082999
2058.0,0.12470717462899183
2057.0,0.12453358413361437
2056.0,0.12441789567211425
2055.0,0.12441789567211425
2054.0,0.12441789567211425
2053.0,0.12436006299583169
2052.0,0.12424442074194553
2051.0,0.12407101507707297
2050.0,0.12389767862220635
2049.0,0.12378215940835768
2048.0,0.1236666709136196
2047.0,0.1236666709136196
2046.0,0.12360893818081231
2045.0,0.12355121312165873
2044.0,0.12355121312165873
2043.0,0.12355121312165873
2042.0,0.12360893818081231
2041.0,0.12355121312165873
2040.0,0.12337808396572703
2039.0,0.12320502379929943
2038.0,0.12303203256741524
2037.0,0.12291674334934943
2036.0,0.12291674334934943
2035.0,0.12291674334934943
2034.0,0.12291674334934943
2033.0,0.12291674334934943
2032.0,0.12280148472821018
2031.0,0.12262865413022594
2030.0,0.12251347193039863
2029.0,0.12245589228405596
2028.0,0.12239832027072817
2027.0,0.12228319913502328
2026.0,0.12216810850710624
2025.0,0.12211057462851604
2024.0,0.12205304837081177
2023.0,0.1219955297319748
2022.0,0.12182301950849372
2021.0,0.12159311241900439
2020.0,0.1213058996038916
2019.0,0.12113366304327466
2018.0,0.12107626603243293
2017.0,0.12113366304327466
2016.0,0.12124847982699793
2015.0,0.12136332697348307
2014.0,0.12142076193778073
2013.0,0.12136332697348307
2012.0,0.1213058996038916
2011.0,0.12119106764079435
2010.0,0.12113366304327466
2009.0,0.12113366304327466
2008.0,0.12107626603243293
2007.0,0.12107626603243293
2006.0,0.12107626603243293
2005.0,0.12107626603243293
2004.0,0.12113366304327466
2003.0,0.12124847982699793
2002.0,0.1213058996038916
2001.0,0.1213058996038916
2000.0,0.12124847982699793
1999.0,0.12107626603243293
1998.0,0.12090412049992727
1997.0,0.1207893947082408
1996.0,0.12067469921519258
1995.0,0.12067469921519258
1994.0,0.1207320431753871
1993.0,0.12084675381575383
1992.0,0.12096149476276286
1991.0,0.12090412049992727
1990.0,0.12084675381575383
1989.0,0.1207893947082408
1988.0,0.1207893947082408
1987.0,0.1207893947082408
1986.0,0.1207893947082408
1985.0,0.1207320431753871
1984.0,0.1207320431753871
1983.0,0.1207893947082408
1982.0,0.12090412049992727
1981.0,0.12101887660626365
1980.0,0.12107626603243293
1979.0,0.12101887660626365
1978.0,0.12090412049992727
1977.0,0.12067469921519258
1976.0,0.12044539906102569
1975.0,0.12033079436794658
1974.0,0.12033079436794658
1973.0,0.1203880929341492
1972.0,0.12044539906102569
1971.0,0.12044539906102569
1970.0,0.12044539906102569
1969.0,0.1203880929341492
1968.0,0.12033079436794658
1967.0,0.1203880929341492
1966.0,0.12044539906102569
1965.0,0.12044539906102569
1964.0,0.12050271275057156
1963.0,0.12061736282565727
1962.0,0.12084675381575383
1961.0,0.12101887660626365
1960.0,0.12113366304327466
1959.0,0.12124847982699793
1958.0,0.12136332697348307
1957.0,0.12147820449879343
1956.0,0.12153565465853111
1955.0,0.12170805075020397
1954.0,0.12193801870998744
1953.0,0.12211057462851604
1952.0,0.12222565000860186
1951.0,0.12222565000860186
1950.0,0.12211057462851604
1949.0,0.12188051530283239
1948.0,0.12170805075020397
1947.0,0.12153565465853111
1946.0,0.12147820449879343
1945.0,0.12147820449879343
1944.0,0.12136332697348307
1943.0,0.1213058996038916
1942.0,0.12119106764079435
1941.0,0.12096149476276286
1940.0,0.1207320431753871
1939.0,0.12050271275057156
1938.0,0.12044539906102569
1937.0,0.1203880929341492
1936.0,0.12015894401343741
1935.0,0.11992991593593283
1934.0,0.11970100857424737
1933.0,0.11941504393502012
1932.0,0.11912926746757657
1931.0,0.11884367892443626
1930.0,0.11861534322942724
1929.0,0.11844417020668851
1928.0,0.11821604440661537
1927.0,0.11798803837334138
1926.0,0.11776015198117662
1925.0,0.1175323851046286
1924.0,0.11724784438692004
1923.0,0.1169634899723202
1922.0,0.11667932161702477
1921.0,0.11645212073195621
1920.0,0.1163953390777075
1919.0,0.11633856484638239
1918.0,0.1163953390777075
1917.0,0.11628179803604044
1916.0,0.11594135290606156
1915.0,0.11554450392951199
1914.0,0.11526126223036814
1913.0,0.1149782051377024
1912.0,0.11469533241103202
1911.0,0.11435612816423602
1910.0,0.11407366019856902
1909.0,0.1138478180292033
1908.0,0.1136220932414278
1907.0,0.11345287660889425
1906.0,0.11339648571328764
1905.0,0.1133401021387972
1904.0,0.11322735694556196
1903.0,0.112945621949043
1902.0,0.11260778102815316
1901.0,0.11232644754555254
1900.0,0.11198908775497118
1899.0,0.1117081546434846
1898.0,0.11153968196461372
1897.0,0.11131515334030118
1896.0,0.11103465569966264
1895.0,0.1106422631110684
1894.0,0.11025022473596224
1893.0,0.10991447328367476
1892.0,0.10963487855187593
1891.0,0.10941133229451272
1890.0,0.10935546370475246
1889.0,0.10941133229451272
1888.0,0.10929960230112479
1887.0,0.10890877353227624
1886.0,0.10846254232743546
1885.0,0.10807246577932506
1884.0,0.10768273927751948
1883.0,0.10734896612269962
1882.0,0.1071265931112344
1881.0,0.10695988804288215
1880.0,0.10679324694015202
1879.0,0.10646015643533868
1878.0,0.10612732120491852
1877.0,0.10579474085791629
1876.0,0.10546241500425357
1875.0,0.10513034325474746
1874.0,0.1047432468551055
1873.0,0.10430127304069425
1872.0,0.10391491457671487
1871.0,0.10358402352687701
1870.0,0.10325338439259446
1869.0,0.10292299679057959
1868.0,0.10242788617426934
1867.0,0.10193333935836524
1866.0,0.10171372141087698
1865.0,0.10171372141087698
1864.0,0.10171372141087698
1863.0,0.10149421446564144
1862.0,0.10111034407341357
1861.0,0.10078158214862709
1860.0,0.10045306890913297
1859.0,0.10012480397898926
1858.0,0.09985143928065598
1857.0,0.09963287134352972
1856.0,0.09941441335003853
1855.0,0.0990869322623309
1854.0,0.09881421986284966
1853.0,0.09854167860388774
1852.0,0.09821485469640057
1851.0,0.0978882765519955
1850.0,0.0975619438013351
1849.0,0.0972358560759139
1848.0,0.09685572959046151
1847.0,0.09663866374468144
1846.0,0.09669292003582619
1845.0,0.09685572959046151
1844.0,0.09691001300805646
1843.0,0.09653017149282994
1842.0,0.09593394808549704
1841.0,0.0955549589230904
1840.0,0.09533854208447545
1839.0,0.09506817260434741
1838.0,0.09468993788391455
1837.0,0.09431203228814788
1836.0,0.09388054245443844
1835.0,0.09344948089854999
1834.0,0.09318028453345462
1833.0,0.09312646527792956
1832.0,0.09323411045927221
1831.0,0.09339562827501968
1830.0,0.09328794305703592
1829.0,0.09280368972839836
1828.0,0.09215885741705532
1827.0,0.0919441259012328
1826.0,0.0919977988274463
1825.0,0.0919441259012328
1824.0,0.09151498112135026
1823.0,0.09087205801073917
1822.0,0.09039048950983108
1821.0,0.0900697402471693
1820.0,0.08974922769985194
1819.0,0.08932224525729482
1818.0,0.08884239126002336
1817.0,0.08825662214406838
1816.0,0.08767164203958999
1815.0,0.08708744882390307
1814.0,0.08655704514060414
1813.0,0.08602728844902896
1812.0,0.0854453014823664
1811.0,0.08465293767580806
1810.0,0.08375666953466032
1809.0,0.08286224724355584
1808.0,0.08207457793525874
1807.0,0.08144546944972642
1806.0,0.08092190762392604
1805.0,0.08039897621588898
1804.0,0.07987667370927598
1803.0,0.07930286553008004
1802.0,0.07867775641617802
1801.0,0.07789763319239285
1800.0,0.07701518429111709
1799.0,0.0760310351245288
1798.0,0.07510073598571654
1797.0,0.07432700607875953
1796.0,0.07365755337434488
1795.0,0.07319468988839395
1794.0,0.07283502570063005
1793.0,0.07237303755504598
1792.0,0.07139934015547578
1791.0,0.07001940948448526
1790.0,0.06874559358358656
1789.0,0.06798309356579857
1788.0,0.0675769736232612
1787.0,0.06722192993944942
1786.0,0.06671522765130522
1785.0,0.06605739725873905
1784.0,0.06494641076893504
1783.0,0.0636873663378068
1782.0,0.06253226035662252
1781.0,0.06133019897732073
1780.0,0.05993198626064755
1779.0,0.05868737463933793
1778.0,0.057743849580535134
1777.0,0.056950888991593285
1776.0,0.056159373598738904
1775.0,0.05536929814372171
1774.0,0.05453141486818014
1773.0,0.05300765925162776
1772.0,0.050463626623857394
1771.0,0.04803141550708934
1770.0,0.04682039893436585
1769.0,0.046481918555007384
1768.0,0.04585401117045196
1767.0,0.04440844959427559
1766.0,0.04272802000705722
1765.0,0.04153168163305643
1764.0,0.04086316882962593
1763.0,0.04019568349166214
1762.0,0.038958783046687984
1761.0,0.03701541568300293
1760.0,0.03522197797762394
1759.0,0.03442204208947208
1758.0,0.03442204208947208
1757.0,0.03423403581731388
1756.0,0.03367050483612166
1755.0,0.033482823553208085
1754.0,0.03428102975577918
1753.0,0.03555179208333925
1752.0,0.03663723389626394
1751.0,0.03782014709123227
1750.0,0.03948165721929198
1749.0,0.041914151478914974
1748.0,0.04522701031028298
1747.0,0.04973253198641148
1746.0,0.05531996611868961
1745.0,0.061780582187257016
1744.0,0.06950943469373039
1743.0,0.07893810920972144
1742.0,0.08958906008531176
1741.0,0.10116516193172598
1740.0,0.11441264381034388
1739.0,0.12965462891904034
1738.0,0.14490504884137811
1737.0,0.1583902878315646
1736.0,0.17076057185861093
1735.0,0.1848873418101875
1734.0,0.20467623567068616
1733.0,0.2277516600281464
1732.0,0.24695343837347083
1731.0,0.26360349772335767
1730.0,0.28166442109149337
1729.0,0.3014645074379989
1728.0,0.3219370950256548
1727.0,0.3418931644936072
1726.0,0.3614109167072832
1725.0,0.3813244611148603
1724.0,0.4029633350223465
1723.0,0.42608455957844926
1722.0,0.4485500020271247
1721.0,0.4682656907234497
1720.0,0.48531945587501846
1719.0,0.5015515968260003
1718.0,0.5198492747267196
1717.0,0.5404567417195871
1716.0,0.5579908408590479
1715.0,0.5702477199975919
1714.0,0.5787252087896535
1713.0,0.5833594926617189
1712.0,0.5836924129401173
1711.0,0.5805399272139298
1710.0,0.5747919488613435
1709.0,0.5668704824195145
1708.0,0.5570501304221382
1707.0,0.545612532853045
1706.0,0.5318004139273875
1705.0,0.5159850373324371
1704.0,0.5015515968260003
1703.0,0.49093195498283837
1702.0,0.4824082692880922
1701.0,0.4718549217468935
1700.0,0.4561801948573423
1699.0,0.4392566989452882
1698.0,0.4264322269607814
1697.0,0.41680122603137737
1696.0,0.40671393297954284
1695.0,0.39555793373927695
1694.0,0.38584129049082483
1693.0,0.37882371822496475
1692.0,0.37304404856455253
1691.0,0.36693572730850077
1690.0,0.35991626862687975
1689.0,0.3532043112215306
1688.0,0.34746358140697464
1687.0,0.3428484980990334
1686.0,0.33818731446273875
1685.0,0.33282732752113153
1684.0,0.3279021420642825
1683.0,0.3239468753481285
1682.0,0.3208447587166461
1681.0,0.31803554100531684
1680.0,0.3148855309534606
1679.0,0.3113132757158765
1678.0,0.30803489723263966
1677.0,0.30495634117870596
1676.0,0.3018124301338776
1675.0,0.29860473098607976
1674.0,0.29499204066666396
1673.0,0.29106946419338375
1672.0,0.2875186621980814
1671.0,0.28424728317714054
1670.0,0.28133226468378925
1669.0,0.278684119394101
1668.0,0.2759700270644023
1667.0,0.2732727909734278
1666.0,0.2705112308204387
1665.0,0.2677671197795022
1664.0,0.26496029496627926
1663.0,0.2623303726433581
1662.0,0.2601904009786411
1661.0,0.25790359769675564
1660.0,0.2553159367231137
1659.0,0.25258819211357686
1658.0,0.2498002721708179
1657.0,0.24710684511540615
1656.0,0.24465881618845242
1655.0,0.242376254091611
1654.0,0.24003014244569276
1653.0,0.2391253619478111
1652.0,0.23724643506662613
1651.0,0.23336411368973242
1650.0,0.23099212905622624
1649.0,0.2302535328205466
1648.0,0.22936887222219338
1647.0,0.22841251911874472
1646.0,0.2278984307229881
1645.0,0.22687207596666514
1644.0,0.2251182341812037
1643.0,0.22337144657984997
1642.0,0.221921138062545
1641.0,0.2206199885083442
1640.0,0.21910689131292105
1639.0,0.21759904750347014
1638.0,0.2160964207272651
1637.0,0.21481257997063818
1636.0,0.21431433171909875
1635.0,0.21467016498923286
1634.0,0.21431433171909875
1633.0,0.21296481797377664
1632.0,0.21147811277752715
1631.0,0.20999647960951062
1630.0,0.2087305190897315
1629.0,0.2076783636484265
1628.0,0.20683847075444928
1627.0,0.20606999322731534
1626.0,0.20523320205917894
1625.0,0.20432849405397824
1624.0,0.2033562962148836
1623.0,0.20252471246266568
1622.0,0.20176382363206424
1621.0,0.200797343699475
1620.0,0.19969542244380145
1619.0,0.1987335295103798
1618.0,0.19797924822802404
1617.0,0.19797924822802404
1616.0,0.1990081387398286
1615.0,0.200246033588114
1614.0,0.20134935455473113
1613.0,0.20217868863597643
1612.0,0.20224787134928923
1611.0,0.20176382363206424
1610.0,0.2010042655561186
1609.0,0.20017716900668026
1608.0,0.1990768181867817
1607.0,0.1977052886025361
1606.0,0.19633807676377568
1605.0,0.19497515557019485
1604.0,0.1935486767527379
1603.0,0.19219446772937543
1602.0,0.19091186865365373
1601.0,0.18970025895983111
1600.0,0.18849202005467336
1599.0,0.1872871332346313
1598.0,0.18608557995139652
1597.0,0.1847544080834369
1596.0,0.18336105510153855
1595.0,0.1821703002543944
1594.0,0.18131233655848633
1593.0,0.18065351591954726
1592.0,0.17999569319168218
1591.0,0.17927323717616583
1590.0,0.17861750025270084
1589.0,0.17802818235795725
1588.0,0.17743966305730785
1587.0,0.17678668671733244
1586.0,0.1764605663431411
1585.0,0.176525770829699
1584.0,0.17737432122585917
1583.0,0.17927323717616583
1582.0,0.18223636771963214
1581.0,0.185819018959813
1580.0,0.18943147078358713
1579.0,0.19253262431572216
1578.0,0.19477108579657387
1577.0,0.19579239491795852
1576.0,0.19579239491795852
1575.0,0.19477108579657387
1574.0,0.19327749692381868
1573.0,0.1920592787845008
1572.0,0.19077707831057822
1571.0,0.18902860017779255
1570.0,0.18701983396051958
1569.0,0.18508681872492616
1568.0,0.18336105510153855
1567.0,0.18190613085336405
1566.0,0.18052187163787736
1565.0,0.17907641211868253
1564.0,0.17743966305730785
1563.0,0.17613469067548881
1562.0,0.1751585282462993
1561.0,0.17392519729917355
1560.0,0.1721140172101443
1559.0,0.1714689933548985
1558.0,0.1724368887452763
1557.0,0.1718558926962137
1556.0,0.17108243838331405
1555.0,0.1705032502798176
1554.0,0.16998906406388214
1553.0,0.16909070045355667
1552.0,0.16806626953325465
1551.0,0.16710805524020933
1550.0,0.16627930955536674
1549.0,0.16564288728159493
1548.0,0.16494389827988365
1547.0,0.16430942850757435
1546.0,0.16354928627984533
1545.0,0.1626009756579776
1544.0,0.16146572948813143
1543.0,0.1603334431175667
1542.0,0.15932943866659088
1541.0,0.15845283474344662
1540.0,0.15782777061438424
1539.0,0.15676722190199066
1538.0,0.15521228117215347
1537.0,0.15446788250642451
1536.0,0.15465386258859137
1535.0,0.15508812608785938
1534.0,0.15546069787099204
1533.0,0.1558335895497993
1532.0,0.1559579579589836
1531.0,0.15539858037365328
1530.0,0.15471587365200845
1529.0,0.15403423845451636
1528.0,0.1535391748706676
1527.0,0.15310645668337486
1526.0,0.1527358982292355
1525.0,0.15242734085788778
1524.0,0.15224231160766877
1523.0,0.1517492853229574
1522.0,0.15101079374883275
1521.0,0.15015080439474215
1520.0,0.1491088158640761
1519.0,0.14831368455757254
1518.0,0.14776406058811253
1517.0,0.1471541819850033
1516.0,0.14624096692523136
1515.0,0.14526898278605782
1514.0,0.14472319616990825
1513.0,0.14442027749828212
1512.0,0.14423862766005224
1511.0,0.14405705376768396
1510.0,0.1441175699639643
1509.0,0.14454141961396383
1508.0,0.14666689499766483
1507.0,0.1545918603782066
1506.0,0.1685141607513425
1505.0,0.1778319206319825
1504.0,0.18052187163787736
1503.0,0.17999569319168218
1502.0,0.17796275192741495
1501.0,0.17457388223217696
1500.0,0.1699248335702499
1499.0,0.16481693015095633
1498.0,0.15964294079664376
1497.0,0.1548399223480541
1496.0,0.1507034591652734
1495.0,0.1472151313194523
1494.0,0.14466259553045968
1493.0,0.1430899396992138
1492.0,0.14182386201765573
1491.0,0.14038142122781938
1490.0,0.13858508136400327
1489.0,0.13709378643700187
1488.0,0.136142038116027
1487.0,0.13531096586314884
1486.0,0.13436311230037123
1485.0,0.13347637446715632
1484.0,0.13270933014511588
1483.0,0.13200248965504868
1482.0,0.13135556160517425
1481.0,0.1308269726783169
1480.0,0.13041629228657614
1479.0,0.13012318673323353
1478.0,0.12994741830645506
1477.0,0.12988884463559924
1476.0,0.12988884463559924
1475.0,0.1295960947209729
1474.0,0.12912810493225724
1473.0,0.12866061890013913
1472.0,0.12854382597704617
1471.0,0.12836869546244634
1470.0,0.12819363554127072
1469.0,0.1282519810081284
1468.0,0.12866061890013913
1467.0,0.12936203678919433
1466.0,0.13035765534840538
1465.0,0.13194363817695853
1464.0,0.1341264717921853
1463.0,0.13632033212410222
1462.0,0.13828641242856565
1461.0,0.1405014418122239
1460.0,0.14315032127482774
1459.0,0.14605855411951008
1458.0,0.1494762911210057
1457.0,0.15434394001645568
1456.0,0.15926676538819318
1455.0,0.16203298163134527
1454.0,0.1637391971415132
1453.0,0.16545214231905137
1452.0,0.16704424939540163
1451.0,0.16800232276410365
1450.0,0.1685141607513425
1449.0,0.16883436609055757
1448.0,0.16915480769138846
1447.0,0.16921892439363884
1446.0,0.16909070045355667
1445.0,0.16896251435997467
1444.0,0.16896251435997467
1443.0,0.16902660267734948
1442.0,0.16896251435997467
1441.0,0.16889843549864048
1440.0,0.16889843549864048
1439.0,0.16889843549864048
1438.0,0.16857818293497795
1437.0,0.1674910872937636
1436.0,0.16507090353942422
1435.0,0.16146572948813143
1434.0,0.15757799664235028
1433.0,0.15397232463562127
1432.0,0.1502121757623145
1431.0,0.1459369881335788
1430.0,0.14116214857141451
1429.0,0.13632033212410222
1428.0,0.13170831198214428
1427.0,0.1277271537757949
1426.0,0.12424442074194553
1425.0,0.12067469921519258
1424.0,0.11702034596270106
1423.0,0.11396072443355765
1422.0,0.11187669270209155
1421.0,0.11053021603049262
1420.0,0.10929960230112479
1419.0,0.10846254232743546
1418.0,0.10879717273970457
1417.0,0.11109074073646874
1416.0,0.11616828667054757
1415.0,0.12441789567211425
1414.0,0.136142038116027
1413.0,0.1517492853229574
1412.0,0.1713401034646802
1411.0,0.19361649817583237
1410.0,0.21524010533599514
1409.0,0.2327699018892817
1408.0,0.2445062715848807
1407.0,0.2498002721708179
1406.0,0.24879790541164692
1405.0,0.24283180778572744
1404.0,0.23448045690204733
1403.0,0.2259942697417905
1402.0,0.2186036948032093
1401.0,0.21204387671606817
1400.0,0.20579088365350362
1399.0,0.1994203784308699
1398.0,0.19314197048118253
1397.0,0.18782222584124608
1396.0,0.1832285876666535
1395.0,0.17874856845405884
1394.0,0.1739900222088997
1393.0,0.16960382351653092
1392.0,0.16583371605737995
1391.0,0.16253782851400533
1390.0,0.15939212099070987
1389.0,0.1562068016740874
1388.0,0.15285938258659382
1387.0,0.14941502364796855
1386.0,0.14624096692523136
1385.0,0.14375459920994582
1384.0,0.14206473528057106
1383.0,0.1409217752530305
1382.0,0.1402014525194344
1381.0,0.14002155835797914
1380.0,0.1404414273739465
1379.0,0.1415229581866595
1378.0,0.14315032127482774
1377.0,0.14520830594601453
1376.0,0.14782509557969692
1375.0,0.15119529894819617
1374.0,0.15546069787099204
1373.0,0.1600194423216572
1372.0,0.16399254087446846
1371.0,0.16710805524020933
1370.0,0.1693471862025755
1369.0,0.17056756638240134
1368.0,0.17056756638240134
1367.0,0.16902660267734948
1366.0,0.16596098184053343
1365.0,0.16152872092807113
1364.0,0.15570925674565683
1363.0,0.14855818532794496
1362.0,0.1409217752530305
1361.0,0.13406733180681396
1360.0,0.12842706445412122
1359.0,0.12372441132212098
1358.0,0.11952940719622163
1357.0,0.11577123036739612
1356.0,0.11232644754555254
1355.0,0.10913206118855912
1354.0,0.1062937069352865
1353.0,0.10391491457671487
1352.0,0.10198826120249849
1351.0,0.10045306890913297
1350.0,0.09935981601739963
1349.0,0.09870518283443275
1348.0,0.09854167860388774
1347.0,0.0989778267519208
1346.0,0.10007011727213588
1345.0,0.10171372141087698
1344.0,0.1038045895457893
1343.0,0.1060718734573931
1342.0,0.10823959854332843
1341.0,0.10997041383658313
1340.0,0.11097857790477517
1339.0,0.11092250734993603
1338.0,0.10963487855187593
1337.0,0.10707101764479421
1336.0,0.1033635694704158
1335.0,0.09875969792669093
1334.0,0.0937727369476411
1333.0,0.08873582900163002
1332.0,0.08402008585977572
1331.0,0.07987667370927598
1330.0,0.07649693305789551
1329.0,0.07396640332115534
1328.0,0.07216786713341827
1327.0,0.07109230975604719
1326.0,0.07063217075990047
1325.0,0.07078549626260622
1324.0,0.0713481533463054
1323.0,0.07237303755504598
1322.0,0.07365755337434488
1321.0,0.07515236702446293
1320.0,0.07670415934449615
1319.0,0.07820951434181311
1318.0,0.07977228854307139
1317.0,0.08139308485501817
1316.0,0.0830725338870073
1315.0,0.08491689834879956
1314.0,0.08687520961044104
1313.0,0.08910891135547172
1312.0,0.09156860103399356
1311.0,0.09431203228814788
1310.0,0.09745322068600859
1309.0,0.10078158214862709
1308.0,0.10435649517592083
1307.0,0.10790539730951965
1306.0,0.11131515334030118
1305.0,0.1145256971708426
1304.0,0.11770319906234805
1303.0,0.12107626603243293
1302.0,0.1251124891538875
1301.0,0.13012318673323353
1300.0,0.13649869935854997
1299.0,0.14405705376768396
1298.0,0.15261244897260462
1297.0,0.1619068615544017
1296.0,0.17166239994099564
1295.0,0.18177410638604452
1294.0,0.1919917000896001
1293.0,0.20224787134928923
1292.0,0.21246868387276563
1291.0,0.22264568691579112
1290.0,0.23254728190222673
1289.0,0.24214865631442017
1288.0,0.25142438306900816
1287.0,0.2605067692183851
1286.0,0.2688949487840795
1285.0,0.27646223846794316
1284.0,0.28341242232430774
1283.0,0.2895441356645754
1282.0,0.2949063894521269
1281.0,0.2994693430214084
1280.0,0.3033815407677751
1279.0,0.3067128429943444
1278.0,0.30927245612963317
1277.0,0.3114022249188302
1276.0,0.31363189652696377
1275.0,0.3164126824272331
1274.0,0.31984585826562695
1273.0,0.32440494361325367
1272.0,0.3307761260691944
1271.0,0.3391345219961308
1270.0,0.3494011018273431
1269.0,0.36161059233466397
1268.0,0.3756147585797349
1267.0,0.39093945006991304
1266.0,0.4069355683412825
1265.0,0.4231981041710875
1264.0,0.43973460213728544
1263.0,0.45593195564972433
1262.0,0.4708263967382771
1261.0,0.48425858333063476
1260.0,0.496209316942819
1259.0,0.5061238891471771
1258.0,0.5134278494816436
1257.0,0.5187007266671442
1256.0,0.5228787452803376
1255.0,0.5266590358140646
1254.0,0.5300307905000405
1253.0,0.533725678210708
1252.0,0.5388017113775068
1251.0,0.5450027826905399
1250.0,0.551912333307659
1249.0,0.5595632338942262
1248.0,0.5684754158125491
1247.0,0.578231598793076
1246.0,0.58838029403677
1245.0,0.5987718325018869
1244.0,0.6094181214495646
1243.0,0.6197887582883941
1242.0,0.6287473708750606
1241.0,0.6362000545208906
1240.0,0.6426369693848573
1239.0,0.64762450499948
1238.0,0.6499459064209696
1237.0,0.6493643917410457
1236.0,0.6472388082761691
1235.0,0.643209539648284
1234.0,0.637329070274333
1233.0,0.6294869104014074
1232.0,0.6210573013865626
1231.0,0.6122543403911362
1230.0,0.6027554189896136
1229.0,0.5929491851957496
1228.0,0.5835259208997792
1227.0,0.5744657795017365
1226.0,0.5654310959658013
1225.0,0.5562677585984033
1224.0,0.5477534254795628
1223.0,0.5394028111023985
1222.0,0.5306198641500748
1221.0,0.5218665718994824
1220.0,0.5132862240175144
1219.0,0.505149978319906
1218.0,0.4970269409343686
1217.0,0.48918698948750383
1216.0,0.4818810528568469
1215.0,0.4749551929631548
1214.0,0.46788288375119613
1213.0,0.4607984007058723
1212.0,0.4539511335982658
1211.0,0.4474534520443396
1210.0,0.44117147518298827
1209.0,0.4349790716547062
1208.0,0.42922363120525175
1207.0,0.4234283159347092
1206.0,0.41748211639593746
1205.0,0.4113921952573134
1204.0,0.40571797118819397
1203.0,0.40033522121158316
1202.0,0.3951262294473643
1201.0,0.3898723869240046
1200.0,0.38489201255680605
1199.0,0.3801764995427219
1198.0,0.3753054687279187
1197.0,0.37018280398148407
1196.0,0.3651198592334737
1195.0,0.3600157519584115
1194.0,0.35487260074160876
1193.0,0.3496924768680636
1192.0,0.34457341225408133
1191.0,0.33941908757270056
1190.0,0.33432521900610657
1189.0,0.32929040477620286
1188.0,0.3245883062851367
1187.0,0.32020882901964565
1186.0,0.3158730743869247
1185.0,0.31175820402228815
1184.0,0.30803489723263966
1183.0,0.304781081094849
1182.0,0.302160631781637
1181.0,0.3000755972575233
1180.0,0.29886393390747346
1179.0,0.2982593675627876
1178.0,0.2979142785641751
1177.0,0.2978280491422889
1176.0,0.2976556416442313
1175.0,0.2974833025618495
1174.0,0.29696669526631414
1173.0,0.2960211749916142
1172.0,0.29447838657733283
1171.0,0.29200425357707105
1170.0,0.28853021812567214
1169.0,0.28391314622516783
1168.0,0.2785191452299507
1167.0,0.27270279719641266
1166.0,0.26656197290893857
1165.0,0.26011134491545684
1164.0,0.25375512827980184
1163.0,0.24756739073852607
1162.0,0.24161805822532467
1161.0,0.23597339230796277
1160.0,0.23077041826340627
1159.0,0.2258481410452895
1158.0,0.22119779598676126
1157.0,0.21681130892474232
1156.0,0.21268124337545258
1155.0,0.20901152491118413
1154.0,0.20572113427860006
1153.0,0.20307892466983124
1152.0,0.20114226825251436
1151.0,0.20017716900668026
1150.0,0.20010831534313467
1149.0,0.2010042655561186
1148.0,0.20294030530002893
1147.0,0.20572113427860006
1146.0,0.2093630380682967
1145.0,0.21381665443236653
1144.0,0.21896306137886823
1143.0,0.22475374025976347
1142.0,0.23084430928560118
1141.0,0.23702150913225695
1140.0,0.2432878398352285
1139.0,0.24949160514865376
1138.0,0.255237762934422
1137.0,0.2605067692183851
1136.0,0.2652801583443203
1135.0,0.26945996352288093
1134.0,0.2732727909734278
1133.0,0.2767906895948886
1132.0,0.2803373169819534
1131.0,0.28391314622516783
1130.0,0.28777133038046476
1129.0,0.292089334286894
1128.0,0.2973110318408665
1127.0,0.3039058400047767
1126.0,0.31166918188773374
1125.0,0.32066296947920603
1124.0,0.3307761260691944
1123.0,0.3418931644936072
1122.0,0.3534982499683881
1121.0,0.36491856398912703
1120.0,0.37582107425197764
1119.0,0.3856301604517114
1118.0,0.3934036908207148
1117.0,0.3988094673846665
1116.0,0.40153779952584956
1115.0,0.4017568083463774
1114.0,0.3994627056355311
1113.0,0.39523411529611274
1112.0,0.39008558991400233
1111.0,0.3849973854754116
1110.0,0.3813244611148603
1109.0,0.3801764995427219
1108.0,0.38247546511370767
1107.0,0.38827669199265813
1106.0,0.3972890550424426
1105.0,0.4089353929735009
1104.0,0.4229680143739687
1103.0,0.4387793210660562
1102.0,0.4556838582525726
1101.0,0.47340229089654784
1100.0,0.492144128304169
1099.0,0.5110264752734919
1098.0,0.5290018303391264
1097.0,0.5451551399914898
1096.0,0.5592482995208146
1095.0,0.5712174885030454
1094.0,0.5808706922580242
1093.0,0.5882119954561311
1092.0,0.5938005763366871
1091.0,0.5973947580800854
1090.0,0.5982549177629373
1089.0,0.596879478824182
1088.0,0.5944828930236237
1087.0,0.5917600346881504
1086.0,0.58838029403677
1085.0,0.5846927077744326
1084.0,0.5813673126459347
1083.0,0.5777385491863973
1082.0,0.5730010412434627
1081.0,0.5671909949668317
1080.0,0.5609832716124872
1079.0,0.5543957967264024
1078.0,0.5471406642041476
1077.0,0.5395532161192795
1076.0,0.5322439487559671
1075.0,0.525055664534612
1074.0,0.5176982327765574
1073.0,0.5097605147537128
1072.0,0.5021032570867798
1071.0,0.49485002168009395
1070.0,0.4878494630779695
1069.0,0.4806971507645712
1068.0,0.4736607226101559
1067.0,0.4664821379830326
1066.0,0.4595453863285881
1065.0,0.4532106483687419
1064.0,0.4474534520443396
1063.0,0.44201185177508684
1062.0,0.4364002711184689
1061.0,0.43062609038495414
1060.0,0.4249276742861876
1059.0,0.41930306028756337
1058.0,0.41386297476920686
1057.0,0.4089353929735009
1056.0,0.40483458520977056
1055.0,0.4016472901307162
1054.0,0.39902710431325183
1053.0,0.3970722871408108
1052.0,0.3963144503853002
1051.0,0.3966390756516196
1050.0,0.3976144098948948
1049.0,0.39891827221597675
1048.0,0.40077213722620364
1047.0,0.4030731856570293
1046.0,0.4054969561799109
1045.0,0.4079343295677529
1044.0,0.4102737437457631
1043.0,0.412176828681045
1042.0,0.4135252214286034
1041.0,0.41476493663422476
1040.0,0.41600820080168366
1039.0,0.4170280708951941
1038.0,0.41714153777550056
1037.0,0.416461180745648
1036.0,0.41544263947432514
1035.0,0.4145392704914994
1034.0,0.4134126953282451
1033.0,0.4120646513636439
1032.0,0.4103854593687337
1031.0,0.40804544495326445
1030.0,0.4052760535902533
1029.0,0.40197592766581036
1028.0,0.39826585173989515
1027.0,0.39426410612325324
1026.0,0.3899789753358547
1025.0,0.3859468940127808
1024.0,0.38299965887910115
1023.0,0.38226596463598206
1022.0,0.3851027839668655
1021.0,0.3930814740517088
1020.0,0.407046428452134
1019.0,0.4265481779645146
1018.0,0.44928257653071735
1017.0,0.4718549217468935
1016.0,0.4906630419823559
1015.0,0.502241281712732
1014.0,0.5052889747947373
1013.0,0.5010006364198469
1012.0,0.49241396023698925
1011.0,0.4824082692880922
1010.0,0.47275688361191137
1009.0,0.4641997091751022
1008.0,0.456677099353088
1007.0,0.4496493276983846
1006.0,0.44297427761361674
1005.0,0.43663759051339257
1004.0,0.4310945850171213
1003.0,0.42631630690620215
1002.0,0.4222784754909792
1001.0,0.4186193112900132
1000.0,0.4153296155356512
999.0,0.412176828681045
998.0,0.4090467648120142
997.0,0.40604970473601254
996.0,0.4035128662634557
995.0,0.40153779952584956
994.0,0.3993537643376055
993.0,0.3970722871408108
992.0,0.3949105381184195
991.0,0.39297412156521405
990.0,0.3912600809312121
989.0,0.38976582466561127
988.0,0.388382889445664
987.0,0.3870043439676525
986.0,0.3856301604517114
985.0,0.38426031138084515
984.0,0.3828947694976219
983.0,0.38163806889012175
982.0,0.3803849942571935
981.0,0.3793435201803792
980.0,0.378615971518347
979.0,0.37809703910876946
978.0,0.3774751375964318
977.0,0.37706103078850983
976.0,0.3769575657536184
975.0,0.37706103078850983
974.0,0.3768541253620603
973.0,0.37613073164969757
972.0,0.37540854087315223
971.0,0.37468754903832613
970.0,0.37417328671428884
969.0,0.3737623148530995
968.0,0.37335173152598977
967.0,0.3726341434072673
966.0,0.3716110699496884
965.0,0.3703865546218168
964.0,0.36926710718280353
963.0,0.3682519256034307
962.0,0.36713795989977016
961.0,0.36612773734166737
960.0,0.3650191999487715
959.0,0.363712747901487
958.0,0.36221017063777095
957.0,0.3607127740897633
956.0,0.35931984672233486
955.0,0.35822852934604077
954.0,0.3571399474155086
953.0,0.35585694949008095
952.0,0.35457773065090814
951.0,0.3532043112215306
950.0,0.3517375942519556
949.0,0.35056777675838346
948.0,0.3496924768680636
947.0,0.3491099221436875
946.0,0.3483343960770644
945.0,0.3471736974389954
944.0,0.34563090902471405
943.0,0.3441895055047477
942.0,0.34275287011628364
941.0,0.34141628459293716
940.0,0.34036898839299945
939.0,0.3397038397292702
938.0,0.3392293564723028
937.0,0.3386606599939601
936.0,0.3380927072339792
935.0,0.3373365904259624
934.0,0.3362990746103518
933.0,0.3353580244438745
932.0,0.3344190089820469
931.0,0.3334820194451191
930.0,0.33236029394358924
929.0,0.3311483519174814
928.0,0.3301254975101975
927.0,0.329197715739056
926.0,0.328179439816751
925.0,0.32716354582860285
924.0,0.32596599956874517
923.0,0.3246800166607078
922.0,0.32321496958079465
921.0,0.32157267756613295
920.0,0.3199365725180514
919.0,0.3184874133610378
918.0,0.3170430736987915
917.0,0.3156933539283684
916.0,0.3145269802772408
915.0,0.31354248953088826
914.0,0.3123818704282302
913.0,0.3111354319452082
912.0,0.3098925605436693
911.0,0.3087416418668889
910.0,0.3076819557407213
909.0,0.3073293008436311
908.0,0.30777016422724435
907.0,0.30883006586839623
906.0,0.3098925605436693
905.0,0.31104653736258214
904.0,0.3126494304419727
903.0,0.3148855309534606
902.0,0.31731352175023186
901.0,0.31948319061874497
900.0,0.32157267756613295
899.0,0.32358076828164006
898.0,0.3253225321268012
897.0,0.326610421811695
896.0,0.32753268693191795
895.0,0.328271911760442
894.0,0.32873456705284165
893.0,0.32901239698996587
892.0,0.329197715739056
891.0,0.32910504647979
890.0,0.3286419965565084
889.0,0.3279945549770482
888.0,0.32762502125392046
887.0,0.3279945549770482
886.0,0.32873456705284165
885.0,0.3296613588725579
884.0,0.3305901327122174
883.0,0.33161408330999986
882.0,0.33282732752113153
881.0,0.33451281921718934
880.0,0.3372421683184259
879.0,0.341511618690983
878.0,0.3471736974389954
877.0,0.35389047802115203
876.0,0.36111157529492455
875.0,0.368556230986828
874.0,0.37602748798300367
873.0,0.3832095136702842
872.0,0.38944629468290537
871.0,0.39404884243512717
870.0,0.3963144503853002
869.0,0.3963144503853002
868.0,0.394479476562531
867.0,0.39136701050996314
866.0,0.3871102307125154
865.0,0.38226596463598206
864.0,0.3776823391661557
863.0,0.3738650213646113
862.0,0.37069235992625105
861.0,0.3678465164893674
860.0,0.365421977146112
859.0,0.3632113109656252
858.0,0.36121133284260165
857.0,0.35922052265514304
856.0,0.3576344191550267
855.0,0.3561526897002858
854.0,0.35487260074160876
853.0,0.3537923877933149
852.0,0.35291057128344505
851.0,0.35212823469376753
850.0,0.35134730486877697
849.0,0.35047043405218115
848.0,0.34988683555642863
847.0,0.3495953301319683
846.0,0.3494982051216331
845.0,0.34978964533964096
844.0,0.3503731131594705
843.0,0.35095736591382365
842.0,0.3508599358557811
841.0,0.3502758140704776
840.0,0.3496924768680636
839.0,0.3496924768680636
838.0,0.35017853677543487
837.0,0.35076252765039273
836.0,0.35105481783432757
835.0,0.3508599358557811
834.0,0.3500812812645808
833.0,0.3488189375553121
832.0,0.34756025241057986
831.0,0.3464016181567102
830.0,0.3452460667470698
829.0,0.3441895055047477
828.0,0.3432312207339834
827.0,0.34217954398430295
826.0,0.3408447190593702
825.0,0.3395139842150323
824.0,0.3386606599939601
823.0,0.3382819423053407
822.0,0.33799812061008283
821.0,0.3373365904259624
820.0,0.3362990746103518
819.0,0.3352640314812949
818.0,0.3340439705460432
817.0,0.33292079453578327
816.0,0.33198702835816785
815.0,0.3312414582490424
814.0,0.33068311943388773
813.0,0.33031129194379183
812.0,0.3302183847914635
811.0,0.3301254975101975
810.0,0.3298469548078198
809.0,0.32947584221792003
808.0,0.32901239698996587
807.0,0.32845691473742633
806.0,0.3278097488117475
805.0,0.32725580169340085
804.0,0.3269790928711038
803.0,0.32670256024036415
802.0,0.32569011105852286
801.0,0.3239468753481285
800.0,0.3219370950256548
799.0,0.32029961912803584
798.0,0.3195738291418546
797.0,0.32020882901964565
796.0,0.3225755622987525
795.0,0.3264262035769485
794.0,0.33096219911484415
793.0,0.33498217458752744
792.0,0.3378090091409929
791.0,0.3391345219961308
790.0,0.3389449151466213
789.0,0.3375254962496905
788.0,0.3352640314812949
787.0,0.332547047110046
786.0,0.32938311359967454
785.0,0.3258740172572918
784.0,0.32221060893113895
783.0,0.3186682940308343
782.0,0.31533413597413906
781.0,0.3123818704282302
780.0,0.3097152974873705
779.0,0.3074174377250909
778.0,0.3051316720175439
777.0,0.30303235925597694
776.0,0.3011168632474097
775.0,0.29929628285498056
774.0,0.2973110318408665
773.0,0.29533481454547084
772.0,0.29362364416030995
771.0,0.2918341421444599
770.0,0.2896287357392373
769.0,0.28718199979214987
768.0,0.28474897112115083
767.0,0.28216313251307445
766.0,0.2791794182296561
765.0,0.2761340355564963
764.0,0.2735173032151703
763.0,0.2710783536271406
762.0,0.2684918164039747
761.0,0.26520017041115307
760.0,0.2612194415156308
759.0,0.2569608451950669
758.0,0.2527436025578558
757.0,0.2487208960166578
756.0,0.24488773360492888
755.0,0.24086118371883347
754.0,0.2363474294354697
753.0,0.23158391178366822
752.0,0.2267256516625462
751.0,0.22148698826107527
750.0,0.21552535623748348
749.0,0.20866029603486047
748.0,0.20114226825251436
747.0,0.19314197048118253
746.0,0.1847544080834369
745.0,0.17665620917935154
744.0,0.16941133131485575
743.0,0.163359458427226
742.0,0.1590787998012282
741.0,0.1577028656719348
740.0,0.16077342598656452
739.0,0.16921892439363884
738.0,0.18302996224270052
737.0,0.20155653964981246
736.0,0.2235167441663184
735.0,0.24710684511540615
734.0,0.2712405248321257
733.0,0.29593532059143257
732.0,0.3221194184884095
731.0,0.3506651412878581
730.0,0.38237070224215786
729.0,0.41816407594235194
728.0,0.4587953093167416
727.0,0.5033470607490822
726.0,0.5479067509822686
725.0,0.5870357280033371
724.0,0.61475131759678
723.0,0.627824713884936
722.0,0.6258017420709172
721.0,0.6118987984294832
720.0,0.5922692719736646
719.0,0.5730010412434627
718.0,0.5565805382171827
717.0,0.5425723070535156
716.0,0.5300307905000405
715.0,0.5175552080817347
714.0,0.5048721187570668
713.0,0.49227902331438655
712.0,0.4817493486915001
711.0,0.4741780478433373
710.0,0.4692881620183431
709.0,0.46610089920340547
708.0,0.4639468448407953
707.0,0.4621809049267258
706.0,0.45992091119582734
705.0,0.456925764966468
704.0,0.4538276316830574
703.0,0.45038376048091466
702.0,0.4463596637686458
701.0,0.4421320384319778
700.0,0.4385408287580841
699.0,0.43568909003939726
698.0,0.43273830764612553
697.0,0.4295738216410274
696.0,0.42689621683600887
695.0,0.42458120878564
694.0,0.42170469487917384
693.0,0.4178229623115912
692.0,0.41386297476920686
691.0,0.4103854593687337
690.0,0.40682473652189755
689.0,0.4028535121663046
688.0,0.3993537643376055
687.0,0.3970722871408108
686.0,0.3954499674287386
685.0,0.3941564609419108
684.0,0.3930814740517088
683.0,0.39222339625830704
682.0,0.390619055749293
681.0,0.38806437495987733
680.0,0.3853136577179874
679.0,0.38299965887910115
678.0,0.3810110796350663
677.0,0.3795516152882912
676.0,0.3789276288563741
675.0,0.378615971518347
674.0,0.37706103078850983
673.0,0.37458464784559187
672.0,0.37304404856455253
671.0,0.3726341434072673
670.0,0.3703865546218168
669.0,0.36351210364663467
668.0,0.35733766855796456
667.0,0.35912122129838164
666.0,0.3646167959525015
665.0,0.3677452233152865
664.0,0.36764395376092684
663.0,0.3652205418540484
662.0,0.36211018341920953
661.0,0.35902194264166787
660.0,0.3566460380231371
659.0,0.3550692920864127
658.0,0.35428306063039616
657.0,0.35418488170335816
656.0,0.3546759984377066
655.0,0.3552660725528074
654.0,0.3549709352788575
653.0,0.3534982499683881
652.0,0.3525192268263242
651.0,0.3527148549746333
650.0,0.35261702988538013
649.0,0.35047043405218115
648.0,0.34659450933549873
647.0,0.3433269541151498
646.0,0.34217954398430295
645.0,0.3423705686110481
644.0,0.34275287011628364
643.0,0.34246611244201386
642.0,0.3417023496918101
641.0,0.341511618690983
640.0,0.3436142809413123
639.0,0.3481407307530511
638.0,0.3537923877933149
637.0,0.35912122129838164
636.0,0.36411431471872735
635.0,0.36845477216569056
634.0,0.3698773571406879
633.0,0.3662286539174444
632.0,0.35931984672233486
631.0,0.3533022687006655
630.0,0.35017853677543487
629.0,0.3492069603480692
628.0,0.3484312611342082
627.0,0.34649805303706716
626.0,0.3428484980990334
625.0,0.33837659077076987
624.0,0.33451281921718934
623.0,0.33198702835816785
622.0,0.33068311943388773
621.0,0.329754146925876
620.0,0.32929040477620286
619.0,0.329197715739056
618.0,0.329197715739056
617.0,0.32910504647979
616.0,0.329754146925876
615.0,0.3314277308154421
614.0,0.33245366048848357
613.0,0.33161408330999986
612.0,0.3286419965565084
611.0,0.32477174640693596
610.0,0.3205721033878812
609.0,0.3169529617611504
608.0,0.31515463835558766
607.0,0.3156933539283684
606.0,0.3174939140609889
605.0,0.3184874133610378
604.0,0.3186682940308343
603.0,0.3195738291418546
602.0,0.3219370950256548
601.0,0.32449661527204343
600.0,0.3255062827036499
