cm-1,A
4000.0,0.003050751504618754
3999.0,0.0030944893043338695
3998.0,0.0030944893043338695
3997.0,0.0030070181092942683
3996.0,0.0029195645282691363
3995.0,0.0027884171674950053
3994.0,0.002701007590486082
3993.0,0.002701007590486082
3992.0,0.0027884171674950053
3991.0,0.0028758443407954637
3990.0,0.0029195645282691363
3989.0,0.0029632891174733444
3988.0,0.0029632891174733444
3987.0,0.003050751504618754
3986.0,0.0031382315093266833
3985.0,0.0032694845648473247
3984.0,0.0033570086445275926
3983.0,0.0033132443998284966
3982.0,0.0031819781204844855
3981.0,0.0030944893043338695
3980.0,0.0030070181092942683
3979.0,0.003050751504618754
3978.0,0.0031382315093266833
3977.0,0.0032257291386954545
3976.0,0.0032694845648473247
3975.0,0.0032694845648473247
3974.0,0.0032257291386954545
3973.0,0.0032257291386954545
3972.0,0.0032257291386954545
3971.0,0.0032694845648473247
3970.0,0.0032694845648473247
3969.0,0.0032694845648473247
3968.0,0.0032694845648473247
3967.0,0.0032257291386954545
3966.0,0.0031382315093266833
3965.0,0.0030070181092942683
3964.0,0.0028321285541661467
3963.0,0.002701007590486082
3962.0,0.0026573093983774942
3961.0,0.0027884171674950053
3960.0,0.0029632891174733444
3959.0,0.0030944893043338695
3958.0,0.0031819781204844855
3957.0,0.0032257291386954545
3956.0,0.0032694845648473247
3955.0,0.0033132443998284966
3954.0,0.0034007772998332353
3953.0,0.0034007772998332353
3952.0,0.0034007772998332353
3951.0,0.0032694845648473247
3950.0,0.0031382315093266833
3949.0,0.003050751504618754
3948.0,0.003050751504618754
3947.0,0.0031819781204844855
3946.0,0.0033132443998284966
3945.0,0.0033570086445275926
3944.0,0.0033570086445275926
3943.0,0.0032694845648473247
3942.0,0.0031382315093266833
3941.0,0.003050751504618754
3940.0,0.0030070181092942683
3939.0,0.003050751504618754
3938.0,0.0032257291386954545
3937.0,0.0034007772998332353
3936.0,0.003488327845821315
3935.0,0.0034445503666347133
3934.0,0.0033132443998284966
3933.0,0.0032257291386954545
3932.0,0.0032257291386954545
3931.0,0.0032694845648473247
3930.0,0.0033570086445275926
3929.0,0.0034007772998332353
3928.0,0.0034445503666347133
3927.0,0.0034007772998332353
3926.0,0.0033570086445275926
3925.0,0.0033132443998284966
3924.0,0.0034007772998332353
3923.0,0.0034007772998332353
3922.0,0.0034007772998332353
3921.0,0.0033132443998284966
3920.0,0.0032257291386954545
3919.0,0.0031382315093266833
3918.0,0.003050751504618754
3917.0,0.0029195645282691363
3916.0,0.0028758443407954637
3915.0,0.0028758443407954637
3914.0,0.0029195645282691363
3913.0,0.0030070181092942683
3912.0,0.0031382315093266833
3911.0,0.0031819781204844855
3910.0,0.0032694845648473247
3909.0,0.0033132443998284966
3908.0,0.0034007772998332353
3907.0,0.0034007772998332353
3906.0,0.0033570086445275926
3905.0,0.0033570086445275926
3904.0,0.0034445503666347133
3903.0,0.003619686766589858
3902.0,0.003707281458678491
3901.0,0.0036634819042162814
3900.0,0.003619686766589858
3899.0,0.0036634819042162814
3898.0,0.003707281458678491
3897.0,0.003707281458678491
3896.0,0.0036634819042162814
3895.0,0.0036634819042162814
3894.0,0.0035321097382827737
3893.0,0.0033570086445275926
3892.0,0.0031382315093266833
3891.0,0.003050751504618754
3890.0,0.0031382315093266833
3889.0,0.0033132443998284966
3888.0,0.0033570086445275926
3887.0,0.0033570086445275926
3886.0,0.003488327845821315
3885.0,0.003794893821675638
3884.0,0.00401400208620073
3883.0,0.003970171588923321
3882.0,0.0035758960449088217
3881.0,0.0032694845648473247
3880.0,0.0032257291386954545
3879.0,0.0034445503666347133
3878.0,0.003707281458678491
3877.0,0.0038387066319929275
3876.0,0.0038387066319929275
3875.0,0.003794893821675638
3874.0,0.003926345514724705
3873.0,0.003970171588923321
3872.0,0.0038387066319929275
3871.0,0.0035321097382827737
3870.0,0.003488327845821315
3869.0,0.0037510854308679953
3868.0,0.00401400208620073
3867.0,0.00401400208620073
3866.0,0.003794893821675638
3865.0,0.0035321097382827737
3864.0,0.0034445503666347133
3863.0,0.0033570086445275926
3862.0,0.0032694845648473247
3861.0,0.0031382315093266833
3860.0,0.0030944893043338695
3859.0,0.0031819781204844855
3858.0,0.0033570086445275926
3857.0,0.0036634819042162814
3856.0,0.0037510854308679953
3855.0,0.003619686766589858
3854.0,0.0036634819042162814
3853.0,0.003794893821675638
3852.0,0.0037510854308679953
3851.0,0.0035321097382827737
3850.0,0.0033132443998284966
3849.0,0.0031819781204844855
3848.0,0.0032257291386954545
3847.0,0.0033132443998284966
3846.0,0.0033570086445275926
3845.0,0.0033132443998284966
3844.0,0.0031819781204844855
3843.0,0.0031819781204844855
3842.0,0.0033132443998284966
3841.0,0.0034445503666347133
3840.0,0.003488327845821315
3839.0,0.003488327845821315
3838.0,0.003488327845821315
3837.0,0.0035321097382827737
3836.0,0.0035758960449088217
3835.0,0.0036634819042162814
3834.0,0.0036634819042162814
3833.0,0.0035321097382827737
3832.0,0.0034445503666347133
3831.0,0.0034007772998332353
3830.0,0.0034445503666347133
3829.0,0.0034445503666347133
3828.0,0.0034007772998332353
3827.0,0.0034445503666347133
3826.0,0.003619686766589858
3825.0,0.0038825238627120395
3824.0,0.003970171588923321
3823.0,0.0037510854308679953
3822.0,0.0035321097382827737
3821.0,0.003707281458678491
3820.0,0.004101676353562844
3819.0,0.004320939488377862
3818.0,0.004101676353562844
3817.0,0.003707281458678491
3816.0,0.0035321097382827737
3815.0,0.0035321097382827737
3814.0,0.003488327845821315
3813.0,0.0033132443998284966
3812.0,0.0031819781204844855
3811.0,0.0032694845648473247
3810.0,0.0035321097382827737
3809.0,0.0036634819042162814
3808.0,0.003707281458678491
3807.0,0.0037510854308679953
3806.0,0.00401400208620073
3805.0,0.004320939488377862
3804.0,0.004277078004534696
3803.0,0.003794893821675638
3802.0,0.0034007772998332353
3801.0,0.0034007772998332353
3800.0,0.0035758960449088217
3799.0,0.003619686766589858
3798.0,0.003488327845821315
3797.0,0.0034007772998332353
3796.0,0.0034445503666347133
3795.0,0.0035758960449088217
3794.0,0.0035758960449088217
3793.0,0.003488327845821315
3792.0,0.0033570086445275926
3791.0,0.0032257291386954545
3790.0,0.0031819781204844855
3789.0,0.0032257291386954545
3788.0,0.0032694845648473247
3787.0,0.0033570086445275926
3786.0,0.0033570086445275926
3785.0,0.0034007772998332353
3784.0,0.0034445503666347133
3783.0,0.003488327845821315
3782.0,0.0034007772998332353
3781.0,0.0032694845648473247
3780.0,0.0031819781204844855
3779.0,0.0033132443998284966
3778.0,0.0034445503666347133
3777.0,0.0035321097382827737
3776.0,0.0034007772998332353
3775.0,0.0032694845648473247
3774.0,0.0032257291386954545
3773.0,0.0031382315093266833
3772.0,0.003050751504618754
3771.0,0.0029632891174733444
3770.0,0.0031382315093266833
3769.0,0.0034445503666347133
3768.0,0.0036634819042162814
3767.0,0.003707281458678491
3766.0,0.0035758960449088217
3765.0,0.0035321097382827737
3764.0,0.0035758960449088217
3763.0,0.0037510854308679953
3762.0,0.0038387066319929275
3761.0,0.0038825238627120395
3760.0,0.003926345514724705
3759.0,0.0038825238627120395
3758.0,0.0037510854308679953
3757.0,0.0036634819042162814
3756.0,0.0036634819042162814
3755.0,0.003794893821675638
3754.0,0.003926345514724705
3753.0,0.0040578370074493275
3752.0,0.004145520125434121
3751.0,0.004189368323957332
3750.0,0.004101676353562844
3749.0,0.004101676353562844
3748.0,0.004233220950025984
3747.0,0.004320939488377862
3746.0,0.0040578370074493275
3745.0,0.0038825238627120395
3744.0,0.003970171588923321
3743.0,0.004101676353562844
3742.0,0.004101676353562844
3741.0,0.00401400208620073
3740.0,0.0040578370074493275
3739.0,0.004145520125434121
3738.0,0.004189368323957332
3737.0,0.004101676353562844
3736.0,0.0040578370074493275
3735.0,0.004145520125434121
3734.0,0.004145520125434121
3733.0,0.003970171588923321
3732.0,0.003794893821675638
3731.0,0.0036634819042162814
3730.0,0.0036634819042162814
3729.0,0.0036634819042162814
3728.0,0.003619686766589858
3727.0,0.0036634819042162814
3726.0,0.0037510854308679953
3725.0,0.0037510854308679953
3724.0,0.003619686766589858
3723.0,0.003488327845821315
3722.0,0.0035321097382827737
3721.0,0.003707281458678491
3720.0,0.0038825238627120395
3719.0,0.003926345514724705
3718.0,0.0038825238627120395
3717.0,0.003926345514724705
3716.0,0.0040578370074493275
3715.0,0.004101676353562844
3714.0,0.003970171588923321
3713.0,0.003707281458678491
3712.0,0.0035758960449088217
3711.0,0.003619686766589858
3710.0,0.003707281458678491
3709.0,0.003707281458678491
3708.0,0.0036634819042162814
3707.0,0.0036634819042162814
3706.0,0.003707281458678491
3705.0,0.003794893821675638
3704.0,0.0038387066319929275
3703.0,0.003794893821675638
3702.0,0.0037510854308679953
3701.0,0.003794893821675638
3700.0,0.0038387066319929275
3699.0,0.0038825238627120395
3698.0,0.0038825238627120395
3697.0,0.0038825238627120395
3696.0,0.003970171588923321
3695.0,0.004145520125434121
3694.0,0.004320939488377862
3693.0,0.0044964297349936455
3692.0,0.004628093971837721
3691.0,0.004671990922590297
3690.0,0.004715892310740433
3689.0,0.004759798137184523
3688.0,0.004803708402820517
3687.0,0.004803708402820517
3686.0,0.004759798137184523
3685.0,0.004671990922590297
3684.0,0.004540313378935901
3683.0,0.0044964297349936455
3682.0,0.004452550524862486
3681.0,0.0044964297349936455
3680.0,0.004759798137184523
3679.0,0.005199100705396198
3678.0,0.005550862985963967
3677.0,0.005594853310833647
3676.0,0.00577085918230158
3675.0,0.006079041198713275
3674.0,0.006343371384537999
3673.0,0.006431517210272464
3672.0,0.006079041198713275
3671.0,0.005682847330363394
3670.0,0.005594853310833647
3669.0,0.005682847330363394
3668.0,0.00577085918230158
3667.0,0.005726851026829571
3666.0,0.005726851026829571
3665.0,0.00577085918230158
3664.0,0.00590291041179003
3663.0,0.006035001804881146
3662.0,0.006079041198713275
3661.0,0.00612308505878878
3660.0,0.00621118618129457
3659.0,0.006299305179649828
3658.0,0.006299305179649828
3657.0,0.006387442061109638
3656.0,0.006607862550997545
3655.0,0.00696076819309055
3654.0,0.007313960837872058
3653.0,0.0075790439479759275
3652.0,0.007667440952535687
3651.0,0.007844288957383316
3650.0,0.008286724286910463
3649.0,0.008685301823389224
3648.0,0.008818242332126802
3647.0,0.008685301823389224
3646.0,0.008552401996197112
3645.0,0.008375265465994541
3644.0,0.008198201155356077
3643.0,0.008109696063975047
3642.0,0.008153946355103248
3641.0,0.008286724286910463
3640.0,0.008463824699968647
3639.0,0.008685301823389224
3638.0,0.008906891951112605
3637.0,0.009172949432521227
3636.0,0.009350411681145587
3635.0,0.009439170005980158
3634.0,0.00966114521239847
3633.0,0.010060986715464404
3632.0,0.010416710688994968
3631.0,0.010550182333308289
3630.0,0.010550182333308289
3629.0,0.01077272626946324
3628.0,0.011084479487313281
3627.0,0.011218156546359825
3626.0,0.011218156546359825
3625.0,0.011262724711199823
3624.0,0.011396456654336085
3623.0,0.011619434777991433
3622.0,0.011887159731648111
3621.0,0.01215504982870197
3620.0,0.012467797270160563
3619.0,0.012914970375878188
3618.0,0.013317820220494436
3617.0,0.013631406429727155
3616.0,0.01372104409400876
3615.0,0.013765869865004277
3614.0,0.013900374944870508
3613.0,0.014079779876432497
3612.0,0.014304140310157809
3611.0,0.014438812226654996
3610.0,0.014573525916998342
3609.0,0.014843078722943437
3608.0,0.015247721884586563
3607.0,0.015652742414136167
3606.0,0.015877917138889863
3605.0,0.016058141016111804
3604.0,0.016193358021584725
3603.0,0.016418813294209356
3602.0,0.016644385668211692
3601.0,0.016915227262211507
3600.0,0.017231422748988034
3599.0,0.017502630802287644
3598.0,0.017728766960431575
3597.0,0.017864505196230507
3596.0,0.017955020928509757
3595.0,0.018045555530026514
3594.0,0.018226681372252695
3593.0,0.01840788278591865
3592.0,0.018634490921455527
3591.0,0.018906576854070378
3590.0,0.019133445417920836
3589.0,0.01940584422377989
3588.0,0.019814763052665052
3587.0,0.02026956933771462
3586.0,0.020542681902151694
3585.0,0.020724852408976924
3584.0,0.020907099361673565
3583.0,0.021135015652343103
3582.0,0.02140867317992523
3581.0,0.02168250325324883
3580.0,0.021910826943857264
3579.0,0.0221849739168134
3578.0,0.022413561996148967
3577.0,0.02259651912656535
3576.0,0.022733787572707387
3575.0,0.022871099419317753
3574.0,0.023100049017062307
3573.0,0.023374947949272418
3572.0,0.023741750742954926
3571.0,0.024200690320592466
3570.0,0.02461415101053266
3569.0,0.025028005701930978
3568.0,0.02562649291857677
3567.0,0.026271941311972746
3566.0,0.026733563891471412
3565.0,0.02691835039863255
3564.0,0.02691835039863255
3563.0,0.02691835039863255
3562.0,0.027010773144651168
3561.0,0.027149444152769986
3560.0,0.027334407733889066
3559.0,0.02751945012352408
3558.0,0.027797161620935595
3557.0,0.02812138297373412
3556.0,0.028445846553939003
3555.0,0.028770552723758724
3554.0,0.02904906565457588
3553.0,0.029281296279810798
3552.0,0.029467170231675777
3551.0,0.02969962459782227
3550.0,0.029885677714903025
3549.0,0.030211462585061133
3548.0,0.03067729388779794
3547.0,0.031236951802751545
3546.0,0.03184406285002961
3545.0,0.032311649546687526
3544.0,0.032592443402527316
3543.0,0.03273290844021437
3542.0,0.032873418923587305
3541.0,0.03301397488206215
3540.0,0.033154576345083564
3539.0,0.03338901331806565
3538.0,0.03362357691107709
3537.0,0.033952178923546183
3536.0,0.03423403581731388
3535.0,0.034516075754861264
3534.0,0.03475124903287918
3533.0,0.03498654972775217
3532.0,0.03526907894637077
3531.0,0.035646070707806565
3530.0,0.0360705779734416
3529.0,0.03644826642590382
3528.0,0.03682628362474838
3527.0,0.03720463014276687
3526.0,0.037583306554248797
3525.0,0.03791491948264003
3524.0,0.038199360808321536
3523.0,0.03848398855105106
3522.0,0.038673844065289176
3521.0,0.038911280232103884
3520.0,0.03910132267333921
3519.0,0.039338992729018196
3518.0,0.03962436858984186
3517.0,0.039909932095080425
3516.0,0.04019568349166214
3515.0,0.040481623027001756
3514.0,0.04076775094900409
3513.0,0.041006334969674096
3512.0,0.04129280891271536
3511.0,0.041579471947481794
3510.0,0.04200982159316968
3509.0,0.04244059810252043
3508.0,0.042775942156833
3507.0,0.043063586155803746
3506.0,0.043303435105349175
3505.0,0.04359142880416744
3504.0,0.04402377775167454
3503.0,0.04450467081587295
3502.0,0.04488976902944808
3501.0,0.04522701031028298
3500.0,0.0454680573730859
3499.0,0.04580574818413763
3498.0,0.046143701775014145
3497.0,0.046481918555007384
3496.0,0.04682039893436585
3495.0,0.04711073508906982
3494.0,0.047352830241056854
3493.0,0.04754660357696672
3492.0,0.04778894189133087
3491.0,0.04803141550708934
3490.0,0.04832256265669943
3489.0,0.04866248120408234
3488.0,0.04900266601119507
3487.0,0.049294465226138895
3486.0,0.04958646063061889
3485.0,0.04987865248862655
3484.0,0.05026854768429301
3483.0,0.050707598587974356
3482.0,0.051098239029786274
3481.0,0.05144033789103841
3480.0,0.05163594401163074
3479.0,0.05188057561946402
3478.0,0.05222329153526162
3477.0,0.052762392129333646
3476.0,0.053351266093323746
3475.0,0.05399011523423525
3474.0,0.05453141486818014
3473.0,0.0549255115212699
3472.0,0.055172003656783764
3471.0,0.05536929814372171
3470.0,0.055566682299785564
3469.0,0.05581353871631256
3468.0,0.05610995175152733
3467.0,0.056406567231630955
3466.0,0.0567528748621382
3465.0,0.05709945885970602
3464.0,0.05749589383191922
3463.0,0.05799194697768684
3462.0,0.05858795962645047
3461.0,0.059135024033278416
3460.0,0.0595831353183347
3459.0,0.05983228596592505
3458.0,0.060081579630943294
3457.0,0.06038092104330195
3456.0,0.06078036414518184
3455.0,0.06128018521761747
3454.0,0.06173051653708872
3453.0,0.06208109735221967
3452.0,0.062381820606176586
3451.0,0.06263258248271053
3450.0,0.06283329628496737
3449.0,0.06318476880236723
3448.0,0.06363708040225546
3447.0,0.06408986356949264
3446.0,0.06444235490698613
3445.0,0.06469430971007495
3444.0,0.06489597884855036
3443.0,0.06514819703433927
3442.0,0.0655520510510299
3441.0,0.06600683616875758
3440.0,0.06646209802829528
3439.0,0.06691783763020887
3438.0,0.06737405597821788
3437.0,0.06777998612288094
3436.0,0.06803388527182741
3435.0,0.06828793294324442
3434.0,0.0685421293109949
3433.0,0.0688982543673613
3432.0,0.06940751155740177
3431.0,0.06996838504902692
3430.0,0.07047889936889606
3429.0,0.07088774334533943
3428.0,0.07124579782334672
3427.0,0.07160414774328627
3426.0,0.07191154033502922
3425.0,0.07227044022834539
3424.0,0.07262963696097646
3423.0,0.07288638806623937
3422.0,0.07314329105030759
3421.0,0.0734517753643813
3420.0,0.07370901311513656
3419.0,0.07391491307485598
3418.0,0.07412091069849924
3417.0,0.07427547306393745
3416.0,0.07443009045662374
3415.0,0.07468790850035045
3414.0,0.07499749231902242
3413.0,0.07535895258283709
3412.0,0.07577241873988227
3411.0,0.07608277688689435
3410.0,0.0763933569825408
3409.0,0.07660053384128362
3408.0,0.07680780957933253
3407.0,0.07696333132921396
3406.0,0.07711890879170658
3405.0,0.0772226580712021
3404.0,0.07732643214144574
3403.0,0.07743023101428781
3402.0,0.07753405470158659
3401.0,0.07768983678560404
3400.0,0.07784567476894111
3399.0,0.07800156869172903
3398.0,0.07805354577058976
3397.0,0.0781575185941421
3396.0,0.0781575185941421
3395.0,0.07810552907089763
3394.0,0.07805354577058976
3393.0,0.07810552907089763
3392.0,0.07820951434181311
3391.0,0.07826151631540124
3390.0,0.07826151631540124
3389.0,0.07820951434181311
3388.0,0.0781575185941421
3387.0,0.07820951434181311
3386.0,0.07826151631540124
3385.0,0.07820951434181311
3384.0,0.07805354577058976
3383.0,0.0777417765670334
3382.0,0.07737832847680104
3381.0,0.07711890879170658
3380.0,0.07691148455760066
3379.0,0.07680780957933253
3378.0,0.07680780957933253
3377.0,0.07685964397479927
3376.0,0.07691148455760066
3375.0,0.07696333132921396
3374.0,0.07691148455760066
3373.0,0.07675598136972361
3372.0,0.07649693305789551
3371.0,0.07628980560343712
3370.0,0.07618627890881036
3369.0,0.07618627890881036
3368.0,0.07618627890881036
3367.0,0.07613452481449845
3366.0,0.07592757008963713
3365.0,0.07566901529132153
3364.0,0.07546228222451012
3363.0,0.07530729697981409
3362.0,0.07525564752005143
3361.0,0.07525564752005143
3360.0,0.07525564752005143
3359.0,0.07515236702446293
3358.0,0.07489427319033615
3357.0,0.07468790850035045
3356.0,0.07448164182257
3355.0,0.07437854520917098
3354.0,0.07427547306393745
3353.0,0.07422394616325367
3352.0,0.07417242537525759
3351.0,0.07401789967289685
3350.0,0.07386342893255127
3349.0,0.07365755337434488
3348.0,0.07334892291111106
3347.0,0.07304051161972436
3346.0,0.07283502570063005
3345.0,0.07273231918911849
3344.0,0.07273231918911849
3343.0,0.07273231918911849
3342.0,0.07268097504034388
3341.0,0.07247565912497134
3340.0,0.07216786713341827
3339.0,0.07191154033502922
3338.0,0.07160414774328627
3337.0,0.07139934015547578
3336.0,0.07129697256940304
3335.0,0.07129697256940304
3334.0,0.07124579782334672
3333.0,0.07109230975604719
3332.0,0.07088774334533943
3331.0,0.07063217075990047
3330.0,0.07032568205141221
3329.0,0.07001940948448526
3328.0,0.06971335275448043
3327.0,0.06956040523329987
3326.0,0.06950943469373039
3325.0,0.06950943469373039
3324.0,0.06950943469373039
3323.0,0.06940751155740177
3322.0,0.0692037370166998
3321.0,0.0690000580438479
3320.0,0.06874559358358656
3319.0,0.0685421293109949
3318.0,0.06828793294324442
3317.0,0.06813548650796819
3316.0,0.06803388527182741
3315.0,0.06798309356579857
3314.0,0.06798309356579857
3313.0,0.06793230779927839
3312.0,0.06788152797087754
3311.0,0.06772922410050963
3310.0,0.06752623532284674
3309.0,0.06732334137759932
3308.0,0.0671712330991534
3307.0,0.06701917807680191
3306.0,0.06686717627326577
3305.0,0.06661395809694559
3304.0,0.06641148980334699
3303.0,0.06610796423578891
3302.0,0.06590573164451952
3301.0,0.06570359318059427
3300.0,0.06560255921901192
3299.0,0.0655520510510299
3298.0,0.06545105233385295
3297.0,0.0653500770992892
3296.0,0.06519865825346338
3295.0,0.06504729218214189
3294.0,0.06484555278383164
3293.0,0.06474471821595262
3292.0,0.06469430971007495
3291.0,0.06464390705442691
3290.0,0.06459351024765114
3289.0,0.06449273417528723
3288.0,0.06434161389936577
3287.0,0.06414020196211956
3286.0,0.06393888339001164
3285.0,0.06378795567975115
3284.0,0.06363708040225546
3283.0,0.06343599486473406
3282.0,0.06323500239005853
3281.0,0.06303410289212974
3280.0,0.06283329628496737
3279.0,0.06263258248271053
3278.0,0.06253226035662252
3277.0,0.06258241852286206
3276.0,0.0627329277885873
3275.0,0.06283329628496737
3274.0,0.06293368798257193
3273.0,0.06288348923294618
3272.0,0.06283329628496737
3271.0,0.06268275223750575
3270.0,0.06253226035662252
3269.0,0.062331685600995
3268.0,0.06218131530164395
3267.0,0.06208109735221967
3266.0,0.06203099704854709
3265.0,0.06198090252378963
3264.0,0.061880730805688344
3263.0,0.061680456657844385
3262.0,0.06153031163235467
3261.0,0.06143024377893891
3260.0,0.06143024377893891
3259.0,0.06148027482350815
3258.0,0.06143024377893891
3257.0,0.061380218497318895
3256.0,0.06133019897732073
3255.0,0.06133019897732073
3254.0,0.06133019897732073
3253.0,0.06128018521761747
3252.0,0.06128018521761747
3251.0,0.06128018521761747
3250.0,0.06123017721688262
3249.0,0.0611301784870133
3248.0,0.060880282351513104
3247.0,0.06063052992534024
3246.0,0.060430831344098435
3245.0,0.060231224546650086
3244.0,0.060081579630943294
3243.0,0.05988213325228142
3242.0,0.05963295401433477
3241.0,0.05928434309333741
3240.0,0.05898575629443026
3239.0,0.058737090681050264
3238.0,0.05863766428823891
3237.0,0.05858795962645047
3236.0,0.05858795962645047
3235.0,0.05848856736559682
3234.0,0.0583395216116076
3233.0,0.058190526991161784
3232.0,0.05809122563440061
3231.0,0.05794231615860479
3230.0,0.05779345772290467
3229.0,0.0575950591438934
3228.0,0.05734718830678798
3227.0,0.057000406633959555
3226.0,0.05660442349104544
3225.0,0.05620880107069848
3224.0,0.055912320584565744
3223.0,0.055764156206519866
3222.0,0.055764156206519866
3221.0,0.055764156206519866
3220.0,0.05571477931124735
3219.0,0.05561604235915585
3218.0,0.05551732784983132
3217.0,0.05541863577307371
3216.0,0.055270639696704205
3215.0,0.05507339001378431
3214.0,0.05477768336465916
3213.0,0.05448217792216048
3212.0,0.054186873412661596
3211.0,0.05399011523423525
3210.0,0.05379344615721715
3209.0,0.05369514500652506
3208.0,0.053596866100945384
3207.0,0.05354773498692689
3206.0,0.0534986094304124
3205.0,0.053449489430144714
3204.0,0.05330216275425803
3203.0,0.05300765925162776
3202.0,0.05261529831525902
3201.0,0.05227227303668425
3200.0,0.052027420754219955
3199.0,0.05188057561946402
3198.0,0.05173378011970464
3197.0,0.0515870342213991
3196.0,0.05134256785867963
3195.0,0.051049389754451946
3194.0,0.05075640943173498
3193.0,0.05056119896349576
3192.0,0.050414848673348
3191.0,0.05026854768429301
3190.0,0.05012229596312534
3189.0,0.049927370249842395
3188.0,0.04968383607539972
3187.0,0.04939177521576932
3186.0,0.04909991063361274
3185.0,0.048808242065293994
3184.0,0.0486139051197072
3183.0,0.04841965509660828
3182.0,0.04827402457540786
3181.0,0.048128442871635535
3180.0,0.047982909952573705
3179.0,0.04778894189133087
3178.0,0.04754660357696672
3177.0,0.04730440041308315
3176.0,0.047062332249019345
3175.0,0.04682039893436585
3174.0,0.04662694927330402
3173.0,0.046481918555007384
3172.0,0.04628861957244457
3171.0,0.046047116768076934
3170.0,0.04575749056067524
3169.0,0.0454680573730859
3168.0,0.04522701031028298
3167.0,0.044986096961949995
3166.0,0.044793462458058375
3165.0,0.04460091336073302
3164.0,0.044456557540257124
3163.0,0.044360346976747955
3162.0,0.04426415772233416
3161.0,0.044167989767578186
3160.0,0.04402377775167454
3159.0,0.04387961360698034
3158.0,0.04359142880416744
3157.0,0.043303435105349175
3156.0,0.043063586155803746
3155.0,0.04291974034210022
3154.0,0.042775942156833
3153.0,0.042584285277331047
3152.0,0.042344833056508824
3151.0,0.04210551278710151
3150.0,0.04186632432376469
3149.0,0.04167506835594681
3148.0,0.04153168163305643
3147.0,0.041340572947066834
3146.0,0.041149548320321694
3145.0,0.04086316882962593
3144.0,0.04057697805689475
3143.0,0.0402909757535701
3142.0,0.0400527842915015
3141.0,0.03986232513620536
3140.0,0.03967194946985697
3139.0,0.03952922246570112
3138.0,0.03938654235209116
3137.0,0.03914884628031379
3136.0,0.038958783046687984
3135.0,0.038816290187564384
3134.0,0.038816290187564384
3133.0,0.03876880295533702
3132.0,0.03862637240519895
3131.0,0.038341651362284734
3130.0,0.03796231343498735
3129.0,0.037583306554248797
3128.0,0.037299268295658994
3127.0,0.0371573187987575
3126.0,0.037062711569998186
3125.0,0.0369681249461018
3124.0,0.036873558918095295
3123.0,0.036731748473764814
3122.0,0.036542739883292485
3121.0,0.03625938114211591
3120.0,0.03597620715996652
3119.0,0.035646070707806565
3118.0,0.03541041251009669
3117.0,0.03522197797762394
3116.0,0.03508070571335731
3115.0,0.03498654972775217
3114.0,0.03484535401307465
3113.0,0.03479829897408804
3112.0,0.03470420418834386
3111.0,0.03461012978487776
3110.0,0.034469056377139484
3109.0,0.03428102975577918
3108.0,0.03409308450480819
3107.0,0.033905220553829274
3106.0,0.0338113190438627
3105.0,0.03367050483612166
3104.0,0.033482823553208085
3103.0,0.0332483359486222
3102.0,0.03301397488206215
3101.0,0.032920265855503006
3100.0,0.032873418923587305
3099.0,0.032873418923587305
3098.0,0.032873418923587305
3097.0,0.03282657704446046
3096.0,0.032686081712916426
3095.0,0.032545631817259224
3094.0,0.032311649546687526
3093.0,0.032124554451966825
3092.0,0.03189079887180224
3091.0,0.031657169041054534
3090.0,0.03147035562516054
3089.0,0.03128362253321426
3088.0,0.031143625385307683
3087.0,0.030957032694186815
3086.0,0.030770520137356927
3085.0,0.03063068826647264
3084.0,0.030490901403433135
3083.0,0.030397735151460825
3082.0,0.03030458888152676
3081.0,0.030164906924202484
3080.0,0.029932203450862893
3079.0,0.02969962459782227
3078.0,0.02942069428514915
3077.0,0.029188389127482228
3076.0,0.02904906565457588
3075.0,0.02890978686288448
3074.0,0.028770552723758724
3073.0,0.028677754757187035
3072.0,0.02863136320857662
3071.0,0.02858497661500481
3070.0,0.02849221828874393
3069.0,0.02839947976994095
3068.0,0.02826040911222183
3067.0,0.028075050815808744
3066.0,0.027936083991977778
3065.0,0.027797161620935595
3064.0,0.027658283674251827
3063.0,0.02747318213414429
3062.0,0.027334407733889066
3061.0,0.027149444152769986
3060.0,0.02696455931306696
3059.0,0.02677975314776626
3058.0,0.026595025589939425
3057.0,0.026410376572743033
3056.0,0.026271941311972746
3055.0,0.02617967564731627
3054.0,0.026087429580295085
3053.0,0.025995203102585407
3052.0,0.025949097207122573
3051.0,0.025902996205869
3050.0,0.025856900097785074
3049.0,0.025764722556973707
3048.0,0.02562649291857677
3047.0,0.02544225514642018
3046.0,0.025304128090317013
3045.0,0.02512002699306959
3044.0,0.02498200236711723
3043.0,0.024798037742147727
3042.0,0.02461415101053266
3041.0,0.024522236834125355
3040.0,0.024522236834125355
3039.0,0.024522236834125355
3038.0,0.024476287039668643
3037.0,0.02438440203310499
3036.0,0.024200690320592466
3035.0,0.02406295751688936
3034.0,0.023879381700184332
3033.0,0.023787622882622816
3032.0,0.023695883447997224
3031.0,0.023604163388120325
3030.0,0.02355831062115543
3029.0,0.023466619608062178
3028.0,0.023374947949272418
3027.0,0.023191662661933732
3026.0,0.02300845469384938
3025.0,0.02282532397981263
3024.0,0.022688026603074007
3023.0,0.02259651912656535
3022.0,0.02245929405346514
3021.0,0.022322112326006227
3020.0,0.0221849739168134
3019.0,0.022093572362881675
3018.0,0.02200219004126036
3017.0,0.021910826943857264
3016.0,0.021819483062586187
3015.0,0.021728158389364705
3014.0,0.021545566634771474
3013.0,0.02140867317992523
3012.0,0.021317434843055594
3011.0,0.02122621566987748
3010.0,0.0211806132671577
3009.0,0.021135015652343103
3008.0,0.021043834782408455
3007.0,0.020907099361673565
3006.0,0.020770406977844713
3005.0,0.020633757603838898
3004.0,0.020542681902151694
3003.0,0.020497151212598652
3002.0,0.020406104151069693
3001.0,0.020315076172974234
3000.0,0.02022406727031445
2999.0,0.020178569969774962
2998.0,0.02013307743509718
2997.0,0.020087589665283012
2996.0,0.019996628416253603
2995.0,0.01990568621470623
2994.0,0.019814763052665052
2993.0,0.019769308608968306
2992.0,0.019769308608968306
2991.0,0.019769308608968306
2990.0,0.019723858922159776
2989.0,0.019723858922159776
2988.0,0.019678413991243593
2987.0,0.019678413991243593
2986.0,0.019723858922159776
2985.0,0.019814763052665052
2984.0,0.01995115493504329
2983.0,0.020087589665283012
2982.0,0.02022406727031445
2981.0,0.02036058777709271
2980.0,0.020542681902151694
2979.0,0.020724852408976924
2978.0,0.020952673052035298
2977.0,0.0211806132671577
2976.0,0.0214542995372613
2975.0,0.021773818325474092
2974.0,0.022230681908425698
2973.0,0.02282532397981263
2972.0,0.023466619608062178
2971.0,0.024108863598207186
2970.0,0.024660115394541604
2969.0,0.02521206778644225
2968.0,0.025764722556973707
2967.0,0.026456531467510258
2966.0,0.02724191609646076
2965.0,0.028075050815808744
2964.0,0.02890978686288448
2963.0,0.02960662792039992
2962.0,0.030211462585061133
2961.0,0.03067729388779794
2960.0,0.03105031901865729
2959.0,0.03137697904301118
2958.0,0.03175060589208267
2957.0,0.03217132066984485
2956.0,0.032592443402527316
2955.0,0.0329671178412978
2954.0,0.033201453616638954
2953.0,0.03338901331806565
2952.0,0.03352973627071565
2951.0,0.03376437590141812
2950.0,0.03414006319292828
2949.0,0.03461012978487776
2948.0,0.03526907894637077
2947.0,0.03621217265444465
2946.0,0.037488606492403154
2945.0,0.03910132267333921
2944.0,0.041006334969674096
2943.0,0.043063586155803746
2942.0,0.04537162249272897
2941.0,0.047885915093007325
2940.0,0.050707598587974356
2939.0,0.05379344615721715
2938.0,0.057198533682059516
2937.0,0.06093025007657582
2936.0,0.06489597884855036
2935.0,0.06915280831750303
2934.0,0.07370901311513656
2933.0,0.07852161962430992
2932.0,0.08365134772453975
2931.0,0.08910891135547172
2930.0,0.09496007192378841
2929.0,0.10127481841050656
2928.0,0.1081838804751396
2927.0,0.1157145376603248
2926.0,0.12395544975390482
2925.0,0.13300418688935212
2924.0,0.14296920172737604
2923.0,0.15397232463562127
2922.0,0.16596098184053343
2921.0,0.1788141173911546
2920.0,0.19219446772937543
2919.0,0.20537255533549192
2918.0,0.21709759402535544
2917.0,0.2258481410452895
2916.0,0.2302535328205466
2915.0,0.2298847052128985
2914.0,0.2252641174482466
2913.0,0.21752737583371373
2912.0,0.20823919598709506
2911.0,0.1985276864785288
2910.0,0.18922998876563635
2909.0,0.180587688790675
2908.0,0.17295398299526576
2907.0,0.16621562534352097
2906.0,0.16045910703103106
2905.0,0.15546069787099204
2904.0,0.15107228677292173
2903.0,0.1471541819850033
2902.0,0.14351278713136928
2901.0,0.1402014525194344
2900.0,0.13721290176465573
2899.0,0.13448148092522594
2898.0,0.1318847946727828
2897.0,0.12930354201075
2896.0,0.126621263590859
2895.0,0.12395544975390482
2894.0,0.12124847982699793
2893.0,0.11861534322942724
2892.0,0.11588463798833115
2891.0,0.11317099532301778
2890.0,0.11030620855581463
2889.0,0.10740457717110186
2888.0,0.10446696051592963
2887.0,0.10149421446564144
2886.0,0.09859617317474823
2885.0,0.0957714836599215
2884.0,0.09296504751658308
2883.0,0.0900697402471693
2882.0,0.08719360733870762
2881.0,0.08428366205400617
2880.0,0.08149786036382611
2879.0,0.07883394936226118
2878.0,0.07628980560343712
2877.0,0.07396640332115534
2876.0,0.0718090519612431
2875.0,0.0699173666076287
2874.0,0.06823711151882228
2873.0,0.06671522765130522
2872.0,0.0653500770992892
2871.0,0.06403953101083348
2870.0,0.06293368798257193
2869.0,0.06208109735221967
2868.0,0.06153031163235467
2867.0,0.06143024377893891
2866.0,0.06173051653708872
2865.0,0.06258241852286206
2864.0,0.06398920428479049
2863.0,0.06600683616875758
2862.0,0.06869471857832687
2861.0,0.07216786713341827
2860.0,0.07649693305789551
2859.0,0.08186477383364066
2858.0,0.08841629901892434
2857.0,0.09620485725896466
2856.0,0.10562854614376227
2855.0,0.1170772093974013
2854.0,0.1308269726783169
2853.0,0.14697138528701026
2852.0,0.16519794595130088
2851.0,0.18415670933673334
2850.0,0.20134935455473113
2849.0,0.2135325232597176
2848.0,0.2182446253475312
2847.0,0.21495504166845603
2846.0,0.20530287310800133
2845.0,0.1920592787845008
2844.0,0.17750501472124913
2843.0,0.16342272515935097
2842.0,0.15045774799498335
2841.0,0.13894375542312654
2840.0,0.12883586719705065
2839.0,0.12004441487725082
2838.0,0.11238269966426384
2837.0,0.10579474085791629
2836.0,0.10007011727213588
2835.0,0.09517630019905599
2834.0,0.09087205801073917
2833.0,0.08714052483764512
2832.0,0.08380934001946239
2831.0,0.08081727095749947
2830.0,0.07805354577058976
2829.0,0.0756173227980268
2828.0,0.07340034609297241
2827.0,0.07139934015547578
2826.0,0.06950943469373039
2825.0,0.06772922410050963
2824.0,0.0659562809644747
2823.0,0.06444235490698613
2822.0,0.0630843190547461
2821.0,0.061880730805688344
2820.0,0.06078036414518184
2819.0,0.05968277842578207
2818.0,0.05858795962645047
2817.0,0.05749589383191922
2816.0,0.056406567231630955
2815.0,0.05541863577307371
2814.0,0.05448217792216048
2813.0,0.053596866100945384
2812.0,0.05271335532220167
2811.0,0.05188057561946402
2810.0,0.05114709380028648
2809.0,0.05051241005349638
2808.0,0.04987865248862655
2807.0,0.049294465226138895
2806.0,0.0486139051197072
2805.0,0.047982909952573705
2804.0,0.047352830241056854
2803.0,0.04672366333269573
2802.0,0.04609540658654021
2801.0,0.0454680573730859
2800.0,0.04488976902944808
2799.0,0.044312249686494276
2798.0,0.043735497301724546
2797.0,0.04320747962950522
2796.0,0.04272802000705722
2795.0,0.04229695845116854
2794.0,0.04181850243505214
2793.0,0.041340572947066834
2792.0,0.04086316882962593
2791.0,0.04038628892895613
2790.0,0.03995754427315856
2789.0,0.03952922246570112
2788.0,0.03910132267333921
2787.0,0.038673844065289176
2786.0,0.03824678581321739
2785.0,0.03777276864991497
2784.0,0.037299268295658994
2783.0,0.036873558918095295
2782.0,0.036542739883292485
2781.0,0.03625938114211591
2780.0,0.03597620715996652
2779.0,0.035646070707806565
2778.0,0.03526907894637077
2777.0,0.0349394793888016
2776.0,0.03465716443937783
2775.0,0.03442204208947208
2774.0,0.034187046963396917
2773.0,0.033905220553829274
2772.0,0.03357665405630694
2771.0,0.033201453616638954
2770.0,0.032920265855503006
2769.0,0.032686081712916426
2768.0,0.03245202378113787
2767.0,0.032218091924200776
2766.0,0.032031037121307726
2765.0,0.03179733185715028
2764.0,0.031563752288295444
2763.0,0.03137697904301118
2762.0,0.031143625385307683
2761.0,0.030957032694186815
2760.0,0.0307239045110681
2759.0,0.030490901403433135
2758.0,0.03025802323714588
2757.0,0.030071810571884017
2756.0,0.029885677714903025
2755.0,0.02969962459782227
2754.0,0.02960662792039992
2753.0,0.029467170231675777
2752.0,0.029374223311705583
2751.0,0.029234840219232394
2750.0,0.029002634427514717
2749.0,0.028816959143838528
2748.0,0.02858497661500481
2747.0,0.028353117935693284
2746.0,0.028167720075074953
2745.0,0.028028723600243666
2744.0,0.027936083991977778
2743.0,0.027936083991977778
2742.0,0.027936083991977778
2741.0,0.027889771597169544
2740.0,0.027750864037404455
2739.0,0.027565723042634938
2738.0,0.02738066094037661
2737.0,0.02724191609646076
2736.0,0.02710321556345563
2735.0,0.02696455931306696
2734.0,0.026872146400301444
2733.0,0.02677975314776626
2732.0,0.026733563891471412
2731.0,0.026687379547098322
2730.0,0.026595025589939425
2729.0,0.026456531467510258
2728.0,0.026271941311972746
2727.0,0.026087429580295085
2726.0,0.025902996205869
2725.0,0.025672564576383117
2724.0,0.025488307262671706
2723.0,0.025350165561278004
2722.0,0.025258095499050004
2721.0,0.02516604495145991
2720.0,0.025074013910237447
2719.0,0.02498200236711723
2718.0,0.02484402159331056
2717.0,0.024706084643793647
2716.0,0.02461415101053266
2715.0,0.024522236834125355
2714.0,0.02438440203310499
2713.0,0.024292536462819925
2712.0,0.024200690320592466
2711.0,0.024108863598207186
2710.0,0.023971159908874107
2709.0,0.023879381700184332
2708.0,0.023787622882622816
2707.0,0.023695883447997224
2706.0,0.02355831062115543
2705.0,0.02342078135989012
2704.0,0.023283295636617574
2703.0,0.023237476732539397
2702.0,0.023191662661933732
2701.0,0.023100049017062307
2700.0,0.023054249440757957
2699.0,0.02300845469384938
2698.0,0.02291687968414724
2697.0,0.022871099419317753
2696.0,0.022733787572707387
2695.0,0.022642270454698687
2694.0,0.02255077261765881
2693.0,0.02245929405346514
2692.0,0.022367834754000393
2691.0,0.02227639471115217
2690.0,0.02227639471115217
2689.0,0.02227639471115217
2688.0,0.02227639471115217
2687.0,0.022230681908425698
2686.0,0.022093572362881675
2685.0,0.021956506090037076
2684.0,0.021773818325474092
2683.0,0.02168250325324883
2682.0,0.021636852916117055
2681.0,0.02159120737696063
2680.0,0.02159120737696063
2679.0,0.021545566634771474
2678.0,0.021545566634771474
2677.0,0.021545566634771474
2676.0,0.02159120737696063
2675.0,0.02159120737696063
2674.0,0.02159120737696063
2673.0,0.021545566634771474
2672.0,0.02140867317992523
2671.0,0.021363051615525652
2670.0,0.021317434843055594
2669.0,0.021317434843055594
2668.0,0.021363051615525652
2667.0,0.0214542995372613
2666.0,0.0214542995372613
2665.0,0.0214542995372613
2664.0,0.02140867317992523
2663.0,0.021317434843055594
2662.0,0.02122621566987748
2661.0,0.021135015652343103
2660.0,0.021043834782408455
2659.0,0.0209982515252789
2658.0,0.020952673052035298
2657.0,0.02081596632558158
2656.0,0.020724852408976924
2655.0,0.020633757603838898
2654.0,0.02058821736556471
2653.0,0.020542681902151694
2652.0,0.020497151212598652
2651.0,0.020406104151069693
2650.0,0.020315076172974234
2649.0,0.02026956933771462
2648.0,0.02026956933771462
2647.0,0.02026956933771462
2646.0,0.02026956933771462
2645.0,0.02026956933771462
2644.0,0.02026956933771462
2643.0,0.020178569969774962
2642.0,0.02013307743509718
2641.0,0.020087589665283012
2640.0,0.02004210665933459
2639.0,0.02004210665933459
2638.0,0.02004210665933459
2637.0,0.02004210665933459
2636.0,0.02004210665933459
2635.0,0.02004210665933459
2634.0,0.01995115493504329
2633.0,0.019814763052665052
2632.0,0.019678413991243593
2631.0,0.01949668180660491
2630.0,0.01940584422377989
2629.0,0.019360432556262852
2628.0,0.019360432556262852
2627.0,0.019315025636685412
2626.0,0.019269623464054586
2625.0,0.019133445417920836
2624.0,0.018951941086827073
2623.0,0.018770512579999288
2622.0,0.01858915983411169
2621.0,0.01845319495476394
2620.0,0.018362575344230914
2619.0,0.018362575344230914
2618.0,0.01831727262871463
2617.0,0.01831727262871463
2616.0,0.018271974638383703
2615.0,0.018181392829336396
2614.0,0.01809082990920774
2613.0,0.01800028587012159
2612.0,0.017909760704207134
2611.0,0.017774008325325275
2610.0,0.017638298366853045
2609.0,0.017502630802287644
2608.0,0.017502630802287644
2607.0,0.017547848615010242
2606.0,0.01759307113620534
2605.0,0.01759307113620534
2604.0,0.017502630802287644
2603.0,0.017321806616515723
2602.0,0.017186237868137555
2601.0,0.017050711425501408
2600.0,0.016960383953898095
2599.0,0.016870075265299933
2598.0,0.016870075265299933
2597.0,0.016824927962187042
2596.0,0.01677978535189717
2595.0,0.016734647433454652
2594.0,0.016644385668211692
2593.0,0.016599261819461697
2592.0,0.016599261819461697
2591.0,0.016599261819461697
2590.0,0.016554142658660398
2589.0,0.01646391839700767
2588.0,0.016373712875465518
2587.0,0.016238439713835096
2586.0,0.016148281008528276
2585.0,0.016103208673694303
2584.0,0.016103208673694303
2583.0,0.016058141016111804
2582.0,0.016013078034810446
2581.0,0.016013078034810446
2580.0,0.01596801972881945
2579.0,0.015877917138889863
2578.0,0.015832872853011715
2577.0,0.015832872853011715
2576.0,0.01578783323856614
2575.0,0.015742798294583915
2574.0,0.015652742414136167
2573.0,0.015517693597737248
2572.0,0.015427684378367834
2571.0,0.01538268676325183
2570.0,0.015337693809893471
2569.0,0.015292705517326866
2568.0,0.015247721884586563
2567.0,0.015202742910707112
2566.0,0.015202742910707112
2565.0,0.015202742910707112
2564.0,0.015202742910707112
2563.0,0.015247721884586563
2562.0,0.015247721884586563
2561.0,0.015202742910707112
2560.0,0.015157768594724175
2559.0,0.015112798935672522
2558.0,0.015067833932588037
2557.0,0.015022873584506602
2556.0,0.014932966849499074
2555.0,0.014888020460646079
2554.0,0.014798141635428141
2553.0,0.014663358264387139
2552.0,0.014573525916998342
2551.0,0.0144837121472845
2550.0,0.014393916947563534
2549.0,0.014393916947563534
2548.0,0.014438812226654996
2547.0,0.0144837121472845
2546.0,0.01452861671041239
2545.0,0.0144837121472845
2544.0,0.014438812226654996
2543.0,0.014393916947563534
2542.0,0.014349026309051105
2541.0,0.014304140310157809
2540.0,0.014214382227394795
2539.0,0.014079779876432497
2538.0,0.01403492169512921
2537.0,0.013990068146738865
2536.0,0.013990068146738865
2535.0,0.013990068146738865
2534.0,0.013990068146738865
2533.0,0.013990068146738865
2532.0,0.013945219230304673
2531.0,0.013900374944870508
2530.0,0.01385553528947936
2529.0,0.01381070026317599
2528.0,0.013765869865004277
2527.0,0.01372104409400876
2526.0,0.01372104409400876
2525.0,0.01372104409400876
2524.0,0.013676222949234651
2523.0,0.013631406429727155
2522.0,0.013586594534531482
2521.0,0.013541787262693505
2520.0,0.013496984613259544
2519.0,0.013407393177789162
2518.0,0.013407393177789162
2517.0,0.013407393177789162
2516.0,0.013407393177789162
2515.0,0.013362604389846044
2514.0,0.013362604389846044
2513.0,0.013317820220494436
2512.0,0.013273040668781544
2511.0,0.01322826573375524
2510.0,0.01322826573375524
2509.0,0.01322826573375524
2508.0,0.013273040668781544
2507.0,0.01322826573375524
2506.0,0.013138729709955221
2505.0,0.013049212141483357
2504.0,0.013049212141483357
2503.0,0.013138729709955221
2502.0,0.013273040668781544
2501.0,0.013317820220494436
2500.0,0.01322826573375524
2499.0,0.013049212141483357
2498.0,0.012914970375878188
2497.0,0.012825498912458322
2496.0,0.012780770091995297
2495.0,0.012825498912458322
2494.0,0.012870232340102872
2493.0,0.012870232340102872
2492.0,0.012870232340102872
2491.0,0.012780770091995297
2490.0,0.012691326268817527
2489.0,0.01264661126420652
2488.0,0.01260190086298274
2487.0,0.012557195064198723
2486.0,0.012557195064198723
2485.0,0.012557195064198723
2484.0,0.012512493866907004
2483.0,0.012512493866907004
2482.0,0.012467797270160563
2481.0,0.012423105273012602
2480.0,0.012423105273012602
2479.0,0.012467797270160563
2478.0,0.012512493866907004
2477.0,0.01260190086298274
2476.0,0.012691326268817527
2475.0,0.012780770091995297
2474.0,0.012780770091995297
2473.0,0.012736045877764557
2472.0,0.01260190086298274
2471.0,0.012467797270160563
2470.0,0.012378417874516323
2469.0,0.012333735073725371
2468.0,0.012289056869694281
2467.0,0.012289056869694281
2466.0,0.012289056869694281
2465.0,0.012244383261476699
2464.0,0.012199714248127602
2463.0,0.01215504982870197
2462.0,0.01215504982870197
2461.0,0.01215504982870197
2460.0,0.01215504982870197
2459.0,0.012110390002254778
2458.0,0.012065734767841452
2457.0,0.012065734767841452
2456.0,0.012065734767841452
2455.0,0.0119764380713403
2454.0,0.011931796607364653
2453.0,0.0119764380713403
2452.0,0.012065734767841452
2451.0,0.01215504982870197
2450.0,0.012199714248127602
2449.0,0.012199714248127602
2448.0,0.01215504982870197
2447.0,0.012065734767841452
2446.0,0.011931796607364653
2445.0,0.011887159731648111
2444.0,0.011797899741219142
2443.0,0.011753276624621556
2442.0,0.011753276624621556
2441.0,0.011797899741219142
2440.0,0.011887159731648111
2439.0,0.0119764380713403
2438.0,0.0119764380713403
2437.0,0.0119764380713403
2436.0,0.011931796607364653
2435.0,0.011887159731648111
2434.0,0.011887159731648111
2433.0,0.011931796607364653
2432.0,0.0119764380713403
2431.0,0.0119764380713403
2430.0,0.011931796607364653
2429.0,0.011931796607364653
2428.0,0.011931796607364653
2427.0,0.011931796607364653
2426.0,0.011931796607364653
2425.0,0.011931796607364653
2424.0,0.011931796607364653
2423.0,0.0119764380713403
2422.0,0.012021084124518078
2421.0,0.0119764380713403
2420.0,0.0119764380713403
2419.0,0.011931796607364653
2418.0,0.0119764380713403
2417.0,0.0119764380713403
2416.0,0.011931796607364653
2415.0,0.011887159731648111
2414.0,0.011842527443247208
2413.0,0.011797899741219142
2412.0,0.011753276624621556
2411.0,0.011708658092512314
2410.0,0.011664044143949504
2409.0,0.011708658092512314
2408.0,0.011753276624621556
2407.0,0.011797899741219142
2406.0,0.011887159731648111
2405.0,0.011887159731648111
2404.0,0.011887159731648111
2403.0,0.011887159731648111
2402.0,0.011797899741219142
2401.0,0.011753276624621556
2400.0,0.011708658092512314
2399.0,0.011708658092512314
2398.0,0.011708658092512314
2397.0,0.011708658092512314
2396.0,0.011708658092512314
2395.0,0.011708658092512314
2394.0,0.011708658092512314
2393.0,0.011664044143949504
2392.0,0.011619434777991433
2391.0,0.011664044143949504
2390.0,0.011708658092512314
2389.0,0.011708658092512314
2388.0,0.011619434777991433
2387.0,0.011530229790124524
2386.0,0.011485634166333858
2385.0,0.011441043121384498
2384.0,0.011351874764248926
2383.0,0.011262724711199823
2382.0,0.011129033935354915
2381.0,0.011129033935354915
2380.0,0.011262724711199823
2379.0,0.011441043121384498
2378.0,0.011708658092512314
2377.0,0.011931796607364653
2376.0,0.012021084124518078
2375.0,0.011842527443247208
2374.0,0.011530229790124524
2373.0,0.011262724711199823
2372.0,0.01117359295472431
2371.0,0.011084479487313281
2370.0,0.010950843561779777
2369.0,0.01086177578421088
2368.0,0.01086177578421088
2367.0,0.01086177578421088
2366.0,0.010906307389674463
2365.0,0.011396456654336085
2364.0,0.012333735073725371
2363.0,0.013317820220494436
2362.0,0.013945219230304673
2361.0,0.014169510141607944
2360.0,0.01403492169512921
2359.0,0.013586594534531482
2358.0,0.013049212141483357
2357.0,0.012691326268817527
2356.0,0.01264661126420652
2355.0,0.012467797270160563
2354.0,0.012110390002254778
2353.0,0.011797899741219142
2352.0,0.011753276624621556
2351.0,0.011753276624621556
2350.0,0.011619434777991433
2349.0,0.011218156546359825
2348.0,0.010639186223752484
2347.0,0.010060986715464404
2346.0,0.009838807101520963
2345.0,0.009972101229705377
2344.0,0.010327752376126709
2343.0,0.01077272626946324
2342.0,0.011307297450183107
2341.0,0.011887159731648111
2340.0,0.012289056869694281
2339.0,0.012423105273012602
2338.0,0.012244383261476699
2337.0,0.011797899741219142
2336.0,0.011262724711199823
2335.0,0.010906307389674463
2334.0,0.010950843561779777
2333.0,0.011307297450183107
2332.0,0.011708658092512314
2331.0,0.0119764380713403
2330.0,0.012110390002254778
2329.0,0.01215504982870197
2328.0,0.01215504982870197
2327.0,0.012065734767841452
2326.0,0.012021084124518078
2325.0,0.012065734767841452
2324.0,0.01215504982870197
2323.0,0.01215504982870197
2322.0,0.012110390002254778
2321.0,0.012065734767841452
2320.0,0.0119764380713403
2319.0,0.0119764380713403
2318.0,0.012110390002254778
2317.0,0.012244383261476699
2316.0,0.012199714248127602
2315.0,0.012021084124518078
2314.0,0.011708658092512314
2313.0,0.011485634166333858
2312.0,0.011396456654336085
2311.0,0.011351874764248926
2310.0,0.011441043121384498
2309.0,0.011530229790124524
2308.0,0.011664044143949504
2307.0,0.011797899741219142
2306.0,0.011931796607364653
2305.0,0.0119764380713403
2304.0,0.0119764380713403
2303.0,0.011887159731648111
2302.0,0.011797899741219142
2301.0,0.011664044143949504
2300.0,0.011619434777991433
2299.0,0.011574829993696856
2298.0,0.011530229790124524
2297.0,0.011574829993696856
2296.0,0.011619434777991433
2295.0,0.011664044143949504
2294.0,0.011664044143949504
2293.0,0.011708658092512314
2292.0,0.011708658092512314
2291.0,0.011708658092512314
2290.0,0.011664044143949504
2289.0,0.011664044143949504
2288.0,0.011708658092512314
2287.0,0.011753276624621556
2286.0,0.011797899741219142
2285.0,0.011797899741219142
2284.0,0.011797899741219142
2283.0,0.011753276624621556
2282.0,0.011753276624621556
2281.0,0.011753276624621556
2280.0,0.011753276624621556
2279.0,0.011753276624621556
2278.0,0.011708658092512314
2277.0,0.011664044143949504
2276.0,0.011708658092512314
2275.0,0.011753276624621556
2274.0,0.011753276624621556
2273.0,0.011708658092512314
2272.0,0.011619434777991433
2271.0,0.011574829993696856
2270.0,0.011530229790124524
2269.0,0.011530229790124524
2268.0,0.011530229790124524
2267.0,0.011530229790124524
2266.0,0.011530229790124524
2265.0,0.011574829993696856
2264.0,0.011619434777991433
2263.0,0.011574829993696856
2262.0,0.011530229790124524
2261.0,0.011441043121384498
2260.0,0.011441043121384498
2259.0,0.011485634166333858
2258.0,0.011530229790124524
2257.0,0.011574829993696856
2256.0,0.011574829993696856
2255.0,0.011485634166333858
2254.0,0.011396456654336085
2253.0,0.011351874764248926
2252.0,0.011396456654336085
2251.0,0.011441043121384498
2250.0,0.011530229790124524
2249.0,0.011530229790124524
2248.0,0.011530229790124524
2247.0,0.011485634166333858
2246.0,0.011485634166333858
2245.0,0.011530229790124524
2244.0,0.011619434777991433
2243.0,0.011664044143949504
2242.0,0.011664044143949504
2241.0,0.011664044143949504
2240.0,0.011664044143949504
2239.0,0.011574829993696856
2238.0,0.011485634166333858
2237.0,0.011351874764248926
2236.0,0.011262724711199823
2235.0,0.011218156546359825
2234.0,0.01117359295472431
2233.0,0.011129033935354915
2232.0,0.011129033935354915
2231.0,0.011129033935354915
2230.0,0.011218156546359825
2229.0,0.011307297450183107
2228.0,0.011485634166333858
2227.0,0.011574829993696856
2226.0,0.011574829993696856
2225.0,0.011441043121384498
2224.0,0.011351874764248926
2223.0,0.011262724711199823
2222.0,0.011218156546359825
2221.0,0.011218156546359825
2220.0,0.011218156546359825
2219.0,0.01117359295472431
2218.0,0.01117359295472431
2217.0,0.01117359295472431
2216.0,0.01117359295472431
2215.0,0.011218156546359825
2214.0,0.011262724711199823
2213.0,0.011307297450183107
2212.0,0.011351874764248926
2211.0,0.011351874764248926
2210.0,0.011262724711199823
2209.0,0.011218156546359825
2208.0,0.01117359295472431
2207.0,0.01117359295472431
2206.0,0.01117359295472431
2205.0,0.011218156546359825
2204.0,0.011218156546359825
2203.0,0.01117359295472431
2202.0,0.01117359295472431
2201.0,0.011218156546359825
2200.0,0.011218156546359825
2199.0,0.011218156546359825
2198.0,0.011218156546359825
2197.0,0.011218156546359825
2196.0,0.011218156546359825
2195.0,0.011218156546359825
2194.0,0.01117359295472431
2193.0,0.01117359295472431
2192.0,0.011129033935354915
2191.0,0.011039929609661936
2190.0,0.010995384301463185
2189.0,0.010995384301463185
2188.0,0.011039929609661936
2187.0,0.011039929609661936
2186.0,0.011129033935354915
2185.0,0.01117359295472431
2184.0,0.01117359295472431
2183.0,0.011218156546359825
2182.0,0.011218156546359825
2181.0,0.011218156546359825
2180.0,0.011218156546359825
2179.0,0.01117359295472431
2178.0,0.01117359295472431
2177.0,0.011129033935354915
2176.0,0.011084479487313281
2175.0,0.011039929609661936
2174.0,0.011039929609661936
2173.0,0.011084479487313281
2172.0,0.01117359295472431
2171.0,0.011218156546359825
2170.0,0.011218156546359825
2169.0,0.011129033935354915
2168.0,0.011039929609661936
2167.0,0.010995384301463185
2166.0,0.010995384301463185
2165.0,0.011039929609661936
2164.0,0.011084479487313281
2163.0,0.011084479487313281
2162.0,0.011084479487313281
2161.0,0.011084479487313281
2160.0,0.011039929609661936
2159.0,0.011039929609661936
2158.0,0.011039929609661936
2157.0,0.011129033935354915
2156.0,0.01117359295472431
2155.0,0.011218156546359825
2154.0,0.011218156546359825
2153.0,0.011262724711199823
2152.0,0.011218156546359825
2151.0,0.01117359295472431
2150.0,0.011129033935354915
2149.0,0.011084479487313281
2148.0,0.011084479487313281
2147.0,0.011039929609661936
2146.0,0.011039929609661936
2145.0,0.010995384301463185
2144.0,0.010950843561779777
2143.0,0.010950843561779777
2142.0,0.010995384301463185
2141.0,0.011084479487313281
2140.0,0.011084479487313281
2139.0,0.011084479487313281
2138.0,0.010995384301463185
2137.0,0.010906307389674463
2136.0,0.01086177578421088
2135.0,0.010817248744452446
2134.0,0.01077272626946324
2133.0,0.01077272626946324
2132.0,0.010817248744452446
2131.0,0.01077272626946324
2130.0,0.010728208358306901
2129.0,0.010683695010048622
2128.0,0.010683695010048622
2127.0,0.01077272626946324
2126.0,0.01086177578421088
2125.0,0.010906307389674463
2124.0,0.010906307389674463
2123.0,0.010906307389674463
2122.0,0.01086177578421088
2121.0,0.010817248744452446
2120.0,0.01077272626946324
2119.0,0.010728208358306901
2118.0,0.010683695010048622
2117.0,0.010639186223752484
2116.0,0.010594681998483901
2115.0,0.010550182333308289
2114.0,0.010550182333308289
2113.0,0.010550182333308289
2112.0,0.010550182333308289
2111.0,0.010550182333308289
2110.0,0.010550182333308289
2109.0,0.010639186223752484
2108.0,0.010728208358306901
2107.0,0.01077272626946324
2106.0,0.010728208358306901
2105.0,0.010728208358306901
2104.0,0.010683695010048622
2103.0,0.010728208358306901
2102.0,0.01077272626946324
2101.0,0.01086177578421088
2100.0,0.010906307389674463
2099.0,0.010995384301463185
2098.0,0.010995384301463185
2097.0,0.010995384301463185
2096.0,0.010950843561779777
2095.0,0.010906307389674463
2094.0,0.01086177578421088
2093.0,0.01086177578421088
2092.0,0.010906307389674463
2091.0,0.010906307389674463
2090.0,0.010906307389674463
2089.0,0.01086177578421088
2088.0,0.01086177578421088
2087.0,0.01086177578421088
2086.0,0.010906307389674463
2085.0,0.010906307389674463
2084.0,0.010906307389674463
2083.0,0.01086177578421088
2082.0,0.01086177578421088
2081.0,0.010906307389674463
2080.0,0.010906307389674463
2079.0,0.010950843561779777
2078.0,0.010950843561779777
2077.0,0.010950843561779777
2076.0,0.010906307389674463
2075.0,0.010906307389674463
2074.0,0.010906307389674463
2073.0,0.010906307389674463
2072.0,0.010906307389674463
2071.0,0.010906307389674463
2070.0,0.010906307389674463
2069.0,0.01086177578421088
2068.0,0.01086177578421088
2067.0,0.010817248744452446
2066.0,0.01086177578421088
2065.0,0.010906307389674463
2064.0,0.010950843561779777
2063.0,0.010950843561779777
2062.0,0.010950843561779777
2061.0,0.010995384301463185
2060.0,0.011039929609661936
2059.0,0.011039929609661936
2058.0,0.010995384301463185
2057.0,0.010950843561779777
2056.0,0.010950843561779777
2055.0,0.010950843561779777
2054.0,0.010995384301463185
2053.0,0.011084479487313281
2052.0,0.01117359295472431
2051.0,0.011262724711199823
2050.0,0.011307297450183107
2049.0,0.011307297450183107
2048.0,0.011218156546359825
2047.0,0.011129033935354915
2046.0,0.011039929609661936
2045.0,0.011084479487313281
2044.0,0.011129033935354915
2043.0,0.011129033935354915
2042.0,0.01117359295472431
2041.0,0.01117359295472431
2040.0,0.01117359295472431
2039.0,0.01117359295472431
2038.0,0.01117359295472431
2037.0,0.011262724711199823
2036.0,0.011396456654336085
2035.0,0.011441043121384498
2034.0,0.011441043121384498
2033.0,0.011396456654336085
2032.0,0.011396456654336085
2031.0,0.011396456654336085
2030.0,0.011351874764248926
2029.0,0.011351874764248926
2028.0,0.011351874764248926
2027.0,0.011351874764248926
2026.0,0.011351874764248926
2025.0,0.011351874764248926
2024.0,0.011351874764248926
2023.0,0.011262724711199823
2022.0,0.01117359295472431
2021.0,0.011129033935354915
2020.0,0.01117359295472431
2019.0,0.01117359295472431
2018.0,0.01117359295472431
2017.0,0.011218156546359825
2016.0,0.011262724711199823
2015.0,0.011307297450183107
2014.0,0.011307297450183107
2013.0,0.011218156546359825
2012.0,0.011129033935354915
2011.0,0.011039929609661936
2010.0,0.010995384301463185
2009.0,0.010950843561779777
2008.0,0.010950843561779777
2007.0,0.010950843561779777
2006.0,0.010950843561779777
2005.0,0.010995384301463185
2004.0,0.011039929609661936
2003.0,0.010995384301463185
2002.0,0.010950843561779777
2001.0,0.010906307389674463
2000.0,0.010906307389674463
1999.0,0.010950843561779777
1998.0,0.010995384301463185
1997.0,0.010995384301463185
1996.0,0.011039929609661936
1995.0,0.011039929609661936
1994.0,0.011039929609661936
1993.0,0.011039929609661936
1992.0,0.010995384301463185
1991.0,0.010906307389674463
1990.0,0.010817248744452446
1989.0,0.01077272626946324
1988.0,0.010728208358306901
1987.0,0.010683695010048622
1986.0,0.010639186223752484
1985.0,0.010639186223752484
1984.0,0.010639186223752484
1983.0,0.010683695010048622
1982.0,0.010728208358306901
1981.0,0.01077272626946324
1980.0,0.01077272626946324
1979.0,0.010728208358306901
1978.0,0.010728208358306901
1977.0,0.010728208358306901
1976.0,0.010728208358306901
1975.0,0.01077272626946324
1974.0,0.010817248744452446
1973.0,0.01086177578421088
1972.0,0.010906307389674463
1971.0,0.01086177578421088
1970.0,0.01077272626946324
1969.0,0.010728208358306901
1968.0,0.010728208358306901
1967.0,0.010728208358306901
1966.0,0.01077272626946324
1965.0,0.01077272626946324
1964.0,0.010728208358306901
1963.0,0.010728208358306901
1962.0,0.010728208358306901
1961.0,0.010728208358306901
1960.0,0.010728208358306901
1959.0,0.010683695010048622
1958.0,0.010639186223752484
1957.0,0.010594681998483901
1956.0,0.010594681998483901
1955.0,0.010594681998483901
1954.0,0.010594681998483901
1953.0,0.010594681998483901
1952.0,0.010550182333308289
1951.0,0.01046119667949763
1950.0,0.010416710688994968
1949.0,0.010416710688994968
1948.0,0.010416710688994968
1947.0,0.01046119667949763
1946.0,0.01046119667949763
1945.0,0.010505687227290839
1944.0,0.010594681998483901
1943.0,0.010639186223752484
1942.0,0.010683695010048622
1941.0,0.010683695010048622
1940.0,0.010550182333308289
1939.0,0.010416710688994968
1938.0,0.010327752376126709
1937.0,0.010327752376126709
1936.0,0.010416710688994968
1935.0,0.010505687227290839
1934.0,0.010639186223752484
1933.0,0.010728208358306901
1932.0,0.01077272626946324
1931.0,0.010728208358306901
1930.0,0.010639186223752484
1929.0,0.010550182333308289
1928.0,0.01046119667949763
1927.0,0.010416710688994968
1926.0,0.010416710688994968
1925.0,0.010505687227290839
1924.0,0.010639186223752484
1923.0,0.010683695010048622
1922.0,0.010683695010048622
1921.0,0.010683695010048622
1920.0,0.010683695010048622
1919.0,0.010728208358306901
1918.0,0.010728208358306901
1917.0,0.01077272626946324
1916.0,0.01077272626946324
1915.0,0.01077272626946324
1914.0,0.01077272626946324
1913.0,0.010728208358306901
1912.0,0.010683695010048622
1911.0,0.010594681998483901
1910.0,0.010550182333308289
1909.0,0.010550182333308289
1908.0,0.010639186223752484
1907.0,0.010683695010048622
1906.0,0.010728208358306901
1905.0,0.010728208358306901
1904.0,0.010728208358306901
1903.0,0.010728208358306901
1902.0,0.010728208358306901
1901.0,0.010817248744452446
1900.0,0.010906307389674463
1899.0,0.010906307389674463
1898.0,0.010906307389674463
1897.0,0.01086177578421088
1896.0,0.010817248744452446
1895.0,0.010817248744452446
1894.0,0.010817248744452446
1893.0,0.010817248744452446
1892.0,0.010728208358306901
1891.0,0.010594681998483901
1890.0,0.010505687227290839
1889.0,0.01046119667949763
1888.0,0.01037222925484893
1887.0,0.010327752376126709
1886.0,0.010283280051895272
1885.0,0.010283280051895272
1884.0,0.010283280051895272
1883.0,0.010327752376126709
1882.0,0.010327752376126709
1881.0,0.010416710688994968
1880.0,0.01046119667949763
1879.0,0.01046119667949763
1878.0,0.01037222925484893
1877.0,0.010327752376126709
1876.0,0.010283280051895272
1875.0,0.010283280051895272
1874.0,0.010283280051895272
1873.0,0.010283280051895272
1872.0,0.010283280051895272
1871.0,0.01023881228122181
1870.0,0.010149890396819572
1869.0,0.010149890396819572
1868.0,0.010149890396819572
1867.0,0.010194349063173958
1866.0,0.010194349063173958
1865.0,0.010194349063173958
1864.0,0.010194349063173958
1863.0,0.010149890396819572
1862.0,0.010149890396819572
1861.0,0.010149890396819572
1860.0,0.010149890396819572
1859.0,0.010194349063173958
1858.0,0.010194349063173958
1857.0,0.01023881228122181
1856.0,0.010194349063173958
1855.0,0.010149890396819572
1854.0,0.010105436281226954
1853.0,0.010149890396819572
1852.0,0.010194349063173958
1851.0,0.010149890396819572
1850.0,0.010060986715464404
1849.0,0.01001654169860089
1848.0,0.010060986715464404
1847.0,0.010105436281226954
1846.0,0.010149890396819572
1845.0,0.010149890396819572
1844.0,0.010060986715464404
1843.0,0.01001654169860089
1842.0,0.009972101229705377
1841.0,0.009972101229705377
1840.0,0.009972101229705377
1839.0,0.009972101229705377
1838.0,0.009972101229705377
1837.0,0.010060986715464404
1836.0,0.010149890396819572
1835.0,0.010105436281226954
1834.0,0.01001654169860089
1833.0,0.009972101229705377
1832.0,0.009927665307847056
1831.0,0.009883233932095559
1830.0,0.009883233932095559
1829.0,0.009972101229705377
1828.0,0.010060986715464404
1827.0,0.010105436281226954
1826.0,0.01001654169860089
1825.0,0.009972101229705377
1824.0,0.009972101229705377
1823.0,0.009927665307847056
1822.0,0.009927665307847056
1821.0,0.009883233932095559
1820.0,0.009838807101520963
1819.0,0.009838807101520963
1818.0,0.009794384815193347
1817.0,0.009838807101520963
1816.0,0.009883233932095559
1815.0,0.009927665307847056
1814.0,0.009883233932095559
1813.0,0.009883233932095559
1812.0,0.009838807101520963
1811.0,0.009794384815193347
1810.0,0.009794384815193347
1809.0,0.009794384815193347
1808.0,0.009838807101520963
1807.0,0.009794384815193347
1806.0,0.009794384815193347
1805.0,0.009794384815193347
1804.0,0.009838807101520963
1803.0,0.009838807101520963
1802.0,0.009794384815193347
1801.0,0.009794384815193347
1800.0,0.009794384815193347
1799.0,0.009794384815193347
1798.0,0.009838807101520963
1797.0,0.009883233932095559
1796.0,0.009927665307847056
1795.0,0.01001654169860089
1794.0,0.01001654169860089
1793.0,0.01001654169860089
1792.0,0.010105436281226954
1791.0,0.010105436281226954
1790.0,0.010060986715464404
1789.0,0.010060986715464404
1788.0,0.010105436281226954
1787.0,0.010149890396819572
1786.0,0.010194349063173958
1785.0,0.010194349063173958
1784.0,0.010194349063173958
1783.0,0.010149890396819572
1782.0,0.010060986715464404
1781.0,0.010060986715464404
1780.0,0.010105436281226954
1779.0,0.010060986715464404
1778.0,0.01001654169860089
1777.0,0.01001654169860089
1776.0,0.010105436281226954
1775.0,0.01023881228122181
1774.0,0.01023881228122181
1773.0,0.010283280051895272
1772.0,0.010416710688994968
1771.0,0.010550182333308289
1770.0,0.010639186223752484
1769.0,0.010639186223752484
1768.0,0.010639186223752484
1767.0,0.010594681998483901
1766.0,0.010594681998483901
1765.0,0.010728208358306901
1764.0,0.01086177578421088
1763.0,0.010950843561779777
1762.0,0.010995384301463185
1761.0,0.011084479487313281
1760.0,0.011129033935354915
1759.0,0.01117359295472431
1758.0,0.011218156546359825
1757.0,0.011262724711199823
1756.0,0.011351874764248926
1755.0,0.011396456654336085
1754.0,0.011441043121384498
1753.0,0.011441043121384498
1752.0,0.011485634166333858
1751.0,0.011574829993696856
1750.0,0.011708658092512314
1749.0,0.011887159731648111
1748.0,0.012110390002254778
1747.0,0.012333735073725371
1746.0,0.012423105273012602
1745.0,0.012512493866907004
1744.0,0.01264661126420652
1743.0,0.012691326268817527
1742.0,0.012691326268817527
1741.0,0.012691326268817527
1740.0,0.012736045877764557
1739.0,0.012780770091995297
1738.0,0.012870232340102872
1737.0,0.013004460275618523
1736.0,0.013049212141483357
1735.0,0.013004460275618523
1734.0,0.013138729709955221
1733.0,0.013273040668781544
1732.0,0.013407393177789162
1731.0,0.013631406429727155
1730.0,0.01385553528947936
1729.0,0.014079779876432497
1728.0,0.014259258949925524
1727.0,0.014438812226654996
1726.0,0.014618439768003144
1725.0,0.014843078722943437
1724.0,0.015112798935672522
1723.0,0.015337693809893471
1722.0,0.015517693597737248
1721.0,0.015652742414136167
1720.0,0.015697768020096703
1719.0,0.015697768020096703
1718.0,0.015832872853011715
1717.0,0.016148281008528276
1716.0,0.016373712875465518
1715.0,0.016509028184833463
1714.0,0.016599261819461697
1713.0,0.016644385668211692
1712.0,0.016689514205884493
1711.0,0.016734647433454652
1710.0,0.01677978535189717
1709.0,0.016870075265299933
1708.0,0.016960383953898095
1707.0,0.017050711425501408
1706.0,0.017141057687924732
1705.0,0.017321806616515723
1704.0,0.017502630802287644
1703.0,0.017638298366853045
1702.0,0.017638298366853045
1701.0,0.017638298366853045
1700.0,0.01781925440359733
1699.0,0.017955020928509757
1698.0,0.01809082990920774
1697.0,0.01840788278591865
1696.0,0.018815862601645694
1695.0,0.019133445417920836
1694.0,0.019360432556262852
1693.0,0.01958753839310856
1692.0,0.019814763052665052
1691.0,0.02004210665933459
1690.0,0.02026956933771462
1689.0,0.020633757603838898
1688.0,0.020952673052035298
1687.0,0.0211806132671577
1686.0,0.021271822861508305
1685.0,0.021728158389364705
1684.0,0.022733787572707387
1683.0,0.02342078135989012
1682.0,0.023741750742954926
1681.0,0.02406295751688936
1680.0,0.024430342106337877
1679.0,0.02484402159331056
1678.0,0.02516604495145991
1677.0,0.025488307262671706
1676.0,0.025949097207122573
1675.0,0.026410376572743033
1674.0,0.026733563891471412
1673.0,0.02696455931306696
1672.0,0.027334407733889066
1671.0,0.027797161620935595
1670.0,0.02839947976994095
1669.0,0.029002634427514717
1668.0,0.02932775731028059
1667.0,0.029513651152349718
1666.0,0.02960662792039992
1665.0,0.029792641193145286
1664.0,0.030164906924202484
1663.0,0.030770520137356927
1662.0,0.03137697904301118
1661.0,0.03184406285002961
1660.0,0.032124554451966825
1659.0,0.032311649546687526
1658.0,0.03240522732811035
1657.0,0.032545631817259224
1656.0,0.03263926003405038
1655.0,0.03263926003405038
1654.0,0.03301397488206215
1653.0,0.03432802877989327
1652.0,0.03498654972775217
1651.0,0.03498654972775217
1650.0,0.03498654972775217
1649.0,0.03517488211661135
1648.0,0.03578752703018084
1647.0,0.03692083935817303
1646.0,0.03800971255993524
1645.0,0.038531444649213764
1644.0,0.03886378261277468
1643.0,0.03910132267333921
1642.0,0.03929144831144349
1641.0,0.03938654235209116
1640.0,0.039338992729018196
1639.0,0.03910132267333921
1638.0,0.038673844065289176
1637.0,0.03810452633214956
1636.0,0.037488606492403154
1635.0,0.03682628362474838
1634.0,0.03602339000339416
1633.0,0.03526907894637077
1632.0,0.03456310022373987
1631.0,0.033905220553829274
1630.0,0.0332483359486222
1629.0,0.03273290844021437
1628.0,0.03235843591698884
1627.0,0.03207779326948268
1626.0,0.03175060589208267
1625.0,0.03133029827960798
1624.0,0.030910397045078586
1623.0,0.030490901403433135
1622.0,0.030118356253500123
1621.0,0.029746130405213123
1620.0,0.029374223311705583
1619.0,0.02904906565457588
1618.0,0.02872415126189476
1617.0,0.02858497661500481
1616.0,0.02849221828874393
1615.0,0.028353117935693284
1614.0,0.02812138297373412
1613.0,0.027843464140506313
1612.0,0.02751945012352408
1611.0,0.027149444152769986
1610.0,0.02677975314776626
1609.0,0.026502691267936695
1608.0,0.026271941311972746
1607.0,0.026041313893296225
1606.0,0.025810808881832736
1605.0,0.02553436426275746
1604.0,0.025258095499050004
1603.0,0.025074013910237447
1602.0,0.024890010313838973
1601.0,0.024660115394541604
1600.0,0.024430342106337877
1599.0,0.024154774532432866
1598.0,0.023879381700184332
1597.0,0.023604163388120325
1596.0,0.023329119375188556
1595.0,0.023054249440757957
1594.0,0.02282532397981263
1593.0,0.022642270454698687
1592.0,0.02245929405346514
1591.0,0.022322112326006227
1590.0,0.0221849739168134
1589.0,0.02200219004126036
1588.0,0.021819483062586187
1587.0,0.02159120737696063
1586.0,0.021317434843055594
1585.0,0.021089422824428272
1584.0,0.020861530453190058
1583.0,0.02067930261797568
1582.0,0.020406104151069693
1581.0,0.020178569969774962
1580.0,0.01990568621470623
1579.0,0.019678413991243593
1578.0,0.01949668180660491
1577.0,0.019315025636685412
1576.0,0.019178833355664393
1575.0,0.019042683770379876
1574.0,0.018861217359339655
1573.0,0.018725167293411005
1572.0,0.018634490921455527
1571.0,0.018498511851753108
1570.0,0.018362575344230914
1569.0,0.018226681372252695
1568.0,0.01809082990920774
1567.0,0.017909760704207134
1566.0,0.017774008325325275
1565.0,0.01759307113620534
1564.0,0.017457417697056554
1563.0,0.017412209298337533
1562.0,0.017367005605150476
1561.0,0.017095882207371904
1560.0,0.016599261819461697
1559.0,0.016599261819461697
1558.0,0.016554142658660398
1557.0,0.016418813294209356
1556.0,0.016373712875465518
1555.0,0.01632861713980338
1554.0,0.016238439713835096
1553.0,0.016058141016111804
1552.0,0.015877917138889863
1551.0,0.015652742414136167
1550.0,0.01547268665620738
1549.0,0.01538268676325183
1548.0,0.015337693809893471
1547.0,0.015202742910707112
1546.0,0.015067833932588037
1545.0,0.014977917890464765
1544.0,0.014977917890464765
1543.0,0.014932966849499074
1542.0,0.014708281407112
1541.0,0.014618439768003144
1540.0,0.014798141635428141
1539.0,0.014843078722943437
1538.0,0.014708281407112
1537.0,0.014663358264387139
1536.0,0.014618439768003144
1535.0,0.0144837121472845
1534.0,0.014349026309051105
1533.0,0.014393916947563534
1532.0,0.014438812226654996
1531.0,0.014304140310157809
1530.0,0.014124642691606404
1529.0,0.013990068146738865
1528.0,0.01385553528947936
1527.0,0.01372104409400876
1526.0,0.013541787262693505
1525.0,0.013452186585275916
1524.0,0.013362604389846044
1523.0,0.01318349541446362
1522.0,0.012959713020733288
1521.0,0.012914970375878188
1520.0,0.013004460275618523
1519.0,0.013004460275618523
1518.0,0.013004460275618523
1517.0,0.013049212141483357
1516.0,0.013049212141483357
1515.0,0.012870232340102872
1514.0,0.01264661126420652
1513.0,0.012557195064198723
1512.0,0.012512493866907004
1511.0,0.012467797270160563
1510.0,0.012467797270160563
1509.0,0.012512493866907004
1508.0,0.012557195064198723
1507.0,0.012557195064198723
1506.0,0.012423105273012602
1505.0,0.012289056869694281
1504.0,0.012289056869694281
1503.0,0.012289056869694281
1502.0,0.012289056869694281
1501.0,0.012289056869694281
1500.0,0.012289056869694281
1499.0,0.012199714248127602
1498.0,0.012110390002254778
1497.0,0.012199714248127602
1496.0,0.012289056869694281
1495.0,0.012244383261476699
1494.0,0.01215504982870197
1493.0,0.012244383261476699
1492.0,0.012333735073725371
1491.0,0.012333735073725371
1490.0,0.012378417874516323
1489.0,0.01264661126420652
1488.0,0.012870232340102872
1487.0,0.012870232340102872
1486.0,0.012870232340102872
1485.0,0.013049212141483357
1484.0,0.013362604389846044
1483.0,0.013676222949234651
1482.0,0.014079779876432497
1481.0,0.014753209197138295
1480.0,0.015697768020096703
1479.0,0.017141057687924732
1478.0,0.020087589665283012
1477.0,0.025902996205869
1476.0,0.03508070571335731
1475.0,0.047062332249019345
1474.0,0.06048074738138154
1473.0,0.07170658776779781
1472.0,0.07582412969807906
1471.0,0.07448164182257
1470.0,0.0725783049495814
1469.0,0.07206531825882068
1468.0,0.07278366940873537
1467.0,0.07504911108438939
1466.0,0.0805035121369384
1465.0,0.08948231448273347
1464.0,0.09777947172068524
1463.0,0.10078158214862709
1462.0,0.09810596802617932
1461.0,0.09156860103399356
1460.0,0.0830725338870073
1459.0,0.07453319930846214
1458.0,0.0675769736232612
1457.0,0.06283329628496737
1456.0,0.0595831353183347
1455.0,0.05690137699451481
1454.0,0.05433450056786593
1453.0,0.05163594401163074
1452.0,0.048905443158337114
1451.0,0.04653025674659861
1450.0,0.04469717723830824
1449.0,0.04325545471730896
1448.0,0.042057664554595586
1447.0,0.041149548320321694
1446.0,0.04038628892895613
1445.0,0.03967194946985697
1444.0,0.038911280232103884
1443.0,0.038199360808321536
1442.0,0.03753595394209874
1441.0,0.036873558918095295
1440.0,0.03630659476198117
1439.0,0.03578752703018084
1438.0,0.03526907894637077
1437.0,0.03470420418834386
1436.0,0.03409308450480819
1435.0,0.03343591590268957
1434.0,0.03273290844021437
1433.0,0.03193753992355086
1432.0,0.030957032694186815
1431.0,0.030071810571884017
1430.0,0.029188389127482228
1429.0,0.028306761050139073
1428.0,0.02751945012352408
1427.0,0.02682594731702781
1426.0,0.026271941311972746
1425.0,0.025718641122169483
1424.0,0.02521206778644225
1423.0,0.024936003904763915
1422.0,0.024660115394541604
1421.0,0.024292536462819925
1420.0,0.023879381700184332
1419.0,0.023695883447997224
1418.0,0.023604163388120325
1417.0,0.023466619608062178
1416.0,0.023283295636617574
1415.0,0.023054249440757957
1414.0,0.02282532397981263
1413.0,0.02255077261765881
1412.0,0.02227639471115217
1411.0,0.022093572362881675
1410.0,0.021865152601710403
1409.0,0.02159120737696063
1408.0,0.021271822861508305
1407.0,0.0209982515252789
1406.0,0.020770406977844713
1405.0,0.02058821736556471
1404.0,0.02036058777709271
1403.0,0.020178569969774962
1402.0,0.019996628416253603
1401.0,0.019769308608968306
1400.0,0.01958753839310856
1399.0,0.01949668180660491
1398.0,0.019360432556262852
1397.0,0.019178833355664393
1396.0,0.019042683770379876
1395.0,0.019042683770379876
1394.0,0.019042683770379876
1393.0,0.01899731005860028
1392.0,0.018861217359339655
1391.0,0.018815862601645694
1390.0,0.018815862601645694
1389.0,0.018815862601645694
1388.0,0.018861217359339655
1387.0,0.0190880622231564
1386.0,0.019360432556262852
1385.0,0.019678413991243593
1384.0,0.02013307743509718
1383.0,0.020861530453190058
1382.0,0.021819483062586187
1381.0,0.022871099419317753
1380.0,0.023971159908874107
1379.0,0.02484402159331056
1378.0,0.02539620791296726
1377.0,0.02544225514642018
1376.0,0.02521206778644225
1375.0,0.024936003904763915
1374.0,0.024798037742147727
1373.0,0.024706084643793647
1372.0,0.024660115394541604
1371.0,0.024706084643793647
1370.0,0.02475205875931885
1369.0,0.02475205875931885
1368.0,0.02461415101053266
1367.0,0.02438440203310499
1366.0,0.02406295751688936
1365.0,0.02365002099672653
1364.0,0.023191662661933732
1363.0,0.02282532397981263
1362.0,0.02255077261765881
1361.0,0.02227639471115217
1360.0,0.02200219004126036
1359.0,0.021773818325474092
1358.0,0.021636852916117055
1357.0,0.021499930688540836
1356.0,0.021363051615525652
1355.0,0.021317434843055594
1354.0,0.021271822861508305
1353.0,0.0211806132671577
1352.0,0.021043834782408455
1351.0,0.020907099361673565
1350.0,0.020770406977844713
1349.0,0.02058821736556471
1348.0,0.020315076172974234
1347.0,0.020087589665283012
1346.0,0.019860222254245663
1345.0,0.019678413991243593
1344.0,0.01949668180660491
1343.0,0.019269623464054586
1342.0,0.019042683770379876
1341.0,0.018815862601645694
1340.0,0.018634490921455527
1339.0,0.018498511851753108
1338.0,0.018271974638383703
1337.0,0.018045555530026514
1336.0,0.017728766960431575
1335.0,0.017502630802287644
1334.0,0.017367005605150476
1333.0,0.017186237868137555
1332.0,0.017095882207371904
1331.0,0.017050711425501408
1330.0,0.017050711425501408
1329.0,0.017005545341335804
1328.0,0.017005545341335804
1327.0,0.017050711425501408
1326.0,0.017141057687924732
1325.0,0.017186237868137555
1324.0,0.017231422748988034
1323.0,0.01727661233145472
1322.0,0.017367005605150476
1321.0,0.017457417697056554
1320.0,0.017547848615010242
1319.0,0.01768353030793479
1318.0,0.017774008325325275
1317.0,0.017864505196230507
1316.0,0.017955020928509757
1315.0,0.018045555530026514
1314.0,0.018136109008649592
1313.0,0.018271974638383703
1312.0,0.01840788278591865
1311.0,0.018543833477873584
1310.0,0.01858915983411169
1309.0,0.018634490921455527
1308.0,0.018725167293411005
1307.0,0.018815862601645694
1306.0,0.018951941086827073
1305.0,0.019042683770379876
1304.0,0.0190880622231564
1303.0,0.0190880622231564
1302.0,0.019133445417920836
1301.0,0.0190880622231564
1300.0,0.01899731005860028
1299.0,0.018906576854070378
1298.0,0.018815862601645694
1297.0,0.018679826740892747
1296.0,0.01858915983411169
1295.0,0.01845319495476394
1294.0,0.018362575344230914
1293.0,0.018271974638383703
1292.0,0.018181392829336396
1291.0,0.01809082990920774
1290.0,0.01800028587012159
1289.0,0.017909760704207134
1288.0,0.01781925440359733
1287.0,0.017774008325325275
1286.0,0.017728766960431575
1285.0,0.01768353030793479
1284.0,0.017638298366853045
1283.0,0.01759307113620534
1282.0,0.01759307113620534
1281.0,0.017547848615010242
1280.0,0.017457417697056554
1279.0,0.017412209298337533
1278.0,0.017367005605150476
1277.0,0.017367005605150476
1276.0,0.017367005605150476
1275.0,0.017412209298337533
1274.0,0.017457417697056554
1273.0,0.017502630802287644
1272.0,0.017547848615010242
1271.0,0.017547848615010242
1270.0,0.017547848615010242
1269.0,0.017502630802287644
1268.0,0.017502630802287644
1267.0,0.01759307113620534
1266.0,0.01768353030793479
1265.0,0.017728766960431575
1264.0,0.017728766960431575
1263.0,0.01768353030793479
1262.0,0.01768353030793479
1261.0,0.01768353030793479
1260.0,0.01768353030793479
1259.0,0.017638298366853045
1258.0,0.017638298366853045
1257.0,0.017638298366853045
1256.0,0.017638298366853045
1255.0,0.01768353030793479
1254.0,0.01768353030793479
1253.0,0.01768353030793479
1252.0,0.01768353030793479
1251.0,0.01768353030793479
1250.0,0.017638298366853045
1249.0,0.01759307113620534
1248.0,0.017547848615010242
1247.0,0.017502630802287644
1246.0,0.017502630802287644
1245.0,0.017502630802287644
1244.0,0.017457417697056554
1243.0,0.017457417697056554
1242.0,0.017457417697056554
1241.0,0.017457417697056554
1240.0,0.017412209298337533
1239.0,0.017367005605150476
1238.0,0.017321806616515723
1237.0,0.01727661233145472
1236.0,0.017186237868137555
1235.0,0.017141057687924732
1234.0,0.017141057687924732
1233.0,0.017186237868137555
1232.0,0.017186237868137555
1231.0,0.01727661233145472
1230.0,0.017321806616515723
1229.0,0.017321806616515723
1228.0,0.017321806616515723
1227.0,0.01727661233145472
1226.0,0.01727661233145472
1225.0,0.017321806616515723
1224.0,0.017367005605150476
1223.0,0.017412209298337533
1222.0,0.017502630802287644
1221.0,0.017547848615010242
1220.0,0.017547848615010242
1219.0,0.017638298366853045
1218.0,0.017774008325325275
1217.0,0.017864505196230507
1216.0,0.017864505196230507
1215.0,0.017864505196230507
1214.0,0.017909760704207134
1213.0,0.01800028587012159
1212.0,0.01809082990920774
1211.0,0.018226681372252695
1210.0,0.018362575344230914
1209.0,0.018543833477873584
1208.0,0.018679826740892747
1207.0,0.018861217359339655
1206.0,0.01899731005860028
1205.0,0.019133445417920836
1204.0,0.019269623464054586
1203.0,0.01949668180660491
1202.0,0.019723858922159776
1201.0,0.01995115493504329
1200.0,0.020178569969774962
1199.0,0.020406104151069693
1198.0,0.02058821736556471
1197.0,0.020770406977844713
1196.0,0.020907099361673565
1195.0,0.021089422824428272
1194.0,0.021363051615525652
1193.0,0.021636852916117055
1192.0,0.021865152601710403
1191.0,0.022139270735302752
1190.0,0.022413561996148967
1189.0,0.022688026603074007
1188.0,0.02300845469384938
1187.0,0.023329119375188556
1186.0,0.02365002099672653
1185.0,0.023925268380126097
1184.0,0.024200690320592466
1183.0,0.024476287039668643
1182.0,0.024660115394541604
1181.0,0.024890010313838973
1180.0,0.02512002699306959
1179.0,0.02544225514642018
1178.0,0.025764722556973707
1177.0,0.026087429580295085
1176.0,0.026410376572743033
1175.0,0.02677975314776626
1174.0,0.027195677663422346
1173.0,0.027612000892527133
1172.0,0.028028723600243666
1171.0,0.028353117935693284
1170.0,0.02863136320857662
1169.0,0.028770552723758724
1168.0,0.028956208163971375
1167.0,0.029188389127482228
1166.0,0.029513651152349718
1165.0,0.029839156962686353
1164.0,0.030118356253500123
1163.0,0.03030458888152676
1162.0,0.030444315779156517
1161.0,0.03063068826647264
1160.0,0.03081714076773867
1159.0,0.03105031901865729
1158.0,0.03133029827960798
1157.0,0.03161045815293173
1156.0,0.03193753992355086
1155.0,0.03226486821611996
1154.0,0.032545631817259224
1153.0,0.03273290844021437
1152.0,0.032920265855503006
1151.0,0.033060836978886954
1150.0,0.033154576345083564
1149.0,0.033295223342125535
1148.0,0.03343591590268957
1147.0,0.03357665405630694
1146.0,0.03371743783253667
1145.0,0.033905220553829274
1144.0,0.03409308450480819
1143.0,0.03428102975577918
1142.0,0.03442204208947208
1141.0,0.034516075754861264
1140.0,0.03456310022373987
1139.0,0.03456310022373987
1138.0,0.03461012978487776
1137.0,0.03475124903287918
1136.0,0.03498654972775217
1135.0,0.03517488211661135
1134.0,0.03531618502395939
1133.0,0.03531618502395939
1132.0,0.035363296211498474
1131.0,0.03541041251009669
1130.0,0.03545753392086315
1129.0,0.035363296211498474
1128.0,0.03522197797762394
1127.0,0.03503362516890207
1126.0,0.03489241415094413
1125.0,0.03479829897408804
1124.0,0.03475124903287918
1123.0,0.03475124903287918
1122.0,0.03475124903287918
1121.0,0.03475124903287918
1120.0,0.03470420418834386
1119.0,0.03465716443937783
1118.0,0.03456310022373987
1117.0,0.03442204208947208
1116.0,0.03428102975577918
1115.0,0.03414006319292828
1114.0,0.034046110897937076
1113.0,0.033952178923546183
1112.0,0.03385826726096752
1111.0,0.0338113190438627
1110.0,0.03367050483612166
1109.0,0.033482823553208085
1108.0,0.03338901331806565
1107.0,0.03334211579824231
1106.0,0.03334211579824231
1105.0,0.033295223342125535
1104.0,0.033201453616638954
1103.0,0.033060836978886954
1102.0,0.032873418923587305
1101.0,0.03277974021703267
1100.0,0.03273290844021437
1099.0,0.03273290844021437
1098.0,0.03273290844021437
1097.0,0.032686081712916426
1096.0,0.03263926003405038
1095.0,0.032592443402527316
1094.0,0.032592443402527316
1093.0,0.03263926003405038
1092.0,0.03263926003405038
1091.0,0.03263926003405038
1090.0,0.032592443402527316
1089.0,0.032592443402527316
1088.0,0.03263926003405038
1087.0,0.032686081712916426
1086.0,0.032592443402527316
1085.0,0.03245202378113787
1084.0,0.03226486821611996
1083.0,0.032031037121307726
1082.0,0.03184406285002961
1081.0,0.03170388495374454
1080.0,0.031563752288295444
1079.0,0.03142366482450232
1078.0,0.031236951802751545
1077.0,0.03105031901865729
1076.0,0.03081714076773867
1075.0,0.03058408764601861
1074.0,0.030397735151460825
1073.0,0.030164906924202484
1072.0,0.03002526987828502
1071.0,0.029885677714903025
1070.0,0.029653123769906697
1069.0,0.02932775731028059
1068.0,0.02890978686288448
1067.0,0.02858497661500481
1066.0,0.02839947976994095
1065.0,0.02826040911222183
1064.0,0.02812138297373412
1063.0,0.027936083991977778
1062.0,0.0277045713888604
1061.0,0.027565723042634938
1060.0,0.02751945012352408
1059.0,0.027565723042634938
1058.0,0.02751945012352408
1057.0,0.027334407733889066
1056.0,0.027056991894431892
1055.0,0.02682594731702781
1054.0,0.026733563891471412
1053.0,0.026733563891471412
1052.0,0.026733563891471412
1051.0,0.02677975314776626
1050.0,0.02677975314776626
1049.0,0.026733563891471412
1048.0,0.026687379547098322
1047.0,0.026687379547098322
1046.0,0.02677975314776626
1045.0,0.02682594731702781
1044.0,0.02691835039863255
1043.0,0.02691835039863255
1042.0,0.02696455931306696
1041.0,0.02696455931306696
1040.0,0.02696455931306696
1039.0,0.02696455931306696
1038.0,0.027010773144651168
1037.0,0.027056991894431892
1036.0,0.027010773144651168
1035.0,0.027056991894431892
1034.0,0.027195677663422346
1033.0,0.027334407733889066
1032.0,0.027426919073445077
1031.0,0.02747318213414429
1030.0,0.02747318213414429
1029.0,0.02747318213414429
1028.0,0.02751945012352408
1027.0,0.02751945012352408
1026.0,0.027426919073445077
1025.0,0.027288159452933503
1024.0,0.027195677663422346
1023.0,0.027149444152769986
1022.0,0.027149444152769986
1021.0,0.027149444152769986
1020.0,0.027056991894431892
1019.0,0.026872146400301444
1018.0,0.026687379547098322
1017.0,0.026502691267936695
1016.0,0.02636422658259252
1015.0,0.026225806029419818
1014.0,0.026041313893296225
1013.0,0.025718641122169483
1012.0,0.025258095499050004
1011.0,0.02475205875931885
1010.0,0.02438440203310499
1009.0,0.02406295751688936
1008.0,0.023833499868024743
1007.0,0.02365002099672653
1006.0,0.02351246269481
1005.0,0.02342078135989012
1004.0,0.023283295636617574
1003.0,0.023100049017062307
1002.0,0.02291687968414724
1001.0,0.022688026603074007
1000.0,0.022505030926963654
999.0,0.022322112326006227
998.0,0.022139270735302752
997.0,0.021956506090037076
996.0,0.021773818325474092
995.0,0.02168250325324883
994.0,0.02159120737696063
993.0,0.0214542995372613
992.0,0.021317434843055594
991.0,0.021135015652343103
990.0,0.0209982515252789
989.0,0.020907099361673565
988.0,0.020861530453190058
987.0,0.02081596632558158
986.0,0.020861530453190058
985.0,0.020861530453190058
984.0,0.020861530453190058
983.0,0.020724852408976924
982.0,0.02058821736556471
981.0,0.02045162529590483
980.0,0.02036058777709271
979.0,0.020315076172974234
978.0,0.02022406727031445
977.0,0.020178569969774962
976.0,0.02013307743509718
975.0,0.020087589665283012
974.0,0.02004210665933459
973.0,0.01990568621470623
972.0,0.019769308608968306
971.0,0.01958753839310856
970.0,0.01954210772389997
969.0,0.01949668180660491
968.0,0.01949668180660491
967.0,0.01949668180660491
966.0,0.01940584422377989
965.0,0.019315025636685412
964.0,0.0192242260373785
963.0,0.019133445417920836
962.0,0.019042683770379876
961.0,0.018951941086827073
960.0,0.018951941086827073
959.0,0.019042683770379876
958.0,0.019042683770379876
957.0,0.01899731005860028
956.0,0.018815862601645694
955.0,0.018679826740892747
954.0,0.018634490921455527
953.0,0.018634490921455527
952.0,0.018679826740892747
951.0,0.018770512579999288
950.0,0.018906576854070378
949.0,0.01899731005860028
948.0,0.019042683770379876
947.0,0.019042683770379876
946.0,0.019042683770379876
945.0,0.01899731005860028
944.0,0.018951941086827073
943.0,0.01899731005860028
942.0,0.0190880622231564
941.0,0.0192242260373785
940.0,0.019360432556262852
939.0,0.01940584422377989
938.0,0.01940584422377989
937.0,0.019360432556262852
936.0,0.019360432556262852
935.0,0.01940584422377989
934.0,0.01949668180660491
933.0,0.01958753839310856
932.0,0.019678413991243593
931.0,0.019769308608968306
930.0,0.019814763052665052
929.0,0.01990568621470623
928.0,0.01995115493504329
927.0,0.02004210665933459
926.0,0.02013307743509718
925.0,0.02022406727031445
924.0,0.02036058777709271
923.0,0.02045162529590483
922.0,0.020497151212598652
921.0,0.020542681902151694
920.0,0.020633757603838898
919.0,0.020770406977844713
918.0,0.020907099361673565
917.0,0.021043834782408455
916.0,0.021089422824428272
915.0,0.021089422824428272
914.0,0.021089422824428272
913.0,0.021043834782408455
912.0,0.021043834782408455
911.0,0.021089422824428272
910.0,0.0211806132671577
909.0,0.021317434843055594
908.0,0.0214542995372613
907.0,0.021499930688540836
906.0,0.021499930688540836
905.0,0.021545566634771474
904.0,0.021636852916117055
903.0,0.021728158389364705
902.0,0.021773818325474092
901.0,0.021773818325474092
900.0,0.021773818325474092
899.0,0.021773818325474092
898.0,0.021773818325474092
897.0,0.021773818325474092
896.0,0.021773818325474092
895.0,0.021773818325474092
894.0,0.021773818325474092
893.0,0.021773818325474092
892.0,0.021819483062586187
891.0,0.021956506090037076
890.0,0.0221849739168134
889.0,0.022413561996148967
888.0,0.022642270454698687
887.0,0.022688026603074007
886.0,0.022733787572707387
885.0,0.022733787572707387
884.0,0.022733787572707387
883.0,0.02277955336461468
882.0,0.02277955336461468
881.0,0.02277955336461468
880.0,0.02277955336461468
879.0,0.02291687968414724
878.0,0.023100049017062307
877.0,0.023283295636617574
876.0,0.02342078135989012
875.0,0.02351246269481
874.0,0.02355831062115543
873.0,0.02355831062115543
872.0,0.023466619608062178
871.0,0.02342078135989012
870.0,0.023374947949272418
869.0,0.023466619608062178
868.0,0.02355831062115543
867.0,0.02365002099672653
866.0,0.023695883447997224
865.0,0.023741750742954926
864.0,0.023741750742954926
863.0,0.023787622882622816
862.0,0.023879381700184332
861.0,0.024108863598207186
860.0,0.02438440203310499
859.0,0.024522236834125355
858.0,0.024522236834125355
857.0,0.024476287039668643
856.0,0.024522236834125355
855.0,0.024660115394541604
854.0,0.02484402159331056
853.0,0.025028005701930978
852.0,0.02512002699306959
851.0,0.02512002699306959
850.0,0.025028005701930978
849.0,0.02498200236711723
848.0,0.024936003904763915
847.0,0.024936003904763915
846.0,0.02484402159331056
845.0,0.02475205875931885
844.0,0.024706084643793647
843.0,0.02475205875931885
842.0,0.02484402159331056
841.0,0.024890010313838973
840.0,0.024890010313838973
839.0,0.02484402159331056
838.0,0.024798037742147727
837.0,0.024660115394541604
836.0,0.024568191490736968
835.0,0.024660115394541604
834.0,0.024936003904763915
833.0,0.02521206778644225
832.0,0.025258095499050004
831.0,0.02512002699306959
830.0,0.024890010313838973
829.0,0.02475205875931885
828.0,0.024706084643793647
827.0,0.024706084643793647
826.0,0.024706084643793647
825.0,0.024706084643793647
824.0,0.02484402159331056
823.0,0.025028005701930978
822.0,0.02516604495145991
821.0,0.02516604495145991
820.0,0.025074013910237447
819.0,0.02512002699306959
818.0,0.025304128090317013
817.0,0.02558042614771394
816.0,0.025856900097785074
815.0,0.026041313893296225
814.0,0.02617967564731627
813.0,0.026318081496016443
812.0,0.026502691267936695
811.0,0.026733563891471412
810.0,0.02691835039863255
809.0,0.027056991894431892
808.0,0.027195677663422346
807.0,0.02738066094037661
806.0,0.027612000892527133
805.0,0.027750864037404455
804.0,0.027889771597169544
803.0,0.02798240132598462
802.0,0.028214062120885508
801.0,0.028538594975413334
800.0,0.02890978686288448
799.0,0.029234840219232394
798.0,0.029467170231675777
797.0,0.029467170231675777
796.0,0.02942069428514915
795.0,0.029234840219232394
794.0,0.029095501846216454
793.0,0.029141943003497595
792.0,0.029374223311705583
791.0,0.029746130405213123
790.0,0.030071810571884017
789.0,0.030397735151460825
788.0,0.03063068826647264
787.0,0.03081714076773867
786.0,0.031003673351687855
785.0,0.031143625385307683
784.0,0.03128362253321426
783.0,0.03142366482450232
782.0,0.03151705144606498
781.0,0.031563752288295444
780.0,0.031657169041054534
779.0,0.03170388495374454
778.0,0.031657169041054534
777.0,0.031563752288295444
776.0,0.031563752288295444
775.0,0.03161045815293173
774.0,0.031657169041054534
773.0,0.031657169041054534
772.0,0.031657169041054534
771.0,0.03170388495374454
770.0,0.03175060589208267
769.0,0.03184406285002961
768.0,0.032031037121307726
767.0,0.03235843591698884
766.0,0.03273290844021437
765.0,0.03301397488206215
764.0,0.033154576345083564
763.0,0.0332483359486222
762.0,0.033295223342125535
761.0,0.03334211579824231
760.0,0.03338901331806565
759.0,0.03362357691107709
758.0,0.034046110897937076
757.0,0.034469056377139484
756.0,0.03489241415094413
755.0,0.03526907894637077
754.0,0.03555179208333925
753.0,0.03578752703018084
752.0,0.03597620715996652
751.0,0.03616496929785207
750.0,0.03649550058570927
749.0,0.03692083935817303
748.0,0.03739392707587297
747.0,0.03782014709123227
746.0,0.03824678581321739
745.0,0.03857890593355173
744.0,0.038721320914956836
743.0,0.03862637240519895
742.0,0.038436537637930535
741.0,0.03838909190871931
740.0,0.03848398855105106
739.0,0.038816290187564384
738.0,0.03957679292217042
737.0,0.040958607678906356
736.0,0.04315950984076644
735.0,0.04657860031896477
734.0,0.05237025261564554
733.0,0.061380218497318895
732.0,0.07283502570063005
731.0,0.08354605145007499
730.0,0.08969583193143116
729.0,0.08980263003399913
728.0,0.0856568428805593
727.0,0.08071265949561734
726.0,0.07758597585436577
725.0,0.07737832847680104
724.0,0.08039897621588898
723.0,0.08708744882390307
722.0,0.09799710864927058
721.0,0.11187669270209155
720.0,0.12418661116024232
719.0,0.1290696416513042
718.0,0.12459143992293642
717.0,0.11390426756225258
716.0,0.1014393550602879
715.0,0.0900697402471693
714.0,0.08076496207674921
713.0,0.07340034609297241
712.0,0.0676277178520861
711.0,0.06313454102437754
710.0,0.0595831353183347
709.0,0.0567528748621382
708.0,0.05453141486818014
707.0,0.05290953578037816
706.0,0.05173378011970464
705.0,0.05065879322950262
704.0,0.04968383607539972
703.0,0.04885683989244738
702.0,0.04817696468408794
701.0,0.047595060422975566
700.0,0.04720755695590784
699.0,0.04696554274964315
698.0,0.04672366333269573
697.0,0.04643358574299339
696.0,0.04624030826677128
695.0,0.046143701775014145
694.0,0.04599883231842972
693.0,0.04570923829887308
692.0,0.04541983725624266
691.0,0.04537162249272897
690.0,0.04570923829887308
689.0,0.046047116768076934
688.0,0.046192002334692894
687.0,0.04599883231842972
686.0,0.04537162249272897
685.0,0.04440844959427559
684.0,0.043495409683302455
683.0,0.043063586155803746
682.0,0.04320747962950522
681.0,0.04344740808260106
680.0,0.043303435105349175
679.0,0.04287180232318688
678.0,0.042584285277331047
677.0,0.042775942156833
676.0,0.04320747962950522
675.0,0.04344740808260106
674.0,0.043495409683302455
673.0,0.04363944632667782
672.0,0.04411991377462465
671.0,0.044793462458058375
670.0,0.04537162249272897
669.0,0.04537162249272897
668.0,0.044937930324967956
667.0,0.044456557540257124
666.0,0.04387961360698034
665.0,0.04359142880416744
664.0,0.0437835307566099
663.0,0.044312249686494276
662.0,0.04488976902944808
661.0,0.0451788169482068
660.0,0.04488976902944808
659.0,0.04383156952463674
658.0,0.04229695845116854
657.0,0.04105406750606355
656.0,0.04076775094900409
655.0,0.041340572947066834
654.0,0.04229695845116854
653.0,0.04315950984076644
652.0,0.043735497301724546
651.0,0.0439276630048171
650.0,0.04359142880416744
649.0,0.042967683653061695
648.0,0.04248848854552012
647.0,0.042392712939904875
646.0,0.04248848854552012
645.0,0.04263219156847242
644.0,0.042967683653061695
643.0,0.04363944632667782
642.0,0.04464904263234004
641.0,0.045516282844447975
640.0,0.04595055323640551
639.0,0.04599883231842972
638.0,0.04624030826677128
637.0,0.04715914332429838
636.0,0.04875964967565971
635.0,0.050463626623857394
634.0,0.05173378011970464
633.0,0.05212534510230182
632.0,0.05139145012356372
631.0,0.050073556332087765
630.0,0.04919717703534143
629.0,0.04944043838819989
628.0,0.05056119896349576
627.0,0.05134256785867963
626.0,0.051244819831730126
625.0,0.050707598587974356
624.0,0.050463626623857394
623.0,0.05056119896349576
622.0,0.050463626623857394
621.0,0.05021979163799939
620.0,0.05026854768429301
619.0,0.050707598587974356
618.0,0.05100054597304693
617.0,0.05056119896349576
616.0,0.04973253198641148
615.0,0.04905128560059957
614.0,0.04900266601119507
613.0,0.04973253198641148
612.0,0.05100054597304693
611.0,0.052027420754219955
610.0,0.05207638016827354
609.0,0.051244819831730126
608.0,0.05056119896349576
607.0,0.05075640943173498
606.0,0.0515870342213991
605.0,0.05188057561946402
604.0,0.050902874887084115
603.0,0.04905128560059957
602.0,0.04725597598510167
601.0,0.04638525830935958
600.0,0.04643358574299339
