cm-1,A
4000.0,0.021545566634771474
3999.0,0.021636852916117055
3998.0,0.021728158389364705
3997.0,0.021773818325474092
3996.0,0.021773818325474092
3995.0,0.021773818325474092
3994.0,0.021728158389364705
3993.0,0.02168250325324883
3992.0,0.021636852916117055
3991.0,0.02159120737696063
3990.0,0.021545566634771474
3989.0,0.02159120737696063
3988.0,0.021636852916117055
3987.0,0.021728158389364705
3986.0,0.021773818325474092
3985.0,0.021819483062586187
3984.0,0.021819483062586187
3983.0,0.021773818325474092
3982.0,0.021773818325474092
3981.0,0.021773818325474092
3980.0,0.021819483062586187
3979.0,0.021819483062586187
3978.0,0.021773818325474092
3977.0,0.021728158389364705
3976.0,0.02168250325324883
3975.0,0.02168250325324883
3974.0,0.021728158389364705
3973.0,0.021773818325474092
3972.0,0.021819483062586187
3971.0,0.021865152601710403
3970.0,0.021865152601710403
3969.0,0.021865152601710403
3968.0,0.021865152601710403
3967.0,0.021865152601710403
3966.0,0.021865152601710403
3965.0,0.021865152601710403
3964.0,0.021865152601710403
3963.0,0.021910826943857264
3962.0,0.02200219004126036
3961.0,0.02200219004126036
3960.0,0.02204787879853809
3959.0,0.02200219004126036
3958.0,0.021956506090037076
3957.0,0.021910826943857264
3956.0,0.021865152601710403
3955.0,0.021865152601710403
3954.0,0.021910826943857264
3953.0,0.021956506090037076
3952.0,0.02200219004126036
3951.0,0.02200219004126036
3950.0,0.02200219004126036
3949.0,0.021956506090037076
3948.0,0.021956506090037076
3947.0,0.021956506090037076
3946.0,0.02204787879853809
3945.0,0.02204787879853809
3944.0,0.02204787879853809
3943.0,0.02204787879853809
3942.0,0.02204787879853809
3941.0,0.02204787879853809
3940.0,0.02200219004126036
3939.0,0.021910826943857264
3938.0,0.021865152601710403
3937.0,0.021910826943857264
3936.0,0.02200219004126036
3935.0,0.022139270735302752
3934.0,0.0221849739168134
3933.0,0.02227639471115217
3932.0,0.022322112326006227
3931.0,0.022367834754000393
3930.0,0.022367834754000393
3929.0,0.022367834754000393
3928.0,0.022413561996148967
3927.0,0.022367834754000393
3926.0,0.022230681908425698
3925.0,0.022093572362881675
3924.0,0.02204787879853809
3923.0,0.022139270735302752
3922.0,0.0221849739168134
3921.0,0.022230681908425698
3920.0,0.02227639471115217
3919.0,0.022322112326006227
3918.0,0.022322112326006227
3917.0,0.02227639471115217
3916.0,0.02227639471115217
3915.0,0.02227639471115217
3914.0,0.02227639471115217
3913.0,0.022230681908425698
3912.0,0.022139270735302752
3911.0,0.022093572362881675
3910.0,0.022139270735302752
3909.0,0.0221849739168134
3908.0,0.022322112326006227
3907.0,0.022413561996148967
3906.0,0.02245929405346514
3905.0,0.02245929405346514
3904.0,0.022505030926963654
3903.0,0.022688026603074007
3902.0,0.02282532397981263
3901.0,0.02277955336461468
3900.0,0.022642270454698687
3899.0,0.02255077261765881
3898.0,0.022505030926963654
3897.0,0.022505030926963654
3896.0,0.02255077261765881
3895.0,0.02259651912656535
3894.0,0.022642270454698687
3893.0,0.02255077261765881
3892.0,0.022413561996148967
3891.0,0.02227639471115217
3890.0,0.022367834754000393
3889.0,0.022642270454698687
3888.0,0.022688026603074007
3887.0,0.022413561996148967
3886.0,0.0221849739168134
3885.0,0.022367834754000393
3884.0,0.02277955336461468
3883.0,0.023100049017062307
3882.0,0.023100049017062307
3881.0,0.02291687968414724
3880.0,0.02277955336461468
3879.0,0.02282532397981263
3878.0,0.02291687968414724
3877.0,0.02296266477531872
3876.0,0.02277955336461468
3875.0,0.02259651912656535
3874.0,0.022733787572707387
3873.0,0.023100049017062307
3872.0,0.023191662661933732
3871.0,0.02296266477531872
3870.0,0.022733787572707387
3869.0,0.02291687968414724
3868.0,0.023237476732539397
3867.0,0.023374947949272418
3866.0,0.023191662661933732
3865.0,0.023054249440757957
3864.0,0.023191662661933732
3863.0,0.023329119375188556
3862.0,0.023283295636617574
3861.0,0.023054249440757957
3860.0,0.022871099419317753
3859.0,0.022733787572707387
3858.0,0.02282532397981263
3857.0,0.02300845469384938
3856.0,0.02300845469384938
3855.0,0.02255077261765881
3854.0,0.022413561996148967
3853.0,0.022733787572707387
3852.0,0.023054249440757957
3851.0,0.02314585342378117
3850.0,0.023100049017062307
3849.0,0.02291687968414724
3848.0,0.022871099419317753
3847.0,0.022871099419317753
3846.0,0.022871099419317753
3845.0,0.02291687968414724
3844.0,0.02296266477531872
3843.0,0.02314585342378117
3842.0,0.023374947949272418
3841.0,0.02351246269481
3840.0,0.02351246269481
3839.0,0.023329119375188556
3838.0,0.02314585342378117
3837.0,0.023100049017062307
3836.0,0.02314585342378117
3835.0,0.023237476732539397
3834.0,0.023329119375188556
3833.0,0.023283295636617574
3832.0,0.023191662661933732
3831.0,0.023191662661933732
3830.0,0.023283295636617574
3829.0,0.023329119375188556
3828.0,0.023191662661933732
3827.0,0.02300845469384938
3826.0,0.02300845469384938
3825.0,0.023283295636617574
3824.0,0.023604163388120325
3823.0,0.02342078135989012
3822.0,0.023100049017062307
3821.0,0.02300845469384938
3820.0,0.023237476732539397
3819.0,0.02351246269481
3818.0,0.023466619608062178
3817.0,0.02300845469384938
3816.0,0.022688026603074007
3815.0,0.022733787572707387
3814.0,0.022871099419317753
3813.0,0.022871099419317753
3812.0,0.022733787572707387
3811.0,0.022733787572707387
3810.0,0.022871099419317753
3809.0,0.02291687968414724
3808.0,0.022733787572707387
3807.0,0.022642270454698687
3806.0,0.02291687968414724
3805.0,0.02342078135989012
3804.0,0.02365002099672653
3803.0,0.023329119375188556
3802.0,0.023054249440757957
3801.0,0.023100049017062307
3800.0,0.023329119375188556
3799.0,0.023466619608062178
3798.0,0.023283295636617574
3797.0,0.023054249440757957
3796.0,0.02296266477531872
3795.0,0.02300845469384938
3794.0,0.023054249440757957
3793.0,0.023054249440757957
3792.0,0.02296266477531872
3791.0,0.02296266477531872
3790.0,0.02296266477531872
3789.0,0.02300845469384938
3788.0,0.02314585342378117
3787.0,0.023237476732539397
3786.0,0.023329119375188556
3785.0,0.023374947949272418
3784.0,0.02342078135989012
3783.0,0.023466619608062178
3782.0,0.02351246269481
3781.0,0.02342078135989012
3780.0,0.023329119375188556
3779.0,0.023283295636617574
3778.0,0.023283295636617574
3777.0,0.023237476732539397
3776.0,0.02314585342378117
3775.0,0.023054249440757957
3774.0,0.023100049017062307
3773.0,0.023237476732539397
3772.0,0.023283295636617574
3771.0,0.023237476732539397
3770.0,0.023283295636617574
3769.0,0.023466619608062178
3768.0,0.02365002099672653
3767.0,0.023604163388120325
3766.0,0.02342078135989012
3765.0,0.023329119375188556
3764.0,0.02351246269481
3763.0,0.023695883447997224
3762.0,0.023787622882622816
3761.0,0.023741750742954926
3760.0,0.023741750742954926
3759.0,0.023787622882622816
3758.0,0.023695883447997224
3757.0,0.02355831062115543
3756.0,0.02351246269481
3755.0,0.023604163388120325
3754.0,0.02355831062115543
3753.0,0.02342078135989012
3752.0,0.02342078135989012
3751.0,0.02355831062115543
3750.0,0.02342078135989012
3749.0,0.023283295636617574
3748.0,0.023466619608062178
3747.0,0.023695883447997224
3746.0,0.02342078135989012
3745.0,0.023054249440757957
3744.0,0.023100049017062307
3743.0,0.023329119375188556
3742.0,0.02342078135989012
3741.0,0.023283295636617574
3740.0,0.023100049017062307
3739.0,0.02300845469384938
3738.0,0.02291687968414724
3737.0,0.02282532397981263
3736.0,0.02291687968414724
3735.0,0.02296266477531872
3734.0,0.022733787572707387
3733.0,0.022139270735302752
3732.0,0.02159120737696063
3731.0,0.02140867317992523
3730.0,0.021499930688540836
3729.0,0.021636852916117055
3728.0,0.021636852916117055
3727.0,0.02159120737696063
3726.0,0.02168250325324883
3725.0,0.021910826943857264
3724.0,0.022093572362881675
3723.0,0.022230681908425698
3722.0,0.022367834754000393
3721.0,0.02259651912656535
3720.0,0.02282532397981263
3719.0,0.02296266477531872
3718.0,0.023054249440757957
3717.0,0.023237476732539397
3716.0,0.02342078135989012
3715.0,0.02351246269481
3714.0,0.023374947949272418
3713.0,0.02314585342378117
3712.0,0.02314585342378117
3711.0,0.023191662661933732
3710.0,0.023054249440757957
3709.0,0.02277955336461468
3708.0,0.022505030926963654
3707.0,0.022322112326006227
3706.0,0.022322112326006227
3705.0,0.022367834754000393
3704.0,0.022367834754000393
3703.0,0.022322112326006227
3702.0,0.02227639471115217
3701.0,0.022367834754000393
3700.0,0.022505030926963654
3699.0,0.022688026603074007
3698.0,0.02277955336461468
3697.0,0.022871099419317753
3696.0,0.02300845469384938
3695.0,0.023191662661933732
3694.0,0.02342078135989012
3693.0,0.02365002099672653
3692.0,0.023879381700184332
3691.0,0.024108863598207186
3690.0,0.024200690320592466
3689.0,0.024154774532432866
3688.0,0.024108863598207186
3687.0,0.024154774532432866
3686.0,0.024246610963712723
3685.0,0.024292536462819925
3684.0,0.024246610963712723
3683.0,0.024292536462819925
3682.0,0.024338466818941473
3681.0,0.024338466818941473
3680.0,0.024430342106337877
3679.0,0.024798037742147727
3678.0,0.02516604495145991
3677.0,0.025258095499050004
3676.0,0.025304128090317013
3675.0,0.02544225514642018
3674.0,0.025672564576383117
3673.0,0.025902996205869
3672.0,0.025810808881832736
3671.0,0.02553436426275746
3670.0,0.02553436426275746
3669.0,0.025672564576383117
3668.0,0.025718641122169483
3667.0,0.025672564576383117
3666.0,0.02562649291857677
3665.0,0.025672564576383117
3664.0,0.025672564576383117
3663.0,0.025718641122169483
3662.0,0.025718641122169483
3661.0,0.025718641122169483
3660.0,0.025856900097785074
3659.0,0.025995203102585407
3658.0,0.026041313893296225
3657.0,0.025995203102585407
3656.0,0.026041313893296225
3655.0,0.026271941311972746
3654.0,0.026595025589939425
3653.0,0.02682594731702781
3652.0,0.026687379547098322
3651.0,0.02654885597506529
3650.0,0.026872146400301444
3649.0,0.027334407733889066
3648.0,0.02747318213414429
3647.0,0.027288159452933503
3646.0,0.027056991894431892
3645.0,0.026872146400301444
3644.0,0.026733563891471412
3643.0,0.02664120011360227
3642.0,0.026595025589939425
3641.0,0.02654885597506529
3640.0,0.02654885597506529
3639.0,0.026456531467510258
3638.0,0.026456531467510258
3637.0,0.026456531467510258
3636.0,0.026410376572743033
3635.0,0.02617967564731627
3634.0,0.026041313893296225
3633.0,0.02613355016462182
3632.0,0.026318081496016443
3631.0,0.026225806029419818
3630.0,0.026041313893296225
3629.0,0.02613355016462182
3628.0,0.02636422658259252
3627.0,0.026456531467510258
3626.0,0.026456531467510258
3625.0,0.026410376572743033
3624.0,0.026410376572743033
3623.0,0.02664120011360227
3622.0,0.02691835039863255
3621.0,0.027056991894431892
3620.0,0.027195677663422346
3619.0,0.027334407733889066
3618.0,0.02747318213414429
3617.0,0.027658283674251827
3616.0,0.027797161620935595
3615.0,0.027797161620935595
3614.0,0.027750864037404455
3613.0,0.027750864037404455
3612.0,0.0277045713888604
3611.0,0.027565723042634938
3610.0,0.027288159452933503
3609.0,0.027056991894431892
3608.0,0.027010773144651168
3607.0,0.027010773144651168
3606.0,0.02691835039863255
3605.0,0.02677975314776626
3604.0,0.026687379547098322
3603.0,0.02664120011360227
3602.0,0.026687379547098322
3601.0,0.02682594731702781
3600.0,0.02691835039863255
3599.0,0.027056991894431892
3598.0,0.027149444152769986
3597.0,0.027149444152769986
3596.0,0.027149444152769986
3595.0,0.02710321556345563
3594.0,0.02710321556345563
3593.0,0.027149444152769986
3592.0,0.02724191609646076
3591.0,0.027334407733889066
3590.0,0.02747318213414429
3589.0,0.027612000892527133
3588.0,0.027889771597169544
3587.0,0.028167720075074953
3586.0,0.02826040911222183
3585.0,0.028214062120885508
3584.0,0.02812138297373412
3583.0,0.028028723600243666
3582.0,0.028028723600243666
3581.0,0.028075050815808744
3580.0,0.028214062120885508
3579.0,0.028353117935693284
3578.0,0.02849221828874393
3577.0,0.02858497661500481
3576.0,0.02863136320857662
3575.0,0.02863136320857662
3574.0,0.028677754757187035
3573.0,0.028770552723758724
3572.0,0.02890978686288448
3571.0,0.029141943003497595
3570.0,0.02932775731028059
3569.0,0.029513651152349718
3568.0,0.029746130405213123
3567.0,0.029978734171634214
3566.0,0.030118356253500123
3565.0,0.030071810571884017
3564.0,0.029978734171634214
3563.0,0.029932203450862893
3562.0,0.029932203450862893
3561.0,0.029978734171634214
3560.0,0.03002526987828502
3559.0,0.03002526987828502
3558.0,0.03002526987828502
3557.0,0.030118356253500123
3556.0,0.030211462585061133
3555.0,0.03030458888152676
3554.0,0.030351159519274695
3553.0,0.030397735151460825
3552.0,0.030397735151460825
3551.0,0.030490901403433135
3550.0,0.030537492025363155
3549.0,0.03058408764601861
3548.0,0.03058408764601861
3547.0,0.03063068826647264
3546.0,0.0307239045110681
3545.0,0.03081714076773867
3544.0,0.030910397045078586
3543.0,0.030910397045078586
3542.0,0.030863766403287585
3541.0,0.030770520137356927
3540.0,0.0307239045110681
3539.0,0.030770520137356927
3538.0,0.030863766403287585
3537.0,0.031003673351687855
3536.0,0.03105031901865729
3535.0,0.03105031901865729
3534.0,0.030957032694186815
3533.0,0.030863766403287585
3532.0,0.03081714076773867
3531.0,0.030863766403287585
3530.0,0.030910397045078586
3529.0,0.030957032694186815
3528.0,0.031003673351687855
3527.0,0.03105031901865729
3526.0,0.03105031901865729
3525.0,0.031003673351687855
3524.0,0.030910397045078586
3523.0,0.03081714076773867
3522.0,0.03081714076773867
3521.0,0.030770520137356927
3520.0,0.030770520137356927
3519.0,0.0307239045110681
3518.0,0.0307239045110681
3517.0,0.0307239045110681
3516.0,0.03067729388779794
3515.0,0.03067729388779794
3514.0,0.03067729388779794
3513.0,0.03067729388779794
3512.0,0.0307239045110681
3511.0,0.0307239045110681
3510.0,0.030770520137356927
3509.0,0.03081714076773867
3508.0,0.03081714076773867
3507.0,0.030863766403287585
3506.0,0.030863766403287585
3505.0,0.03081714076773867
3504.0,0.03081714076773867
3503.0,0.03081714076773867
3502.0,0.030863766403287585
3501.0,0.030863766403287585
3500.0,0.03081714076773867
3499.0,0.030770520137356927
3498.0,0.0307239045110681
3497.0,0.03067729388779794
3496.0,0.03063068826647264
3495.0,0.03063068826647264
3494.0,0.03063068826647264
3493.0,0.03058408764601861
3492.0,0.030537492025363155
3491.0,0.030490901403433135
3490.0,0.030490901403433135
3489.0,0.030490901403433135
3488.0,0.030537492025363155
3487.0,0.03058408764601861
3486.0,0.03063068826647264
3485.0,0.03063068826647264
3484.0,0.03067729388779794
3483.0,0.0307239045110681
3482.0,0.03081714076773867
3481.0,0.030957032694186815
3480.0,0.031096969696171817
3479.0,0.031143625385307683
3478.0,0.031143625385307683
3477.0,0.031096969696171817
3476.0,0.03105031901865729
3475.0,0.031096969696171817
3474.0,0.031096969696171817
3473.0,0.031096969696171817
3472.0,0.031096969696171817
3471.0,0.031190286087141805
3470.0,0.03128362253321426
3469.0,0.03137697904301118
3468.0,0.03151705144606498
3467.0,0.03161045815293173
3466.0,0.03170388495374454
3465.0,0.03175060589208267
3464.0,0.03179733185715028
3463.0,0.03179733185715028
3462.0,0.03175060589208267
3461.0,0.03175060589208267
3460.0,0.03179733185715028
3459.0,0.03179733185715028
3458.0,0.03184406285002961
3457.0,0.03193753992355086
3456.0,0.03207779326948268
3455.0,0.03226486821611996
3454.0,0.03240522732811035
3453.0,0.03249882527715853
3452.0,0.032592443402527316
3451.0,0.03273290844021437
3450.0,0.032873418923587305
3449.0,0.03301397488206215
3448.0,0.033154576345083564
3447.0,0.0332483359486222
3446.0,0.03334211579824231
3445.0,0.033482823553208085
3444.0,0.03357665405630694
3443.0,0.03371743783253667
3442.0,0.03385826726096752
3441.0,0.034046110897937076
3440.0,0.034187046963396917
3439.0,0.03428102975577918
3438.0,0.03437503289075727
3437.0,0.03442204208947208
3436.0,0.03442204208947208
3435.0,0.034469056377139484
3434.0,0.034516075754861264
3433.0,0.03456310022373987
3432.0,0.03465716443937783
3431.0,0.03465716443937783
3430.0,0.03470420418834386
3429.0,0.03475124903287918
3428.0,0.03484535401307465
3427.0,0.0349394793888016
3426.0,0.0349394793888016
3425.0,0.03489241415094413
3424.0,0.03479829897408804
3423.0,0.03470420418834386
3422.0,0.03461012978487776
3421.0,0.034516075754861264
3420.0,0.03437503289075727
3419.0,0.03423403581731388
3418.0,0.03409308450480819
3417.0,0.03399914237121604
3416.0,0.033905220553829274
3415.0,0.03385826726096752
3414.0,0.0338113190438627
3413.0,0.03371743783253667
3412.0,0.03357665405630694
3411.0,0.03338901331806565
3410.0,0.033201453616638954
3409.0,0.033060836978886954
3408.0,0.03301397488206215
3407.0,0.032920265855503006
3406.0,0.032873418923587305
3405.0,0.03277974021703267
3404.0,0.03273290844021437
3403.0,0.032686081712916426
3402.0,0.03263926003405038
3401.0,0.032545631817259224
3400.0,0.03245202378113787
3399.0,0.03240522732811035
3398.0,0.032311649546687526
3397.0,0.032311649546687526
3396.0,0.032311649546687526
3395.0,0.03235843591698884
3394.0,0.03240522732811035
3393.0,0.03240522732811035
3392.0,0.03235843591698884
3391.0,0.032311649546687526
3390.0,0.03226486821611996
3389.0,0.03226486821611996
3388.0,0.032311649546687526
3387.0,0.032311649546687526
3386.0,0.032311649546687526
3385.0,0.032311649546687526
3384.0,0.03226486821611996
3383.0,0.03226486821611996
3382.0,0.032218091924200776
3381.0,0.032124554451966825
3380.0,0.032031037121307726
3379.0,0.03189079887180224
3378.0,0.03179733185715028
3377.0,0.03175060589208267
3376.0,0.03179733185715028
3375.0,0.03189079887180224
3374.0,0.031984286006358165
3373.0,0.032031037121307726
3372.0,0.032031037121307726
3371.0,0.03207779326948268
3370.0,0.03207779326948268
3369.0,0.03207779326948268
3368.0,0.032124554451966825
3367.0,0.032124554451966825
3366.0,0.032124554451966825
3365.0,0.032124554451966825
3364.0,0.032124554451966825
3363.0,0.03207779326948268
3362.0,0.03207779326948268
3361.0,0.03207779326948268
3360.0,0.03207779326948268
3359.0,0.032124554451966825
3358.0,0.03217132066984485
3357.0,0.032218091924200776
3356.0,0.032218091924200776
3355.0,0.032218091924200776
3354.0,0.032218091924200776
3353.0,0.032218091924200776
3352.0,0.03217132066984485
3351.0,0.032124554451966825
3350.0,0.032124554451966825
3349.0,0.03217132066984485
3348.0,0.03217132066984485
3347.0,0.03217132066984485
3346.0,0.032124554451966825
3345.0,0.03207779326948268
3344.0,0.032031037121307726
3343.0,0.03207779326948268
3342.0,0.032124554451966825
3341.0,0.03217132066984485
3340.0,0.032218091924200776
3339.0,0.032218091924200776
3338.0,0.032218091924200776
3337.0,0.032218091924200776
3336.0,0.03217132066984485
3335.0,0.032124554451966825
3334.0,0.03207779326948268
3333.0,0.031984286006358165
3332.0,0.03193753992355086
3331.0,0.03189079887180224
3330.0,0.03189079887180224
3329.0,0.03189079887180224
3328.0,0.03193753992355086
3327.0,0.031984286006358165
3326.0,0.032031037121307726
3325.0,0.03207779326948268
3324.0,0.03207779326948268
3323.0,0.03207779326948268
3322.0,0.032031037121307726
3321.0,0.031984286006358165
3320.0,0.03184406285002961
3319.0,0.03175060589208267
3318.0,0.03170388495374454
3317.0,0.03175060589208267
3316.0,0.03184406285002961
3315.0,0.03189079887180224
3314.0,0.03184406285002961
3313.0,0.03175060589208267
3312.0,0.03170388495374454
3311.0,0.031657169041054534
3310.0,0.031657169041054534
3309.0,0.03170388495374454
3308.0,0.03170388495374454
3307.0,0.031657169041054534
3306.0,0.031563752288295444
3305.0,0.03151705144606498
3304.0,0.03151705144606498
3303.0,0.03151705144606498
3302.0,0.031563752288295444
3301.0,0.031563752288295444
3300.0,0.031563752288295444
3299.0,0.03151705144606498
3298.0,0.03151705144606498
3297.0,0.031563752288295444
3296.0,0.03161045815293173
3295.0,0.031657169041054534
3294.0,0.03161045815293173
3293.0,0.031563752288295444
3292.0,0.03151705144606498
3291.0,0.03147035562516054
3290.0,0.03142366482450232
3289.0,0.03142366482450232
3288.0,0.03142366482450232
3287.0,0.03142366482450232
3286.0,0.03142366482450232
3285.0,0.03147035562516054
3284.0,0.03142366482450232
3283.0,0.03137697904301118
3282.0,0.03128362253321426
3281.0,0.031190286087141805
3280.0,0.031096969696171817
3279.0,0.03105031901865729
3278.0,0.031003673351687855
3277.0,0.031003673351687855
3276.0,0.031003673351687855
3275.0,0.03105031901865729
3274.0,0.03105031901865729
3273.0,0.03105031901865729
3272.0,0.03105031901865729
3271.0,0.031003673351687855
3270.0,0.030957032694186815
3269.0,0.030910397045078586
3268.0,0.030863766403287585
3267.0,0.030770520137356927
3266.0,0.03067729388779794
3265.0,0.03063068826647264
3264.0,0.03063068826647264
3263.0,0.03058408764601861
3262.0,0.03058408764601861
3261.0,0.030537492025363155
3260.0,0.030537492025363155
3259.0,0.03058408764601861
3258.0,0.03067729388779794
3257.0,0.0307239045110681
3256.0,0.0307239045110681
3255.0,0.03067729388779794
3254.0,0.03067729388779794
3253.0,0.03063068826647264
3252.0,0.03063068826647264
3251.0,0.030537492025363155
3250.0,0.030490901403433135
3249.0,0.030397735151460825
3248.0,0.030351159519274695
3247.0,0.03030458888152676
3246.0,0.03025802323714588
3245.0,0.03030458888152676
3244.0,0.030351159519274695
3243.0,0.030397735151460825
3242.0,0.030444315779156517
3241.0,0.030397735151460825
3240.0,0.03030458888152676
3239.0,0.030164906924202484
3238.0,0.030118356253500123
3237.0,0.030164906924202484
3236.0,0.03025802323714588
3235.0,0.03030458888152676
3234.0,0.03030458888152676
3233.0,0.030211462585061133
3232.0,0.030118356253500123
3231.0,0.03002526987828502
3230.0,0.030071810571884017
3229.0,0.030118356253500123
3228.0,0.030211462585061133
3227.0,0.03030458888152676
3226.0,0.030351159519274695
3225.0,0.030351159519274695
3224.0,0.030351159519274695
3223.0,0.030351159519274695
3222.0,0.03025802323714588
3221.0,0.030164906924202484
3220.0,0.030071810571884017
3219.0,0.029978734171634214
3218.0,0.029932203450862893
3217.0,0.029885677714903025
3216.0,0.029885677714903025
3215.0,0.029885677714903025
3214.0,0.029932203450862893
3213.0,0.029885677714903025
3212.0,0.029885677714903025
3211.0,0.029839156962686353
3210.0,0.029792641193145286
3209.0,0.029746130405213123
3208.0,0.02969962459782227
3207.0,0.02969962459782227
3206.0,0.02969962459782227
3205.0,0.029746130405213123
3204.0,0.029792641193145286
3203.0,0.029792641193145286
3202.0,0.029792641193145286
3201.0,0.029746130405213123
3200.0,0.029653123769906697
3199.0,0.029560137048236124
3198.0,0.029513651152349718
3197.0,0.029513651152349718
3196.0,0.029560137048236124
3195.0,0.029513651152349718
3194.0,0.029467170231675777
3193.0,0.029374223311705583
3192.0,0.029281296279810798
3191.0,0.029188389127482228
3190.0,0.029141943003497595
3189.0,0.029141943003497595
3188.0,0.029188389127482228
3187.0,0.029281296279810798
3186.0,0.029374223311705583
3185.0,0.029374223311705583
3184.0,0.02932775731028059
3183.0,0.029281296279810798
3182.0,0.029234840219232394
3181.0,0.029141943003497595
3180.0,0.029095501846216454
3179.0,0.02904906565457588
3178.0,0.028956208163971375
3177.0,0.02890978686288448
3176.0,0.02890978686288448
3175.0,0.028956208163971375
3174.0,0.029002634427514717
3173.0,0.028956208163971375
3172.0,0.028863370523193765
3171.0,0.028770552723758724
3170.0,0.028677754757187035
3169.0,0.028677754757187035
3168.0,0.028677754757187035
3167.0,0.028677754757187035
3166.0,0.028677754757187035
3165.0,0.02863136320857662
3164.0,0.02863136320857662
3163.0,0.02863136320857662
3162.0,0.02858497661500481
3161.0,0.02858497661500481
3160.0,0.02863136320857662
3159.0,0.028677754757187035
3158.0,0.028677754757187035
3157.0,0.028677754757187035
3156.0,0.02863136320857662
3155.0,0.028538594975413334
3154.0,0.02849221828874393
3153.0,0.028538594975413334
3152.0,0.02858497661500481
3151.0,0.02858497661500481
3150.0,0.02858497661500481
3149.0,0.028538594975413334
3148.0,0.028445846553939003
3147.0,0.028353117935693284
3146.0,0.02826040911222183
3145.0,0.028167720075074953
3144.0,0.028167720075074953
3143.0,0.028214062120885508
3142.0,0.02826040911222183
3141.0,0.02826040911222183
3140.0,0.028306761050139073
3139.0,0.028353117935693284
3138.0,0.028353117935693284
3137.0,0.02839947976994095
3136.0,0.02849221828874393
3135.0,0.02858497661500481
3134.0,0.028677754757187035
3133.0,0.02872415126189476
3132.0,0.028677754757187035
3131.0,0.028677754757187035
3130.0,0.02872415126189476
3129.0,0.028770552723758724
3128.0,0.02890978686288448
3127.0,0.028956208163971375
3126.0,0.029002634427514717
3125.0,0.028956208163971375
3124.0,0.028863370523193765
3123.0,0.028816959143838528
3122.0,0.028816959143838528
3121.0,0.028863370523193765
3120.0,0.028863370523193765
3119.0,0.028863370523193765
3118.0,0.028863370523193765
3117.0,0.02890978686288448
3116.0,0.028956208163971375
3115.0,0.02904906565457588
3114.0,0.029188389127482228
3113.0,0.029281296279810798
3112.0,0.02942069428514915
3111.0,0.029560137048236124
3110.0,0.029653123769906697
3109.0,0.029746130405213123
3108.0,0.029885677714903025
3107.0,0.030071810571884017
3106.0,0.030164906924202484
3105.0,0.030211462585061133
3104.0,0.030164906924202484
3103.0,0.030071810571884017
3102.0,0.029978734171634214
3101.0,0.029932203450862893
3100.0,0.029839156962686353
3099.0,0.029746130405213123
3098.0,0.029653123769906697
3097.0,0.029560137048236124
3096.0,0.029513651152349718
3095.0,0.029513651152349718
3094.0,0.029513651152349718
3093.0,0.029513651152349718
3092.0,0.029560137048236124
3091.0,0.029653123769906697
3090.0,0.029746130405213123
3089.0,0.029839156962686353
3088.0,0.029978734171634214
3087.0,0.030118356253500123
3086.0,0.03025802323714588
3085.0,0.030490901403433135
3084.0,0.03067729388779794
3083.0,0.030770520137356927
3082.0,0.030770520137356927
3081.0,0.0307239045110681
3080.0,0.03067729388779794
3079.0,0.0307239045110681
3078.0,0.0307239045110681
3077.0,0.0307239045110681
3076.0,0.03067729388779794
3075.0,0.03063068826647264
3074.0,0.03063068826647264
3073.0,0.03067729388779794
3072.0,0.030770520137356927
3071.0,0.030863766403287585
3070.0,0.030910397045078586
3069.0,0.030863766403287585
3068.0,0.030863766403287585
3067.0,0.03081714076773867
3066.0,0.030770520137356927
3065.0,0.030770520137356927
3064.0,0.03067729388779794
3063.0,0.03063068826647264
3062.0,0.030537492025363155
3061.0,0.030537492025363155
3060.0,0.03063068826647264
3059.0,0.030770520137356927
3058.0,0.030863766403287585
3057.0,0.031003673351687855
3056.0,0.031096969696171817
3055.0,0.031143625385307683
3054.0,0.031143625385307683
3053.0,0.031096969696171817
3052.0,0.030910397045078586
3051.0,0.0307239045110681
3050.0,0.030397735151460825
3049.0,0.03002526987828502
3048.0,0.02969962459782227
3047.0,0.02932775731028059
3046.0,0.02904906565457588
3045.0,0.028816959143838528
3044.0,0.02863136320857662
3043.0,0.02849221828874393
3042.0,0.02839947976994095
3041.0,0.028353117935693284
3040.0,0.02826040911222183
3039.0,0.028167720075074953
3038.0,0.028028723600243666
3037.0,0.02798240132598462
3036.0,0.02798240132598462
3035.0,0.02798240132598462
3034.0,0.028028723600243666
3033.0,0.02812138297373412
3032.0,0.028167720075074953
3031.0,0.028214062120885508
3030.0,0.028306761050139073
3029.0,0.028353117935693284
3028.0,0.02839947976994095
3027.0,0.028445846553939003
3026.0,0.02849221828874393
3025.0,0.02858497661500481
3024.0,0.028677754757187035
3023.0,0.028863370523193765
3022.0,0.02904906565457588
3021.0,0.029234840219232394
3020.0,0.02942069428514915
3019.0,0.029560137048236124
3018.0,0.029653123769906697
3017.0,0.029792641193145286
3016.0,0.029978734171634214
3015.0,0.030211462585061133
3014.0,0.030490901403433135
3013.0,0.030770520137356927
3012.0,0.03105031901865729
3011.0,0.03128362253321426
3010.0,0.03151705144606498
3009.0,0.031657169041054534
3008.0,0.03184406285002961
3007.0,0.031984286006358165
3006.0,0.03217132066984485
3005.0,0.03235843591698884
3004.0,0.032545631817259224
3003.0,0.032686081712916426
3002.0,0.03282657704446046
3001.0,0.0329671178412978
3000.0,0.03310770413286357
2999.0,0.03334211579824231
2998.0,0.03357665405630694
2997.0,0.0338113190438627
2996.0,0.03399914237121604
2995.0,0.034187046963396917
2994.0,0.03442204208947208
2993.0,0.03475124903287918
2992.0,0.03512779136222477
2991.0,0.03550466044490741
2990.0,0.03588185684851508
2989.0,0.036117771071222604
2988.0,0.03635381351515665
2987.0,0.03658998431977123
2986.0,0.036779013477011624
2985.0,0.037062711569998186
2984.0,0.037346595106788616
2983.0,0.03763066432997886
2982.0,0.03800971255993524
2981.0,0.038436537637930535
2980.0,0.03886378261277468
2979.0,0.039338992729018196
2978.0,0.03986232513620536
2977.0,0.040338629726504704
2976.0,0.04081545726880842
2975.0,0.04129280891271536
2974.0,0.04186632432376469
2973.0,0.04244059810252043
2972.0,0.043063586155803746
2971.0,0.04363944632667782
2970.0,0.04421607108308856
2969.0,0.044793462458058375
2968.0,0.04537162249272897
2967.0,0.045902279520810385
2966.0,0.04643358574299339
2965.0,0.0469171560879138
2964.0,0.04740126547022694
2963.0,0.04774046340917959
2962.0,0.04807992647970649
2961.0,0.04827402457540786
2960.0,0.04841965509660828
2959.0,0.048468209457651845
2958.0,0.048468209457651845
2957.0,0.04837110616336182
2956.0,0.04817696468408794
2955.0,0.047934409814949674
2954.0,0.04754660357696672
2953.0,0.04701393480294458
2952.0,0.04638525830935958
2951.0,0.04575749056067524
2950.0,0.04508244626504121
2949.0,0.044456557540257124
2948.0,0.0437835307566099
2947.0,0.043063586155803746
2946.0,0.042344833056508824
2945.0,0.041627267521392675
2944.0,0.040958607678906356
2943.0,0.040243327009005014
2942.0,0.03957679292217042
2941.0,0.038958783046687984
2940.0,0.03838909190871931
2939.0,0.03796231343498735
2938.0,0.037583306554248797
2937.0,0.037251946641359446
2936.0,0.0369681249461018
2935.0,0.03668448861388862
2934.0,0.036401037402758574
2933.0,0.03616496929785207
2932.0,0.03592902944204468
2931.0,0.03578752703018084
2930.0,0.03559892883726867
2929.0,0.03550466044490741
2928.0,0.03541041251009669
2927.0,0.03531618502395939
2926.0,0.03522197797762394
2925.0,0.03512779136222477
2924.0,0.03503362516890207
2923.0,0.03489241415094413
2922.0,0.03470420418834386
2921.0,0.03456310022373987
2920.0,0.03437503289075727
2919.0,0.03428102975577918
2918.0,0.034187046963396917
2917.0,0.03414006319292828
2916.0,0.034187046963396917
2915.0,0.03423403581731388
2914.0,0.03428102975577918
2913.0,0.03432802877989327
2912.0,0.03437503289075727
2911.0,0.03442204208947208
2910.0,0.03442204208947208
2909.0,0.034469056377139484
2908.0,0.034469056377139484
2907.0,0.034516075754861264
2906.0,0.03456310022373987
2905.0,0.03461012978487776
2904.0,0.03475124903287918
2903.0,0.03484535401307465
2902.0,0.03498654972775217
2901.0,0.03498654972775217
2900.0,0.03498654972775217
2899.0,0.0349394793888016
2898.0,0.03498654972775217
2897.0,0.03503362516890207
2896.0,0.03512779136222477
2895.0,0.03526907894637077
2894.0,0.035363296211498474
2893.0,0.03550466044490741
2892.0,0.03555179208333925
2891.0,0.035646070707806565
2890.0,0.035646070707806565
2889.0,0.03559892883726867
2888.0,0.03545753392086315
2887.0,0.03531618502395939
2886.0,0.03517488211661135
2885.0,0.03503362516890207
2884.0,0.0349394793888016
2883.0,0.03479829897408804
2882.0,0.03465716443937783
2881.0,0.034469056377139484
2880.0,0.03432802877989327
2879.0,0.03423403581731388
2878.0,0.03414006319292828
2877.0,0.03399914237121604
2876.0,0.03385826726096752
2875.0,0.03371743783253667
2874.0,0.03357665405630694
2873.0,0.03343591590268957
2872.0,0.03334211579824231
2871.0,0.0332483359486222
2870.0,0.033154576345083564
2869.0,0.03310770413286357
2868.0,0.03301397488206215
2867.0,0.032920265855503006
2866.0,0.03282657704446046
2865.0,0.032686081712916426
2864.0,0.032592443402527316
2863.0,0.03245202378113787
2862.0,0.03235843591698884
2861.0,0.032311649546687526
2860.0,0.032311649546687526
2859.0,0.032311649546687526
2858.0,0.032311649546687526
2857.0,0.032218091924200776
2856.0,0.032124554451966825
2855.0,0.032031037121307726
2854.0,0.03189079887180224
2853.0,0.03175060589208267
2852.0,0.03161045815293173
2851.0,0.03142366482450232
2850.0,0.031143625385307683
2849.0,0.030863766403287585
2848.0,0.03063068826647264
2847.0,0.030397735151460825
2846.0,0.030211462585061133
2845.0,0.030071810571884017
2844.0,0.029978734171634214
2843.0,0.029839156962686353
2842.0,0.029746130405213123
2841.0,0.029560137048236124
2840.0,0.02942069428514915
2839.0,0.029234840219232394
2838.0,0.029095501846216454
2837.0,0.029002634427514717
2836.0,0.028863370523193765
2835.0,0.028770552723758724
2834.0,0.02863136320857662
2833.0,0.028538594975413334
2832.0,0.02849221828874393
2831.0,0.02849221828874393
2830.0,0.02849221828874393
2829.0,0.028445846553939003
2828.0,0.028353117935693284
2827.0,0.028306761050139073
2826.0,0.02826040911222183
2825.0,0.028214062120885508
2824.0,0.028167720075074953
2823.0,0.028167720075074953
2822.0,0.02812138297373412
2821.0,0.028075050815808744
2820.0,0.028028723600243666
2819.0,0.02798240132598462
2818.0,0.027936083991977778
2817.0,0.027889771597169544
2816.0,0.027843464140506313
2815.0,0.027843464140506313
2814.0,0.027843464140506313
2813.0,0.027843464140506313
2812.0,0.027889771597169544
2811.0,0.027889771597169544
2810.0,0.027936083991977778
2809.0,0.027889771597169544
2808.0,0.027843464140506313
2807.0,0.027797161620935595
2806.0,0.027750864037404455
2805.0,0.027658283674251827
2804.0,0.027658283674251827
2803.0,0.027612000892527133
2802.0,0.027565723042634938
2801.0,0.02747318213414429
2800.0,0.027426919073445077
2799.0,0.027426919073445077
2798.0,0.027426919073445077
2797.0,0.02747318213414429
2796.0,0.02747318213414429
2795.0,0.027426919073445077
2794.0,0.02738066094037661
2793.0,0.027334407733889066
2792.0,0.027288159452933503
2791.0,0.02724191609646076
2790.0,0.02724191609646076
2789.0,0.027195677663422346
2788.0,0.027195677663422346
2787.0,0.027149444152769986
2786.0,0.02710321556345563
2785.0,0.027010773144651168
2784.0,0.02696455931306696
2783.0,0.02691835039863255
2782.0,0.02691835039863255
2781.0,0.02691835039863255
2780.0,0.02691835039863255
2779.0,0.026872146400301444
2778.0,0.02682594731702781
2777.0,0.02677975314776626
2776.0,0.026733563891471412
2775.0,0.026733563891471412
2774.0,0.026733563891471412
2773.0,0.026733563891471412
2772.0,0.026733563891471412
2771.0,0.026733563891471412
2770.0,0.026733563891471412
2769.0,0.026733563891471412
2768.0,0.026687379547098322
2767.0,0.02664120011360227
2766.0,0.026595025589939425
2765.0,0.026595025589939425
2764.0,0.02664120011360227
2763.0,0.026733563891471412
2762.0,0.02677975314776626
2761.0,0.02682594731702781
2760.0,0.02677975314776626
2759.0,0.02677975314776626
2758.0,0.026733563891471412
2757.0,0.026687379547098322
2756.0,0.02664120011360227
2755.0,0.02654885597506529
2754.0,0.026502691267936695
2753.0,0.026456531467510258
2752.0,0.026456531467510258
2751.0,0.026502691267936695
2750.0,0.026502691267936695
2749.0,0.026456531467510258
2748.0,0.026410376572743033
2747.0,0.02636422658259252
2746.0,0.02636422658259252
2745.0,0.02636422658259252
2744.0,0.02636422658259252
2743.0,0.02636422658259252
2742.0,0.02636422658259252
2741.0,0.026271941311972746
2740.0,0.02617967564731627
2739.0,0.026087429580295085
2738.0,0.026041313893296225
2737.0,0.025995203102585407
2736.0,0.025995203102585407
2735.0,0.025995203102585407
2734.0,0.025995203102585407
2733.0,0.025995203102585407
2732.0,0.025949097207122573
2731.0,0.025902996205869
2730.0,0.025902996205869
2729.0,0.025902996205869
2728.0,0.025902996205869
2727.0,0.025902996205869
2726.0,0.025856900097785074
2725.0,0.025764722556973707
2724.0,0.025718641122169483
2723.0,0.025672564576383117
2722.0,0.02562649291857677
2721.0,0.02558042614771394
2720.0,0.02553436426275746
2719.0,0.02553436426275746
2718.0,0.02553436426275746
2717.0,0.02553436426275746
2716.0,0.025488307262671706
2715.0,0.025488307262671706
2714.0,0.025488307262671706
2713.0,0.02544225514642018
2712.0,0.02544225514642018
2711.0,0.02544225514642018
2710.0,0.02544225514642018
2709.0,0.02539620791296726
2708.0,0.02539620791296726
2707.0,0.025350165561278004
2706.0,0.02539620791296726
2705.0,0.02539620791296726
2704.0,0.025350165561278004
2703.0,0.025350165561278004
2702.0,0.025304128090317013
2701.0,0.025258095499050004
2700.0,0.02521206778644225
2699.0,0.02512002699306959
2698.0,0.025074013910237447
2697.0,0.025074013910237447
2696.0,0.02512002699306959
2695.0,0.02516604495145991
2694.0,0.02516604495145991
2693.0,0.025074013910237447
2692.0,0.025028005701930978
2691.0,0.02498200236711723
2690.0,0.02498200236711723
2689.0,0.025028005701930978
2688.0,0.025028005701930978
2687.0,0.025028005701930978
2686.0,0.02498200236711723
2685.0,0.024936003904763915
2684.0,0.024890010313838973
2683.0,0.02484402159331056
2682.0,0.02484402159331056
2681.0,0.02484402159331056
2680.0,0.02484402159331056
2679.0,0.024890010313838973
2678.0,0.024890010313838973
2677.0,0.02484402159331056
2676.0,0.024798037742147727
2675.0,0.02475205875931885
2674.0,0.024798037742147727
2673.0,0.024798037742147727
2672.0,0.02484402159331056
2671.0,0.02484402159331056
2670.0,0.02484402159331056
2669.0,0.02484402159331056
2668.0,0.02484402159331056
2667.0,0.02484402159331056
2666.0,0.02484402159331056
2665.0,0.024798037742147727
2664.0,0.02475205875931885
2663.0,0.024706084643793647
2662.0,0.024660115394541604
2661.0,0.024568191490736968
2660.0,0.024568191490736968
2659.0,0.02461415101053266
2658.0,0.024660115394541604
2657.0,0.024660115394541604
2656.0,0.024660115394541604
2655.0,0.024660115394541604
2654.0,0.024660115394541604
2653.0,0.02461415101053266
2652.0,0.02461415101053266
2651.0,0.024568191490736968
2650.0,0.024568191490736968
2649.0,0.024522236834125355
2648.0,0.024522236834125355
2647.0,0.024568191490736968
2646.0,0.024568191490736968
2645.0,0.02461415101053266
2644.0,0.02461415101053266
2643.0,0.02461415101053266
2642.0,0.024568191490736968
2641.0,0.024476287039668643
2640.0,0.024430342106337877
2639.0,0.024430342106337877
2638.0,0.024476287039668643
2637.0,0.024522236834125355
2636.0,0.024568191490736968
2635.0,0.024660115394541604
2634.0,0.024706084643793647
2633.0,0.02475205875931885
2632.0,0.024798037742147727
2631.0,0.02484402159331056
2630.0,0.024890010313838973
2629.0,0.024890010313838973
2628.0,0.02484402159331056
2627.0,0.024798037742147727
2626.0,0.02475205875931885
2625.0,0.02475205875931885
2624.0,0.02475205875931885
2623.0,0.024706084643793647
2622.0,0.024660115394541604
2621.0,0.02461415101053266
2620.0,0.024568191490736968
2619.0,0.024568191490736968
2618.0,0.024568191490736968
2617.0,0.02461415101053266
2616.0,0.02461415101053266
2615.0,0.024660115394541604
2614.0,0.02461415101053266
2613.0,0.02461415101053266
2612.0,0.024568191490736968
2611.0,0.024568191490736968
2610.0,0.024568191490736968
2609.0,0.02461415101053266
2608.0,0.02461415101053266
2607.0,0.02461415101053266
2606.0,0.024522236834125355
2605.0,0.024476287039668643
2604.0,0.024430342106337877
2603.0,0.024430342106337877
2602.0,0.024430342106337877
2601.0,0.024476287039668643
2600.0,0.024476287039668643
2599.0,0.024522236834125355
2598.0,0.024522236834125355
2597.0,0.024522236834125355
2596.0,0.024476287039668643
2595.0,0.024476287039668643
2594.0,0.024522236834125355
2593.0,0.024522236834125355
2592.0,0.024522236834125355
2591.0,0.024522236834125355
2590.0,0.024522236834125355
2589.0,0.024522236834125355
2588.0,0.024522236834125355
2587.0,0.024522236834125355
2586.0,0.024568191490736968
2585.0,0.024568191490736968
2584.0,0.02461415101053266
2583.0,0.024660115394541604
2582.0,0.024706084643793647
2581.0,0.024706084643793647
2580.0,0.024706084643793647
2579.0,0.024660115394541604
2578.0,0.024660115394541604
2577.0,0.02461415101053266
2576.0,0.02461415101053266
2575.0,0.024568191490736968
2574.0,0.024568191490736968
2573.0,0.024568191490736968
2572.0,0.024568191490736968
2571.0,0.024568191490736968
2570.0,0.024568191490736968
2569.0,0.024568191490736968
2568.0,0.024568191490736968
2567.0,0.02461415101053266
2566.0,0.024660115394541604
2565.0,0.024660115394541604
2564.0,0.02461415101053266
2563.0,0.024568191490736968
2562.0,0.024522236834125355
2561.0,0.024522236834125355
2560.0,0.024522236834125355
2559.0,0.024522236834125355
2558.0,0.024522236834125355
2557.0,0.024476287039668643
2556.0,0.024476287039668643
2555.0,0.024476287039668643
2554.0,0.024430342106337877
2553.0,0.024430342106337877
2552.0,0.02438440203310499
2551.0,0.024430342106337877
2550.0,0.024476287039668643
2549.0,0.024522236834125355
2548.0,0.02461415101053266
2547.0,0.02461415101053266
2546.0,0.024568191490736968
2545.0,0.024476287039668643
2544.0,0.024430342106337877
2543.0,0.024476287039668643
2542.0,0.024476287039668643
2541.0,0.024476287039668643
2540.0,0.024476287039668643
2539.0,0.024430342106337877
2538.0,0.02438440203310499
2537.0,0.02438440203310499
2536.0,0.02438440203310499
2535.0,0.02438440203310499
2534.0,0.024430342106337877
2533.0,0.024430342106337877
2532.0,0.024430342106337877
2531.0,0.024430342106337877
2530.0,0.02438440203310499
2529.0,0.024292536462819925
2528.0,0.024246610963712723
2527.0,0.024200690320592466
2526.0,0.024200690320592466
2525.0,0.024154774532432866
2524.0,0.024200690320592466
2523.0,0.024200690320592466
2522.0,0.024200690320592466
2521.0,0.024154774532432866
2520.0,0.024108863598207186
2519.0,0.024108863598207186
2518.0,0.024108863598207186
2517.0,0.024154774532432866
2516.0,0.024154774532432866
2515.0,0.024154774532432866
2514.0,0.024154774532432866
2513.0,0.024154774532432866
2512.0,0.024108863598207186
2511.0,0.02406295751688936
2510.0,0.02406295751688936
2509.0,0.024017056287453542
2508.0,0.024017056287453542
2507.0,0.024017056287453542
2506.0,0.024017056287453542
2505.0,0.023971159908874107
2504.0,0.023925268380126097
2503.0,0.023879381700184332
2502.0,0.023787622882622816
2501.0,0.023741750742954926
2500.0,0.023695883447997224
2499.0,0.023695883447997224
2498.0,0.023741750742954926
2497.0,0.023787622882622816
2496.0,0.023787622882622816
2495.0,0.023741750742954926
2494.0,0.023695883447997224
2493.0,0.023604163388120325
2492.0,0.02355831062115543
2491.0,0.02351246269481
2490.0,0.023466619608062178
2489.0,0.02342078135989012
2488.0,0.02342078135989012
2487.0,0.02342078135989012
2486.0,0.02342078135989012
2485.0,0.02342078135989012
2484.0,0.02342078135989012
2483.0,0.02342078135989012
2482.0,0.023374947949272418
2481.0,0.023329119375188556
2480.0,0.023283295636617574
2479.0,0.023237476732539397
2478.0,0.02314585342378117
2477.0,0.023054249440757957
2476.0,0.02300845469384938
2475.0,0.02300845469384938
2474.0,0.02296266477531872
2473.0,0.02296266477531872
2472.0,0.02291687968414724
2471.0,0.02291687968414724
2470.0,0.02291687968414724
2469.0,0.02291687968414724
2468.0,0.022871099419317753
2467.0,0.02282532397981263
2466.0,0.02277955336461468
2465.0,0.022733787572707387
2464.0,0.022733787572707387
2463.0,0.022733787572707387
2462.0,0.022688026603074007
2461.0,0.022688026603074007
2460.0,0.022688026603074007
2459.0,0.022688026603074007
2458.0,0.022733787572707387
2457.0,0.022688026603074007
2456.0,0.02259651912656535
2455.0,0.02255077261765881
2454.0,0.02245929405346514
2453.0,0.022413561996148967
2452.0,0.022413561996148967
2451.0,0.02245929405346514
2450.0,0.02245929405346514
2449.0,0.02245929405346514
2448.0,0.022413561996148967
2447.0,0.022413561996148967
2446.0,0.022413561996148967
2445.0,0.022367834754000393
2444.0,0.022413561996148967
2443.0,0.02245929405346514
2442.0,0.022505030926963654
2441.0,0.02255077261765881
2440.0,0.02255077261765881
2439.0,0.02255077261765881
2438.0,0.02255077261765881
2437.0,0.022505030926963654
2436.0,0.022505030926963654
2435.0,0.022505030926963654
2434.0,0.02245929405346514
2433.0,0.02245929405346514
2432.0,0.02245929405346514
2431.0,0.022505030926963654
2430.0,0.02255077261765881
2429.0,0.02259651912656535
2428.0,0.02255077261765881
2427.0,0.02255077261765881
2426.0,0.02255077261765881
2425.0,0.02255077261765881
2424.0,0.02259651912656535
2423.0,0.022642270454698687
2422.0,0.022688026603074007
2421.0,0.022688026603074007
2420.0,0.022688026603074007
2419.0,0.022733787572707387
2418.0,0.022733787572707387
2417.0,0.022733787572707387
2416.0,0.02277955336461468
2415.0,0.02282532397981263
2414.0,0.022871099419317753
2413.0,0.022871099419317753
2412.0,0.02282532397981263
2411.0,0.02282532397981263
2410.0,0.02282532397981263
2409.0,0.022871099419317753
2408.0,0.022871099419317753
2407.0,0.02291687968414724
2406.0,0.02291687968414724
2405.0,0.02296266477531872
2404.0,0.02300845469384938
2403.0,0.023054249440757957
2402.0,0.023054249440757957
2401.0,0.023054249440757957
2400.0,0.02300845469384938
2399.0,0.02296266477531872
2398.0,0.02300845469384938
2397.0,0.023054249440757957
2396.0,0.023100049017062307
2395.0,0.023191662661933732
2394.0,0.023191662661933732
2393.0,0.023191662661933732
2392.0,0.023191662661933732
2391.0,0.023191662661933732
2390.0,0.02314585342378117
2389.0,0.023054249440757957
2388.0,0.02291687968414724
2387.0,0.022688026603074007
2386.0,0.022367834754000393
2385.0,0.021910826943857264
2384.0,0.021363051615525652
2383.0,0.020633757603838898
2382.0,0.019769308608968306
2381.0,0.018815862601645694
2380.0,0.017909760704207134
2379.0,0.017231422748988034
2378.0,0.016824927962187042
2377.0,0.016644385668211692
2376.0,0.016734647433454652
2375.0,0.016870075265299933
2374.0,0.016915227262211507
2373.0,0.016644385668211692
2372.0,0.016193358021584725
2371.0,0.015877917138889863
2370.0,0.015607721475734415
2369.0,0.015202742910707112
2368.0,0.014888020460646079
2367.0,0.015157768594724175
2366.0,0.015832872853011715
2365.0,0.01578783323856614
2364.0,0.014573525916998342
2363.0,0.012914970375878188
2362.0,0.011574829993696856
2361.0,0.011262724711199823
2360.0,0.01215504982870197
2359.0,0.013317820220494436
2358.0,0.013273040668781544
2357.0,0.012065734767841452
2356.0,0.011262724711199823
2355.0,0.011129033935354915
2354.0,0.01077272626946324
2353.0,0.01001654169860089
2352.0,0.009616741093766423
2351.0,0.009838807101520963
2350.0,0.010060986715464404
2349.0,0.009705553871561357
2348.0,0.008596697419959609
2347.0,0.007402303897961815
2346.0,0.007137328610972382
2345.0,0.008153946355103248
2344.0,0.009483555971770974
2343.0,0.009883233932095559
2342.0,0.008951223547323472
2341.0,0.0074464821678643656
2340.0,0.006475596832934416
2339.0,0.006343371384537999
2338.0,0.006651960076740071
2337.0,0.00696076819309055
2336.0,0.007181479933320523
2335.0,0.007225635744644521
2334.0,0.00696076819309055
2333.0,0.006387442061109638
2332.0,0.006035001804881146
2331.0,0.00625524344553785
2330.0,0.00696076819309055
2329.0,0.008109696063975047
2328.0,0.009705553871561357
2327.0,0.011441043121384498
2326.0,0.012736045877764557
2325.0,0.013452186585275916
2324.0,0.013765869865004277
2323.0,0.01403492169512921
2322.0,0.014438812226654996
2321.0,0.015022873584506602
2320.0,0.015832872853011715
2319.0,0.016689514205884493
2318.0,0.01727661233145472
2317.0,0.017457417697056554
2316.0,0.017321806616515723
2315.0,0.016915227262211507
2314.0,0.016373712875465518
2313.0,0.01578783323856614
2312.0,0.01547268665620738
2311.0,0.015427684378367834
2310.0,0.015607721475734415
2309.0,0.015877917138889863
2308.0,0.016238439713835096
2307.0,0.016644385668211692
2306.0,0.016960383953898095
2305.0,0.017186237868137555
2304.0,0.017367005605150476
2303.0,0.017502630802287644
2302.0,0.01768353030793479
2301.0,0.01781925440359733
2300.0,0.01800028587012159
2299.0,0.018226681372252695
2298.0,0.01845319495476394
2297.0,0.018679826740892747
2296.0,0.018906576854070378
2295.0,0.019178833355664393
2294.0,0.01940584422377989
2293.0,0.019632973815224997
2292.0,0.019814763052665052
2291.0,0.02004210665933459
2290.0,0.020178569969774962
2289.0,0.02036058777709271
2288.0,0.020542681902151694
2287.0,0.02081596632558158
2286.0,0.021043834782408455
2285.0,0.021135015652343103
2284.0,0.021135015652343103
2283.0,0.021089422824428272
2282.0,0.020952673052035298
2281.0,0.02081596632558158
2280.0,0.02067930261797568
2279.0,0.020542681902151694
2278.0,0.02045162529590483
2277.0,0.02036058777709271
2276.0,0.02026956933771462
2275.0,0.020178569969774962
2274.0,0.02004210665933459
2273.0,0.01995115493504329
2272.0,0.019860222254245663
2271.0,0.019814763052665052
2270.0,0.019860222254245663
2269.0,0.01990568621470623
2268.0,0.01995115493504329
2267.0,0.01995115493504329
2266.0,0.01995115493504329
2265.0,0.01995115493504329
2264.0,0.01995115493504329
2263.0,0.01995115493504329
2262.0,0.02004210665933459
2261.0,0.020087589665283012
2260.0,0.02013307743509718
2259.0,0.020178569969774962
2258.0,0.02022406727031445
2257.0,0.02022406727031445
2256.0,0.02022406727031445
2255.0,0.020178569969774962
2254.0,0.020178569969774962
2253.0,0.02022406727031445
2252.0,0.02026956933771462
2251.0,0.020315076172974234
2250.0,0.02036058777709271
2249.0,0.02036058777709271
2248.0,0.020406104151069693
2247.0,0.020406104151069693
2246.0,0.020406104151069693
2245.0,0.020406104151069693
2244.0,0.02036058777709271
2243.0,0.02036058777709271
2242.0,0.02036058777709271
2241.0,0.020315076172974234
2240.0,0.020315076172974234
2239.0,0.02026956933771462
2238.0,0.02022406727031445
2237.0,0.02022406727031445
2236.0,0.020178569969774962
2235.0,0.020178569969774962
2234.0,0.02022406727031445
2233.0,0.02022406727031445
2232.0,0.02022406727031445
2231.0,0.02022406727031445
2230.0,0.020178569969774962
2229.0,0.02013307743509718
2228.0,0.020087589665283012
2227.0,0.02004210665933459
2226.0,0.019996628416253603
2225.0,0.019996628416253603
2224.0,0.019996628416253603
2223.0,0.019996628416253603
2222.0,0.01995115493504329
2221.0,0.01995115493504329
2220.0,0.01990568621470623
2219.0,0.01995115493504329
2218.0,0.01995115493504329
2217.0,0.01990568621470623
2216.0,0.019860222254245663
2215.0,0.019860222254245663
2214.0,0.019814763052665052
2213.0,0.019814763052665052
2212.0,0.019769308608968306
2211.0,0.019769308608968306
2210.0,0.019769308608968306
2209.0,0.019723858922159776
2208.0,0.019678413991243593
2207.0,0.019678413991243593
2206.0,0.019632973815224997
2205.0,0.01958753839310856
2204.0,0.01954210772389997
2203.0,0.019451260640229506
2202.0,0.01940584422377989
2201.0,0.01940584422377989
2200.0,0.019360432556262852
2199.0,0.019360432556262852
2198.0,0.019360432556262852
2197.0,0.019315025636685412
2196.0,0.019315025636685412
2195.0,0.019269623464054586
2194.0,0.0192242260373785
2193.0,0.019178833355664393
2192.0,0.019133445417920836
2191.0,0.019133445417920836
2190.0,0.019133445417920836
2189.0,0.0190880622231564
2188.0,0.0190880622231564
2187.0,0.019133445417920836
2186.0,0.019133445417920836
2185.0,0.0190880622231564
2184.0,0.0190880622231564
2183.0,0.0190880622231564
2182.0,0.019133445417920836
2181.0,0.019133445417920836
2180.0,0.019178833355664393
2179.0,0.019178833355664393
2178.0,0.019133445417920836
2177.0,0.0190880622231564
2176.0,0.0190880622231564
2175.0,0.0190880622231564
2174.0,0.019133445417920836
2173.0,0.019178833355664393
2172.0,0.019133445417920836
2171.0,0.019133445417920836
2170.0,0.019133445417920836
2169.0,0.019133445417920836
2168.0,0.019178833355664393
2167.0,0.0192242260373785
2166.0,0.019269623464054586
2165.0,0.019269623464054586
2164.0,0.0192242260373785
2163.0,0.019269623464054586
2162.0,0.019269623464054586
2161.0,0.019269623464054586
2160.0,0.019269623464054586
2159.0,0.019269623464054586
2158.0,0.019315025636685412
2157.0,0.019315025636685412
2156.0,0.019360432556262852
2155.0,0.01940584422377989
2154.0,0.01940584422377989
2153.0,0.01940584422377989
2152.0,0.01940584422377989
2151.0,0.01940584422377989
2150.0,0.01949668180660491
2149.0,0.01954210772389997
2148.0,0.01958753839310856
2147.0,0.01958753839310856
2146.0,0.01958753839310856
2145.0,0.01954210772389997
2144.0,0.01949668180660491
2143.0,0.019451260640229506
2142.0,0.019451260640229506
2141.0,0.01940584422377989
2140.0,0.019315025636685412
2139.0,0.019315025636685412
2138.0,0.019360432556262852
2137.0,0.01940584422377989
2136.0,0.01940584422377989
2135.0,0.01940584422377989
2134.0,0.01940584422377989
2133.0,0.019360432556262852
2132.0,0.019315025636685412
2131.0,0.019360432556262852
2130.0,0.01940584422377989
2129.0,0.019360432556262852
2128.0,0.019360432556262852
2127.0,0.019315025636685412
2126.0,0.019315025636685412
2125.0,0.019315025636685412
2124.0,0.019360432556262852
2123.0,0.01940584422377989
2122.0,0.019451260640229506
2121.0,0.019451260640229506
2120.0,0.019360432556262852
2119.0,0.019315025636685412
2118.0,0.019269623464054586
2117.0,0.0192242260373785
2116.0,0.019178833355664393
2115.0,0.019178833355664393
2114.0,0.019178833355664393
2113.0,0.019133445417920836
2112.0,0.019133445417920836
2111.0,0.019133445417920836
2110.0,0.019133445417920836
2109.0,0.019133445417920836
2108.0,0.019133445417920836
2107.0,0.019133445417920836
2106.0,0.019133445417920836
2105.0,0.0190880622231564
2104.0,0.019042683770379876
2103.0,0.01899731005860028
2102.0,0.018951941086827073
2101.0,0.018906576854070378
2100.0,0.018861217359339655
2099.0,0.018770512579999288
2098.0,0.018770512579999288
2097.0,0.018725167293411005
2096.0,0.018725167293411005
2095.0,0.018725167293411005
2094.0,0.018725167293411005
2093.0,0.018679826740892747
2092.0,0.018634490921455527
2091.0,0.01858915983411169
2090.0,0.018498511851753108
2089.0,0.01840788278591865
2088.0,0.018362575344230914
2087.0,0.018362575344230914
2086.0,0.01840788278591865
2085.0,0.01840788278591865
2084.0,0.01831727262871463
2083.0,0.018226681372252695
2082.0,0.018136109008649592
2081.0,0.01800028587012159
2080.0,0.017909760704207134
2079.0,0.01781925440359733
2078.0,0.017774008325325275
2077.0,0.017774008325325275
2076.0,0.017774008325325275
2075.0,0.017774008325325275
2074.0,0.017728766960431575
2073.0,0.017638298366853045
2072.0,0.017547848615010242
2071.0,0.017457417697056554
2070.0,0.017412209298337533
2069.0,0.017367005605150476
2068.0,0.017321806616515723
2067.0,0.01727661233145472
2066.0,0.017231422748988034
2065.0,0.017186237868137555
2064.0,0.017095882207371904
2063.0,0.017050711425501408
2062.0,0.016960383953898095
2061.0,0.016870075265299933
2060.0,0.01677978535189717
2059.0,0.016689514205884493
2058.0,0.016599261819461697
2057.0,0.016509028184833463
2056.0,0.016509028184833463
2055.0,0.016509028184833463
2054.0,0.01646391839700767
2053.0,0.016418813294209356
2052.0,0.01632861713980338
2051.0,0.01628352608625061
2050.0,0.016238439713835096
2049.0,0.016193358021584725
2048.0,0.016148281008528276
2047.0,0.016148281008528276
2046.0,0.016148281008528276
2045.0,0.016058141016111804
2044.0,0.016013078034810446
2043.0,0.01596801972881945
2042.0,0.015922966097169144
2041.0,0.015832872853011715
2040.0,0.015742798294583915
2039.0,0.015697768020096703
2038.0,0.015652742414136167
2037.0,0.015652742414136167
2036.0,0.015697768020096703
2035.0,0.015697768020096703
2034.0,0.015697768020096703
2033.0,0.015697768020096703
2032.0,0.015652742414136167
2031.0,0.015607721475734415
2030.0,0.015607721475734415
2029.0,0.015517693597737248
2028.0,0.015517693597737248
2027.0,0.01547268665620738
2026.0,0.01547268665620738
2025.0,0.015427684378367834
2024.0,0.01538268676325183
2023.0,0.01538268676325183
2022.0,0.01538268676325183
2021.0,0.015427684378367834
2020.0,0.01547268665620738
2019.0,0.015517693597737248
2018.0,0.015517693597737248
2017.0,0.01547268665620738
2016.0,0.015427684378367834
2015.0,0.015427684378367834
2014.0,0.015427684378367834
2013.0,0.015427684378367834
2012.0,0.015427684378367834
2011.0,0.01538268676325183
2010.0,0.015427684378367834
2009.0,0.015427684378367834
2008.0,0.01547268665620738
2007.0,0.015562705203923999
2006.0,0.015607721475734415
2005.0,0.015652742414136167
2004.0,0.015652742414136167
2003.0,0.015652742414136167
2002.0,0.015652742414136167
2001.0,0.015652742414136167
2000.0,0.015652742414136167
1999.0,0.015652742414136167
1998.0,0.015697768020096703
1997.0,0.015697768020096703
1996.0,0.015742798294583915
1995.0,0.01578783323856614
1994.0,0.015877917138889863
1993.0,0.01596801972881945
1992.0,0.016058141016111804
1991.0,0.016148281008528276
1990.0,0.016148281008528276
1989.0,0.016103208673694303
1988.0,0.016103208673694303
1987.0,0.016058141016111804
1986.0,0.016058141016111804
1985.0,0.016013078034810446
1984.0,0.016058141016111804
1983.0,0.016103208673694303
1982.0,0.016148281008528276
1981.0,0.016193358021584725
1980.0,0.016193358021584725
1979.0,0.016238439713835096
1978.0,0.016193358021584725
1977.0,0.016148281008528276
1976.0,0.016148281008528276
1975.0,0.016148281008528276
1974.0,0.016238439713835096
1973.0,0.01632861713980338
1972.0,0.016373712875465518
1971.0,0.016509028184833463
1970.0,0.016599261819461697
1969.0,0.016689514205884493
1968.0,0.01677978535189717
1967.0,0.016870075265299933
1966.0,0.016915227262211507
1965.0,0.016960383953898095
1964.0,0.017005545341335804
1963.0,0.017141057687924732
1962.0,0.01727661233145472
1961.0,0.017367005605150476
1960.0,0.017457417697056554
1959.0,0.01759307113620534
1958.0,0.017728766960431575
1957.0,0.01781925440359733
1956.0,0.017909760704207134
1955.0,0.01800028587012159
1954.0,0.01809082990920774
1953.0,0.018136109008649592
1952.0,0.018136109008649592
1951.0,0.018181392829336396
1950.0,0.018226681372252695
1949.0,0.018226681372252695
1948.0,0.018181392829336396
1947.0,0.018181392829336396
1946.0,0.018181392829336396
1945.0,0.01809082990920774
1944.0,0.017955020928509757
1943.0,0.017774008325325275
1942.0,0.017502630802287644
1941.0,0.01727661233145472
1940.0,0.017050711425501408
1939.0,0.016824927962187042
1938.0,0.016599261819461697
1937.0,0.01632861713980338
1936.0,0.016103208673694303
1935.0,0.015922966097169144
1934.0,0.015697768020096703
1933.0,0.015427684378367834
1932.0,0.015202742910707112
1931.0,0.015022873584506602
1930.0,0.014932966849499074
1929.0,0.014798141635428141
1928.0,0.014663358264387139
1927.0,0.01452861671041239
1926.0,0.0144837121472845
1925.0,0.014393916947563534
1924.0,0.014259258949925524
1923.0,0.014169510141607944
1922.0,0.013990068146738865
1921.0,0.01381070026317599
1920.0,0.013586594534531482
1919.0,0.013407393177789162
1918.0,0.01322826573375524
1917.0,0.013093968619278806
1916.0,0.012959713020733288
1915.0,0.012870232340102872
1914.0,0.012780770091995297
1913.0,0.012691326268817527
1912.0,0.012557195064198723
1911.0,0.012467797270160563
1910.0,0.012378417874516323
1909.0,0.012199714248127602
1908.0,0.012021084124518078
1907.0,0.011797899741219142
1906.0,0.011664044143949504
1905.0,0.011530229790124524
1904.0,0.011396456654336085
1903.0,0.011262724711199823
1902.0,0.011129033935354915
1901.0,0.010950843561779777
1900.0,0.01077272626946324
1899.0,0.010639186223752484
1898.0,0.010594681998483901
1897.0,0.010505687227290839
1896.0,0.01037222925484893
1895.0,0.01023881228122181
1894.0,0.010149890396819572
1893.0,0.01001654169860089
1892.0,0.009883233932095559
1891.0,0.009794384815193347
1890.0,0.009705553871561357
1889.0,0.009483555971770974
1888.0,0.009306039320248427
1887.0,0.009128595198514056
1886.0,0.009039900317800775
1885.0,0.008906891951112605
1884.0,0.008773924307505121
1883.0,0.008640997362049818
1882.0,0.00850811108984062
1881.0,0.008419542825660153
1880.0,0.008286724286910463
1879.0,0.008198201155356077
1878.0,0.008109696063975047
1877.0,0.008021209005416363
1876.0,0.007888512213050314
1875.0,0.007800070204414977
1874.0,0.007800070204414977
1873.0,0.007755855953228474
1872.0,0.007755855953228474
1871.0,0.007800070204414977
1870.0,0.007888512213050314
1869.0,0.007844288957383316
1868.0,0.007755855953228474
1867.0,0.00762324020119709
1866.0,0.007402303897961815
1865.0,0.007181479933320523
1864.0,0.007004901568658406
1863.0,0.006916639301937977
1862.0,0.006872514894289861
1861.0,0.006784279525863024
1860.0,0.006696062080525422
1859.0,0.006651960076740071
1858.0,0.006607862550997545
1857.0,0.00656376950238835
1856.0,0.006475596832934416
1855.0,0.006431517210272464
1854.0,0.006431517210272464
1853.0,0.006431517210272464
1852.0,0.006431517210272464
1851.0,0.00656376950238835
1850.0,0.006740168563263094
1849.0,0.006784279525863024
1848.0,0.006784279525863024
1847.0,0.006696062080525422
1846.0,0.00656376950238835
1845.0,0.006475596832934416
1844.0,0.006475596832934416
1843.0,0.006607862550997545
1842.0,0.006740168563263094
1841.0,0.006784279525863024
1840.0,0.006784279525863024
1839.0,0.006828394969235152
1838.0,0.006872514894289861
1837.0,0.006872514894289861
1836.0,0.006872514894289861
1835.0,0.00696076819309055
1834.0,0.007049039429553483
1833.0,0.007137328610972382
1832.0,0.007181479933320523
1831.0,0.007269796045857202
1830.0,0.007269796045857202
1829.0,0.007225635744644521
1828.0,0.007181479933320523
1827.0,0.007181479933320523
1826.0,0.007181479933320523
1825.0,0.007049039429553483
1824.0,0.006916639301937977
1823.0,0.006784279525863024
1822.0,0.006651960076740071
1821.0,0.006431517210272464
1820.0,0.00625524344553785
1819.0,0.00612308505878878
1818.0,0.006035001804881146
1817.0,0.005858888873877532
1816.0,0.005726851026829571
1815.0,0.005638848091999105
1814.0,0.005550862985963967
1813.0,0.00541891874010525
1812.0,0.005243055412371911
1811.0,0.005067263269958211
1810.0,0.00484762310854614
1809.0,0.00458420145758498
1808.0,0.004320939488377862
1807.0,0.004145520125434121
1806.0,0.00401400208620073
1805.0,0.0038825238627120395
1804.0,0.0037510854308679953
1803.0,0.0036634819042162814
1802.0,0.0035321097382827737
1801.0,0.0032694845648473247
1800.0,0.0029632891174733444
1799.0,0.0028321285541661467
1798.0,0.0027447101798967477
1797.0,0.002569926202528716
1796.0,0.002395212539545666
1795.0,0.0022642234021015284
1794.0,0.0020459959305969555
1793.0,0.0016970599014589638
1792.0,0.0013919706849057079
1791.0,0.0012177301682640973
1790.0,0.0010870956412141197
1789.0,0.000869458712629001
1788.0,0.0006519307932786322
1787.0,0.000521466320689834
1786.0,0.0003910410285830057
1785.0,0.00021720154586435392
1784.0,8.686758342868472e-05
1783.0,0.0001303078917322953
1782.0,0.0001303078917322953
1781.0,-4.3427276862573194e-05
1780.0,-0.0003472966853634851
1779.0,-0.0005208409361854294
1778.0,-0.0006075870628903246
1777.0,-0.0007810273534953893
1776.0,-0.0009543984064577238
1775.0,-0.0009110621312231615
1774.0,-0.0008677215312267172
1773.0,-0.0010843812922201046
1772.0,-0.001344230411601366
1771.0,-0.0013009330204178937
1770.0,-0.0013009330204178937
1769.0,-0.0014308122463981832
1768.0,-0.0015173768235041685
1767.0,-0.001344230411601366
1766.0,-0.0009977303577937136
1765.0,-0.0007376737740329986
1764.0,-0.0004774613744551459
1763.0,0.0
1762.0,0.0006084382809090627
1761.0,0.0011306361176557367
1760.0,0.0017406615763013722
1759.0,0.002701007590486082
1758.0,0.0038387066319929275
1757.0,0.005023326350308999
1756.0,0.006343371384537999
1755.0,0.007888512213050314
1754.0,0.009572341514736404
1753.0,0.011396456654336085
1752.0,0.013945219230304673
1751.0,0.017774008325325275
1750.0,0.022367834754000393
1749.0,0.027195677663422346
1748.0,0.03245202378113787
1747.0,0.03838909190871931
1746.0,0.044937930324967956
1745.0,0.052468254304406825
1744.0,0.06133019897732073
1743.0,0.07114346641808922
1742.0,0.08155025759884227
1741.0,0.09339562827501968
1740.0,0.10801676914803293
1739.0,0.12343578601615435
1738.0,0.13584504399797437
1737.0,0.14539036190420496
1736.0,0.1559579579589836
1735.0,0.17444406770964305
1734.0,0.200521601162019
1733.0,0.2228632874958274
1732.0,0.23874892569133732
1731.0,0.2543787786930616
1730.0,0.27245874297144357
1729.0,0.29166409731773646
1728.0,0.3101585908624953
1727.0,0.328179439816751
1726.0,0.3468840068344332
1725.0,0.36703683183273883
1724.0,0.38880793913156575
1723.0,0.41060897686306697
1722.0,0.4295738216410274
1721.0,0.4441803169388088
1720.0,0.45655281991829977
1719.0,0.4721124340472953
1718.0,0.49363028290449584
1717.0,0.5121548798885645
1716.0,0.520280764560429
1715.0,0.5218665718994824
1714.0,0.5192746210115122
1713.0,0.5108856306210807
1712.0,0.4966179365262673
1711.0,0.4782083503608765
1710.0,0.4571745730408201
1709.0,0.43415218132648237
1708.0,0.4090467648120142
1707.0,0.38080228420705264
1706.0,0.3500812812645808
1705.0,0.32275815405334596
1704.0,0.3025091128289432
1703.0,0.2868455981627016
1702.0,0.2705112308204387
1701.0,0.2494144726589913
1700.0,0.22870655737094037
1699.0,0.21538270736712462
1698.0,0.20669864638688495
1697.0,0.19729467292564795
1696.0,0.18635230465310326
1695.0,0.17698247655395072
1694.0,0.17082492608291244
1693.0,0.16627930955536674
1692.0,0.16178077809237412
1691.0,0.15689185800039307
1690.0,0.15205736115477642
1689.0,0.14813039927023364
1688.0,0.14496568332411575
1687.0,0.141884067809934
1686.0,0.13846558914096208
1685.0,0.1349552783069008
1684.0,0.13194363817695853
1683.0,0.1295960947209729
1682.0,0.12743585690934855
1681.0,0.125054563914468
1680.0,0.12251347193039863
1679.0,0.11970100857424737
1678.0,0.1169634899723202
1677.0,0.11418662533951118
1676.0,0.11131515334030118
1675.0,0.10857405715200596
1674.0,0.10640466618011679
1673.0,0.10468797552421272
1672.0,0.1028679566179056
1671.0,0.1005625457138224
1670.0,0.09805153492691598
1669.0,0.09593394808549704
1668.0,0.09415017335768128
1667.0,0.09242742120144909
1666.0,0.09065796163869155
1665.0,0.08878910686244668
1664.0,0.08682216600953208
1663.0,0.08481129482684358
1662.0,0.0830725338870073
1661.0,0.08160266115629988
1660.0,0.08029446545087904
1659.0,0.0788860261633193
1658.0,0.07743023101428781
1657.0,0.0760310351245288
1656.0,0.07458476291575367
1655.0,0.07288638806623937
1654.0,0.07129697256940304
1653.0,0.07052998382251041
1652.0,0.0702746216219956
1651.0,0.07001940948448526
1650.0,0.06956040523329987
1649.0,0.0688982543673613
1648.0,0.06788152797087754
1647.0,0.0666645899223488
1646.0,0.0655520510510299
1645.0,0.06474471821595262
1644.0,0.06403953101083348
1643.0,0.06328524178879635
1642.0,0.06253226035662252
1641.0,0.06193081377661436
1640.0,0.061380218497318895
1639.0,0.06068046892176193
1638.0,0.05988213325228142
1637.0,0.05918479134919874
1636.0,0.058538260652670315
1635.0,0.05794231615860479
1634.0,0.05744631966579017
1633.0,0.057049929922901255
1632.0,0.05650548409389744
1631.0,0.05586292684190197
1630.0,0.05522131887649295
1629.0,0.054728418492290265
1628.0,0.05423607688882637
1627.0,0.05369514500652506
1626.0,0.0531548860393769
1625.0,0.052762392129333646
1624.0,0.0525172634430815
1623.0,0.052419250695677544
1622.0,0.052419250695677544
1621.0,0.052419250695677544
1620.0,0.052419250695677544
1619.0,0.0525172634430815
1618.0,0.05325306496641513
1617.0,0.05482695382609992
1616.0,0.056406567231630955
1615.0,0.057000406633959555
1614.0,0.05680236993107379
1613.0,0.05620880107069848
1612.0,0.05541863577307371
1611.0,0.05438372077326825
1610.0,0.05325306496641513
1609.0,0.05207638016827354
1608.0,0.050902874887084115
1607.0,0.04968383607539972
1606.0,0.04851676924770687
1605.0,0.04744970610179822
1604.0,0.04638525830935958
1603.0,0.04537162249272897
1602.0,0.044312249686494276
1601.0,0.04339941178682327
1600.0,0.042584285277331047
1599.0,0.04181850243505214
1598.0,0.041197296600497646
1597.0,0.04072004986906119
1596.0,0.040338629726504704
1595.0,0.03995754427315856
1594.0,0.03967194946985697
1593.0,0.03943409718180235
1592.0,0.039338992729018196
1591.0,0.03924390909822728
1590.0,0.03929144831144349
1589.0,0.03952922246570112
1588.0,0.040005161671583744
1587.0,0.04081545726880842
1586.0,0.042201225070002124
1585.0,0.044312249686494276
1584.0,0.04711073508906982
1583.0,0.05051241005349638
1582.0,0.054186873412661596
1581.0,0.0575950591438934
1580.0,0.0601813371786204
1579.0,0.061680456657844385
1578.0,0.06173051653708872
1577.0,0.060081579630943294
1576.0,0.05729763111133224
1575.0,0.05453141486818014
1574.0,0.05237025261564554
1573.0,0.050463626623857394
1572.0,0.0486139051197072
1571.0,0.04672366333269573
1570.0,0.04474531717982
1569.0,0.0431115453499229
1568.0,0.04196198390166317
1567.0,0.041101805289228244
1566.0,0.0402909757535701
1565.0,0.03948165721929198
1564.0,0.03862637240519895
1563.0,0.03782014709123227
1562.0,0.0369681249461018
1561.0,0.036401037402758574
1560.0,0.03625938114211591
1559.0,0.03621217265444465
1558.0,0.035740369803151095
1557.0,0.03526907894637077
1556.0,0.03489241415094413
1555.0,0.034516075754861264
1554.0,0.03414006319292828
1553.0,0.033952178923546183
1552.0,0.03376437590141812
1551.0,0.033482823553208085
1550.0,0.03310770413286357
1549.0,0.03263926003405038
1548.0,0.032218091924200776
1547.0,0.03189079887180224
1546.0,0.031657169041054534
1545.0,0.03161045815293173
1544.0,0.03147035562516054
1543.0,0.031143625385307683
1542.0,0.030770520137356927
1541.0,0.030537492025363155
1540.0,0.030351159519274695
1539.0,0.03002526987828502
1538.0,0.029885677714903025
1537.0,0.029885677714903025
1536.0,0.029839156962686353
1535.0,0.029885677714903025
1534.0,0.030164906924202484
1533.0,0.03058408764601861
1532.0,0.030770520137356927
1531.0,0.0307239045110681
1530.0,0.0307239045110681
1529.0,0.0307239045110681
1528.0,0.0307239045110681
1527.0,0.03067729388779794
1526.0,0.03058408764601861
1525.0,0.030397735151460825
1524.0,0.030071810571884017
1523.0,0.029653123769906697
1522.0,0.029281296279810798
1521.0,0.02904906565457588
1520.0,0.02890978686288448
1519.0,0.028816959143838528
1518.0,0.028677754757187035
1517.0,0.02849221828874393
1516.0,0.02826040911222183
1515.0,0.02812138297373412
1514.0,0.02826040911222183
1513.0,0.028956208163971375
1512.0,0.03030458888152676
1511.0,0.032218091924200776
1510.0,0.03456310022373987
1509.0,0.03791491948264003
1508.0,0.044360346976747955
1507.0,0.05428528594013993
1506.0,0.06063052992534024
1505.0,0.06133019897732073
1504.0,0.05908526241971446
1503.0,0.055172003656783764
1502.0,0.05021979163799939
1501.0,0.04484161307420642
1500.0,0.039719535563357944
1499.0,0.03512779136222477
1498.0,0.031143625385307683
1497.0,0.02798240132598462
1496.0,0.025764722556973707
1495.0,0.024246610963712723
1494.0,0.023283295636617574
1493.0,0.022688026603074007
1492.0,0.022322112326006227
1491.0,0.02200219004126036
1490.0,0.02159120737696063
1489.0,0.021363051615525652
1488.0,0.0211806132671577
1487.0,0.020952673052035298
1486.0,0.02081596632558158
1485.0,0.020907099361673565
1484.0,0.0211806132671577
1483.0,0.021499930688540836
1482.0,0.021819483062586187
1481.0,0.022230681908425698
1480.0,0.022642270454698687
1479.0,0.02300845469384938
1478.0,0.023329119375188556
1477.0,0.023879381700184332
1476.0,0.024476287039668643
1475.0,0.024890010313838973
1474.0,0.025258095499050004
1473.0,0.025995203102585407
1472.0,0.027010773144651168
1471.0,0.027797161620935595
1470.0,0.028538594975413334
1469.0,0.029467170231675777
1468.0,0.03058408764601861
1467.0,0.032031037121307726
1466.0,0.03414006319292828
1465.0,0.037251946641359446
1464.0,0.04062466342415694
1463.0,0.043495409683302455
1462.0,0.045902279520810385
1461.0,0.04832256265669943
1460.0,0.05075640943173498
1459.0,0.0534986094304124
1458.0,0.05724807957018618
1457.0,0.06193081377661436
1456.0,0.06509774167768612
1455.0,0.06656333217371957
1454.0,0.06732334137759932
1453.0,0.06777998612288094
1452.0,0.06793230779927839
1451.0,0.06772922410050963
1450.0,0.06747550294945781
1449.0,0.0671712330991534
1448.0,0.06681652082538614
1447.0,0.06636088747507496
1446.0,0.06605739725873905
1445.0,0.0658551882075229
1444.0,0.06560255921901192
1443.0,0.06524912533642091
1442.0,0.06479513257341862
1441.0,0.06419054619006714
1440.0,0.06328524178879635
1439.0,0.061880730805688344
1438.0,0.05978244440026481
1437.0,0.05690137699451481
1436.0,0.053646002773725554
1435.0,0.05065879322950262
1434.0,0.047885915093007325
1433.0,0.044937930324967956
1432.0,0.04172287445230238
1431.0,0.03829421599749461
1430.0,0.03498654972775217
1429.0,0.032031037121307726
1428.0,0.029746130405213123
1427.0,0.028167720075074953
1426.0,0.027010773144651168
1425.0,0.02613355016462182
1424.0,0.02562649291857677
1423.0,0.025488307262671706
1422.0,0.025718641122169483
1421.0,0.02664120011360227
1420.0,0.02932775731028059
1419.0,0.034469056377139484
1418.0,0.04124505013091051
1417.0,0.04919717703534143
1416.0,0.0588862729628985
1415.0,0.0709900145060387
1414.0,0.08570974433405087
1413.0,0.10303309806684524
1412.0,0.12147820449879343
1411.0,0.13792828062000573
1410.0,0.14929251462546267
1409.0,0.15452986701832638
1408.0,0.1538485234711846
1407.0,0.1477030341730745
1406.0,0.13751083309410284
1405.0,0.12575017722159698
1404.0,0.1149782051377024
1403.0,0.1062937069352865
1402.0,0.09946901754724413
1401.0,0.09361107884716913
1400.0,0.08788427092114603
1399.0,0.08244197917456386
1398.0,0.07789763319239285
1397.0,0.07427547306393745
1396.0,0.07088774334533943
1395.0,0.0671712330991534
1394.0,0.0636873663378068
1393.0,0.06078036414518184
1392.0,0.0583891978463662
1391.0,0.056159373598738904
1390.0,0.054088483180726676
1389.0,0.05212534510230182
1388.0,0.050414848673348
1387.0,0.048954051864180226
1386.0,0.047982909952573705
1385.0,0.04754660357696672
1384.0,0.04754660357696672
1383.0,0.047982909952573705
1382.0,0.048905443158337114
1381.0,0.050414848673348
1380.0,0.052468254304406825
1379.0,0.054876229877880656
1378.0,0.05749589383191922
1377.0,0.06033101647767336
1376.0,0.06343599486473406
1375.0,0.06696850489759454
1374.0,0.07042782092345012
1373.0,0.07319468988839395
1372.0,0.07499749231902242
1371.0,0.07582412969807906
1370.0,0.07556563645676939
1369.0,0.07396640332115534
1368.0,0.0710411591191702
1367.0,0.06701917807680191
1366.0,0.06243196139961715
1365.0,0.05724807957018618
1364.0,0.05139145012356372
1363.0,0.04503426894157925
1362.0,0.03919637508823026
1361.0,0.03475124903287918
1360.0,0.03147035562516054
1359.0,0.02890978686288448
1358.0,0.026872146400301444
1357.0,0.025304128090317013
1356.0,0.024108863598207186
1355.0,0.023191662661933732
1354.0,0.022688026603074007
1353.0,0.02255077261765881
1352.0,0.022871099419317753
1351.0,0.02355831062115543
1350.0,0.024660115394541604
1349.0,0.026271941311972746
1348.0,0.028214062120885508
1347.0,0.030537492025363155
1346.0,0.033154576345083564
1345.0,0.0360705779734416
1344.0,0.039006291057664066
1343.0,0.04172287445230238
1342.0,0.04397571771932274
1341.0,0.045564513671517703
1340.0,0.046047116768076934
1339.0,0.04503426894157925
1338.0,0.04263219156847242
1337.0,0.03943409718180235
1336.0,0.03583468937826462
1335.0,0.03226486821611996
1334.0,0.02904906565457588
1333.0,0.026410376572743033
1332.0,0.024476287039668643
1331.0,0.023283295636617574
1330.0,0.022871099419317753
1329.0,0.023100049017062307
1328.0,0.023925268380126097
1327.0,0.02521206778644225
1326.0,0.026872146400301444
1325.0,0.028863370523193765
1324.0,0.031096969696171817
1323.0,0.033482823553208085
1322.0,0.03588185684851508
1321.0,0.03838909190871931
1320.0,0.040958607678906356
1319.0,0.043495409683302455
1318.0,0.04595055323640551
1317.0,0.04841965509660828
1316.0,0.05095170768433621
1315.0,0.053646002773725554
1314.0,0.05650548409389744
1313.0,0.05968277842578207
1312.0,0.0630843190547461
1311.0,0.06656333217371957
1310.0,0.07022356719509815
1309.0,0.07412091069849924
1308.0,0.0781575185941421
1307.0,0.08207457793525874
1306.0,0.08586848736910624
1305.0,0.08969583193143116
1304.0,0.09388054245443844
1303.0,0.09859617317474823
1302.0,0.10413564875270076
1301.0,0.11069829749368965
1300.0,0.11833009232793867
1299.0,0.12679569072295926
1298.0,0.13590442657575252
1297.0,0.14545106418704923
1296.0,0.15539858037365328
1295.0,0.165261481096159
1294.0,0.17496355877864622
1293.0,0.18462151503408197
1292.0,0.19422736806433094
1291.0,0.20349504844670374
1290.0,0.21232703531250707
1289.0,0.22090879615450087
1288.0,0.22929523178422073
1287.0,0.23694655970038525
1286.0,0.24374435124576666
1285.0,0.2500319164905971
1284.0,0.25570701687732367
1283.0,0.26066503980392075
1282.0,0.264880365918128
1281.0,0.2684918164039747
1280.0,0.27180860141005336
1279.0,0.27474193364003896
1278.0,0.27744833799904156
1277.0,0.28050298338941837
1276.0,0.2843308575990098
1275.0,0.2889523961329661
1274.0,0.29473513768259596
1273.0,0.30233483735232536
1272.0,0.31211447515129453
1271.0,0.3237637832366884
1270.0,0.3369590251060257
1269.0,0.3517375942519556
1268.0,0.3677452233152865
1267.0,0.384365531122584
1266.0,0.40088143494463724
1265.0,0.41759570198097196
1264.0,0.433916215832004
1263.0,0.44891613481421966
1262.0,0.4621809049267258
1261.0,0.4736607226101559
1260.0,0.48320029591837566
1259.0,0.4902599844296176
1258.0,0.4949857599158929
1257.0,0.49866682135443385
1256.0,0.5021032570867798
1255.0,0.5055671012736014
1254.0,0.5093393466438632
1253.0,0.5145625189236986
1252.0,0.5212892444872406
1251.0,0.528855034839367
1250.0,0.5371529641683264
1249.0,0.5466816599529623
1248.0,0.5573634742177682
1247.0,0.5679933127304015
1246.0,0.5780671867214915
1245.0,0.5880437620695984
1244.0,0.5975666537806881
1243.0,0.6050232804454356
1242.0,0.6097716375308699
1241.0,0.6118987984294832
1240.0,0.6113660306482109
1239.0,0.6062493596519196
1238.0,0.5963648102094521
1237.0,0.5828605902726745
1236.0,0.5657505476035245
1235.0,0.5451551399914898
1234.0,0.5215778122599195
1233.0,0.4970269409343686
1232.0,0.47249898901887977
1231.0,0.44806230463516283
1230.0,0.4242350194632807
1229.0,0.4018663541867622
1228.0,0.38090666937325723
1227.0,0.3610118406563181
1226.0,0.3419886033428876
1225.0,0.3243132913005988
1224.0,0.3078583906332164
1223.0,0.29242982390206373
1222.0,0.27785987454258443
1221.0,0.2645607967485186
1220.0,0.2523551806717519
1219.0,0.24108810760202637
1218.0,0.23054882059796222
1217.0,0.22105327203138314
1216.0,0.21239785381766252
1215.0,0.20446755728984556
1214.0,0.19708951058096025
1213.0,0.19030564128307614
1212.0,0.1840903491132253
1211.0,0.17822453281653639
1210.0,0.17263072694617465
1209.0,0.16742722515382025
1208.0,0.16266413198498508
1207.0,0.15801519540988607
1206.0,0.15360102696532518
1205.0,0.1494762911210057
1204.0,0.1455724942121388
1203.0,0.14176366457048695
1202.0,0.1381073096085541
1201.0,0.13454067733803532
1200.0,0.1311792938024825
1199.0,0.12784372725170723
1198.0,0.12459143992293642
1197.0,0.12142076193778073
1196.0,0.1183871275216517
1195.0,0.11543118508166672
1194.0,0.1125514997500463
1193.0,0.1098585399354226
1192.0,0.10734896612269962
1191.0,0.10501970907203151
1190.0,0.1028679566179056
1189.0,0.10100072911021085
1188.0,0.09957824654226233
1187.0,0.09848719087006019
1186.0,0.0978882765519955
1185.0,0.09783387072894878
1184.0,0.09826930827078129
1183.0,0.09919606518963042
1182.0,0.1005625457138224
1181.0,0.10237290870955862
1180.0,0.10452220372428545
1179.0,0.10673771411200872
1178.0,0.10874138309586101
1177.0,0.11047420332880886
1176.0,0.1117081546434846
1175.0,0.11227020271196975
1174.0,0.11193288659256306
1173.0,0.1106422631110684
1172.0,0.10835105612944096
1171.0,0.10507502264045665
1170.0,0.10100072911021085
1169.0,0.09653017149282994
1168.0,0.09205147838772776
1167.0,0.08783110394037297
1166.0,0.08407278830288423
1165.0,0.08092190762392604
1164.0,0.07841755960658348
1163.0,0.07634157820669385
1162.0,0.07468790850035045
1161.0,0.0734517753643813
1160.0,0.07262963696097646
1159.0,0.07216786713341827
1158.0,0.07211658966929302
1157.0,0.07262963696097646
1156.0,0.07370901311513656
1155.0,0.07535895258283709
1154.0,0.07768983678560404
1153.0,0.08066036321258663
1152.0,0.08433639649422697
1151.0,0.08862929288386212
1150.0,0.0935572061829677
1149.0,0.09919606518963042
1148.0,0.10546241500425357
1147.0,0.11232644754555254
1146.0,0.11952940719622163
1145.0,0.1270865583796048
1144.0,0.13483678049391368
1143.0,0.1425468829647336
1142.0,0.15015080439474215
1141.0,0.15745316350498495
1140.0,0.1644362483309032
1139.0,0.17095366314681737
1138.0,0.17685194018930606
1137.0,0.18243463044021913
1136.0,0.18768839086887623
1135.0,0.19266796070880954
1134.0,0.19736308191718943
1133.0,0.20217868863597643
1132.0,0.20732821085843267
1131.0,0.2128939069634299
1130.0,0.21910689131292105
1129.0,0.22621355501880647
1128.0,0.2344059446805551
1127.0,0.24366823267894233
1126.0,0.25391095694379984
1125.0,0.26520017041115307
1124.0,0.2772016031290947
1123.0,0.2892059000696725
1122.0,0.30068269897861777
1121.0,0.3112243447271552
1120.0,0.32020882901964565
1119.0,0.3268868957617663
1118.0,0.3307761260691944
1117.0,0.33198702835816785
1116.0,0.3307761260691944
1115.0,0.32725580169340085
1114.0,0.3223930472795069
1113.0,0.3177646430974359
1112.0,0.3144373888417702
1111.0,0.3133637307377066
1110.0,0.31533413597413906
1109.0,0.32102662408023486
1108.0,0.3304042189756866
1107.0,0.34303981725715094
1106.0,0.3580304022979406
1105.0,0.3753054687279187
1104.0,0.394479476562531
1103.0,0.4145392704914994
1102.0,0.4350973274707952
1101.0,0.45593195564972433
1100.0,0.47651366765677206
1099.0,0.49552913750558103
1098.0,0.5121548798885645
1097.0,0.5265130299354315
1096.0,0.5380515047962382
1095.0,0.5457651042517344
1094.0,0.5495969138446337
1093.0,0.5503673495299255
1092.0,0.5485205948751382
1091.0,0.5433303705762424
1090.0,0.535212480354063
1089.0,0.5253467466379373
1088.0,0.5141366704026653
1087.0,0.5016894462103996
1086.0,0.4877159367181465
1085.0,0.47314401287412533
1084.0,0.4579218536643743
1083.0,0.44153143747620516
1082.0,0.424119684319354
1081.0,0.4061603389187287
1080.0,0.38817052050162637
1079.0,0.3697755892475678
1078.0,0.35134730486877697
1077.0,0.3335756274812405
1076.0,0.3166827380781174
1075.0,0.30068269897861777
1074.0,0.28567024025476706
1073.0,0.2719710455794817
1072.0,0.25955835505023406
1071.0,0.24810531195625263
1070.0,0.2376966367122315
1069.0,0.22848601002033342
1068.0,0.22033137279285198
1067.0,0.2128939069634299
1066.0,0.20606999322731534
1065.0,0.19997064075586568
1064.0,0.1946350925335547
1063.0,0.18996921359416064
1062.0,0.1859522790044006
1061.0,0.18283142761894444
1060.0,0.18065351591954726
1059.0,0.17940450345550985
1058.0,0.1789452449531117
1057.0,0.17940450345550985
1056.0,0.18078520011761579
1055.0,0.18283142761894444
1054.0,0.18555262147751228
1053.0,0.18902860017779255
1052.0,0.19314197048118253
1051.0,0.19756837356927637
1050.0,0.20210951694165114
1049.0,0.20669864638688495
1048.0,0.21133678687914248
1047.0,0.21552535623748348
1046.0,0.2192507688964478
1045.0,0.22228326139037402
1044.0,0.2246808781705225
1043.0,0.22606735253235488
1042.0,0.22650610772902935
1041.0,0.22621355501880647
1040.0,0.22533707746217768
1039.0,0.22373478173189043
1038.0,0.2216316566441261
1037.0,0.2192507688964478
1036.0,0.21681130892474232
1035.0,0.21424320003735708
1034.0,0.21161948468043668
1033.0,0.20915209603456808
1032.0,0.20676855294347907
1031.0,0.2043980201058202
1030.0,0.20204035626280392
1029.0,0.19997064075586568
1028.0,0.19825338078053978
1027.0,0.19729467292564795
1026.0,0.1976368256904526
1025.0,0.20045269287438483
1024.0,0.2069083998234198
1023.0,0.21795758337944582
1022.0,0.23433144524098592
1021.0,0.25617677839624964
1020.0,0.28216313251307445
1019.0,0.30891850787703157
1018.0,0.3314277308154421
1017.0,0.34438141645877796
1016.0,0.34390179798716813
1015.0,0.32956859063939437
1014.0,0.30548254618884374
1013.0,0.2781069837850425
1012.0,0.252432837262375
1011.0,0.23077041826340627
1010.0,0.21339052735134012
1009.0,0.19976421067264605
1008.0,0.1887602272467106
1007.0,0.17966715510059017
1006.0,0.1721785723171978
1005.0,0.1660882849286216
1004.0,0.16115090926274478
1003.0,0.15695418946543072
1002.0,0.15323004646278116
1001.0,0.14984407757790774
1000.0,0.146788665496683
999.0,0.14405705376768396
998.0,0.1415831222765116
997.0,0.13936258322624528
996.0,0.13751083309410284
995.0,0.13578566953867033
994.0,0.13430394008392943
993.0,0.13300418688935212
992.0,0.1318847946727828
991.0,0.1308269726783169
990.0,0.12994741830645506
989.0,0.12918657608440243
988.0,0.12866061890013913
987.0,0.12819363554127072
986.0,0.12778543660241448
985.0,0.1275523522109867
984.0,0.12743585690934855
983.0,0.12731939284807026
982.0,0.12726117252733116
981.0,0.12720296001040166
980.0,0.12714475529518965
979.0,0.1270865583796048
978.0,0.12702836926155658
977.0,0.12691201440971422
976.0,0.12691201440971422
975.0,0.12679569072295926
974.0,0.12656313677796316
973.0,0.12621453918179926
972.0,0.12569216687196105
971.0,0.1248808345374317
970.0,0.12378215940835768
969.0,0.12245589228405596
968.0,0.12096149476276286
967.0,0.11935787359571504
966.0,0.11758931562603192
965.0,0.11588463798833115
964.0,0.11418662533951118
963.0,0.1125514997500463
962.0,0.11097857790477517
961.0,0.10946720807225518
960.0,0.10807246577932506
959.0,0.10673771411200872
958.0,0.10546241500425357
957.0,0.10435649517592083
956.0,0.10341867249426717
955.0,0.10248287059947447
954.0,0.10154908080162528
953.0,0.10067205012234592
952.0,0.09979678698310646
951.0,0.09903237608087578
950.0,0.09832376867362447
949.0,0.09767069414168117
948.0,0.09712721455392082
947.0,0.09658441423091357
946.0,0.09604229147682952
945.0,0.09560907998763835
944.0,0.09523037409340485
943.0,0.09479797133768142
942.0,0.09441997176475758
941.0,0.09415017335768128
940.0,0.09388054245443844
939.0,0.09361107884716913
938.0,0.09328794305703592
937.0,0.09291125492570451
936.0,0.09242742120144909
935.0,0.0919441259012328
934.0,0.09140776115243066
933.0,0.09092559859909577
932.0,0.09049745859458458
931.0,0.09012318200960712
930.0,0.08974922769985194
929.0,0.08937559511079884
928.0,0.08900228368935714
927.0,0.08857603462370545
926.0,0.0880970039559672
925.0,0.08756536662442538
924.0,0.0870343792958963
923.0,0.08650404038287651
922.0,0.08592141461088798
921.0,0.0854453014823664
920.0,0.08512818245994969
919.0,0.08491689834879956
918.0,0.08486409337798806
917.0,0.08496970974083906
916.0,0.08523386307414738
915.0,0.0856568428805593
914.0,0.08634506491338012
913.0,0.08745911720936239
912.0,0.08900228368935714
911.0,0.09097914578884403
910.0,0.09328794305703592
909.0,0.09604229147682952
908.0,0.09919606518963042
907.0,0.10264786565568684
906.0,0.1062937069352865
905.0,0.11002636159600376
904.0,0.11379137583250243
903.0,0.11730473761840288
902.0,0.12050271275057156
901.0,0.12337808396572703
900.0,0.12586622117202761
899.0,0.12778543660241448
898.0,0.12912810493225724
897.0,0.13018179202067182
896.0,0.1308856730206247
895.0,0.13123804178794973
894.0,0.13135556160517425
893.0,0.1314731132317961
892.0,0.13182595914036166
891.0,0.1322379753497993
890.0,0.13282724882135022
889.0,0.13371266091580503
888.0,0.13501453934020602
887.0,0.1366771398795441
886.0,0.13864483980673992
885.0,0.14122226269455074
884.0,0.14454141961396383
883.0,0.14843591773651155
882.0,0.15310645668337486
881.0,0.15870311250971825
880.0,0.16532502553725603
879.0,0.1726953589102651
878.0,0.18052187163787736
877.0,0.18849202005467336
876.0,0.19633807676377568
875.0,0.2032175882986922
874.0,0.20837951730718585
873.0,0.2111248842245832
872.0,0.2108425080885603
871.0,0.20711825461460287
870.0,0.20045269287438483
869.0,0.19185657423850877
868.0,0.18236853280948462
867.0,0.17288931253398876
866.0,0.16399254087446846
865.0,0.15614457737683884
864.0,0.14953756723848333
863.0,0.14405705376768396
862.0,0.13954220457652888
861.0,0.1360826230421397
860.0,0.13359450162194508
859.0,0.13182595914036166
858.0,0.1306509192409071
857.0,0.12994741830645506
856.0,0.12953756841108
855.0,0.1290696416513042
854.0,0.12866061890013913
853.0,0.1283103343144847
852.0,0.12819363554127072
851.0,0.12819363554127072
850.0,0.1281352979118051
849.0,0.1281352979118051
848.0,0.1281352979118051
847.0,0.1280186461566306
846.0,0.12784372725170723
845.0,0.12784372725170723
844.0,0.1280186461566306
843.0,0.12836869546244634
842.0,0.12866061890013913
841.0,0.1287190271420271
840.0,0.1286022185125162
839.0,0.1280186461566306
838.0,0.12702836926155658
837.0,0.12586622117202761
836.0,0.12453358413361437
835.0,0.12308968865537295
834.0,0.12153565465853111
833.0,0.11992991593593283
832.0,0.1183871275216517
831.0,0.1169634899723202
830.0,0.11565785235294102
829.0,0.11446916681190777
828.0,0.11345287660889425
827.0,0.11243895906999102
826.0,0.11142740314240007
825.0,0.11058623595729111
824.0,0.10991447328367476
823.0,0.10924374808178183
822.0,0.10862982530385179
821.0,0.1081838804751396
820.0,0.10796107965870849
819.0,0.10779405402422748
818.0,0.10768273927751948
817.0,0.10762709260156367
816.0,0.10768273927751948
815.0,0.10773839308446487
814.0,0.10773839308446487
813.0,0.10768273927751948
812.0,0.10762709260156367
811.0,0.10740457717110186
810.0,0.1071265931112344
809.0,0.10690433390377163
808.0,0.10673771411200872
807.0,0.10657115822045493
806.0,0.1062937069352865
805.0,0.10585015323207791
804.0,0.1052410056281079
803.0,0.10430127304069425
802.0,0.10325338439259446
801.0,0.10237290870955862
800.0,0.10209812573177213
799.0,0.10292299679057959
798.0,0.10540705207704448
797.0,0.10980261378997125
796.0,0.11537453674376552
795.0,0.12067469921519258
794.0,0.12430223801979201
793.0,0.12563416426995122
792.0,0.12459143992293642
791.0,0.12153565465853111
790.0,0.11713408027837091
789.0,0.11232644754555254
788.0,0.1075158206353124
787.0,0.1028679566179056
786.0,0.09854167860388774
785.0,0.09474395125154866
784.0,0.09146136782804049
783.0,0.0885227828938977
782.0,0.08592141461088798
781.0,0.08365134772453975
780.0,0.08175990977858505
779.0,0.08003329851661278
778.0,0.07836553894629472
777.0,0.07675598136972361
776.0,0.07520400420208784
775.0,0.07365755337434488
774.0,0.07221915065262552
773.0,0.07093887591523451
772.0,0.06976434723371505
771.0,0.0684912781333824
770.0,0.06701917807680191
769.0,0.0655520510510299
768.0,0.06414020196211956
767.0,0.06283329628496737
766.0,0.06153031163235467
765.0,0.06028111764589528
764.0,0.05908526241971446
763.0,0.05779345772290467
762.0,0.056456022846545606
761.0,0.05502409158795207
760.0,0.05354773498692689
759.0,0.05192951848105887
758.0,0.050317309204795935
757.0,0.04885683989244738
756.0,0.047595060422975566
755.0,0.04643358574299339
754.0,0.04527520902093718
753.0,0.04411991377462465
752.0,0.04287180232318688
751.0,0.041483896576958834
750.0,0.04019568349166214
749.0,0.03924390909822728
748.0,0.038816290187564384
747.0,0.038911280232103884
746.0,0.03981472339538916
745.0,0.042057664554595586
744.0,0.046192002334692894
743.0,0.052762392129333646
742.0,0.062331685600995
741.0,0.07551395626608493
740.0,0.09242742120144909
739.0,0.11266406960083297
738.0,0.13560759484941132
737.0,0.16083631708534996
736.0,0.18768839086887623
735.0,0.21531140049857878
734.0,0.24359212745104175
733.0,0.27343578383775524
732.0,0.30548254618884374
731.0,0.3402739047622083
730.0,0.3787198324495853
729.0,0.4223933226374643
728.0,0.4718549217468935
727.0,0.524183586968682
726.0,0.5728385970740344
725.0,0.6090648928966209
724.0,0.6230582428532414
723.0,0.6088883862971974
722.0,0.5686362358410126
721.0,0.5117313845045401
720.0,0.45173345482925464
719.0,0.3988094673846665
718.0,0.3566460380231371
717.0,0.3234892897174464
716.0,0.2967946293045136
715.0,0.2753146117626406
714.0,0.2585332382302452
713.0,0.2461106685401666
712.0,0.23694655970038525
711.0,0.22958986848609375
710.0,0.2230809971579535
709.0,0.21702600505595182
708.0,0.21126614117229248
707.0,0.20551195334083028
706.0,0.19976421067264605
705.0,0.1941594511853273
704.0,0.18869315991866387
703.0,0.1831623690979649
702.0,0.17730898922394545
701.0,0.17108243838331405
700.0,0.16475346000368907
699.0,0.15826522102525642
698.0,0.15205736115477642
697.0,0.14642345638035836
696.0,0.14164329470222659
695.0,0.13751083309410284
694.0,0.13406733180681396
693.0,0.1312967977214634
692.0,0.12930354201075
691.0,0.12743585690934855
690.0,0.12540223129680017
689.0,0.12337808396572703
688.0,0.12165057778222454
687.0,0.12044539906102569
686.0,0.11958660012208333
685.0,0.11907213473291511
684.0,0.11878658374498086
683.0,0.11855827805860697
682.0,0.11815903167507247
681.0,0.11793105556385153
680.0,0.11713408027837091
679.0,0.11667932161702477
678.0,0.11435612816423602
677.0,0.11605480496572018
676.0,0.1175323851046286
675.0,0.11475189221861393
674.0,0.1133401021387972
673.0,0.11131515334030118
672.0,0.10991447328367476
671.0,0.10840679565103484
670.0,0.10701544928928342
669.0,0.10601643278815298
668.0,0.10585015323207791
667.0,0.1052410056281079
666.0,0.10402526764093545
665.0,0.10270287794050348
664.0,0.10149421446564144
663.0,0.10001543745060903
662.0,0.0989778267519208
661.0,0.09767069414168117
660.0,0.09794268919153337
659.0,0.09517630019905599
658.0,0.09237369515673355
657.0,0.09291125492570451
656.0,0.09237369515673355
655.0,0.0922125568893839
654.0,0.09124698081546634
653.0,0.09049745859458458
652.0,0.08996287644694911
651.0,0.08958906008531176
650.0,0.0892689019566193
649.0,0.08889568219596411
648.0,0.0885227828938977
647.0,0.0880970039559672
646.0,0.08761850108119962
645.0,0.08745911720936239
644.0,0.08756536662442538
643.0,0.0877779434675845
642.0,0.08793744441149753
641.0,0.08825662214406838
640.0,0.08905559425002108
639.0,0.09017663034908807
638.0,0.09151498112135026
637.0,0.09339562827501968
636.0,0.09625905937846135
635.0,0.10007011727213588
634.0,0.10385974855798041
633.0,0.1062937069352865
632.0,0.1060718734573931
631.0,0.10314322726279568
630.0,0.09903237608087578
629.0,0.09539263618455207
628.0,0.09291125492570451
627.0,0.09124698081546634
626.0,0.08985603893548699
625.0,0.08873582900163002
624.0,0.08793744441149753
623.0,0.08735289378168276
622.0,0.08708744882390307
621.0,0.08698131625203986
620.0,0.0867691288864394
619.0,0.08608023504853413
618.0,0.08523386307414738
617.0,0.08496970974083906
616.0,0.08560394787021397
615.0,0.08650404038287651
614.0,0.08687520961044104
613.0,0.08682216600953208
612.0,0.08661005636824437
611.0,0.08639805027084257
610.0,0.08618614761628329
609.0,0.08602728844902896
608.0,0.08592141461088798
607.0,0.0856568428805593
606.0,0.08518101955252688
605.0,0.08449463824562353
604.0,0.08354605145007499
603.0,0.08212704480115218
602.0,0.08055578953476306
601.0,0.07956359344924135
600.0,0.079094395835976
599.0,0.07852161962430992
598.0,0.07768983678560404
597.0,0.07717078033335123
596.0,0.0772226580712021
595.0,0.07758597585436577
594.0,0.07768983678560404
593.0,0.07784567476894111
592.0,0.07836553894629472
591.0,0.07919861817434581
590.0,0.08034671768963575
589.0,0.08186477383364066
588.0,0.08312512146131668
587.0,0.08270459905431071
586.0,0.08060807322614072
585.0,0.079094395835976
584.0,0.07961575782164254
583.0,0.08092190762392604
582.0,0.0812883346176787
581.0,0.08113125661901543
580.0,0.08170748724464438
579.0,0.08254700807033655
578.0,0.08296737783760655
577.0,0.08407278830288423
576.0,0.08650404038287651
575.0,0.08799062441302175
574.0,0.08719360733870762
573.0,0.08645104209348209
572.0,0.0880970039559672
571.0,0.09023008526723086
570.0,0.0910326995816122
569.0,0.09312646527792956
568.0,0.09946901754724413
567.0,0.10868560061785693
566.0,0.11730473761840288
565.0,0.12407101507707297
564.0,0.12702836926155658
563.0,0.12308968865537295
562.0,0.1148084593931522
561.0,0.10902040301031102
560.0,0.1081838804751396
559.0,0.11013827874181148
558.0,0.11317099532301778
557.0,0.11667932161702477
556.0,0.11947222180119477
555.0,0.1199871616332282
554.0,0.11930071078129845
553.0,0.11947222180119477
552.0,0.12033079436794658
551.0,0.1201016756699902
550.0,0.11912926746757657
549.0,0.11952940719622163
548.0,0.12222565000860186
547.0,0.12557616941349803
546.0,0.12720296001040166
545.0,0.1260984021355387
544.0,0.12308968865537295
543.0,0.11964380058076385
542.0,0.11667932161702477
541.0,0.11322735694556196
540.0,0.10779405402422748
539.0,0.1012199867101744
538.0,0.09701860020249709
537.0,0.09761631556752848
536.0,0.10242788617426934
535.0,0.10896458468468917
534.0,0.1149782051377024
533.0,0.11924355548978971
532.0,0.1213058996038916
531.0,0.12142076193778073
530.0,0.12147820449879343
529.0,0.12424442074194553
528.0,0.13053358991913355
527.0,0.1363797797296844
526.0,0.13590442657575252
525.0,0.12749410065407507
524.0,0.11633856484638239
523.0,0.10918790104487552
522.0,0.1082953237608173
521.0,0.11030620855581463
520.0,0.1114835389250548
519.0,0.11187669270209155
518.0,0.1133401021387972
517.0,0.1165089098110701
516.0,0.11930071078129845
515.0,0.11935787359571504
514.0,0.1165657063169907
513.0,0.11311464101399138
512.0,0.11176432672943282
511.0,0.11311464101399138
510.0,0.11611154211151953
509.0,0.11907213473291511
508.0,0.12113366304327466
507.0,0.12136332697348307
506.0,0.11941504393502012
505.0,0.1165657063169907
504.0,0.1148084593931522
503.0,0.11407366019856902
502.0,0.11243895906999102
501.0,0.10941133229451272
500.0,0.10762709260156367
499.0,0.10913206118855912
498.0,0.11176432672943282
497.0,0.1114835389250548
496.0,0.10779405402422748
495.0,0.10457745396059215
494.0,0.10419084983086901
493.0,0.10468797552421272
492.0,0.10319830233507843
491.0,0.09963287134352972
490.0,0.09528445472131919
489.0,0.0910326995816122
488.0,0.08698131625203986
487.0,0.08444188458847957
486.0,0.08454739831152125
485.0,0.08735289378168276
484.0,0.0919977988274463
483.0,0.09794268919153337
482.0,0.10391491457671487
481.0,0.10773839308446487
480.0,0.10790539730951965
479.0,0.10501970907203151
478.0,0.10127481841050656
477.0,0.0989778267519208
476.0,0.09914149529800831
475.0,0.10154908080162528
474.0,0.10468797552421272
473.0,0.10623823794205656
472.0,0.10540705207704448
471.0,0.10330847343711591
470.0,0.10193333935836524
469.0,0.10231793820358015
468.0,0.10408045468998406
467.0,0.1063491830140364
466.0,0.10885296955122903
465.0,0.11227020271196975
464.0,0.11690664142431006
463.0,0.1213058996038916
462.0,0.12251347193039863
461.0,0.11970100857424737
460.0,0.11526126223036814
459.0,0.11198908775497118
458.0,0.10974669484546551
457.0,0.1062937069352865
456.0,0.10089114180660053
455.0,0.09533854208447545
454.0,0.09119340059432579
453.0,0.08894897967187343
452.0,0.08884239126002336
451.0,0.09253489323414388
450.0,0.09886874864462802
