cm-1,A
4000.0,0.0040578370074493275
3999.0,0.0040578370074493275
3998.0,0.0040578370074493275
3997.0,0.0040578370074493275
3996.0,0.003970171588923321
3995.0,0.003970171588923321
3994.0,0.00401400208620073
3993.0,0.0040578370074493275
3992.0,0.004145520125434121
3991.0,0.004189368323957332
3990.0,0.004189368323957332
3989.0,0.004189368323957332
3988.0,0.004189368323957332
3987.0,0.004189368323957332
3986.0,0.004145520125434121
3985.0,0.004101676353562844
3984.0,0.0040578370074493275
3983.0,0.004101676353562844
3982.0,0.004101676353562844
3981.0,0.004145520125434121
3980.0,0.004145520125434121
3979.0,0.004145520125434121
3978.0,0.004145520125434121
3977.0,0.004189368323957332
3976.0,0.004233220950025984
3975.0,0.004277078004534696
3974.0,0.004320939488377862
3973.0,0.004320939488377862
3972.0,0.0043648054024501
3971.0,0.0043648054024501
3970.0,0.0043648054024501
3969.0,0.004320939488377862
3968.0,0.004233220950025984
3967.0,0.004145520125434121
3966.0,0.004101676353562844
3965.0,0.004101676353562844
3964.0,0.004101676353562844
3963.0,0.004101676353562844
3962.0,0.0040578370074493275
3961.0,0.0040578370074493275
3960.0,0.004101676353562844
3959.0,0.004145520125434121
3958.0,0.004189368323957332
3957.0,0.004189368323957332
3956.0,0.004145520125434121
3955.0,0.004101676353562844
3954.0,0.0040578370074493275
3953.0,0.0040578370074493275
3952.0,0.0040578370074493275
3951.0,0.004101676353562844
3950.0,0.004145520125434121
3949.0,0.004189368323957332
3948.0,0.004145520125434121
3947.0,0.004145520125434121
3946.0,0.004145520125434121
3945.0,0.004145520125434121
3944.0,0.004145520125434121
3943.0,0.004145520125434121
3942.0,0.004101676353562844
3941.0,0.004101676353562844
3940.0,0.004145520125434121
3939.0,0.004189368323957332
3938.0,0.004277078004534696
3937.0,0.004320939488377862
3936.0,0.004320939488377862
3935.0,0.004277078004534696
3934.0,0.004277078004534696
3933.0,0.004277078004534696
3932.0,0.004233220950025984
3931.0,0.004145520125434121
3930.0,0.004101676353562844
3929.0,0.004101676353562844
3928.0,0.004145520125434121
3927.0,0.004233220950025984
3926.0,0.004320939488377862
3925.0,0.004277078004534696
3924.0,0.004189368323957332
3923.0,0.004101676353562844
3922.0,0.004101676353562844
3921.0,0.004145520125434121
3920.0,0.004233220950025984
3919.0,0.004320939488377862
3918.0,0.0043648054024501
3917.0,0.0043648054024501
3916.0,0.004320939488377862
3915.0,0.004320939488377862
3914.0,0.0043648054024501
3913.0,0.004408675747646695
3912.0,0.004408675747646695
3911.0,0.004408675747646695
3910.0,0.0043648054024501
3909.0,0.004320939488377862
3908.0,0.004320939488377862
3907.0,0.004277078004534696
3906.0,0.004277078004534696
3905.0,0.004233220950025984
3904.0,0.004145520125434121
3903.0,0.004145520125434121
3902.0,0.004189368323957332
3901.0,0.004189368323957332
3900.0,0.004145520125434121
3899.0,0.004101676353562844
3898.0,0.0040578370074493275
3897.0,0.004101676353562844
3896.0,0.004145520125434121
3895.0,0.004145520125434121
3894.0,0.004145520125434121
3893.0,0.004189368323957332
3892.0,0.004189368323957332
3891.0,0.004233220950025984
3890.0,0.004233220950025984
3889.0,0.004320939488377862
3888.0,0.004408675747646695
3887.0,0.004452550524862486
3886.0,0.004452550524862486
3885.0,0.0043648054024501
3884.0,0.004277078004534696
3883.0,0.004233220950025984
3882.0,0.004189368323957332
3881.0,0.004101676353562844
3880.0,0.004101676353562844
3879.0,0.004101676353562844
3878.0,0.004189368323957332
3877.0,0.004277078004534696
3876.0,0.004233220950025984
3875.0,0.004189368323957332
3874.0,0.004101676353562844
3873.0,0.004145520125434121
3872.0,0.004189368323957332
3871.0,0.004189368323957332
3870.0,0.0040578370074493275
3869.0,0.003926345514724705
3868.0,0.003970171588923321
3867.0,0.004101676353562844
3866.0,0.004189368323957332
3865.0,0.004189368323957332
3864.0,0.004101676353562844
3863.0,0.00401400208620073
3862.0,0.0040578370074493275
3861.0,0.004189368323957332
3860.0,0.004320939488377862
3859.0,0.004408675747646695
3858.0,0.004452550524862486
3857.0,0.004452550524862486
3856.0,0.004540313378935901
3855.0,0.004671990922590297
3854.0,0.004715892310740433
3853.0,0.0044964297349936455
3852.0,0.004277078004534696
3851.0,0.004277078004534696
3850.0,0.004408675747646695
3849.0,0.004452550524862486
3848.0,0.004408675747646695
3847.0,0.004320939488377862
3846.0,0.004189368323957332
3845.0,0.004101676353562844
3844.0,0.00401400208620073
3843.0,0.00401400208620073
3842.0,0.003970171588923321
3841.0,0.003926345514724705
3840.0,0.0038825238627120395
3839.0,0.0038387066319929275
3838.0,0.0038825238627120395
3837.0,0.003970171588923321
3836.0,0.0040578370074493275
3835.0,0.004145520125434121
3834.0,0.004233220950025984
3833.0,0.004277078004534696
3832.0,0.004277078004534696
3831.0,0.004320939488377862
3830.0,0.0043648054024501
3829.0,0.004408675747646695
3828.0,0.004408675747646695
3827.0,0.004408675747646695
3826.0,0.004320939488377862
3825.0,0.004233220950025984
3824.0,0.004277078004534696
3823.0,0.004320939488377862
3822.0,0.004408675747646695
3821.0,0.0043648054024501
3820.0,0.004189368323957332
3819.0,0.004189368323957332
3818.0,0.004277078004534696
3817.0,0.004408675747646695
3816.0,0.004452550524862486
3815.0,0.004452550524862486
3814.0,0.0044964297349936455
3813.0,0.004540313378935901
3812.0,0.004540313378935901
3811.0,0.0044964297349936455
3810.0,0.004452550524862486
3809.0,0.004452550524862486
3808.0,0.0044964297349936455
3807.0,0.004408675747646695
3806.0,0.004277078004534696
3805.0,0.004101676353562844
3804.0,0.00401400208620073
3803.0,0.003970171588923321
3802.0,0.00401400208620073
3801.0,0.00401400208620073
3800.0,0.00401400208620073
3799.0,0.004101676353562844
3798.0,0.004189368323957332
3797.0,0.004233220950025984
3796.0,0.004233220950025984
3795.0,0.004233220950025984
3794.0,0.004320939488377862
3793.0,0.004408675747646695
3792.0,0.0044964297349936455
3791.0,0.0044964297349936455
3790.0,0.004540313378935901
3789.0,0.004540313378935901
3788.0,0.004540313378935901
3787.0,0.004540313378935901
3786.0,0.0044964297349936455
3785.0,0.004452550524862486
3784.0,0.004452550524862486
3783.0,0.004452550524862486
3782.0,0.004452550524862486
3781.0,0.0044964297349936455
3780.0,0.0044964297349936455
3779.0,0.0044964297349936455
3778.0,0.0044964297349936455
3777.0,0.00458420145758498
3776.0,0.004628093971837721
3775.0,0.004628093971837721
3774.0,0.00458420145758498
3773.0,0.004540313378935901
3772.0,0.0044964297349936455
3771.0,0.004452550524862486
3770.0,0.004408675747646695
3769.0,0.0043648054024501
3768.0,0.0043648054024501
3767.0,0.004452550524862486
3766.0,0.0044964297349936455
3765.0,0.0044964297349936455
3764.0,0.0044964297349936455
3763.0,0.0044964297349936455
3762.0,0.0044964297349936455
3761.0,0.004452550524862486
3760.0,0.0044964297349936455
3759.0,0.004452550524862486
3758.0,0.004408675747646695
3757.0,0.0043648054024501
3756.0,0.004277078004534696
3755.0,0.004233220950025984
3754.0,0.004189368323957332
3753.0,0.004277078004534696
3752.0,0.004452550524862486
3751.0,0.004540313378935901
3750.0,0.0044964297349936455
3749.0,0.004452550524862486
3748.0,0.004452550524862486
3747.0,0.004452550524862486
3746.0,0.004408675747646695
3745.0,0.004233220950025984
3744.0,0.003970171588923321
3743.0,0.0037510854308679953
3742.0,0.0036634819042162814
3741.0,0.0035321097382827737
3740.0,0.0033570086445275926
3739.0,0.0031819781204844855
3738.0,0.0030944893043338695
3737.0,0.0030070181092942683
3736.0,0.0028758443407954637
3735.0,0.0025262411970197185
3734.0,0.0021769192542746563
3733.0,0.0019587356365717845
3732.0,0.001915112063444413
3731.0,0.001915112063444413
3730.0,0.0019587356365717845
3729.0,0.0020459959305969555
3728.0,0.0021769192542746563
3727.0,0.0023078820582733695
3726.0,0.0024388843664115978
3725.0,0.002482560585275184
3724.0,0.002569926202528716
3723.0,0.0027447101798967477
3722.0,0.003050751504618754
3721.0,0.0034445503666347133
3720.0,0.0038825238627120395
3719.0,0.004277078004534696
3718.0,0.004671990922590297
3717.0,0.004935465843858511
3716.0,0.005067263269958211
3715.0,0.005023326350308999
3714.0,0.004803708402820517
3713.0,0.0044964297349936455
3712.0,0.004233220950025984
3711.0,0.003970171588923321
3710.0,0.003794893821675638
3709.0,0.0037510854308679953
3708.0,0.003794893821675638
3707.0,0.0038387066319929275
3706.0,0.0038825238627120395
3705.0,0.003926345514724705
3704.0,0.0040578370074493275
3703.0,0.004145520125434121
3702.0,0.004233220950025984
3701.0,0.004277078004534696
3700.0,0.004320939488377862
3699.0,0.004452550524862486
3698.0,0.004628093971837721
3697.0,0.004759798137184523
3696.0,0.00484762310854614
3695.0,0.004935465843858511
3694.0,0.005023326350308999
3693.0,0.005199100705396198
3692.0,0.005506877116487674
3691.0,0.005858888873877532
3690.0,0.006167133386013823
3689.0,0.006299305179649828
3688.0,0.006343371384537999
3687.0,0.006431517210272464
3686.0,0.006651960076740071
3685.0,0.006828394969235152
3684.0,0.007049039429553483
3683.0,0.007225635744644521
3682.0,0.0074464821678643656
3681.0,0.007667440952535687
3680.0,0.007844288957383316
3679.0,0.007976972236149349
3678.0,0.008153946355103248
3677.0,0.008419542825660153
3676.0,0.0087296108049002
3675.0,0.008906891951112605
3674.0,0.008995559669244813
3673.0,0.009261671492462709
3672.0,0.009527946474380489
3671.0,0.00974996707218323
3670.0,0.009927665307847056
3669.0,0.010105436281226954
3668.0,0.010327752376126709
3667.0,0.010639186223752484
3666.0,0.010906307389674463
3665.0,0.01117359295472431
3664.0,0.011441043121384498
3663.0,0.011664044143949504
3662.0,0.011887159731648111
3661.0,0.012110390002254778
3660.0,0.012289056869694281
3659.0,0.012467797270160563
3658.0,0.012691326268817527
3657.0,0.013049212141483357
3656.0,0.013452186585275916
3655.0,0.01372104409400876
3654.0,0.013900374944870508
3653.0,0.013990068146738865
3652.0,0.014079779876432497
3651.0,0.014438812226654996
3650.0,0.014977917890464765
3649.0,0.015517693597737248
3648.0,0.015922966097169144
3647.0,0.016238439713835096
3646.0,0.016554142658660398
3645.0,0.016915227262211507
3644.0,0.017231422748988034
3643.0,0.017547848615010242
3642.0,0.017909760704207134
3641.0,0.018271974638383703
3640.0,0.01858915983411169
3639.0,0.018861217359339655
3638.0,0.0190880622231564
3637.0,0.019360432556262852
3636.0,0.019632973815224997
3635.0,0.019996628416253603
3634.0,0.020315076172974234
3633.0,0.020542681902151694
3632.0,0.020861530453190058
3631.0,0.021271822861508305
3630.0,0.02200219004126036
3629.0,0.02277955336461468
3628.0,0.023283295636617574
3627.0,0.02355831062115543
3626.0,0.023925268380126097
3625.0,0.024292536462819925
3624.0,0.024660115394541604
3623.0,0.025074013910237447
3622.0,0.02553436426275746
3621.0,0.02613355016462182
3620.0,0.02682594731702781
3619.0,0.027565723042634938
3618.0,0.02826040911222183
3617.0,0.02890978686288448
3616.0,0.029513651152349718
3615.0,0.030164906924202484
3614.0,0.030770520137356927
3613.0,0.03137697904301118
3612.0,0.03189079887180224
3611.0,0.03235843591698884
3610.0,0.03273290844021437
3609.0,0.033154576345083564
3608.0,0.03352973627071565
3607.0,0.03385826726096752
3606.0,0.03414006319292828
3605.0,0.034469056377139484
3604.0,0.03479829897408804
3603.0,0.03522197797762394
3602.0,0.03578752703018084
3601.0,0.03635381351515665
3600.0,0.03692083935817303
3599.0,0.03739392707587297
3598.0,0.03777276864991497
3597.0,0.038199360808321536
3596.0,0.03876880295533702
3595.0,0.03948165721929198
3594.0,0.040243327009005014
3593.0,0.04081545726880842
3592.0,0.04124505013091051
3591.0,0.041579471947481794
3590.0,0.04200982159316968
3589.0,0.04268010314465909
3588.0,0.0435434165901003
3587.0,0.044360346976747955
3586.0,0.044986096961949995
3585.0,0.045516282844447975
3584.0,0.04609540658654021
3583.0,0.04667530361081473
3582.0,0.04725597598510167
3581.0,0.047885915093007325
3580.0,0.048468209457651845
3579.0,0.04905128560059957
3578.0,0.04958646063061889
3577.0,0.05012229596312534
3576.0,0.05065879322950262
3575.0,0.05119595406718891
3574.0,0.05163594401163074
3573.0,0.05197846685889629
3572.0,0.05232126006306337
3571.0,0.05256627811294923
3570.0,0.05286048235717078
3569.0,0.053351266093323746
3568.0,0.05413767551038262
3567.0,0.05502409158795207
3566.0,0.055764156206519866
3565.0,0.05625823416868636
3564.0,0.05670338543334519
3563.0,0.0571489934456626
3562.0,0.05769424710410598
3561.0,0.0582898510583536
3560.0,0.05898575629443026
3559.0,0.05963295401433477
3558.0,0.0601813371786204
3557.0,0.06063052992534024
3556.0,0.06103020277710969
3555.0,0.061380218497318895
3554.0,0.061830653609679764
3553.0,0.06243196139961715
3552.0,0.06303410289212974
3551.0,0.06358680028852026
3550.0,0.06398920428479049
3549.0,0.06439198148213077
3548.0,0.06484555278383164
3547.0,0.06545105233385295
3546.0,0.06615853710127872
3545.0,0.06681652082538614
3544.0,0.06742477650170953
3543.0,0.06788152797087754
3542.0,0.06828793294324442
3541.0,0.06864384953207203
3540.0,0.0690000580438479
3539.0,0.06940751155740177
3538.0,0.06986635415888243
3537.0,0.07032568205141221
3536.0,0.07078549626260622
3535.0,0.07124579782334672
3534.0,0.07170658776779781
3533.0,0.07211658966929302
3532.0,0.07247565912497134
3531.0,0.07283502570063005
3530.0,0.0732460948102629
3529.0,0.07365755337434488
3528.0,0.07417242537525759
3527.0,0.07468790850035045
3526.0,0.07520400420208784
3525.0,0.07572071393811841
3524.0,0.07628980560343712
3523.0,0.07691148455760066
3522.0,0.07753405470158659
3521.0,0.07805354577058976
3520.0,0.07857365898473456
3519.0,0.07904229404455076
3518.0,0.07951143534170213
3517.0,0.07998108397108505
3516.0,0.08055578953476306
3515.0,0.08107890990866418
3514.0,0.08165507103772507
3513.0,0.08212704480115218
3512.0,0.08254700807033655
3511.0,0.0830725338870073
3510.0,0.08365134772453975
3509.0,0.08423093401631587
3508.0,0.08475850269380558
3507.0,0.08518101955252688
3506.0,0.08555105930144569
3505.0,0.08602728844902896
3504.0,0.08666307406737683
3503.0,0.0872997918091396
3502.0,0.08799062441302175
3501.0,0.0885227828938977
3500.0,0.08905559425002108
3499.0,0.08953568400438638
3498.0,0.0900697402471693
3497.0,0.09071147583774919
3496.0,0.09140776115243066
3495.0,0.09205147838772776
3494.0,0.09264239186882706
3493.0,0.09312646527792956
3492.0,0.0935033402006471
3491.0,0.09398837472858723
3490.0,0.09452793807529569
3489.0,0.09523037409340485
3488.0,0.09598811640261173
3487.0,0.09663866374468144
3486.0,0.09718153191774648
3485.0,0.0975619438013351
3484.0,0.09805153492691598
3483.0,0.09865067458435761
3482.0,0.09941441335003853
3481.0,0.10023419805561384
3480.0,0.10100072911021085
3479.0,0.10165883427249067
3478.0,0.10226297465457268
3477.0,0.1028679566179056
3476.0,0.10352889952072264
3475.0,0.10419084983086901
3474.0,0.10490910306560064
3473.0,0.10557316203581202
3472.0,0.1061827760325369
3471.0,0.10679324694015202
3470.0,0.10740457717110186
3469.0,0.10801676914803293
3468.0,0.10874138309586101
3467.0,0.10946720807225518
3466.0,0.11013827874181148
3465.0,0.11081038795292675
3464.0,0.11142740314240007
3463.0,0.1120452961911984
3462.0,0.11266406960083297
3461.0,0.1133401021387972
3460.0,0.11401718864502697
3459.0,0.11475189221861393
3458.0,0.11543118508166672
3457.0,0.11611154211151953
3456.0,0.116736140415026
3455.0,0.11741854644554883
3454.0,0.11815903167507247
3453.0,0.11884367892443626
3452.0,0.11952940719622163
3451.0,0.12015894401343741
3450.0,0.12067469921519258
3449.0,0.12119106764079435
3448.0,0.12188051530283239
3447.0,0.12268625668776156
3446.0,0.12349349573411894
3445.0,0.12424442074194553
3444.0,0.1248808345374317
3443.0,0.12557616941349803
3442.0,0.12627261935332057
3441.0,0.12697018793895576
3440.0,0.1276688787697493
3439.0,0.12836869546244634
3438.0,0.12918657608440243
3437.0,0.13000599987825812
3436.0,0.1308269726783169
3435.0,0.1316495003520317
3434.0,0.13241467345296387
3433.0,0.13318119707395182
3432.0,0.13394907599072514
3431.0,0.134659094375416
3430.0,0.13537027545448765
3429.0,0.1360826230421397
3428.0,0.1367961409713705
3427.0,0.1375704438939911
3426.0,0.13834612978608907
3425.0,0.1390633792999063
3424.0,0.13978181533124334
3423.0,0.1405014418122239
3422.0,0.1413425159091921
3421.0,0.14218522202899342
3420.0,0.14302956651750764
3419.0,0.14381507327283027
3418.0,0.14454141961396383
3417.0,0.14520830594601453
3416.0,0.1459369881335788
3415.0,0.14666689499766483
3414.0,0.14745901423020125
3413.0,0.14819148577176255
3412.0,0.1489251947711132
3411.0,0.14966014541652073
3410.0,0.15033494452126717
3409.0,0.15107228677292173
3408.0,0.15181088300860135
3407.0,0.15255073750082726
3406.0,0.15323004646278116
3405.0,0.15397232463562127
3404.0,0.15471587365200845
3403.0,0.15546069787099204
3402.0,0.1562068016740874
3401.0,0.15689185800039307
3400.0,0.15745316350498495
3399.0,0.15807768832054925
3398.0,0.15870311250971825
3397.0,0.15945481236316117
3396.0,0.160145015398115
3395.0,0.16077342598656452
3394.0,0.16133977401105848
3393.0,0.1619068615544017
3392.0,0.1624115617644888
3391.0,0.16298005145909156
3390.0,0.16348600110932865
3389.0,0.16399254087446846
3388.0,0.16449967213268124
3387.0,0.16507090353942422
3386.0,0.16564288728159493
3385.0,0.16621562534352097
3384.0,0.1667891197173912
3383.0,0.16723569505946845
3382.0,0.1675549588258891
3381.0,0.16787445746599094
3380.0,0.16825816635436186
3379.0,0.1686422145579325
3378.0,0.16909070045355667
3377.0,0.16953964996903292
3376.0,0.1699248335702499
3375.0,0.17031035910102887
3374.0,0.17069622716897515
3373.0,0.17108243838331405
3372.0,0.1714045436282976
3371.0,0.17172688794793012
3370.0,0.17204947169736973
3369.0,0.17230771132555445
3368.0,0.17256610459922084
3367.0,0.17276000049435458
3366.0,0.17295398299526576
3365.0,0.17314805217935603
3364.0,0.1733422081241307
3363.0,0.17347169365934856
3362.0,0.17366599437777985
3361.0,0.17386038206408516
3360.0,0.17405485679615196
3359.0,0.17418455501479646
3358.0,0.17418455501479646
3357.0,0.1742494186519723
3356.0,0.1743791749964998
3355.0,0.17457388223217696
3354.0,0.17476867680009978
3353.0,0.17496355877864622
3352.0,0.17509352869788763
3351.0,0.1752235375244544
3350.0,0.1752235375244544
3349.0,0.1751585282462993
3348.0,0.17509352869788763
3347.0,0.17496355877864622
3346.0,0.1748985884019969
3345.0,0.17496355877864622
3344.0,0.17502853887630665
3343.0,0.17509352869788763
3342.0,0.17502853887630665
3341.0,0.17496355877864622
3340.0,0.17483362774345035
3339.0,0.17470373556903995
3338.0,0.17463880404736676
3337.0,0.17463880404736676
3336.0,0.17463880404736676
3335.0,0.17463880404736676
3334.0,0.17463880404736676
3333.0,0.17457388223217696
3332.0,0.1743791749964998
3331.0,0.17418455501479646
3330.0,0.17392519729917355
3329.0,0.17373078060627378
3328.0,0.17353645090719882
3327.0,0.17340694606595197
3326.0,0.17314805217935603
3325.0,0.1730186630880064
3324.0,0.17288931253398876
3323.0,0.1726953589102651
3322.0,0.1724368887452763
3321.0,0.1721140172101443
3320.0,0.1718558926962137
3319.0,0.17159792150840691
3318.0,0.1713401034646802
3317.0,0.1711468403233598
3316.0,0.17088928984470542
3315.0,0.1706318920111798
3314.0,0.17031035910102887
3313.0,0.16998906406388214
3312.0,0.16973219906635828
3311.0,0.16941133131485575
3310.0,0.16921892439363884
3309.0,0.16896251435997467
3308.0,0.16877030613293664
3307.0,0.16845014800424418
3306.0,0.16813022571949832
3305.0,0.16781053893148679
3304.0,0.1674910872937636
3303.0,0.16710805524020933
3302.0,0.1667891197173912
3301.0,0.16640670600154372
3300.0,0.16602462872009371
3299.0,0.165706487557304
3298.0,0.16545214231905137
3297.0,0.165261481096159
3296.0,0.16513442009996204
3295.0,0.16494389827988365
3294.0,0.1646899991309374
3293.0,0.16437283379010226
3292.0,0.16405589990615188
3291.0,0.1637391971415132
3290.0,0.16342272515935097
3289.0,0.16316971351112097
3288.0,0.16291684917681404
3287.0,0.16266413198498508
3286.0,0.16234844215360744
3285.0,0.16209605540705763
3284.0,0.16184381524785207
3283.0,0.16159172150581314
3282.0,0.1614027471833437
3281.0,0.16115090926274478
3280.0,0.16096212661169407
3279.0,0.16077342598656452
3278.0,0.16064767110457878
3277.0,0.16045910703103106
3276.0,0.1603334431175667
3275.0,0.16020781555467067
3274.0,0.1600194423216572
3273.0,0.15989390554324223
3272.0,0.15976840504189105
3271.0,0.15964294079664376
3270.0,0.15945481236316117
3269.0,0.15932943866659088
3268.0,0.15920410115290617
3267.0,0.15914144595812063
3266.0,0.15901616267962204
3265.0,0.15901616267962204
3264.0,0.15901616267962204
3263.0,0.15901616267962204
3262.0,0.1590787998012282
3261.0,0.15914144595812063
3260.0,0.15914144595812063
3259.0,0.15914144595812063
3258.0,0.15914144595812063
3257.0,0.15926676538819318
3256.0,0.15939212099070987
3255.0,0.159517512786558
3254.0,0.15958022226351387
3253.0,0.159517512786558
3252.0,0.159517512786558
3251.0,0.159517512786558
3250.0,0.15964294079664376
3249.0,0.15976840504189105
3248.0,0.15989390554324223
3247.0,0.159956669396506
3246.0,0.159956669396506
3245.0,0.159956669396506
3244.0,0.159956669396506
3243.0,0.159956669396506
3242.0,0.15989390554324223
3241.0,0.15983115075924403
3240.0,0.15970566838856382
3239.0,0.15958022226351387
3238.0,0.15939212099070987
3237.0,0.15920410115290617
3236.0,0.15895353459069628
3235.0,0.15870311250971825
3234.0,0.1583902878315646
3233.0,0.15807768832054925
3232.0,0.15782777061438424
3231.0,0.15757799664235028
3230.0,0.157390760389438
3229.0,0.15714123755470633
3228.0,0.15682953548010214
3227.0,0.15639352807548912
3226.0,0.15602015552184012
3225.0,0.15558495952617557
3224.0,0.15515019919336104
3223.0,0.15471587365200845
3222.0,0.1542200328881107
3221.0,0.15372475758778692
3220.0,0.1532918545439932
3219.0,0.15285938258659382
3218.0,0.15236565568174498
3217.0,0.15187248943212528
3216.0,0.1514414278762366
3215.0,0.15101079374883275
3214.0,0.15058058620310066
3213.0,0.15002808767114995
3212.0,0.14941502364796855
3211.0,0.14874165128092476
3210.0,0.14819148577176255
3209.0,0.14764201633217278
3208.0,0.14709324120304634
3207.0,0.1465451586319333
3206.0,0.14599776687301103
3205.0,0.14539036190420496
3204.0,0.14484442282300614
3203.0,0.14423862766005224
3202.0,0.14357322752975565
3201.0,0.14296920172737604
3200.0,0.14230574221345038
3199.0,0.14176366457048695
3198.0,0.14122226269455074
3197.0,0.14062149557439896
3196.0,0.1399616101928065
3195.0,0.13930272594796111
3194.0,0.13864483980673992
3193.0,0.1380476250785483
3192.0,0.1375704438939911
3191.0,0.13709378643700187
3190.0,0.13655817138629134
3189.0,0.13596381727422502
3188.0,0.13531096586314884
3187.0,0.13454067733803532
3186.0,0.1337717526203528
3185.0,0.13300418688935212
3184.0,0.13235576609690147
3183.0,0.13170831198214428
3182.0,0.1311205537629121
3181.0,0.1304749371427727
3180.0,0.12988884463559924
3179.0,0.12930354201075
3178.0,0.12877744324029283
3177.0,0.12819363554127072
3176.0,0.12749410065407507
3175.0,0.12679569072295926
3174.0,0.12604034525664676
3173.0,0.12534426740189897
3172.0,0.12464930342071079
3171.0,0.12407101507707297
3170.0,0.12343578601615435
3169.0,0.12285911021517903
3168.0,0.12228319913502328
3167.0,0.12165057778222454
3166.0,0.12101887660626365
3165.0,0.1203880929341492
3164.0,0.11975822410451964
3163.0,0.11912926746757657
3162.0,0.1183871275216517
3161.0,0.11764625361128611
3160.0,0.1169634899723202
3159.0,0.11628179803604044
3158.0,0.11565785235294102
3157.0,0.1149782051377024
3156.0,0.11435612816423602
3155.0,0.1137349409702435
3154.0,0.11311464101399138
3153.0,0.11249522576462212
3152.0,0.11182050608167504
3151.0,0.11109074073646874
3150.0,0.11036219959333216
3149.0,0.10963487855187593
3148.0,0.10902040301031102
3147.0,0.10840679565103484
3146.0,0.10779405402422748
3145.0,0.10723776538418317
3144.0,0.10657115822045493
3143.0,0.10590557267730127
3142.0,0.1052410056281079
3141.0,0.10457745396059215
3140.0,0.10397008760377302
3139.0,0.1033635694704158
3138.0,0.10275789719463457
3137.0,0.10215306842042837
3136.0,0.10160395406999112
3135.0,0.10100072911021085
3134.0,0.10039834085387778
3133.0,0.09974214156222239
3132.0,0.09914149529800831
3131.0,0.09843270997155007
3130.0,0.09777947172068524
3129.0,0.09718153191774648
3128.0,0.09653017149282994
3127.0,0.09593394808549704
3126.0,0.09533854208447545
3125.0,0.09474395125154866
3124.0,0.09415017335768128
3123.0,0.0935572061829677
3122.0,0.09296504751658308
3121.0,0.09231997575758011
3120.0,0.09167586072382083
3119.0,0.0910326995816122
3118.0,0.09044397075882471
3117.0,0.08990945440593179
3116.0,0.08942895151874142
3115.0,0.08889568219596411
3114.0,0.08830984124613894
3113.0,0.08767164203958999
3112.0,0.0870343792958963
3111.0,0.08639805027084257
3110.0,0.08581556657675371
3109.0,0.08523386307414738
3108.0,0.08470571697731355
3107.0,0.08417821237960132
3106.0,0.08365134772453975
3105.0,0.0830725338870073
3104.0,0.08249449044745338
3103.0,0.08191721535781271
3102.0,0.08139308485501817
3101.0,0.08086958613938555
3100.0,0.08034671768963575
3099.0,0.07982447798997727
3098.0,0.07935499859321249
3097.0,0.07883394936226118
3096.0,0.07836553894629472
3095.0,0.07789763319239285
3094.0,0.07737832847680104
3093.0,0.07680780957933253
3092.0,0.07628980560343712
3091.0,0.07577241873988227
3090.0,0.07525564752005143
3089.0,0.07468790850035045
3088.0,0.07417242537525759
3087.0,0.07365755337434488
3086.0,0.07314329105030759
3085.0,0.07268097504034388
3084.0,0.07216786713341827
3083.0,0.0716553647351379
3082.0,0.07114346641808922
3081.0,0.07068327324650436
3080.0,0.07022356719509815
3079.0,0.06981534770138009
3078.0,0.06940751155740177
3077.0,0.0688982543673613
3076.0,0.068389593637038
3075.0,0.06788152797087754
3074.0,0.06737405597821788
3073.0,0.06686717627326577
3072.0,0.06641148980334699
3071.0,0.06600683616875758
3070.0,0.0655520510510299
3069.0,0.06509774167768612
3068.0,0.06464390705442691
3067.0,0.06419054619006714
3066.0,0.06378795567975115
3065.0,0.06338573802478864
3064.0,0.06303410289212974
3063.0,0.06263258248271053
3062.0,0.06218131530164395
3061.0,0.06173051653708872
3060.0,0.06123017721688262
3059.0,0.060730413661268745
3058.0,0.060231224546650086
3057.0,0.05983228596592505
3056.0,0.05948351506743288
3055.0,0.059135024033278416
3054.0,0.058737090681050264
3053.0,0.0582898510583536
3052.0,0.05784307153250956
3051.0,0.05744631966579017
3050.0,0.057049929922901255
3049.0,0.05665390164340933
3048.0,0.05630767289398331
3047.0,0.055912320584565744
3046.0,0.05551732784983132
3045.0,0.055122694036304765
3044.0,0.054679159207724926
3043.0,0.05428528594013993
3042.0,0.053842605077627725
3041.0,0.053449489430144714
3040.0,0.05310580489767336
3039.0,0.052762392129333646
3038.0,0.05237025261564554
3037.0,0.05197846685889629
3036.0,0.05153812993871654
3035.0,0.051049389754451946
3034.0,0.0506099933550872
3033.0,0.05021979163799939
3032.0,0.04987865248862655
3031.0,0.04963514562387683
3030.0,0.04939177521576932
3029.0,0.04909991063361274
3028.0,0.04875964967565971
3027.0,0.04837110616336182
3026.0,0.047934409814949674
3025.0,0.04749815213697639
3024.0,0.04711073508906982
3023.0,0.04672366333269573
3022.0,0.04638525830935958
3021.0,0.046047116768076934
3020.0,0.04570923829887308
3019.0,0.045323413081356456
3018.0,0.044937930324967956
3017.0,0.04460091336073302
3016.0,0.04426415772233416
3015.0,0.04387961360698034
3014.0,0.0435434165901003
3013.0,0.04315950984076644
3012.0,0.042775942156833
3011.0,0.042392712939904875
3010.0,0.042057664554595586
3009.0,0.04167506835594681
3008.0,0.041340572947066834
3007.0,0.041006334969674096
3006.0,0.04062466342415694
3005.0,0.0402909757535701
3004.0,0.03995754427315856
3003.0,0.03957679292217042
3002.0,0.03919637508823026
3001.0,0.038911280232103884
3000.0,0.03862637240519895
2999.0,0.038341651362284734
2998.0,0.038057116858612794
2997.0,0.03777276864991497
2996.0,0.03744126420403626
2995.0,0.0371100126082089
2994.0,0.036779013477011624
2993.0,0.03649550058570927
2992.0,0.03621217265444465
2991.0,0.03583468937826462
2990.0,0.03550466044490741
2989.0,0.03522197797762394
2988.0,0.03498654972775217
2987.0,0.03479829897408804
2986.0,0.03461012978487776
2985.0,0.034469056377139484
2984.0,0.03432802877989327
2983.0,0.03423403581731388
2982.0,0.03414006319292828
2981.0,0.034046110897937076
2980.0,0.03385826726096752
2979.0,0.03371743783253667
2978.0,0.03357665405630694
2977.0,0.03352973627071565
2976.0,0.03352973627071565
2975.0,0.03357665405630694
2974.0,0.03367050483612166
2973.0,0.0338113190438627
2972.0,0.03399914237121604
2971.0,0.034187046963396917
2970.0,0.034516075754861264
2969.0,0.03484535401307465
2968.0,0.03522197797762394
2967.0,0.035646070707806565
2966.0,0.0360705779734416
2965.0,0.036542739883292485
2964.0,0.03701541568300293
2963.0,0.03744126420403626
2962.0,0.03777276864991497
2961.0,0.03800971255993524
2960.0,0.038199360808321536
2959.0,0.038341651362284734
2958.0,0.038531444649213764
2957.0,0.038673844065289176
2956.0,0.038816290187564384
2955.0,0.03886378261277468
2954.0,0.03886378261277468
2953.0,0.038816290187564384
2952.0,0.038721320914956836
2951.0,0.038673844065289176
2950.0,0.038721320914956836
2949.0,0.038911280232103884
2948.0,0.03929144831144349
2947.0,0.039909932095080425
2946.0,0.04076775094900409
2945.0,0.04181850243505214
2944.0,0.04315950984076644
2943.0,0.04469717723830824
2942.0,0.04643358574299339
2941.0,0.04841965509660828
2940.0,0.0506099933550872
2939.0,0.05295859474477971
2938.0,0.05546797900801881
2937.0,0.05814087347462649
2936.0,0.06108018775522828
2935.0,0.06424089625468832
2934.0,0.0676277178520861
2933.0,0.07129697256940304
2932.0,0.07515236702446293
2931.0,0.07930286553008004
2930.0,0.08375666953466032
2929.0,0.0885227828938977
2928.0,0.09371884422784693
2927.0,0.09935981601739963
2926.0,0.10546241500425357
2925.0,0.11210151190312767
2924.0,0.11935787359571504
2923.0,0.12714475529518965
2922.0,0.1354889189416082
2921.0,0.14405705376768396
2920.0,0.15261244897260462
2919.0,0.1605219526258017
2918.0,0.16691666582165698
2917.0,0.17101804599207693
2916.0,0.17198493577602325
2915.0,0.16979640107429583
2914.0,0.16481693015095633
2913.0,0.15789023655938994
2912.0,0.1502121757623145
2911.0,0.14248658522331015
2910.0,0.13537027545448765
2909.0,0.12901118623942476
2908.0,0.12343578601615435
2907.0,0.11861534322942724
2906.0,0.11441264381034388
2905.0,0.11086644403327606
2904.0,0.10768273927751948
2903.0,0.10490910306560064
2902.0,0.10242788617426934
2901.0,0.10017949757290379
2900.0,0.09810596802617932
2899.0,0.096150661903319
2898.0,0.09425807260839858
2897.0,0.09242742120144909
2896.0,0.09060445403289452
2895.0,0.08884239126002336
2894.0,0.08698131625203986
2893.0,0.08507535179485148
2892.0,0.08317771540408803
2891.0,0.0812359689720008
2890.0,0.07935499859321249
2889.0,0.07743023101428781
2888.0,0.07551395626608493
2887.0,0.07355465218161061
2886.0,0.07160414774328627
2885.0,0.06971335275448043
2884.0,0.06793230779927839
2883.0,0.06620911585658007
2882.0,0.06449273417528723
2881.0,0.06278310913729457
2880.0,0.06118017497378969
2879.0,0.05963295401433477
2878.0,0.05824018618530458
2877.0,0.056950888991593285
2876.0,0.05581353871631256
2875.0,0.054728418492290265
2874.0,0.05379344615721715
2873.0,0.05295859474477971
2872.0,0.05222329153526162
2871.0,0.05163594401163074
2870.0,0.05114709380028648
2869.0,0.05075640943173498
2868.0,0.050463626623857394
2867.0,0.05036607620073763
2866.0,0.05056119896349576
2865.0,0.051098239029786274
2864.0,0.05212534510230182
2863.0,0.053596866100945384
2862.0,0.05561604235915585
2861.0,0.058190526991161784
2860.0,0.06148027482350815
2859.0,0.06550154875643233
2858.0,0.07042782092345012
2857.0,0.07628980560343712
2856.0,0.0833881548906541
2855.0,0.09183679994445204
2854.0,0.10182351650232357
2853.0,0.11311464101399138
2852.0,0.1251124891538875
2851.0,0.1363797797296844
2850.0,0.14502632627358292
2849.0,0.1491088158640761
2848.0,0.14782509557969692
2847.0,0.14170347546611461
2846.0,0.13259144347720886
2845.0,0.12228319913502328
2844.0,0.11221396516162851
2843.0,0.10303309806684524
2842.0,0.09490603167212863
2841.0,0.08783110394037297
2840.0,0.08175990977858505
2839.0,0.07660053384128362
2838.0,0.07227044022834539
2837.0,0.06859298644342648
2836.0,0.06545105233385295
2835.0,0.06268275223750575
2834.0,0.06028111764589528
2833.0,0.058190526991161784
2832.0,0.05635711724787096
2831.0,0.05477768336465916
2830.0,0.05330216275425803
2829.0,0.05197846685889629
2828.0,0.050805225762017736
2827.0,0.04973253198641148
2826.0,0.04875964967565971
2825.0,0.04778894189133087
2824.0,0.0469171560879138
2823.0,0.046047116768076934
2822.0,0.04527520902093718
2821.0,0.04455278942230456
2820.0,0.04383156952463674
2819.0,0.04315950984076644
2818.0,0.04253638427006878
2817.0,0.04196198390166317
2816.0,0.041436116778032606
2815.0,0.04091088563260792
2814.0,0.04043395336207234
2813.0,0.039909932095080425
2812.0,0.03943409718180235
2811.0,0.038958783046687984
2810.0,0.03848398855105106
2809.0,0.038057116858612794
2808.0,0.03767802727041558
2807.0,0.037346595106788616
2806.0,0.0369681249461018
2805.0,0.03658998431977123
2804.0,0.03621217265444465
2803.0,0.03583468937826462
2802.0,0.03550466044490741
2801.0,0.03517488211661135
2800.0,0.03489241415094413
2799.0,0.03456310022373987
2798.0,0.03428102975577918
2797.0,0.03399914237121604
2796.0,0.03376437590141812
2795.0,0.03352973627071565
2794.0,0.0332483359486222
2793.0,0.0329671178412978
2792.0,0.032686081712916426
2791.0,0.03235843591698884
2790.0,0.032031037121307726
2789.0,0.03175060589208267
2788.0,0.03151705144606498
2787.0,0.031236951802751545
2786.0,0.030910397045078586
2785.0,0.03063068826647264
2784.0,0.030397735151460825
2783.0,0.030211462585061133
2782.0,0.030071810571884017
2781.0,0.029932203450862893
2780.0,0.029746130405213123
2779.0,0.029560137048236124
2778.0,0.02932775731028059
2777.0,0.029141943003497595
2776.0,0.028956208163971375
2775.0,0.028770552723758724
2774.0,0.028538594975413334
2773.0,0.028353117935693284
2772.0,0.028214062120885508
2771.0,0.02812138297373412
2770.0,0.028028723600243666
2769.0,0.027936083991977778
2768.0,0.027797161620935595
2767.0,0.027658283674251827
2766.0,0.02751945012352408
2765.0,0.02738066094037661
2764.0,0.027195677663422346
2763.0,0.02696455931306696
2762.0,0.02677975314776626
2761.0,0.02664120011360227
2760.0,0.026456531467510258
2759.0,0.02636422658259252
2758.0,0.026225806029419818
2757.0,0.026087429580295085
2756.0,0.025995203102585407
2755.0,0.025856900097785074
2754.0,0.025718641122169483
2753.0,0.02558042614771394
2752.0,0.02553436426275746
2751.0,0.02553436426275746
2750.0,0.025488307262671706
2749.0,0.02539620791296726
2748.0,0.025304128090317013
2747.0,0.025258095499050004
2746.0,0.02516604495145991
2745.0,0.02512002699306959
2744.0,0.025074013910237447
2743.0,0.02498200236711723
2742.0,0.02484402159331056
2741.0,0.024706084643793647
2740.0,0.02461415101053266
2739.0,0.024522236834125355
2738.0,0.024476287039668643
2737.0,0.02438440203310499
2736.0,0.024338466818941473
2735.0,0.024200690320592466
2734.0,0.024108863598207186
2733.0,0.023971159908874107
2732.0,0.023925268380126097
2731.0,0.023879381700184332
2730.0,0.023833499868024743
2729.0,0.023787622882622816
2728.0,0.023741750742954926
2727.0,0.02365002099672653
2726.0,0.02355831062115543
2725.0,0.023466619608062178
2724.0,0.023374947949272418
2723.0,0.023329119375188556
2722.0,0.023237476732539397
2721.0,0.02314585342378117
2720.0,0.02300845469384938
2719.0,0.022871099419317753
2718.0,0.022733787572707387
2717.0,0.022642270454698687
2716.0,0.02259651912656535
2715.0,0.022505030926963654
2714.0,0.02245929405346514
2713.0,0.022413561996148967
2712.0,0.022367834754000393
2711.0,0.022322112326006227
2710.0,0.022230681908425698
2709.0,0.022139270735302752
2708.0,0.022093572362881675
2707.0,0.021956506090037076
2706.0,0.021865152601710403
2705.0,0.021773818325474092
2704.0,0.021728158389364705
2703.0,0.021728158389364705
2702.0,0.021728158389364705
2701.0,0.021728158389364705
2700.0,0.02168250325324883
2699.0,0.021636852916117055
2698.0,0.021499930688540836
2697.0,0.02140867317992523
2696.0,0.021317434843055594
2695.0,0.021317434843055594
2694.0,0.021271822861508305
2693.0,0.02122621566987748
2692.0,0.0211806132671577
2691.0,0.021089422824428272
2690.0,0.021043834782408455
2689.0,0.0209982515252789
2688.0,0.0209982515252789
2687.0,0.0209982515252789
2686.0,0.020952673052035298
2685.0,0.020907099361673565
2684.0,0.020861530453190058
2683.0,0.020861530453190058
2682.0,0.020861530453190058
2681.0,0.02081596632558158
2680.0,0.02081596632558158
2679.0,0.020770406977844713
2678.0,0.02067930261797568
2677.0,0.020633757603838898
2676.0,0.020633757603838898
2675.0,0.020633757603838898
2674.0,0.020633757603838898
2673.0,0.020633757603838898
2672.0,0.02058821736556471
2671.0,0.020497151212598652
2670.0,0.02045162529590483
2669.0,0.02045162529590483
2668.0,0.02045162529590483
2667.0,0.020497151212598652
2666.0,0.02045162529590483
2665.0,0.020406104151069693
2664.0,0.020315076172974234
2663.0,0.02026956933771462
2662.0,0.02026956933771462
2661.0,0.02022406727031445
2660.0,0.020178569969774962
2659.0,0.020087589665283012
2658.0,0.02004210665933459
2657.0,0.019996628416253603
2656.0,0.019996628416253603
2655.0,0.019996628416253603
2654.0,0.01995115493504329
2653.0,0.01995115493504329
2652.0,0.01990568621470623
2651.0,0.019860222254245663
2650.0,0.019814763052665052
2649.0,0.019814763052665052
2648.0,0.019814763052665052
2647.0,0.019769308608968306
2646.0,0.019723858922159776
2645.0,0.019632973815224997
2644.0,0.01958753839310856
2643.0,0.01954210772389997
2642.0,0.01954210772389997
2641.0,0.01949668180660491
2640.0,0.019451260640229506
2639.0,0.019360432556262852
2638.0,0.019315025636685412
2637.0,0.019269623464054586
2636.0,0.019269623464054586
2635.0,0.019269623464054586
2634.0,0.019269623464054586
2633.0,0.019269623464054586
2632.0,0.0192242260373785
2631.0,0.019178833355664393
2630.0,0.019133445417920836
2629.0,0.0190880622231564
2628.0,0.01899731005860028
2627.0,0.018951941086827073
2626.0,0.018861217359339655
2625.0,0.018815862601645694
2624.0,0.018815862601645694
2623.0,0.018770512579999288
2622.0,0.018725167293411005
2621.0,0.018679826740892747
2620.0,0.018634490921455527
2619.0,0.018634490921455527
2618.0,0.018634490921455527
2617.0,0.01858915983411169
2616.0,0.018498511851753108
2615.0,0.01840788278591865
2614.0,0.01831727262871463
2613.0,0.018226681372252695
2612.0,0.018226681372252695
2611.0,0.018226681372252695
2610.0,0.018181392829336396
2609.0,0.018181392829336396
2608.0,0.018136109008649592
2607.0,0.018136109008649592
2606.0,0.01809082990920774
2605.0,0.01809082990920774
2604.0,0.01809082990920774
2603.0,0.01809082990920774
2602.0,0.01800028587012159
2601.0,0.017864505196230507
2600.0,0.017728766960431575
2599.0,0.017638298366853045
2598.0,0.01759307113620534
2597.0,0.017547848615010242
2596.0,0.01759307113620534
2595.0,0.01759307113620534
2594.0,0.017547848615010242
2593.0,0.017547848615010242
2592.0,0.017502630802287644
2591.0,0.017502630802287644
2590.0,0.017502630802287644
2589.0,0.017457417697056554
2588.0,0.017457417697056554
2587.0,0.017412209298337533
2586.0,0.017321806616515723
2585.0,0.01727661233145472
2584.0,0.017231422748988034
2583.0,0.017231422748988034
2582.0,0.017186237868137555
2581.0,0.017186237868137555
2580.0,0.017186237868137555
2579.0,0.017141057687924732
2578.0,0.017141057687924732
2577.0,0.017095882207371904
2576.0,0.017050711425501408
2575.0,0.017005545341335804
2574.0,0.016960383953898095
2573.0,0.016870075265299933
2572.0,0.016824927962187042
2571.0,0.01677978535189717
2570.0,0.016734647433454652
2569.0,0.016734647433454652
2568.0,0.01677978535189717
2567.0,0.01677978535189717
2566.0,0.01677978535189717
2565.0,0.01677978535189717
2564.0,0.016734647433454652
2563.0,0.016734647433454652
2562.0,0.016689514205884493
2561.0,0.016644385668211692
2560.0,0.016599261819461697
2559.0,0.016554142658660398
2558.0,0.016599261819461697
2557.0,0.016644385668211692
2556.0,0.016644385668211692
2555.0,0.016599261819461697
2554.0,0.016509028184833463
2553.0,0.01646391839700767
2552.0,0.01646391839700767
2551.0,0.016509028184833463
2550.0,0.016509028184833463
2549.0,0.016509028184833463
2548.0,0.016554142658660398
2547.0,0.016554142658660398
2546.0,0.016554142658660398
2545.0,0.016509028184833463
2544.0,0.01646391839700767
2543.0,0.016418813294209356
2542.0,0.016373712875465518
2541.0,0.016418813294209356
2540.0,0.016418813294209356
2539.0,0.016418813294209356
2538.0,0.016418813294209356
2537.0,0.016418813294209356
2536.0,0.016373712875465518
2535.0,0.016373712875465518
2534.0,0.01632861713980338
2533.0,0.01628352608625061
2532.0,0.01628352608625061
2531.0,0.01628352608625061
2530.0,0.01632861713980338
2529.0,0.01628352608625061
2528.0,0.01628352608625061
2527.0,0.01628352608625061
2526.0,0.016238439713835096
2525.0,0.016238439713835096
2524.0,0.016193358021584725
2523.0,0.016193358021584725
2522.0,0.016148281008528276
2521.0,0.016148281008528276
2520.0,0.016148281008528276
2519.0,0.016148281008528276
2518.0,0.016193358021584725
2517.0,0.016193358021584725
2516.0,0.016238439713835096
2515.0,0.016238439713835096
2514.0,0.01628352608625061
2513.0,0.01628352608625061
2512.0,0.01628352608625061
2511.0,0.01628352608625061
2510.0,0.01628352608625061
2509.0,0.01632861713980338
2508.0,0.01632861713980338
2507.0,0.01628352608625061
2506.0,0.016238439713835096
2505.0,0.016193358021584725
2504.0,0.016193358021584725
2503.0,0.016193358021584725
2502.0,0.016238439713835096
2501.0,0.016238439713835096
2500.0,0.01628352608625061
2499.0,0.01628352608625061
2498.0,0.01628352608625061
2497.0,0.01632861713980338
2496.0,0.016373712875465518
2495.0,0.016373712875465518
2494.0,0.016418813294209356
2493.0,0.01646391839700767
2492.0,0.01646391839700767
2491.0,0.016509028184833463
2490.0,0.016554142658660398
2489.0,0.016554142658660398
2488.0,0.016509028184833463
2487.0,0.01646391839700767
2486.0,0.016418813294209356
2485.0,0.016373712875465518
2484.0,0.01632861713980338
2483.0,0.01632861713980338
2482.0,0.016373712875465518
2481.0,0.016373712875465518
2480.0,0.016418813294209356
2479.0,0.016418813294209356
2478.0,0.01646391839700767
2477.0,0.016509028184833463
2476.0,0.016554142658660398
2475.0,0.016599261819461697
2474.0,0.016599261819461697
2473.0,0.016599261819461697
2472.0,0.016599261819461697
2471.0,0.016599261819461697
2470.0,0.016554142658660398
2469.0,0.016599261819461697
2468.0,0.016644385668211692
2467.0,0.016689514205884493
2466.0,0.016734647433454652
2465.0,0.01677978535189717
2464.0,0.01677978535189717
2463.0,0.016734647433454652
2462.0,0.016734647433454652
2461.0,0.016734647433454652
2460.0,0.01677978535189717
2459.0,0.01677978535189717
2458.0,0.01677978535189717
2457.0,0.016734647433454652
2456.0,0.01677978535189717
2455.0,0.016824927962187042
2454.0,0.016915227262211507
2453.0,0.016915227262211507
2452.0,0.016960383953898095
2451.0,0.017005545341335804
2450.0,0.017005545341335804
2449.0,0.016960383953898095
2448.0,0.016960383953898095
2447.0,0.016960383953898095
2446.0,0.016960383953898095
2445.0,0.017005545341335804
2444.0,0.017095882207371904
2443.0,0.017095882207371904
2442.0,0.017141057687924732
2441.0,0.017141057687924732
2440.0,0.017186237868137555
2439.0,0.017231422748988034
2438.0,0.017231422748988034
2437.0,0.017231422748988034
2436.0,0.01727661233145472
2435.0,0.017321806616515723
2434.0,0.017367005605150476
2433.0,0.017367005605150476
2432.0,0.017412209298337533
2431.0,0.017412209298337533
2430.0,0.017457417697056554
2429.0,0.017457417697056554
2428.0,0.017457417697056554
2427.0,0.017457417697056554
2426.0,0.017457417697056554
2425.0,0.017502630802287644
2424.0,0.017502630802287644
2423.0,0.017547848615010242
2422.0,0.017547848615010242
2421.0,0.01759307113620534
2420.0,0.017638298366853045
2419.0,0.01768353030793479
2418.0,0.017728766960431575
2417.0,0.017774008325325275
2416.0,0.017774008325325275
2415.0,0.01781925440359733
2414.0,0.017909760704207134
2413.0,0.017955020928509757
2412.0,0.01800028587012159
2411.0,0.01800028587012159
2410.0,0.01800028587012159
2409.0,0.01800028587012159
2408.0,0.01800028587012159
2407.0,0.01800028587012159
2406.0,0.01800028587012159
2405.0,0.01809082990920774
2404.0,0.018181392829336396
2403.0,0.018226681372252695
2402.0,0.018271974638383703
2401.0,0.018271974638383703
2400.0,0.018226681372252695
2399.0,0.018226681372252695
2398.0,0.018271974638383703
2397.0,0.018362575344230914
2396.0,0.01840788278591865
2395.0,0.01840788278591865
2394.0,0.01840788278591865
2393.0,0.018362575344230914
2392.0,0.01840788278591865
2391.0,0.018271974638383703
2390.0,0.01809082990920774
2389.0,0.017864505196230507
2388.0,0.017502630802287644
2387.0,0.016915227262211507
2386.0,0.016058141016111804
2385.0,0.014932966849499074
2384.0,0.013631406429727155
2383.0,0.012199714248127602
2382.0,0.010728208358306901
2381.0,0.009350411681145587
2380.0,0.008330992620051436
2379.0,0.00762324020119709
2378.0,0.007358130121602358
2377.0,0.007534852191956709
2376.0,0.008021209005416363
2375.0,0.00850811108984062
2374.0,0.008773924307505121
2373.0,0.008685301823389224
2372.0,0.008375265465994541
2371.0,0.007800070204414977
2370.0,0.007137328610972382
2369.0,0.006916639301937977
2368.0,0.007269796045857202
2367.0,0.00762324020119709
2366.0,0.007402303897961815
2365.0,0.006607862550997545
2364.0,0.005946936412324799
2363.0,0.005594853310833647
2362.0,0.005199100705396198
2361.0,0.004671990922590297
2360.0,0.0043648054024501
2359.0,0.004277078004534696
2358.0,0.00401400208620073
2357.0,0.0034007772998332353
2356.0,0.0029632891174733444
2355.0,0.0029632891174733444
2354.0,0.0031819781204844855
2353.0,0.0030070181092942683
2352.0,0.0026573093983774942
2351.0,0.002351545103793873
2350.0,0.002395212539545666
2349.0,0.002613615602686581
2348.0,0.002613615602686581
2347.0,0.0023078820582733695
2346.0,0.0021769192542746563
2345.0,0.0027447101798967477
2344.0,0.0032694845648473247
2343.0,0.0027884171674950053
2342.0,0.0016970599014589638
2341.0,0.0007824344698965646
2340.0,0.00026065489343207737
2339.0,8.686758342868472e-05
2338.0,0.00026065489343207737
2337.0,0.0006084382809090627
2336.0,0.0006084382809090627
2335.0,0.00026065489343207737
2334.0,-8.685021164911433e-05
2333.0,-4.3427276862573194e-05
2332.0,0.00026065489343207737
2331.0,0.0006084382809090627
2330.0,0.0009565003968372565
2329.0,0.0014791171649619628
2328.0,0.0021332737608552588
2327.0,0.0028758443407954637
2326.0,0.003619686766589858
2325.0,0.0044964297349936455
2324.0,0.005462895701502157
2323.0,0.006343371384537999
2322.0,0.007181479933320523
2321.0,0.008065450281052211
2320.0,0.008862564879688284
2319.0,0.009927665307847056
2318.0,0.010194349063173958
2317.0,0.011129033935354915
2316.0,0.00939478857608056
2315.0,0.01264661126420652
2314.0,0.017728766960431575
2313.0,0.016418813294209356
2312.0,0.01727661233145472
2311.0,0.017231422748988034
2310.0,0.017502630802287644
2309.0,0.018136109008649592
2308.0,0.017728766960431575
2307.0,0.01940584422377989
2306.0,0.01547268665620738
2305.0,0.010550182333308289
2304.0,0.012512493866907004
2303.0,0.012199714248127602
2302.0,0.013049212141483357
2301.0,0.013317820220494436
2300.0,0.013945219230304673
2299.0,0.014349026309051105
2298.0,0.014798141635428141
2297.0,0.015202742910707112
2296.0,0.015652742414136167
2295.0,0.016103208673694303
2294.0,0.016599261819461697
2293.0,0.017050711425501408
2292.0,0.017457417697056554
2291.0,0.017864505196230507
2290.0,0.018181392829336396
2289.0,0.018543833477873584
2288.0,0.018906576854070378
2287.0,0.019269623464054586
2286.0,0.01958753839310856
2285.0,0.01990568621470623
2284.0,0.020087589665283012
2283.0,0.02013307743509718
2282.0,0.020087589665283012
2281.0,0.02004210665933459
2280.0,0.01990568621470623
2279.0,0.019814763052665052
2278.0,0.019723858922159776
2277.0,0.019678413991243593
2276.0,0.019632973815224997
2275.0,0.01958753839310856
2274.0,0.01958753839310856
2273.0,0.019632973815224997
2272.0,0.019632973815224997
2271.0,0.019632973815224997
2270.0,0.019632973815224997
2269.0,0.019678413991243593
2268.0,0.019723858922159776
2267.0,0.019769308608968306
2266.0,0.019769308608968306
2265.0,0.019814763052665052
2264.0,0.01990568621470623
2263.0,0.019996628416253603
2262.0,0.020087589665283012
2261.0,0.020178569969774962
2260.0,0.02022406727031445
2259.0,0.02026956933771462
2258.0,0.02026956933771462
2257.0,0.020315076172974234
2256.0,0.020315076172974234
2255.0,0.020315076172974234
2254.0,0.020315076172974234
2253.0,0.020315076172974234
2252.0,0.02036058777709271
2251.0,0.020406104151069693
2250.0,0.02045162529590483
2249.0,0.020497151212598652
2248.0,0.020497151212598652
2247.0,0.020497151212598652
2246.0,0.020497151212598652
2245.0,0.020497151212598652
2244.0,0.020497151212598652
2243.0,0.020542681902151694
2242.0,0.020542681902151694
2241.0,0.020497151212598652
2240.0,0.020497151212598652
2239.0,0.020497151212598652
2238.0,0.020497151212598652
2237.0,0.020497151212598652
2236.0,0.020497151212598652
2235.0,0.02045162529590483
2234.0,0.02045162529590483
2233.0,0.020406104151069693
2232.0,0.02036058777709271
2231.0,0.02036058777709271
2230.0,0.020315076172974234
2229.0,0.020315076172974234
2228.0,0.02026956933771462
2227.0,0.02022406727031445
2226.0,0.020178569969774962
2225.0,0.020178569969774962
2224.0,0.02013307743509718
2223.0,0.02013307743509718
2222.0,0.02013307743509718
2221.0,0.02013307743509718
2220.0,0.020087589665283012
2219.0,0.02004210665933459
2218.0,0.01995115493504329
2217.0,0.01990568621470623
2216.0,0.019814763052665052
2215.0,0.019769308608968306
2214.0,0.019723858922159776
2213.0,0.019723858922159776
2212.0,0.019678413991243593
2211.0,0.019632973815224997
2210.0,0.01958753839310856
2209.0,0.01958753839310856
2208.0,0.019632973815224997
2207.0,0.01958753839310856
2206.0,0.01954210772389997
2205.0,0.01949668180660491
2204.0,0.01949668180660491
2203.0,0.019451260640229506
2202.0,0.019360432556262852
2201.0,0.019315025636685412
2200.0,0.019315025636685412
2199.0,0.019269623464054586
2198.0,0.0192242260373785
2197.0,0.0192242260373785
2196.0,0.0192242260373785
2195.0,0.0192242260373785
2194.0,0.0192242260373785
2193.0,0.019178833355664393
2192.0,0.019178833355664393
2191.0,0.019178833355664393
2190.0,0.019178833355664393
2189.0,0.019178833355664393
2188.0,0.019178833355664393
2187.0,0.019133445417920836
2186.0,0.0190880622231564
2185.0,0.019042683770379876
2184.0,0.018951941086827073
2183.0,0.018906576854070378
2182.0,0.018861217359339655
2181.0,0.018861217359339655
2180.0,0.018906576854070378
2179.0,0.018906576854070378
2178.0,0.018906576854070378
2177.0,0.018815862601645694
2176.0,0.018770512579999288
2175.0,0.018634490921455527
2174.0,0.01858915983411169
2173.0,0.018543833477873584
2172.0,0.018543833477873584
2171.0,0.018498511851753108
2170.0,0.01845319495476394
2169.0,0.01840788278591865
2168.0,0.018362575344230914
2167.0,0.01831727262871463
2166.0,0.018271974638383703
2165.0,0.01831727262871463
2164.0,0.01831727262871463
2163.0,0.01831727262871463
2162.0,0.018271974638383703
2161.0,0.018226681372252695
2160.0,0.018226681372252695
2159.0,0.018181392829336396
2158.0,0.018181392829336396
2157.0,0.018226681372252695
2156.0,0.018226681372252695
2155.0,0.018181392829336396
2154.0,0.01809082990920774
2153.0,0.018045555530026514
2152.0,0.018045555530026514
2151.0,0.018045555530026514
2150.0,0.018045555530026514
2149.0,0.018045555530026514
2148.0,0.018045555530026514
2147.0,0.018045555530026514
2146.0,0.01800028587012159
2145.0,0.01800028587012159
2144.0,0.017955020928509757
2143.0,0.017955020928509757
2142.0,0.017909760704207134
2141.0,0.017909760704207134
2140.0,0.017864505196230507
2139.0,0.01781925440359733
2138.0,0.01781925440359733
2137.0,0.01781925440359733
2136.0,0.01781925440359733
2135.0,0.01781925440359733
2134.0,0.01781925440359733
2133.0,0.017774008325325275
2132.0,0.017774008325325275
2131.0,0.017774008325325275
2130.0,0.017774008325325275
2129.0,0.017774008325325275
2128.0,0.017774008325325275
2127.0,0.017774008325325275
2126.0,0.017774008325325275
2125.0,0.017728766960431575
2124.0,0.017774008325325275
2123.0,0.01781925440359733
2122.0,0.017864505196230507
2121.0,0.017864505196230507
2120.0,0.017864505196230507
2119.0,0.01781925440359733
2118.0,0.017774008325325275
2117.0,0.017774008325325275
2116.0,0.017774008325325275
2115.0,0.017774008325325275
2114.0,0.017728766960431575
2113.0,0.017728766960431575
2112.0,0.01768353030793479
2111.0,0.01768353030793479
2110.0,0.01768353030793479
2109.0,0.01768353030793479
2108.0,0.017638298366853045
2107.0,0.017638298366853045
2106.0,0.017638298366853045
2105.0,0.01759307113620534
2104.0,0.01759307113620534
2103.0,0.017547848615010242
2102.0,0.017502630802287644
2101.0,0.017502630802287644
2100.0,0.017547848615010242
2099.0,0.017547848615010242
2098.0,0.017547848615010242
2097.0,0.017502630802287644
2096.0,0.017457417697056554
2095.0,0.017412209298337533
2094.0,0.017412209298337533
2093.0,0.017412209298337533
2092.0,0.017457417697056554
2091.0,0.017457417697056554
2090.0,0.017457417697056554
2089.0,0.017457417697056554
2088.0,0.017457417697056554
2087.0,0.017412209298337533
2086.0,0.017412209298337533
2085.0,0.017367005605150476
2084.0,0.017412209298337533
2083.0,0.017412209298337533
2082.0,0.017457417697056554
2081.0,0.017457417697056554
2080.0,0.017457417697056554
2079.0,0.017412209298337533
2078.0,0.017412209298337533
2077.0,0.017367005605150476
2076.0,0.017321806616515723
2075.0,0.01727661233145472
2074.0,0.017186237868137555
2073.0,0.017186237868137555
2072.0,0.017231422748988034
2071.0,0.017231422748988034
2070.0,0.017231422748988034
2069.0,0.017186237868137555
2068.0,0.017186237868137555
2067.0,0.017141057687924732
2066.0,0.017095882207371904
2065.0,0.017141057687924732
2064.0,0.017141057687924732
2063.0,0.017141057687924732
2062.0,0.017141057687924732
2061.0,0.017095882207371904
2060.0,0.017050711425501408
2059.0,0.017005545341335804
2058.0,0.016960383953898095
2057.0,0.016915227262211507
2056.0,0.016870075265299933
2055.0,0.016824927962187042
2054.0,0.016734647433454652
2053.0,0.016734647433454652
2052.0,0.016734647433454652
2051.0,0.016734647433454652
2050.0,0.01677978535189717
2049.0,0.01677978535189717
2048.0,0.01677978535189717
2047.0,0.016734647433454652
2046.0,0.016689514205884493
2045.0,0.016644385668211692
2044.0,0.016599261819461697
2043.0,0.016554142658660398
2042.0,0.016509028184833463
2041.0,0.01646391839700767
2040.0,0.016418813294209356
2039.0,0.01632861713980338
2038.0,0.01628352608625061
2037.0,0.01628352608625061
2036.0,0.01628352608625061
2035.0,0.01628352608625061
2034.0,0.01628352608625061
2033.0,0.01628352608625061
2032.0,0.016238439713835096
2031.0,0.016193358021584725
2030.0,0.016103208673694303
2029.0,0.016058141016111804
2028.0,0.016013078034810446
2027.0,0.01596801972881945
2026.0,0.015922966097169144
2025.0,0.015922966097169144
2024.0,0.015922966097169144
2023.0,0.015922966097169144
2022.0,0.015922966097169144
2021.0,0.015922966097169144
2020.0,0.015922966097169144
2019.0,0.015877917138889863
2018.0,0.015832872853011715
2017.0,0.01578783323856614
2016.0,0.015742798294583915
2015.0,0.015697768020096703
2014.0,0.015607721475734415
2013.0,0.015562705203923999
2012.0,0.015517693597737248
2011.0,0.015427684378367834
2010.0,0.01538268676325183
2009.0,0.015292705517326866
2008.0,0.015292705517326866
2007.0,0.015247721884586563
2006.0,0.015202742910707112
2005.0,0.015157768594724175
2004.0,0.015112798935672522
2003.0,0.015067833932588037
2002.0,0.015022873584506602
2001.0,0.015022873584506602
2000.0,0.014977917890464765
1999.0,0.014977917890464765
1998.0,0.014932966849499074
1997.0,0.014888020460646079
1996.0,0.014888020460646079
1995.0,0.014843078722943437
1994.0,0.014798141635428141
1993.0,0.014798141635428141
1992.0,0.014798141635428141
1991.0,0.014753209197138295
1990.0,0.014708281407112
1989.0,0.014708281407112
1988.0,0.014708281407112
1987.0,0.014663358264387139
1986.0,0.014618439768003144
1985.0,0.014573525916998342
1984.0,0.01452861671041239
1983.0,0.01452861671041239
1982.0,0.01452861671041239
1981.0,0.01452861671041239
1980.0,0.01452861671041239
1979.0,0.01452861671041239
1978.0,0.0144837121472845
1977.0,0.014438812226654996
1976.0,0.014438812226654996
1975.0,0.014393916947563534
1974.0,0.014393916947563534
1973.0,0.014349026309051105
1972.0,0.014349026309051105
1971.0,0.014304140310157809
1970.0,0.014214382227394795
1969.0,0.014214382227394795
1968.0,0.014169510141607944
1967.0,0.014124642691606404
1966.0,0.014079779876432497
1965.0,0.01403492169512921
1964.0,0.014079779876432497
1963.0,0.014079779876432497
1962.0,0.014079779876432497
1961.0,0.014079779876432497
1960.0,0.014079779876432497
1959.0,0.01403492169512921
1958.0,0.01403492169512921
1957.0,0.01403492169512921
1956.0,0.014079779876432497
1955.0,0.014079779876432497
1954.0,0.01403492169512921
1953.0,0.013945219230304673
1952.0,0.013945219230304673
1951.0,0.013900374944870508
1950.0,0.013900374944870508
1949.0,0.01385553528947936
1948.0,0.013900374944870508
1947.0,0.01385553528947936
1946.0,0.01385553528947936
1945.0,0.01381070026317599
1944.0,0.01381070026317599
1943.0,0.013765869865004277
1942.0,0.01372104409400876
1941.0,0.013676222949234651
1940.0,0.013676222949234651
1939.0,0.01372104409400876
1938.0,0.01372104409400876
1937.0,0.013765869865004277
1936.0,0.01381070026317599
1935.0,0.01385553528947936
1934.0,0.01381070026317599
1933.0,0.01381070026317599
1932.0,0.01381070026317599
1931.0,0.013765869865004277
1930.0,0.013765869865004277
1929.0,0.01372104409400876
1928.0,0.01372104409400876
1927.0,0.013631406429727155
1926.0,0.013541787262693505
1925.0,0.013496984613259544
1924.0,0.013496984613259544
1923.0,0.013541787262693505
1922.0,0.013541787262693505
1921.0,0.013586594534531482
1920.0,0.013631406429727155
1919.0,0.013676222949234651
1918.0,0.01372104409400876
1917.0,0.013676222949234651
1916.0,0.013631406429727155
1915.0,0.013586594534531482
1914.0,0.013586594534531482
1913.0,0.013586594534531482
1912.0,0.013586594534531482
1911.0,0.013541787262693505
1910.0,0.013496984613259544
1909.0,0.013496984613259544
1908.0,0.013496984613259544
1907.0,0.013541787262693505
1906.0,0.013631406429727155
1905.0,0.013676222949234651
1904.0,0.01372104409400876
1903.0,0.01372104409400876
1902.0,0.013676222949234651
1901.0,0.013631406429727155
1900.0,0.013631406429727155
1899.0,0.013586594534531482
1898.0,0.013586594534531482
1897.0,0.013631406429727155
1896.0,0.013676222949234651
1895.0,0.01372104409400876
1894.0,0.01372104409400876
1893.0,0.013765869865004277
1892.0,0.013765869865004277
1891.0,0.013765869865004277
1890.0,0.013765869865004277
1889.0,0.013765869865004277
1888.0,0.01372104409400876
1887.0,0.013676222949234651
1886.0,0.013586594534531482
1885.0,0.013586594534531482
1884.0,0.013586594534531482
1883.0,0.013631406429727155
1882.0,0.013631406429727155
1881.0,0.013631406429727155
1880.0,0.013631406429727155
1879.0,0.013631406429727155
1878.0,0.013676222949234651
1877.0,0.013765869865004277
1876.0,0.01381070026317599
1875.0,0.01385553528947936
1874.0,0.013765869865004277
1873.0,0.01372104409400876
1872.0,0.013676222949234651
1871.0,0.013631406429727155
1870.0,0.013631406429727155
1869.0,0.013631406429727155
1868.0,0.013586594534531482
1867.0,0.013496984613259544
1866.0,0.013452186585275916
1865.0,0.013541787262693505
1864.0,0.013631406429727155
1863.0,0.01372104409400876
1862.0,0.01381070026317599
1861.0,0.01385553528947936
1860.0,0.013900374944870508
1859.0,0.013945219230304673
1858.0,0.013945219230304673
1857.0,0.013945219230304673
1856.0,0.013900374944870508
1855.0,0.013900374944870508
1854.0,0.01381070026317599
1853.0,0.013765869865004277
1852.0,0.013765869865004277
1851.0,0.013765869865004277
1850.0,0.01372104409400876
1849.0,0.01372104409400876
1848.0,0.01372104409400876
1847.0,0.013676222949234651
1846.0,0.013631406429727155
1845.0,0.01372104409400876
1844.0,0.01381070026317599
1843.0,0.01381070026317599
1842.0,0.013765869865004277
1841.0,0.01372104409400876
1840.0,0.01372104409400876
1839.0,0.01372104409400876
1838.0,0.013676222949234651
1837.0,0.013631406429727155
1836.0,0.013631406429727155
1835.0,0.013586594534531482
1834.0,0.013541787262693505
1833.0,0.013541787262693505
1832.0,0.013586594534531482
1831.0,0.013631406429727155
1830.0,0.013586594534531482
1829.0,0.013496984613259544
1828.0,0.013452186585275916
1827.0,0.013496984613259544
1826.0,0.013541787262693505
1825.0,0.013631406429727155
1824.0,0.01372104409400876
1823.0,0.01372104409400876
1822.0,0.013676222949234651
1821.0,0.013676222949234651
1820.0,0.01372104409400876
1819.0,0.01372104409400876
1818.0,0.013765869865004277
1817.0,0.01381070026317599
1816.0,0.01385553528947936
1815.0,0.01381070026317599
1814.0,0.01372104409400876
1813.0,0.013676222949234651
1812.0,0.013676222949234651
1811.0,0.013676222949234651
1810.0,0.013631406429727155
1809.0,0.013631406429727155
1808.0,0.013676222949234651
1807.0,0.01372104409400876
1806.0,0.01372104409400876
1805.0,0.01372104409400876
1804.0,0.013765869865004277
1803.0,0.01381070026317599
1802.0,0.01381070026317599
1801.0,0.01385553528947936
1800.0,0.01385553528947936
1799.0,0.01385553528947936
1798.0,0.01381070026317599
1797.0,0.01381070026317599
1796.0,0.01385553528947936
1795.0,0.01385553528947936
1794.0,0.01385553528947936
1793.0,0.013945219230304673
1792.0,0.014079779876432497
1791.0,0.014169510141607944
1790.0,0.014214382227394795
1789.0,0.014304140310157809
1788.0,0.014393916947563534
1787.0,0.01452861671041239
1786.0,0.014618439768003144
1785.0,0.014663358264387139
1784.0,0.014708281407112
1783.0,0.014573525916998342
1782.0,0.0144837121472845
1781.0,0.014393916947563534
1780.0,0.014438812226654996
1779.0,0.0144837121472845
1778.0,0.0144837121472845
1777.0,0.01452861671041239
1776.0,0.014573525916998342
1775.0,0.014573525916998342
1774.0,0.014573525916998342
1773.0,0.014663358264387139
1772.0,0.014753209197138295
1771.0,0.014753209197138295
1770.0,0.014843078722943437
1769.0,0.015067833932588037
1768.0,0.01538268676325183
1767.0,0.015562705203923999
1766.0,0.015562705203923999
1765.0,0.015562705203923999
1764.0,0.015652742414136167
1763.0,0.01578783323856614
1762.0,0.015877917138889863
1761.0,0.01596801972881945
1760.0,0.016013078034810446
1759.0,0.016058141016111804
1758.0,0.016103208673694303
1757.0,0.01628352608625061
1756.0,0.01646391839700767
1755.0,0.016554142658660398
1754.0,0.016599261819461697
1753.0,0.016734647433454652
1752.0,0.016960383953898095
1751.0,0.017186237868137555
1750.0,0.017231422748988034
1749.0,0.017186237868137555
1748.0,0.01727661233145472
1747.0,0.017412209298337533
1746.0,0.017547848615010242
1745.0,0.017774008325325275
1744.0,0.018045555530026514
1743.0,0.01831727262871463
1742.0,0.018498511851753108
1741.0,0.018679826740892747
1740.0,0.01899731005860028
1739.0,0.019178833355664393
1738.0,0.0192242260373785
1737.0,0.019269623464054586
1736.0,0.01954210772389997
1735.0,0.019996628416253603
1734.0,0.02036058777709271
1733.0,0.020406104151069693
1732.0,0.020406104151069693
1731.0,0.020633757603838898
1730.0,0.020952673052035298
1729.0,0.0214542995372613
1728.0,0.021865152601710403
1727.0,0.022230681908425698
1726.0,0.022505030926963654
1725.0,0.02282532397981263
1724.0,0.023283295636617574
1723.0,0.02365002099672653
1722.0,0.023833499868024743
1721.0,0.023971159908874107
1720.0,0.024246610963712723
1719.0,0.02461415101053266
1718.0,0.025028005701930978
1717.0,0.025488307262671706
1716.0,0.025949097207122573
1715.0,0.026410376572743033
1714.0,0.02691835039863255
1713.0,0.027426919073445077
1712.0,0.027936083991977778
1711.0,0.028306761050139073
1710.0,0.02858497661500481
1709.0,0.028956208163971375
1708.0,0.029374223311705583
1707.0,0.029839156962686353
1706.0,0.030397735151460825
1705.0,0.030910397045078586
1704.0,0.03133029827960798
1703.0,0.031657169041054534
1702.0,0.03217132066984485
1701.0,0.03334211579824231
1700.0,0.03470420418834386
1699.0,0.03512779136222477
1698.0,0.03512779136222477
1697.0,0.035740369803151095
1696.0,0.0371573187987575
1695.0,0.03848398855105106
1694.0,0.03924390909822728
1693.0,0.03981472339538916
1692.0,0.04057697805689475
1691.0,0.041483896576958834
1690.0,0.04253638427006878
1689.0,0.0435434165901003
1688.0,0.04440844959427559
1687.0,0.044937930324967956
1686.0,0.045564513671517703
1685.0,0.04740126547022694
1684.0,0.05012229596312534
1683.0,0.0518316382728683
1682.0,0.05281143447390635
1681.0,0.05394093961487645
1680.0,0.05531996611868961
1679.0,0.05650548409389744
1678.0,0.05744631966579017
1677.0,0.058538260652670315
1676.0,0.060430831344098435
1675.0,0.06253226035662252
1674.0,0.06383825908884244
1673.0,0.06449273417528723
1672.0,0.06529959828457499
1671.0,0.06671522765130522
1670.0,0.06879647454924775
1669.0,0.0709900145060387
1668.0,0.07273231918911849
1667.0,0.07386342893255127
1666.0,0.07468790850035045
1665.0,0.07566901529132153
1664.0,0.07727454200674
1663.0,0.0794071379151915
1662.0,0.08134070657817682
1661.0,0.08270459905431071
1660.0,0.0839147001562972
1659.0,0.08496970974083906
1658.0,0.08581556657675371
1657.0,0.08634506491338012
1656.0,0.08682216600953208
1655.0,0.08756536662442538
1654.0,0.09076499663169257
1653.0,0.09566320779750503
1652.0,0.09810596802617932
1651.0,0.09843270997155007
1650.0,0.09837823590664274
1649.0,0.09870518283443275
1648.0,0.1005078038618683
1647.0,0.10358402352687701
1646.0,0.10612732120491852
1645.0,0.10740457717110186
1644.0,0.10823959854332843
1643.0,0.10902040301031102
1642.0,0.10969078310005154
1641.0,0.11030620855581463
1640.0,0.11075433910702048
1639.0,0.11097857790477517
1638.0,0.11086644403327606
1637.0,0.11092250734993603
1636.0,0.11153968196461372
1635.0,0.11176432672943282
1634.0,0.11103465569966264
1633.0,0.10974669484546551
1632.0,0.10823959854332843
1631.0,0.10651565378151395
1630.0,0.10457745396059215
1629.0,0.10237290870955862
1628.0,0.10007011727213588
1627.0,0.0978882765519955
1626.0,0.0957714836599215
1625.0,0.09344948089854999
1624.0,0.09087205801073917
1623.0,0.08820340956274775
1622.0,0.08576265223225898
1621.0,0.08375666953466032
1620.0,0.08191721535781271
1619.0,0.08008551934056851
1618.0,0.07800156869172903
1617.0,0.07566901529132153
1616.0,0.07355465218161061
1615.0,0.07196279359311708
1614.0,0.07063217075990047
1613.0,0.06930561233546473
1612.0,0.06788152797087754
1611.0,0.06646209802829528
1610.0,0.06499684854634524
1609.0,0.06363708040225546
1608.0,0.062281556382736136
1607.0,0.06108018775522828
1606.0,0.05993198626064755
1605.0,0.058786812414678646
1604.0,0.05764465029232335
1603.0,0.05660442349104544
1602.0,0.05561604235915585
1601.0,0.05462990550969615
1600.0,0.05374429280060267
1599.0,0.05286048235717078
1598.0,0.052027420754219955
1597.0,0.05114709380028648
1596.0,0.050317309204795935
1595.0,0.04953778109440221
1594.0,0.048808242065293994
1593.0,0.048128442871635535
1592.0,0.04749815213697639
1591.0,0.04686877481655505
1590.0,0.04628861957244457
1589.0,0.04575749056067524
1588.0,0.0451788169482068
1587.0,0.04464904263234004
1586.0,0.044167989767578186
1585.0,0.04368746915880539
1584.0,0.04315950984076644
1583.0,0.04268010314465909
1582.0,0.042201225070002124
1581.0,0.04167506835594681
1580.0,0.041149548320321694
1579.0,0.04057697805689475
1578.0,0.0400527842915015
1577.0,0.03952922246570112
1576.0,0.03905380426616856
1575.0,0.03862637240519895
1574.0,0.038341651362284734
1573.0,0.038057116858612794
1572.0,0.03772539537668518
1571.0,0.03739392707587297
1570.0,0.037062711569998186
1569.0,0.036731748473764814
1568.0,0.036401037402758574
1567.0,0.0360705779734416
1566.0,0.03578752703018084
1565.0,0.03550466044490741
1564.0,0.03522197797762394
1563.0,0.03484535401307465
1562.0,0.034469056377139484
1561.0,0.03409308450480819
1560.0,0.033952178923546183
1559.0,0.03376437590141812
1558.0,0.033201453616638954
1557.0,0.03282657704446046
1556.0,0.03273290844021437
1555.0,0.03263926003405038
1554.0,0.032592443402527316
1553.0,0.03245202378113787
1552.0,0.032218091924200776
1551.0,0.032031037121307726
1550.0,0.03193753992355086
1549.0,0.03184406285002961
1548.0,0.031657169041054534
1547.0,0.03142366482450232
1546.0,0.031190286087141805
1545.0,0.030910397045078586
1544.0,0.03058408764601861
1543.0,0.030118356253500123
1542.0,0.029792641193145286
1541.0,0.029746130405213123
1540.0,0.029653123769906697
1539.0,0.029374223311705583
1538.0,0.029281296279810798
1537.0,0.02932775731028059
1536.0,0.029281296279810798
1535.0,0.029234840219232394
1534.0,0.029188389127482228
1533.0,0.029141943003497595
1532.0,0.028956208163971375
1531.0,0.028770552723758724
1530.0,0.028538594975413334
1529.0,0.028306761050139073
1528.0,0.028167720075074953
1527.0,0.02798240132598462
1526.0,0.027797161620935595
1525.0,0.027565723042634938
1524.0,0.027288159452933503
1523.0,0.027056991894431892
1522.0,0.027010773144651168
1521.0,0.027056991894431892
1520.0,0.02696455931306696
1519.0,0.02677975314776626
1518.0,0.026687379547098322
1517.0,0.026733563891471412
1516.0,0.02677975314776626
1515.0,0.026733563891471412
1514.0,0.02664120011360227
1513.0,0.026595025589939425
1512.0,0.026456531467510258
1511.0,0.026225806029419818
1510.0,0.025949097207122573
1509.0,0.025718641122169483
1508.0,0.025718641122169483
1507.0,0.025718641122169483
1506.0,0.02553436426275746
1505.0,0.02553436426275746
1504.0,0.02558042614771394
1503.0,0.025488307262671706
1502.0,0.02544225514642018
1501.0,0.02539620791296726
1500.0,0.025350165561278004
1499.0,0.02521206778644225
1498.0,0.025028005701930978
1497.0,0.025074013910237447
1496.0,0.02512002699306959
1495.0,0.025074013910237447
1494.0,0.024936003904763915
1493.0,0.024890010313838973
1492.0,0.02484402159331056
1491.0,0.024798037742147727
1490.0,0.024660115394541604
1489.0,0.02461415101053266
1488.0,0.02461415101053266
1487.0,0.024522236834125355
1486.0,0.024476287039668643
1485.0,0.024522236834125355
1484.0,0.024476287039668643
1483.0,0.024430342106337877
1482.0,0.024430342106337877
1481.0,0.02461415101053266
1480.0,0.02498200236711723
1479.0,0.02558042614771394
1478.0,0.027056991894431892
1477.0,0.03030458888152676
1476.0,0.035646070707806565
1475.0,0.042775942156833
1474.0,0.0515870342213991
1473.0,0.05998184499233683
1472.0,0.06408986356949264
1471.0,0.06439198148213077
1470.0,0.06398920428479049
1469.0,0.06414020196211956
1468.0,0.06484555278383164
1467.0,0.06625970050306473
1466.0,0.0691018855898955
1465.0,0.0732460948102629
1464.0,0.07634157820669385
1463.0,0.07665234350217442
1462.0,0.07453319930846214
1461.0,0.07088774334533943
1460.0,0.06646209802829528
1459.0,0.06198090252378963
1458.0,0.05814087347462649
1457.0,0.05536929814372171
1456.0,0.05354773498692689
1455.0,0.05217431555754937
1454.0,0.05085404758005607
1453.0,0.04939177521576932
1452.0,0.047885915093007325
1451.0,0.04657860031896477
1450.0,0.045564513671517703
1449.0,0.04464904263234004
1448.0,0.04383156952463674
1447.0,0.04320747962950522
1446.0,0.04272802000705722
1445.0,0.04229695845116854
1444.0,0.04181850243505214
1443.0,0.041436116778032606
1442.0,0.041101805289228244
1441.0,0.04072004986906119
1440.0,0.0402909757535701
1439.0,0.03995754427315856
1438.0,0.03967194946985697
1437.0,0.03938654235209116
1436.0,0.038958783046687984
1435.0,0.03838909190871931
1434.0,0.03777276864991497
1433.0,0.0371573187987575
1432.0,0.036542739883292485
1431.0,0.03597620715996652
1430.0,0.03545753392086315
1429.0,0.0349394793888016
1428.0,0.034469056377139484
1427.0,0.03399914237121604
1426.0,0.03352973627071565
1425.0,0.033060836978886954
1424.0,0.03263926003405038
1423.0,0.032311649546687526
1422.0,0.03207779326948268
1421.0,0.03184406285002961
1420.0,0.031657169041054534
1419.0,0.031563752288295444
1418.0,0.03147035562516054
1417.0,0.03128362253321426
1416.0,0.031096969696171817
1415.0,0.031003673351687855
1414.0,0.030863766403287585
1413.0,0.0307239045110681
1412.0,0.03058408764601861
1411.0,0.030444315779156517
1410.0,0.03030458888152676
1409.0,0.030118356253500123
1408.0,0.029885677714903025
1407.0,0.02969962459782227
1406.0,0.02960662792039992
1405.0,0.029513651152349718
1404.0,0.02942069428514915
1403.0,0.02932775731028059
1402.0,0.029188389127482228
1401.0,0.029095501846216454
1400.0,0.02890978686288448
1399.0,0.028816959143838528
1398.0,0.02863136320857662
1397.0,0.02839947976994095
1396.0,0.02826040911222183
1395.0,0.02826040911222183
1394.0,0.028353117935693284
1393.0,0.028353117935693284
1392.0,0.02826040911222183
1391.0,0.028214062120885508
1390.0,0.028214062120885508
1389.0,0.028214062120885508
1388.0,0.028306761050139073
1387.0,0.028445846553939003
1386.0,0.02858497661500481
1385.0,0.02872415126189476
1384.0,0.028956208163971375
1383.0,0.02932775731028059
1382.0,0.029885677714903025
1381.0,0.030537492025363155
1380.0,0.031190286087141805
1379.0,0.03179733185715028
1378.0,0.03217132066984485
1377.0,0.032218091924200776
1376.0,0.032031037121307726
1375.0,0.03184406285002961
1374.0,0.03175060589208267
1373.0,0.03175060589208267
1372.0,0.03179733185715028
1371.0,0.03179733185715028
1370.0,0.03184406285002961
1369.0,0.03189079887180224
1368.0,0.03189079887180224
1367.0,0.03179733185715028
1366.0,0.03170388495374454
1365.0,0.03151705144606498
1364.0,0.03137697904301118
1363.0,0.03128362253321426
1362.0,0.031190286087141805
1361.0,0.03105031901865729
1360.0,0.030863766403287585
1359.0,0.03067729388779794
1358.0,0.03058408764601861
1357.0,0.030537492025363155
1356.0,0.030537492025363155
1355.0,0.03058408764601861
1354.0,0.03063068826647264
1353.0,0.03063068826647264
1352.0,0.03063068826647264
1351.0,0.03063068826647264
1350.0,0.03063068826647264
1349.0,0.030537492025363155
1348.0,0.030444315779156517
1347.0,0.030351159519274695
1346.0,0.03025802323714588
1345.0,0.030211462585061133
1344.0,0.030071810571884017
1343.0,0.029978734171634214
1342.0,0.029885677714903025
1341.0,0.029746130405213123
1340.0,0.02969962459782227
1339.0,0.02969962459782227
1338.0,0.02969962459782227
1337.0,0.02960662792039992
1336.0,0.029513651152349718
1335.0,0.02942069428514915
1334.0,0.029374223311705583
1333.0,0.029281296279810798
1332.0,0.029188389127482228
1331.0,0.029141943003497595
1330.0,0.029095501846216454
1329.0,0.02904906565457588
1328.0,0.029002634427514717
1327.0,0.02904906565457588
1326.0,0.029095501846216454
1325.0,0.029141943003497595
1324.0,0.029188389127482228
1323.0,0.029234840219232394
1322.0,0.029281296279810798
1321.0,0.02932775731028059
1320.0,0.029374223311705583
1319.0,0.029467170231675777
1318.0,0.029560137048236124
1317.0,0.02969962459782227
1316.0,0.029792641193145286
1315.0,0.029885677714903025
1314.0,0.03002526987828502
1313.0,0.030118356253500123
1312.0,0.030164906924202484
1311.0,0.030211462585061133
1310.0,0.03030458888152676
1309.0,0.030351159519274695
1308.0,0.030397735151460825
1307.0,0.030490901403433135
1306.0,0.03063068826647264
1305.0,0.03067729388779794
1304.0,0.030770520137356927
1303.0,0.03081714076773867
1302.0,0.030863766403287585
1301.0,0.030910397045078586
1300.0,0.030910397045078586
1299.0,0.030910397045078586
1298.0,0.030910397045078586
1297.0,0.030910397045078586
1296.0,0.030910397045078586
1295.0,0.030863766403287585
1294.0,0.030863766403287585
1293.0,0.03081714076773867
1292.0,0.03081714076773867
1291.0,0.03081714076773867
1290.0,0.030770520137356927
1289.0,0.030770520137356927
1288.0,0.030770520137356927
1287.0,0.0307239045110681
1286.0,0.030770520137356927
1285.0,0.0307239045110681
1284.0,0.0307239045110681
1283.0,0.030770520137356927
1282.0,0.030770520137356927
1281.0,0.03081714076773867
1280.0,0.030863766403287585
1279.0,0.030863766403287585
1278.0,0.030863766403287585
1277.0,0.030863766403287585
1276.0,0.030863766403287585
1275.0,0.030910397045078586
1274.0,0.030910397045078586
1273.0,0.030957032694186815
1272.0,0.030957032694186815
1271.0,0.031003673351687855
1270.0,0.031003673351687855
1269.0,0.03105031901865729
1268.0,0.03105031901865729
1267.0,0.031096969696171817
1266.0,0.031143625385307683
1265.0,0.031190286087141805
1264.0,0.031190286087141805
1263.0,0.031236951802751545
1262.0,0.03128362253321426
1261.0,0.03128362253321426
1260.0,0.03133029827960798
1259.0,0.03133029827960798
1258.0,0.03137697904301118
1257.0,0.03142366482450232
1256.0,0.03142366482450232
1255.0,0.03137697904301118
1254.0,0.03137697904301118
1253.0,0.03137697904301118
1252.0,0.03142366482450232
1251.0,0.03147035562516054
1250.0,0.03151705144606498
1249.0,0.031563752288295444
1248.0,0.031563752288295444
1247.0,0.03161045815293173
1246.0,0.03161045815293173
1245.0,0.03170388495374454
1244.0,0.03175060589208267
1243.0,0.03179733185715028
1242.0,0.03189079887180224
1241.0,0.03193753992355086
1240.0,0.031984286006358165
1239.0,0.032031037121307726
1238.0,0.03207779326948268
1237.0,0.032124554451966825
1236.0,0.03217132066984485
1235.0,0.032218091924200776
1234.0,0.03226486821611996
1233.0,0.032311649546687526
1232.0,0.03240522732811035
1231.0,0.03249882527715853
1230.0,0.03263926003405038
1229.0,0.03273290844021437
1228.0,0.03282657704446046
1227.0,0.032873418923587305
1226.0,0.032920265855503006
1225.0,0.03301397488206215
1224.0,0.033060836978886954
1223.0,0.033154576345083564
1222.0,0.033295223342125535
1221.0,0.03343591590268957
1220.0,0.03352973627071565
1219.0,0.03362357691107709
1218.0,0.03371743783253667
1217.0,0.03385826726096752
1216.0,0.03399914237121604
1215.0,0.034187046963396917
1214.0,0.03437503289075727
1213.0,0.034516075754861264
1212.0,0.03465716443937783
1211.0,0.03479829897408804
1210.0,0.0349394793888016
1209.0,0.03512779136222477
1208.0,0.03531618502395939
1207.0,0.03545753392086315
1206.0,0.035646070707806565
1205.0,0.03578752703018084
1204.0,0.03597620715996652
1203.0,0.03616496929785207
1202.0,0.03635381351515665
1201.0,0.03658998431977123
1200.0,0.036873558918095295
1199.0,0.0371100126082089
1198.0,0.03744126420403626
1197.0,0.03767802727041558
1196.0,0.03796231343498735
1195.0,0.038199360808321536
1194.0,0.03848398855105106
1193.0,0.038816290187564384
1192.0,0.03910132267333921
1191.0,0.03943409718180235
1190.0,0.03981472339538916
1189.0,0.04019568349166214
1188.0,0.04057697805689475
1187.0,0.040958607678906356
1186.0,0.04138834223512067
1185.0,0.04181850243505214
1184.0,0.042201225070002124
1183.0,0.04263219156847242
1182.0,0.04301563225723992
1181.0,0.04344740808260106
1180.0,0.0439276630048171
1179.0,0.044456557540257124
1178.0,0.044986096961949995
1177.0,0.045516282844447975
1176.0,0.04599883231842972
1175.0,0.04653025674659861
1174.0,0.047062332249019345
1173.0,0.047595060422975566
1172.0,0.04817696468408794
1171.0,0.048808242065293994
1170.0,0.04944043838819989
1169.0,0.05012229596312534
1168.0,0.05075640943173498
1167.0,0.05139145012356372
1166.0,0.052027420754219955
1165.0,0.05271335532220167
1164.0,0.053449489430144714
1163.0,0.05423607688882637
1162.0,0.05507339001378431
1161.0,0.055912320584565744
1160.0,0.0567528748621382
1159.0,0.0575950591438934
1158.0,0.05843887976392925
1157.0,0.05933412752417122
1156.0,0.06028111764589528
1155.0,0.06123017721688262
1154.0,0.06218131530164395
1153.0,0.06318476880236723
1152.0,0.06414020196211956
1151.0,0.06514819703433927
1150.0,0.06615853710127872
1149.0,0.0671712330991534
1148.0,0.0681862960408608
1147.0,0.0692037370166998
1146.0,0.07022356719509815
1145.0,0.07124579782334672
1144.0,0.07232173586200852
1143.0,0.07340034609297241
1142.0,0.07448164182257
1141.0,0.07566901529132153
1140.0,0.07680780957933253
1139.0,0.07800156869172903
1138.0,0.07914650387874067
1137.0,0.08039897621588898
1136.0,0.08160266115629988
1135.0,0.08291480935943274
1134.0,0.08423093401631587
1133.0,0.0856568428805593
1132.0,0.08708744882390307
1131.0,0.08857603462370545
1130.0,0.0900163050601559
1129.0,0.09156860103399356
1128.0,0.09323411045927221
1127.0,0.09496007192378841
1126.0,0.09669292003582619
1125.0,0.09843270997155007
1124.0,0.10012480397898926
1123.0,0.10187842445889239
1122.0,0.10363915453068362
1121.0,0.10546241500425357
1120.0,0.10729336219433439
1119.0,0.10913206118855912
1118.0,0.11097857790477517
1117.0,0.11288929687511629
1116.0,0.1148084593931522
1115.0,0.116736140415026
1114.0,0.11855827805860697
1113.0,0.1203880929341492
1112.0,0.12216810850710624
1111.0,0.12389767862220635
1110.0,0.12551818230053358
1109.0,0.12714475529518965
1108.0,0.12889429901441463
1107.0,0.1305922506177981
1106.0,0.13229686672990226
1105.0,0.13394907599072514
1104.0,0.13560759484941132
1103.0,0.13715334001706125
1102.0,0.13864483980673992
1101.0,0.1402014525194344
1100.0,0.14176366457048695
1099.0,0.14333151638846497
1098.0,0.14484442282300614
1097.0,0.14630178822382556
1096.0,0.1477030341730745
1095.0,0.1490476002065071
1094.0,0.15033494452126717
1093.0,0.1515645446685292
1092.0,0.1527358982292355
1091.0,0.1537866361206126
1090.0,0.15471587365200845
1089.0,0.15558495952617557
1088.0,0.15645578805436489
1087.0,0.15726598105173029
1086.0,0.15795271149036205
1085.0,0.15864052954514496
1084.0,0.15926676538819318
1083.0,0.15976840504189105
1082.0,0.1600822243213189
1081.0,0.1602706247936121
1080.0,0.16045910703103106
1079.0,0.1605219526258017
1078.0,0.16039627052916305
1077.0,0.1602706247936121
1076.0,0.1600194423216572
1075.0,0.15964294079664376
1074.0,0.15914144595812063
1073.0,0.15857795559764076
1072.0,0.15795271149036205
1071.0,0.15714123755470633
1070.0,0.1560823619936076
1069.0,0.1548399223480541
1068.0,0.15360102696532518
1067.0,0.15224231160766877
1066.0,0.15082636690117335
1065.0,0.14953756723848333
1064.0,0.14819148577176255
1063.0,0.14672777597931685
1062.0,0.14502632627358292
1061.0,0.14315032127482774
1060.0,0.14122226269455074
1059.0,0.13912320359670227
1058.0,0.1370342410222376
1057.0,0.13501453934020602
1056.0,0.13306318226836056
1055.0,0.1311205537629121
1054.0,0.1290696416513042
1053.0,0.12702836926155658
1052.0,0.125054563914468
1051.0,0.12303203256741524
1050.0,0.12101887660626365
1049.0,0.1190150095132465
1048.0,0.11713408027837091
1047.0,0.11531789579397489
1046.0,0.11356568037106163
1045.0,0.11187669270209155
1044.0,0.11025022473596224
1043.0,0.10857405715200596
1042.0,0.10690433390377163
1041.0,0.10518567091669917
1040.0,0.10352889952072264
1039.0,0.10193333935836524
1038.0,0.1005078038618683
1037.0,0.09914149529800831
1036.0,0.09783387072894878
1035.0,0.09653017149282994
1034.0,0.09523037409340485
1033.0,0.09388054245443844
1032.0,0.09258863922541383
1031.0,0.09124698081546634
1030.0,0.0900163050601559
1029.0,0.08878910686244668
1028.0,0.08761850108119962
1027.0,0.08650404038287651
1026.0,0.08549817717268593
1025.0,0.08460016478773014
1024.0,0.08365134772453975
1023.0,0.08275714209253371
1022.0,0.08181233864107451
1021.0,0.08086958613938555
1020.0,0.07992887570247587
1019.0,0.07899019850296574
1018.0,0.07810552907089763
1017.0,0.07727454200674
1016.0,0.07649693305789551
1015.0,0.07577241873988227
1014.0,0.07499749231902242
1013.0,0.07422394616325367
1012.0,0.0734517753643813
1011.0,0.07278366940873537
1010.0,0.07211658966929302
1009.0,0.07145053299833615
1008.0,0.07083661679493547
1007.0,0.07017251876930874
1006.0,0.06945847013556561
1005.0,0.06879647454924775
1004.0,0.0681862960408608
1003.0,0.0676277178520861
1002.0,0.06701917807680191
1001.0,0.06646209802829528
1000.0,0.06590573164451952
999.0,0.0653500770992892
998.0,0.06474471821595262
997.0,0.06419054619006714
996.0,0.0636873663378068
995.0,0.06318476880236723
994.0,0.06268275223750575
993.0,0.062281556382736136
992.0,0.061830653609679764
991.0,0.06143024377893891
990.0,0.0611301784870133
989.0,0.06108018775522828
988.0,0.06163040254819374
987.0,0.0630843190547461
986.0,0.06565307326174441
985.0,0.06864384953207203
984.0,0.07088774334533943
983.0,0.07129697256940304
982.0,0.06981534770138009
981.0,0.06727263269847072
980.0,0.06474471821595262
979.0,0.0627329277885873
978.0,0.06123017721688262
977.0,0.060131455540490375
976.0,0.05923456436878238
975.0,0.05848856736559682
974.0,0.05784307153250956
973.0,0.05734718830678798
972.0,0.05690137699451481
971.0,0.05650548409389744
970.0,0.05610995175152733
969.0,0.05581353871631256
968.0,0.05551732784983132
967.0,0.05522131887649295
966.0,0.0549747987575373
965.0,0.054679159207724926
964.0,0.05438372077326825
963.0,0.05403929642243144
962.0,0.05369514500652506
961.0,0.053351266093323746
960.0,0.05305672930217464
959.0,0.05281143447390635
958.0,0.05261529831525902
957.0,0.05237025261564554
956.0,0.05217431555754937
955.0,0.05192951848105887
954.0,0.051684859310652254
953.0,0.05144033789103841
952.0,0.05119595406718891
951.0,0.05100054597304693
950.0,0.05085404758005607
949.0,0.05065879322950262
948.0,0.05056119896349576
947.0,0.050414848673348
946.0,0.050317309204795935
945.0,0.05021979163799939
944.0,0.050073556332087765
943.0,0.049927370249842395
942.0,0.04973253198641148
941.0,0.04953778109440221
940.0,0.04934311749548925
939.0,0.04919717703534143
938.0,0.04900266601119507
937.0,0.048905443158337114
936.0,0.04885683989244738
935.0,0.048808242065293994
934.0,0.04875964967565971
933.0,0.04866248120408234
932.0,0.0486139051197072
931.0,0.04851676924770687
930.0,0.04841965509660828
929.0,0.04832256265669943
928.0,0.048225491918274965
927.0,0.04817696468408794
926.0,0.04807992647970649
925.0,0.04803141550708934
924.0,0.047982909952573705
923.0,0.047885915093007325
922.0,0.04778894189133087
921.0,0.04774046340917959
920.0,0.047691990337874746
919.0,0.047691990337874746
918.0,0.047691990337874746
917.0,0.04774046340917959
916.0,0.04774046340917959
915.0,0.04774046340917959
914.0,0.047691990337874746
913.0,0.047691990337874746
912.0,0.047691990337874746
911.0,0.047691990337874746
910.0,0.047691990337874746
909.0,0.047691990337874746
908.0,0.04774046340917959
907.0,0.0478374257855374
906.0,0.047934409814949674
905.0,0.047982909952573705
904.0,0.047982909952573705
903.0,0.047982909952573705
902.0,0.047934409814949674
901.0,0.047885915093007325
900.0,0.047934409814949674
899.0,0.04803141550708934
898.0,0.048128442871635535
897.0,0.04817696468408794
896.0,0.048225491918274965
895.0,0.04827402457540786
894.0,0.04837110616336182
893.0,0.048468209457651845
892.0,0.0486139051197072
891.0,0.04871106272232795
890.0,0.04885683989244738
889.0,0.04900266601119507
888.0,0.049148541111453614
887.0,0.049294465226138895
886.0,0.04939177521576932
885.0,0.04948910701400333
884.0,0.04953778109440221
883.0,0.04958646063061889
882.0,0.04968383607539972
881.0,0.04982994019179987
880.0,0.05002482217034632
879.0,0.050171041064686284
878.0,0.05036607620073763
877.0,0.0506099933550872
876.0,0.050805225762017736
875.0,0.05100054597304693
874.0,0.05114709380028648
873.0,0.05129369109514803
872.0,0.05139145012356372
871.0,0.05148923116234294
870.0,0.05153812993871654
869.0,0.0515870342213991
868.0,0.05163594401163074
867.0,0.0518316382728683
866.0,0.05212534510230182
865.0,0.0525172634430815
864.0,0.05281143447390635
863.0,0.05305672930217464
862.0,0.05330216275425803
861.0,0.05354773498692689
860.0,0.05379344615721715
859.0,0.05399011523423525
858.0,0.05423607688882637
857.0,0.05443294655761144
856.0,0.05477768336465916
855.0,0.05507339001378431
854.0,0.05546797900801881
853.0,0.05586292684190197
852.0,0.05630767289398331
851.0,0.05670338543334519
850.0,0.057000406633959555
849.0,0.05729763111133224
848.0,0.0575950591438934
847.0,0.05784307153250956
846.0,0.05814087347462649
845.0,0.0583891978463662
844.0,0.05868737463933793
843.0,0.059035506507200575
842.0,0.05928434309333741
841.0,0.05953332233647113
840.0,0.05983228596592505
839.0,0.0601813371786204
838.0,0.06058059667068294
837.0,0.06098022355133348
836.0,0.06143024377893891
835.0,0.061830653609679764
834.0,0.062281556382736136
833.0,0.0627329277885873
832.0,0.06323500239005853
831.0,0.06373765809652254
830.0,0.06414020196211956
829.0,0.06454311928839007
828.0,0.06484555278383164
827.0,0.06519865825346338
826.0,0.06560255921901192
825.0,0.06610796423578891
824.0,0.06656333217371957
823.0,0.06696850489759454
822.0,0.06727263269847072
821.0,0.0676277178520861
820.0,0.06798309356579857
819.0,0.06833876031551878
818.0,0.06864384953207203
817.0,0.06894915322260897
816.0,0.06930561233546473
815.0,0.06981534770138009
814.0,0.07037674848475972
813.0,0.07093887591523451
812.0,0.07150173187630915
811.0,0.07186029312488018
810.0,0.07221915065262552
809.0,0.07268097504034388
808.0,0.07319468988839395
807.0,0.07376047895413773
806.0,0.07427547306393745
805.0,0.0748426728241014
804.0,0.07551395626608493
803.0,0.07613452481449845
802.0,0.07675598136972361
801.0,0.07737832847680104
800.0,0.07805354577058976
799.0,0.07878187880504961
798.0,0.07951143534170213
797.0,0.08024221949810584
796.0,0.08092190762392604
795.0,0.08155025759884227
794.0,0.08207457793525874
793.0,0.08265206237222844
792.0,0.0833881548906541
791.0,0.08423093401631587
790.0,0.08507535179485148
789.0,0.08586848736910624
788.0,0.0867691288864394
787.0,0.08761850108119962
786.0,0.0885227828938977
785.0,0.08942895151874142
784.0,0.09028354676565531
783.0,0.09119340059432579
782.0,0.09210516458371698
781.0,0.09291125492570451
780.0,0.09371884422784693
779.0,0.09447395156495153
778.0,0.09517630019905599
777.0,0.09593394808549704
776.0,0.09685572959046151
775.0,0.09783387072894878
774.0,0.09881421986284966
773.0,0.09985143928065598
772.0,0.10089114180660053
771.0,0.1017686154869033
770.0,0.10248287059947447
769.0,0.10325338439259446
768.0,0.10413564875270076
767.0,0.10501970907203151
766.0,0.10579474085791629
765.0,0.10651565378151395
764.0,0.10718217569042365
763.0,0.10768273927751948
762.0,0.1081838804751396
761.0,0.10874138309586101
760.0,0.10941133229451272
759.0,0.11002636159600376
758.0,0.11058623595729111
757.0,0.11120293254331926
756.0,0.11182050608167504
755.0,0.11238269966426384
754.0,0.11288929687511629
753.0,0.11345287660889425
752.0,0.11396072443355765
751.0,0.11441264381034388
750.0,0.1148084593931522
749.0,0.11520463605101905
748.0,0.11577123036739612
747.0,0.11628179803604044
746.0,0.11667932161702477
745.0,0.1169634899723202
744.0,0.11730473761840288
743.0,0.1174754620451195
742.0,0.11770319906234805
741.0,0.11815903167507247
740.0,0.11872949607064243
739.0,0.11930071078129845
738.0,0.11975822410451964
737.0,0.1202162199095842
736.0,0.12090412049992727
735.0,0.12211057462851604
734.0,0.12459143992293642
733.0,0.12930354201075
732.0,0.13590442657575252
731.0,0.1427278264359586
730.0,0.14745901423020125
729.0,0.1491088158640761
728.0,0.14831368455757254
727.0,0.1465451586319333
726.0,0.14526898278605782
725.0,0.14551177495556966
724.0,0.14739803066176504
723.0,0.15107228677292173
722.0,0.15714123755470633
721.0,0.165706487557304
720.0,0.1745089701205691
719.0,0.17973284283903546
718.0,0.17979854051435984
717.0,0.17600440884403223
716.0,0.17056756638240134
715.0,0.16481693015095633
714.0,0.15939212099070987
713.0,0.15477789357098626
712.0,0.15113378850522063
711.0,0.1482525808667361
710.0,0.1459369881335788
709.0,0.143996546002779
708.0,0.14260718907909875
707.0,0.1415831222765116
706.0,0.1408016384661226
705.0,0.14032142337155173
704.0,0.1400815147992842
703.0,0.13978181533124334
702.0,0.13936258322624528
701.0,0.1388839558386048
700.0,0.1384058553561347
699.0,0.13792828062000573
698.0,0.13739163603505822
697.0,0.13697470377052956
696.0,0.1367961409713705
695.0,0.13673663634951905
694.0,0.13661765155921235
693.0,0.13643923547375736
692.0,0.13632033212410222
691.0,0.13620146131949973
690.0,0.1360232160956132
689.0,0.1360826230421397
688.0,0.1363797797296844
687.0,0.13673663634951905
686.0,0.1369151746796402
685.0,0.13709378643700187
684.0,0.1373320497714121
683.0,0.13739163603505822
682.0,0.13739163603505822
681.0,0.13763006287711765
680.0,0.13828641242856565
679.0,0.13900356324280416
678.0,0.13954220457652888
677.0,0.14002155835797914
676.0,0.14068153490288382
675.0,0.14140265500530758
674.0,0.14200450443907608
673.0,0.14212497447643746
672.0,0.14176366457048695
671.0,0.1423660148499919
670.0,0.14551177495556966
669.0,0.15298290206464582
668.0,0.163359458427226
667.0,0.16698045292346864
666.0,0.16171775008531153
665.0,0.15546069787099204
664.0,0.15255073750082726
663.0,0.15211900255462485
662.0,0.15224231160766877
661.0,0.15267416921457633
660.0,0.15347733158371324
659.0,0.1540961611012175
658.0,0.15403423845451636
657.0,0.15415809257824264
656.0,0.15477789357098626
655.0,0.15527437202677397
654.0,0.15533647175976073
653.0,0.15533647175976073
652.0,0.15589576930248672
651.0,0.1567049172634929
650.0,0.15757799664235028
649.0,0.15864052954514496
648.0,0.1600822243213189
647.0,0.16146572948813143
646.0,0.16253782851400533
645.0,0.16386585053462532
644.0,0.16545214231905137
643.0,0.16691666582165698
642.0,0.16813022571949832
641.0,0.16979640107429583
640.0,0.17230771132555445
639.0,0.1751585282462993
638.0,0.1778973313530796
637.0,0.18085105719286587
636.0,0.1842894602110372
635.0,0.1871534630329288
634.0,0.18842499412940672
633.0,0.18842499412940672
632.0,0.18822397839709626
631.0,0.18829097330380895
630.0,0.1885590563258419
629.0,0.18936429972446267
628.0,0.19077707831057822
627.0,0.19253262431572216
626.0,0.1944311824514442
625.0,0.19654288435158618
624.0,0.1987335295103798
623.0,0.20031490909089955
622.0,0.20107326142279858
621.0,0.20176382363206424
620.0,0.20266319922465015
619.0,0.20356444118982564
618.0,0.20453710560962013
617.0,0.20613979865733034
616.0,0.20823919598709506
615.0,0.20971483596675822
614.0,0.2102078322693246
613.0,0.21063084640851826
612.0,0.21147811277752715
611.0,0.21190236661970263
610.0,0.21161948468043668
609.0,0.21105427297625234
608.0,0.2107013888405589
607.0,0.20985563495709947
606.0,0.20844969497266996
605.0,0.2076083105017461
604.0,0.2076783636484265
603.0,0.20753826865304936
602.0,0.20641913263184408
601.0,0.20502425594886842
600.0,0.2037726859705613
