cm-1,A
4000.0,-0.0016904542321527494
3999.0,-0.0018202170383281313
3998.0,-0.0019067040408846658
3997.0,-0.0020364022595291686
3996.0,-0.0021660617565077978
3995.0,-0.002338880892056583
3994.0,-0.0024684501283323
3993.0,-0.0024252646779014952
3992.0,-0.002338880892056583
3991.0,-0.0021660617565077978
3990.0,-0.0020796263931210923
3989.0,-0.0021228462251614566
3988.0,-0.0021660617565077978
3987.0,-0.0022524799205383417
3986.0,-0.0022524799205383417
3985.0,-0.0022092729880145434
3984.0,-0.0021228462251614566
3983.0,-0.0020796263931210923
3982.0,-0.0020364022595291686
3981.0,-0.0020796263931210923
3980.0,-0.0021228462251614566
3979.0,-0.0021228462251614566
3978.0,-0.0021228462251614566
3977.0,-0.0020796263931210923
3976.0,-0.0020796263931210923
3975.0,-0.0020796263931210923
3974.0,-0.0021660617565077978
3973.0,-0.0022956825549340643
3972.0,-0.0023820749327607693
3971.0,-0.0024252646779014952
3970.0,-0.0022956825549340643
3969.0,-0.0021660617565077978
3968.0,-0.0020364022595291686
3967.0,-0.0020364022595291686
3966.0,-0.0021660617565077978
3965.0,-0.0022956825549340643
3964.0,-0.0024684501283323
3963.0,-0.0025548081484823015
3962.0,-0.0026411490000399773
3961.0,-0.0026411490000399773
3960.0,-0.002684312989729598
3959.0,-0.0026411490000399773
3958.0,-0.0025548081484823015
3957.0,-0.0024252646779014952
3956.0,-0.0022956825549340643
3955.0,-0.0022956825549340643
3954.0,-0.002338880892056583
3953.0,-0.0024684501283323
3952.0,-0.0025548081484823015
3951.0,-0.0025548081484823015
3950.0,-0.0024684501283323
3949.0,-0.002338880892056583
3948.0,-0.0022956825549340643
3947.0,-0.002338880892056583
3946.0,-0.0023820749327607693
3945.0,-0.0024252646779014952
3944.0,-0.0024252646779014952
3943.0,-0.0023820749327607693
3942.0,-0.0023820749327607693
3941.0,-0.0024252646779014952
3940.0,-0.0024252646779014952
3939.0,-0.0024252646779014952
3938.0,-0.0023820749327607693
3937.0,-0.002338880892056583
3936.0,-0.002338880892056583
3935.0,-0.002338880892056583
3934.0,-0.002338880892056583
3933.0,-0.0023820749327607693
3932.0,-0.0025116312849080558
3931.0,-0.0026411490000399773
3930.0,-0.0027274726898296464
3929.0,-0.0027706281011936618
3928.0,-0.0027274726898296464
3927.0,-0.0026411490000399773
3926.0,-0.002597980719908577
3925.0,-0.002597980719908577
3924.0,-0.002597980719908577
3923.0,-0.0026411490000399773
3922.0,-0.002684312989729598
3921.0,-0.002684312989729598
3920.0,-0.0027274726898296464
3919.0,-0.0027706281011936618
3918.0,-0.0027706281011936618
3917.0,-0.0028137792246734072
3916.0,-0.002856926061120646
3915.0,-0.002856926061120646
3914.0,-0.0028137792246734072
3913.0,-0.0026411490000399773
3912.0,-0.0024684501283323
3911.0,-0.0023820749327607693
3910.0,-0.0023820749327607693
3909.0,-0.0024684501283323
3908.0,-0.0025548081484823015
3907.0,-0.002597980719908577
3906.0,-0.0025548081484823015
3905.0,-0.0024252646779014952
3904.0,-0.002338880892056583
3903.0,-0.0023820749327607693
3902.0,-0.0024684501283323
3901.0,-0.0025548081484823015
3900.0,-0.0025548081484823015
3899.0,-0.0025548081484823015
3898.0,-0.002597980719908577
3897.0,-0.0026411490000399773
3896.0,-0.002684312989729598
3895.0,-0.002684312989729598
3894.0,-0.002684312989729598
3893.0,-0.0026411490000399773
3892.0,-0.0025116312849080558
3891.0,-0.0024252646779014952
3890.0,-0.0024684501283323
3889.0,-0.0025116312849080558
3888.0,-0.0023820749327607693
3887.0,-0.0022092729880145434
3886.0,-0.0020364022595291686
3885.0,-0.0020796263931210923
3884.0,-0.0022524799205383417
3883.0,-0.0023820749327607693
3882.0,-0.002338880892056583
3881.0,-0.0022956825549340643
3880.0,-0.002338880892056583
3879.0,-0.0025116312849080558
3878.0,-0.0026411490000399773
3877.0,-0.0026411490000399773
3876.0,-0.0025548081484823015
3875.0,-0.0025116312849080558
3874.0,-0.0025548081484823015
3873.0,-0.002597980719908577
3872.0,-0.0025116312849080558
3871.0,-0.002338880892056583
3870.0,-0.0021660617565077978
3869.0,-0.0021660617565077978
3868.0,-0.0022524799205383417
3867.0,-0.0022092729880145434
3866.0,-0.0020796263931210923
3865.0,-0.0020364022595291686
3864.0,-0.0021660617565077978
3863.0,-0.0024252646779014952
3862.0,-0.0026411490000399773
3861.0,-0.0027274726898296464
3860.0,-0.0027706281011936618
3859.0,-0.0027274726898296464
3858.0,-0.0027706281011936618
3857.0,-0.0028137792246734072
3856.0,-0.0029863408567849525
3855.0,-0.003115717099805959
3854.0,-0.003029470553618019
3853.0,-0.0027274726898296464
3852.0,-0.0024684501283323
3851.0,-0.0021228462251614566
3850.0,-0.0018202170383281313
3849.0,-0.0016471913460383014
3848.0,-0.001733712809000476
3847.0,-0.0020364022595291686
3846.0,-0.002338880892056583
3845.0,-0.002597980719908577
3844.0,-0.0027706281011936618
3843.0,-0.002900068611387585
3842.0,-0.0029432068763250996
3841.0,-0.002900068611387585
3840.0,-0.0027706281011936618
3839.0,-0.0025548081484823015
3838.0,-0.0023820749327607693
3837.0,-0.0022956825549340643
3836.0,-0.0022092729880145434
3835.0,-0.0021228462251614566
3834.0,-0.0020796263931210923
3833.0,-0.0020364022595291686
3832.0,-0.0020796263931210923
3831.0,-0.0021660617565077978
3830.0,-0.0022956825549340643
3829.0,-0.0024252646779014952
3828.0,-0.0024684501283323
3827.0,-0.0025116312849080558
3826.0,-0.0025116312849080558
3825.0,-0.002597980719908577
3824.0,-0.002684312989729598
3823.0,-0.0027274726898296464
3822.0,-0.002684312989729598
3821.0,-0.002597980719908577
3820.0,-0.0025548081484823015
3819.0,-0.0024684501283323
3818.0,-0.0022956825549340643
3817.0,-0.0020364022595291686
3816.0,-0.0018634626925240205
3815.0,-0.0019067040408846658
3814.0,-0.0019931738235303698
3813.0,-0.0020796263931210923
3812.0,-0.0021228462251614566
3811.0,-0.0022524799205383417
3810.0,-0.002338880892056583
3809.0,-0.0022956825549340643
3808.0,-0.0020796263931210923
3807.0,-0.0019499410842680476
3806.0,-0.0021228462251614566
3805.0,-0.0024252646779014952
3804.0,-0.0026411490000399773
3803.0,-0.0025548081484823015
3802.0,-0.002338880892056583
3801.0,-0.0022092729880145434
3800.0,-0.002338880892056583
3799.0,-0.0024252646779014952
3798.0,-0.0023820749327607693
3797.0,-0.0022956825549340643
3796.0,-0.0022524799205383417
3795.0,-0.0022524799205383417
3794.0,-0.0022524799205383417
3793.0,-0.0022524799205383417
3792.0,-0.002338880892056583
3791.0,-0.0024684501283323
3790.0,-0.002597980719908577
3789.0,-0.002684312989729598
3788.0,-0.002597980719908577
3787.0,-0.0024252646779014952
3786.0,-0.0022524799205383417
3785.0,-0.0020796263931210923
3784.0,-0.0020364022595291686
3783.0,-0.0021228462251614566
3782.0,-0.0022092729880145434
3781.0,-0.0022956825549340643
3780.0,-0.0022956825549340643
3779.0,-0.0022524799205383417
3778.0,-0.0022956825549340643
3777.0,-0.0023820749327607693
3776.0,-0.0024252646779014952
3775.0,-0.0025116312849080558
3774.0,-0.002597980719908577
3773.0,-0.0026411490000399773
3772.0,-0.0025116312849080558
3771.0,-0.0022524799205383417
3770.0,-0.0019931738235303698
3769.0,-0.0019499410842680476
3768.0,-0.0020796263931210923
3767.0,-0.0022092729880145434
3766.0,-0.002338880892056583
3765.0,-0.0024684501283323
3764.0,-0.0025548081484823015
3763.0,-0.002597980719908577
3762.0,-0.002597980719908577
3761.0,-0.0025548081484823015
3760.0,-0.0024252646779014952
3759.0,-0.002338880892056583
3758.0,-0.002338880892056583
3757.0,-0.0024684501283323
3756.0,-0.002684312989729598
3755.0,-0.002900068611387585
3754.0,-0.003029470553618019
3753.0,-0.003029470553618019
3752.0,-0.0028137792246734072
3751.0,-0.0024252646779014952
3750.0,-0.0021660617565077978
3749.0,-0.0020796263931210923
3748.0,-0.0021228462251614566
3747.0,-0.0022092729880145434
3746.0,-0.0022524799205383417
3745.0,-0.0022524799205383417
3744.0,-0.0023820749327607693
3743.0,-0.002597980719908577
3742.0,-0.0027274726898296464
3741.0,-0.0027274726898296464
3740.0,-0.0027706281011936618
3739.0,-0.0029863408567849525
3738.0,-0.003201946521692367
3737.0,-0.0032881588260753603
3736.0,-0.003115717099805959
3735.0,-0.0029432068763250996
3734.0,-0.002900068611387585
3733.0,-0.002856926061120646
3732.0,-0.0028137792246734072
3731.0,-0.002856926061120646
3730.0,-0.0029863408567849525
3729.0,-0.003029470553618019
3728.0,-0.0030725959676747294
3727.0,-0.003029470553618019
3726.0,-0.003029470553618019
3725.0,-0.003158833950862139
3724.0,-0.0032881588260753603
3723.0,-0.0033312585613267665
3722.0,-0.0032450548131470747
3721.0,-0.0030725959676747294
3720.0,-0.002900068611387585
3719.0,-0.0027274726898296464
3718.0,-0.0026411490000399773
3717.0,-0.002597980719908577
3716.0,-0.0025116312849080558
3715.0,-0.0023820749327607693
3714.0,-0.0021660617565077978
3713.0,-0.0020796263931210923
3712.0,-0.0021660617565077978
3711.0,-0.0024252646779014952
3710.0,-0.002684312989729598
3709.0,-0.0027706281011936618
3708.0,-0.002684312989729598
3707.0,-0.002597980719908577
3706.0,-0.0025548081484823015
3705.0,-0.0025548081484823015
3704.0,-0.0025548081484823015
3703.0,-0.0025548081484823015
3702.0,-0.0025548081484823015
3701.0,-0.0025116312849080558
3700.0,-0.0025116312849080558
3699.0,-0.0025548081484823015
3698.0,-0.002597980719908577
3697.0,-0.0026411490000399773
3696.0,-0.0027274726898296464
3695.0,-0.0028137792246734072
3694.0,-0.0028137792246734072
3693.0,-0.002856926061120646
3692.0,-0.0029432068763250996
3691.0,-0.0029863408567849525
3690.0,-0.002900068611387585
3689.0,-0.002684312989729598
3688.0,-0.0025116312849080558
3687.0,-0.0024684501283323
3686.0,-0.0024252646779014952
3685.0,-0.0024684501283323
3684.0,-0.0025116312849080558
3683.0,-0.0025548081484823015
3682.0,-0.002597980719908577
3681.0,-0.002597980719908577
3680.0,-0.002684312989729598
3679.0,-0.0028137792246734072
3678.0,-0.0029432068763250996
3677.0,-0.002856926061120646
3676.0,-0.0025548081484823015
3675.0,-0.0022956825549340643
3674.0,-0.0022524799205383417
3673.0,-0.0022956825549340643
3672.0,-0.0021228462251614566
3671.0,-0.0018634626925240205
3670.0,-0.0016904542321527494
3669.0,-0.001733712809000476
3668.0,-0.0019067040408846658
3667.0,-0.0019931738235303698
3666.0,-0.0019499410842680476
3665.0,-0.0019067040408846658
3664.0,-0.0018634626925240205
3663.0,-0.0018634626925240205
3662.0,-0.0019067040408846658
3661.0,-0.0019499410842680476
3660.0,-0.0019499410842680476
3659.0,-0.0019067040408846658
3658.0,-0.0018634626925240205
3657.0,-0.0018634626925240205
3656.0,-0.0019499410842680476
3655.0,-0.0020796263931210923
3654.0,-0.0021228462251614566
3653.0,-0.0020796263931210923
3652.0,-0.0019067040408846658
3651.0,-0.0018202170383281313
3650.0,-0.0018634626925240205
3649.0,-0.0021228462251614566
3648.0,-0.0022524799205383417
3647.0,-0.0022524799205383417
3646.0,-0.0021660617565077978
3645.0,-0.0019931738235303698
3644.0,-0.0018634626925240205
3643.0,-0.001776967077439462
3642.0,-0.0018202170383281313
3641.0,-0.0019067040408846658
3640.0,-0.0019931738235303698
3639.0,-0.0019931738235303698
3638.0,-0.0019067040408846658
3637.0,-0.001733712809000476
3636.0,-0.0016904542321527494
3635.0,-0.001733712809000476
3634.0,-0.0019499410842680476
3633.0,-0.0022092729880145434
3632.0,-0.0024252646779014952
3631.0,-0.0024684501283323
3630.0,-0.0021660617565077978
3629.0,-0.001776967077439462
3628.0,-0.001776967077439462
3627.0,-0.0019931738235303698
3626.0,-0.0020796263931210923
3625.0,-0.0020796263931210923
3624.0,-0.0020364022595291686
3623.0,-0.0020796263931210923
3622.0,-0.0020796263931210923
3621.0,-0.0020796263931210923
3620.0,-0.0021228462251614566
3619.0,-0.0022524799205383417
3618.0,-0.0024684501283323
3617.0,-0.002597980719908577
3616.0,-0.0025548081484823015
3615.0,-0.002338880892056583
3614.0,-0.0020364022595291686
3613.0,-0.001776967077439462
3612.0,-0.0016471913460383014
3611.0,-0.0016904542321527494
3610.0,-0.0018634626925240205
3609.0,-0.0019931738235303698
3608.0,-0.0021228462251614566
3607.0,-0.0021660617565077978
3606.0,-0.0022092729880145434
3605.0,-0.0021660617565077978
3604.0,-0.0020364022595291686
3603.0,-0.0019067040408846658
3602.0,-0.0018202170383281313
3601.0,-0.0018634626925240205
3600.0,-0.0019931738235303698
3599.0,-0.0020796263931210923
3598.0,-0.0020796263931210923
3597.0,-0.0019931738235303698
3596.0,-0.0018634626925240205
3595.0,-0.0016904542321527494
3594.0,-0.0015606526425728795
3593.0,-0.0015606526425728795
3592.0,-0.0016039241497978196
3591.0,-0.001733712809000476
3590.0,-0.0018202170383281313
3589.0,-0.0018202170383281313
3588.0,-0.001776967077439462
3587.0,-0.0016904542321527494
3586.0,-0.0016039241497978196
3585.0,-0.001474096691732818
3584.0,-0.0013009330204178937
3583.0,-0.0011277002770349043
3582.0,-0.0011277002770349043
3581.0,-0.0011710149414008164
3580.0,-0.0013009330204178937
3579.0,-0.0014308122463981832
3578.0,-0.001474096691732818
3577.0,-0.001474096691732818
3576.0,-0.0014308122463981832
3575.0,-0.0013875234866409514
3574.0,-0.001474096691732818
3573.0,-0.0015173768235041685
3572.0,-0.0015173768235041685
3571.0,-0.0014308122463981832
3570.0,-0.001257631312230778
3569.0,-0.0011710149414008164
3568.0,-0.00121432528617893
3567.0,-0.001474096691732818
3566.0,-0.001776967077439462
3565.0,-0.0019067040408846658
3564.0,-0.0018202170383281313
3563.0,-0.0016039241497978196
3562.0,-0.001344230411601366
3561.0,-0.0011710149414008164
3560.0,-0.0010843812922201046
3559.0,-0.0010843812922201046
3558.0,-0.0010843812922201046
3557.0,-0.0010843812922201046
3556.0,-0.001041057986093552
3555.0,-0.0009977303577937136
3554.0,-0.0008677215312267172
3553.0,-0.0006943158663546001
3552.0,-0.0005208409361854294
3551.0,-0.00043407747931878404
3550.0,-0.00043407747931878404
3549.0,-0.0005208409361854294
3548.0,-0.0006509536295951079
3547.0,-0.0006943158663546001
3546.0,-0.0007376737740329986
3545.0,-0.0007376737740329986
3544.0,-0.0007810273534953893
3543.0,-0.0007810273534953893
3542.0,-0.0006509536295951079
3541.0,-0.0005208409361854294
3540.0,-0.0003906892499099257
3539.0,-0.00030389978481260016
3538.0,-0.0002604985473904087
3537.0,-0.00021709297223004853
3536.0,-0.00013026880522692963
3535.0,-0.00013026880522692963
3534.0,-0.00021709297223004853
3533.0,-0.00030389978481260016
3532.0,-0.0003472966853634851
3531.0,-0.0002604985473904087
3530.0,-0.00017368305846510168
3529.0,0.0
3528.0,0.0001303078917322953
3527.0,0.00030411258916074324
3526.0,0.0003910410285830057
3525.0,0.0003910410285830057
3524.0,0.0004779868710962365
3523.0,0.0006084382809090627
3522.0,0.0007824344698965646
3521.0,0.0009129773741116676
3520.0,0.0009565003968372565
3519.0,0.0009565003968372565
3518.0,0.0009565003968372565
3517.0,0.0010435595295137379
3516.0,0.0011741809597138886
3515.0,0.001304841688344327
3514.0,0.0013919706849057079
3513.0,0.0013919706849057079
3512.0,0.001348404001626502
3511.0,0.0012612837441823288
3510.0,0.0011741809597138886
3509.0,0.0010870956412141197
3508.0,0.0011741809597138886
3507.0,0.001304841688344327
3506.0,0.0014355417390583547
3505.0,0.0015226969634936083
3504.0,0.0015226969634936083
3503.0,0.0014791171649619628
3502.0,0.0013919706849057079
3501.0,0.001348404001626502
3500.0,0.0014355417390583547
3499.0,0.001609869681952425
3498.0,0.0018278780605593958
3497.0,0.0019587356365717845
3496.0,0.0019587356365717845
3495.0,0.0018278780605593958
3494.0,0.001609869681952425
3493.0,0.0013919706849057079
3492.0,0.0011306361176557367
3491.0,0.0009129773741116676
3490.0,0.0006954276616513155
3489.0,0.0005649501236701937
3488.0,0.000521466320689834
3487.0,0.0005649501236701937
3486.0,0.0006519307932786322
3485.0,0.0007824344698965646
3484.0,0.0009129773741116676
3483.0,0.0009565003968372565
3482.0,0.000869458712629001
3481.0,0.0006519307932786322
3480.0,0.0003910410285830057
3479.0,0.00021720154586435392
3478.0,0.0001303078917322953
3477.0,0.0001303078917322953
3476.0,0.0001303078917322953
3475.0,0.0001303078917322953
3474.0,0.0001303078917322953
3473.0,0.00017375254558760211
3472.0,0.00021720154586435392
3471.0,0.00026065489343207737
3470.0,0.00021720154586435392
3469.0,0.0001303078917322953
3468.0,0.0
3467.0,-0.00017368305846510168
3466.0,-0.00030389978481260016
3465.0,-0.00043407747931878404
3464.0,-0.0005208409361854294
3463.0,-0.0006075870628903246
3462.0,-0.0006075870628903246
3461.0,-0.0005208409361854294
3460.0,-0.0003906892499099257
3459.0,-0.00017368305846510168
3458.0,-4.3427276862573194e-05
3457.0,-4.3427276862573194e-05
3456.0,-8.685021164911433e-05
3455.0,-0.00021709297223004853
3454.0,-0.00030389978481260016
3453.0,-0.0003906892499099257
3452.0,-0.0003906892499099257
3451.0,-0.0003472966853634851
3450.0,-0.0002604985473904087
3449.0,-0.00017368305846510168
3448.0,-0.00013026880522692963
3447.0,-0.00013026880522692963
3446.0,-0.00017368305846510168
3445.0,-0.00021709297223004853
3444.0,-0.00021709297223004853
3443.0,-0.0002604985473904087
3442.0,-0.00030389978481260016
3441.0,-0.0003472966853634851
3440.0,-0.0003472966853634851
3439.0,-0.00030389978481260016
3438.0,-0.00021709297223004853
3437.0,-0.00021709297223004853
3436.0,-0.00021709297223004853
3435.0,-0.00021709297223004853
3434.0,-0.00017368305846510168
3433.0,-0.00017368305846510168
3432.0,-0.00021709297223004853
3431.0,-0.00030389978481260016
3430.0,-0.00043407747931878404
3429.0,-0.0005208409361854294
3428.0,-0.0005642161653756084
3427.0,-0.0006075870628903246
3426.0,-0.0006509536295951079
3425.0,-0.0006509536295951079
3424.0,-0.0006075870628903246
3423.0,-0.0005208409361854294
3422.0,-0.0003906892499099257
3421.0,-0.0002604985473904087
3420.0,-0.00021709297223004853
3419.0,-0.0002604985473904087
3418.0,-0.0003472966853634851
3417.0,-0.0003472966853634851
3416.0,-0.0003472966853634851
3415.0,-0.0003906892499099257
3414.0,-0.00043407747931878404
3413.0,-0.0005208409361854294
3412.0,-0.00043407747931878404
3411.0,-0.00021709297223004853
3410.0,4.343161980746579e-05
3409.0,0.00021720154586435392
3408.0,0.00026065489343207737
3407.0,0.0001303078917322953
3406.0,4.343161980746579e-05
3405.0,0.0
3404.0,4.343161980746579e-05
3403.0,0.0001303078917322953
3402.0,8.686758342868472e-05
3401.0,0.0
3400.0,-0.00017368305846510168
3399.0,-0.0003472966853634851
3398.0,-0.0004774613744551459
3397.0,-0.0005208409361854294
3396.0,-0.0005642161653756084
3395.0,-0.0005642161653756084
3394.0,-0.0005642161653756084
3393.0,-0.0005642161653756084
3392.0,-0.0004774613744551459
3391.0,-0.00043407747931878404
3390.0,-0.00043407747931878404
3389.0,-0.0004774613744551459
3388.0,-0.0005208409361854294
3387.0,-0.0005208409361854294
3386.0,-0.0004774613744551459
3385.0,-0.0005208409361854294
3384.0,-0.0005642161653756084
3383.0,-0.0006509536295951079
3382.0,-0.0006075870628903246
3381.0,-0.0005208409361854294
3380.0,-0.00043407747931878404
3379.0,-0.0004774613744551459
3378.0,-0.0006075870628903246
3377.0,-0.0008243766056055257
3376.0,-0.0008677215312267172
3375.0,-0.0008243766056055257
3374.0,-0.0006075870628903246
3373.0,-0.00043407747931878404
3372.0,-0.0003472966853634851
3371.0,-0.0003906892499099257
3370.0,-0.0005642161653756084
3369.0,-0.0006943158663546001
3368.0,-0.0007810273534953893
3367.0,-0.0008243766056055257
3366.0,-0.0008243766056055257
3365.0,-0.0007810273534953893
3364.0,-0.0007376737740329986
3363.0,-0.0007376737740329986
3362.0,-0.0006509536295951079
3361.0,-0.0005642161653756084
3360.0,-0.0004774613744551459
3359.0,-0.00043407747931878404
3358.0,-0.0004774613744551459
3357.0,-0.0005208409361854294
3356.0,-0.0005208409361854294
3355.0,-0.0004774613744551459
3354.0,-0.0004774613744551459
3353.0,-0.0005208409361854294
3352.0,-0.0005208409361854294
3351.0,-0.0004774613744551459
3350.0,-0.0004774613744551459
3349.0,-0.0004774613744551459
3348.0,-0.0005642161653756084
3347.0,-0.0005642161653756084
3346.0,-0.0005208409361854294
3345.0,-0.0004774613744551459
3344.0,-0.0003472966853634851
3343.0,-0.00021709297223004853
3342.0,-8.685021164911433e-05
3341.0,-4.3427276862573194e-05
3340.0,-4.3427276862573194e-05
3339.0,-0.00013026880522692963
3338.0,-0.00021709297223004853
3337.0,-0.0003472966853634851
3336.0,-0.00043407747931878404
3335.0,-0.0004774613744551459
3334.0,-0.0005208409361854294
3333.0,-0.0004774613744551459
3332.0,-0.0003906892499099257
3331.0,-0.00030389978481260016
3330.0,-0.00030389978481260016
3329.0,-0.0003472966853634851
3328.0,-0.0004774613744551459
3327.0,-0.0005642161653756084
3326.0,-0.0006509536295951079
3325.0,-0.0006509536295951079
3324.0,-0.0006509536295951079
3323.0,-0.0006509536295951079
3322.0,-0.0006943158663546001
3321.0,-0.0007810273534953893
3320.0,-0.0008677215312267172
3319.0,-0.0009110621312231615
3318.0,-0.0008243766056055257
3317.0,-0.0006509536295951079
3316.0,-0.0004774613744551459
3315.0,-0.0003472966853634851
3314.0,-0.0003472966853634851
3313.0,-0.00043407747931878404
3312.0,-0.0005208409361854294
3311.0,-0.0005208409361854294
3310.0,-0.0004774613744551459
3309.0,-0.0003472966853634851
3308.0,-0.00030389978481260016
3307.0,-0.0003472966853634851
3306.0,-0.0003906892499099257
3305.0,-0.00043407747931878404
3304.0,-0.00043407747931878404
3303.0,-0.00043407747931878404
3302.0,-0.00043407747931878404
3301.0,-0.0004774613744551459
3300.0,-0.0004774613744551459
3299.0,-0.0005208409361854294
3298.0,-0.0005208409361854294
3297.0,-0.0006075870628903246
3296.0,-0.0006509536295951079
3295.0,-0.0007376737740329986
3294.0,-0.0007376737740329986
3293.0,-0.0006509536295951079
3292.0,-0.0005642161653756084
3291.0,-0.00043407747931878404
3290.0,-0.0003906892499099257
3289.0,-0.0003472966853634851
3288.0,-0.0003472966853634851
3287.0,-0.0003906892499099257
3286.0,-0.0004774613744551459
3285.0,-0.0005208409361854294
3284.0,-0.0005208409361854294
3283.0,-0.0004774613744551459
3282.0,-0.0003906892499099257
3281.0,-0.00030389978481260016
3280.0,-0.0002604985473904087
3279.0,-0.0002604985473904087
3278.0,-0.00030389978481260016
3277.0,-0.00043407747931878404
3276.0,-0.0005208409361854294
3275.0,-0.0006075870628903246
3274.0,-0.0006509536295951079
3273.0,-0.0006509536295951079
3272.0,-0.0006943158663546001
3271.0,-0.0007376737740329986
3270.0,-0.0008243766056055257
3269.0,-0.0007810273534953893
3268.0,-0.0007376737740329986
3267.0,-0.0006509536295951079
3266.0,-0.0006075870628903246
3265.0,-0.0005208409361854294
3264.0,-0.0004774613744551459
3263.0,-0.0004774613744551459
3262.0,-0.0005208409361854294
3261.0,-0.0005208409361854294
3260.0,-0.0005208409361854294
3259.0,-0.0005208409361854294
3258.0,-0.0005208409361854294
3257.0,-0.0004774613744551459
3256.0,-0.00043407747931878404
3255.0,-0.0003906892499099257
3254.0,-0.0003906892499099257
3253.0,-0.00043407747931878404
3252.0,-0.0004774613744551459
3251.0,-0.0004774613744551459
3250.0,-0.00043407747931878404
3249.0,-0.00043407747931878404
3248.0,-0.00043407747931878404
3247.0,-0.0004774613744551459
3246.0,-0.0005642161653756084
3245.0,-0.0005208409361854294
3244.0,-0.00043407747931878404
3243.0,-0.00030389978481260016
3242.0,-0.00021709297223004853
3241.0,-0.00021709297223004853
3240.0,-0.00030389978481260016
3239.0,-0.0003472966853634851
3238.0,-0.0003906892499099257
3237.0,-0.0003472966853634851
3236.0,-0.0003906892499099257
3235.0,-0.00043407747931878404
3234.0,-0.0005208409361854294
3233.0,-0.0005642161653756084
3232.0,-0.0005208409361854294
3231.0,-0.00043407747931878404
3230.0,-0.0003906892499099257
3229.0,-0.0003906892499099257
3228.0,-0.00043407747931878404
3227.0,-0.0004774613744551459
3226.0,-0.0006075870628903246
3225.0,-0.0006943158663546001
3224.0,-0.0007376737740329986
3223.0,-0.0006943158663546001
3222.0,-0.0005208409361854294
3221.0,-0.0003906892499099257
3220.0,-0.0003906892499099257
3219.0,-0.00043407747931878404
3218.0,-0.0005208409361854294
3217.0,-0.0005208409361854294
3216.0,-0.00043407747931878404
3215.0,-0.0003472966853634851
3214.0,-0.0003906892499099257
3213.0,-0.0004774613744551459
3212.0,-0.0006075870628903246
3211.0,-0.0006943158663546001
3210.0,-0.0007810273534953893
3209.0,-0.0008243766056055257
3208.0,-0.0008243766056055257
3207.0,-0.0008243766056055257
3206.0,-0.0008243766056055257
3205.0,-0.0008243766056055257
3204.0,-0.0007810273534953893
3203.0,-0.0006943158663546001
3202.0,-0.0006509536295951079
3201.0,-0.0006075870628903246
3200.0,-0.0006075870628903246
3199.0,-0.0005642161653756084
3198.0,-0.0005208409361854294
3197.0,-0.0004774613744551459
3196.0,-0.0005208409361854294
3195.0,-0.0006075870628903246
3194.0,-0.0006943158663546001
3193.0,-0.0007376737740329986
3192.0,-0.0007810273534953893
3191.0,-0.0007810273534953893
3190.0,-0.0008243766056055257
3189.0,-0.0008677215312267172
3188.0,-0.0009110621312231615
3187.0,-0.0009110621312231615
3186.0,-0.0009543984064577238
3185.0,-0.001041057986093552
3184.0,-0.0011277002770349043
3183.0,-0.0011277002770349043
3182.0,-0.0010843812922201046
3181.0,-0.0009977303577937136
3180.0,-0.0008677215312267172
3179.0,-0.0008243766056055257
3178.0,-0.0007810273534953893
3177.0,-0.0007810273534953893
3176.0,-0.0007810273534953893
3175.0,-0.0007376737740329986
3174.0,-0.0006943158663546001
3173.0,-0.0006509536295951079
3172.0,-0.0006509536295951079
3171.0,-0.0006509536295951079
3170.0,-0.0007376737740329986
3169.0,-0.0007810273534953893
3168.0,-0.0007810273534953893
3167.0,-0.0007810273534953893
3166.0,-0.0008243766056055257
3165.0,-0.0008677215312267172
3164.0,-0.0009543984064577238
3163.0,-0.001041057986093552
3162.0,-0.001041057986093552
3161.0,-0.001041057986093552
3160.0,-0.001041057986093552
3159.0,-0.001041057986093552
3158.0,-0.001041057986093552
3157.0,-0.001041057986093552
3156.0,-0.001041057986093552
3155.0,-0.0009977303577937136
3154.0,-0.001041057986093552
3153.0,-0.0010843812922201046
3152.0,-0.0011710149414008164
3151.0,-0.00121432528617893
3150.0,-0.00121432528617893
3149.0,-0.0011710149414008164
3148.0,-0.0011277002770349043
3147.0,-0.0011277002770349043
3146.0,-0.0011710149414008164
3145.0,-0.00121432528617893
3144.0,-0.00121432528617893
3143.0,-0.0011277002770349043
3142.0,-0.0009977303577937136
3141.0,-0.0009110621312231615
3140.0,-0.0008677215312267172
3139.0,-0.0008677215312267172
3138.0,-0.0008677215312267172
3137.0,-0.0008677215312267172
3136.0,-0.0008243766056055257
3135.0,-0.0008243766056055257
3134.0,-0.0008243766056055257
3133.0,-0.0009110621312231615
3132.0,-0.0009543984064577238
3131.0,-0.001041057986093552
3130.0,-0.0010843812922201046
3129.0,-0.0009977303577937136
3128.0,-0.0009110621312231615
3127.0,-0.0007810273534953893
3126.0,-0.0006943158663546001
3125.0,-0.0006509536295951079
3124.0,-0.0006509536295951079
3123.0,-0.0006943158663546001
3122.0,-0.0007810273534953893
3121.0,-0.0009110621312231615
3120.0,-0.001041057986093552
3119.0,-0.001041057986093552
3118.0,-0.0010843812922201046
3117.0,-0.0011277002770349043
3116.0,-0.001257631312230778
3115.0,-0.001344230411601366
3114.0,-0.0013875234866409514
3113.0,-0.0013009330204178937
3112.0,-0.0011710149414008164
3111.0,-0.0010843812922201046
3110.0,-0.001041057986093552
3109.0,-0.0010843812922201046
3108.0,-0.0010843812922201046
3107.0,-0.00121432528617893
3106.0,-0.001344230411601366
3105.0,-0.0015173768235041685
3104.0,-0.0016039241497978196
3103.0,-0.0015606526425728795
3102.0,-0.0013875234866409514
3101.0,-0.0011710149414008164
3100.0,-0.0009977303577937136
3099.0,-0.0009543984064577238
3098.0,-0.0009977303577937136
3097.0,-0.0010843812922201046
3096.0,-0.0011277002770349043
3095.0,-0.0010843812922201046
3094.0,-0.0009977303577937136
3093.0,-0.0009977303577937136
3092.0,-0.0009977303577937136
3091.0,-0.0009977303577937136
3090.0,-0.001041057986093552
3089.0,-0.0009977303577937136
3088.0,-0.0009543984064577238
3087.0,-0.0008677215312267172
3086.0,-0.0007810273534953893
3085.0,-0.0007810273534953893
3084.0,-0.0008677215312267172
3083.0,-0.0009977303577937136
3082.0,-0.0011277002770349043
3081.0,-0.0011710149414008164
3080.0,-0.0011710149414008164
3079.0,-0.0010843812922201046
3078.0,-0.0009977303577937136
3077.0,-0.0009110621312231615
3076.0,-0.0008243766056055257
3075.0,-0.0007810273534953893
3074.0,-0.0007810273534953893
3073.0,-0.0007376737740329986
3072.0,-0.0007810273534953893
3071.0,-0.0008243766056055257
3070.0,-0.0008677215312267172
3069.0,-0.0009543984064577238
3068.0,-0.001041057986093552
3067.0,-0.001041057986093552
3066.0,-0.0009977303577937136
3065.0,-0.0009110621312231615
3064.0,-0.0008677215312267172
3063.0,-0.0008677215312267172
3062.0,-0.0009543984064577238
3061.0,-0.001041057986093552
3060.0,-0.0010843812922201046
3059.0,-0.0010843812922201046
3058.0,-0.001041057986093552
3057.0,-0.0009543984064577238
3056.0,-0.0008677215312267172
3055.0,-0.0007376737740329986
3054.0,-0.0006075870628903246
3053.0,-0.0005642161653756084
3052.0,-0.0005208409361854294
3051.0,-0.0005642161653756084
3050.0,-0.0006943158663546001
3049.0,-0.0008243766056055257
3048.0,-0.0009110621312231615
3047.0,-0.0009110621312231615
3046.0,-0.0009110621312231615
3045.0,-0.0009110621312231615
3044.0,-0.0008243766056055257
3043.0,-0.0007810273534953893
3042.0,-0.0006943158663546001
3041.0,-0.0006075870628903246
3040.0,-0.0005208409361854294
3039.0,-0.0004774613744551459
3038.0,-0.00043407747931878404
3037.0,-0.0004774613744551459
3036.0,-0.0005642161653756084
3035.0,-0.0006075870628903246
3034.0,-0.0006075870628903246
3033.0,-0.0005208409361854294
3032.0,-0.0003906892499099257
3031.0,-0.0003472966853634851
3030.0,-0.0002604985473904087
3029.0,-0.00017368305846510168
3028.0,0.0
3027.0,0.00017375254558760211
3026.0,0.0003475746339209884
3025.0,0.000521466320689834
3024.0,0.0008259444115150671
3023.0,0.0012177301682640973
3022.0,0.0016534626036355249
3021.0,0.0020459959305969555
3020.0,0.002395212539545666
3019.0,0.002701007590486082
3018.0,0.0030070181092942683
3017.0,0.0033132443998284966
3016.0,0.003707281458678491
3015.0,0.004101676353562844
3014.0,0.00458420145758498
3013.0,0.005243055412371911
3012.0,0.005946936412324799
3011.0,0.006696062080525422
3010.0,0.0074464821678643656
3009.0,0.008198201155356077
3008.0,0.009039900317800775
3007.0,0.009927665307847056
3006.0,0.01086177578421088
3005.0,0.011797899741219142
3004.0,0.012691326268817527
3003.0,0.013541787262693505
3002.0,0.014349026309051105
3001.0,0.015112798935672522
3000.0,0.015832872853011715
2999.0,0.016418813294209356
2998.0,0.016870075265299933
2997.0,0.01727661233145472
2996.0,0.01759307113620534
2995.0,0.017638298366853045
2994.0,0.017321806616515723
2993.0,0.016644385668211692
2992.0,0.015652742414136167
2991.0,0.01452861671041239
2990.0,0.013317820220494436
2989.0,0.012110390002254778
2988.0,0.010906307389674463
2987.0,0.00974996707218323
2986.0,0.008596697419959609
2985.0,0.007667440952535687
2984.0,0.006916639301937977
2983.0,0.006387442061109638
2982.0,0.005946936412324799
2981.0,0.005550862985963967
2980.0,0.005155150446602086
2979.0,0.004803708402820517
2978.0,0.004540313378935901
2977.0,0.0043648054024501
2976.0,0.004233220950025984
2975.0,0.004101676353562844
2974.0,0.003926345514724705
2973.0,0.003794893821675638
2972.0,0.003794893821675638
2971.0,0.0038825238627120395
2970.0,0.00401400208620073
2969.0,0.004189368323957332
2968.0,0.0043648054024501
2967.0,0.00458420145758498
2966.0,0.004715892310740433
2965.0,0.004935465843858511
2964.0,0.005155150446602086
2963.0,0.00541891874010525
2962.0,0.005682847330363394
2961.0,0.00590291041179003
2960.0,0.006167133386013823
2959.0,0.006519680930003435
2958.0,0.006916639301937977
2957.0,0.0074464821678643656
2956.0,0.008109696063975047
2955.0,0.008818242332126802
2954.0,0.009572341514736404
2953.0,0.010283280051895272
2952.0,0.011039929609661936
2951.0,0.011797899741219142
2950.0,0.01260190086298274
2949.0,0.013317820220494436
2948.0,0.013990068146738865
2947.0,0.014438812226654996
2946.0,0.014663358264387139
2945.0,0.014573525916998342
2944.0,0.014259258949925524
2943.0,0.013631406429727155
2942.0,0.012736045877764557
2941.0,0.011619434777991433
2940.0,0.010416710688994968
2939.0,0.009350411681145587
2938.0,0.008463824699968647
2937.0,0.007667440952535687
2936.0,0.006916639301937977
2935.0,0.00621118618129457
2934.0,0.005550862985963967
2933.0,0.005067263269958211
2932.0,0.004671990922590297
2931.0,0.004277078004534696
2930.0,0.0038825238627120395
2929.0,0.0034007772998332353
2928.0,0.0029632891174733444
2927.0,0.002569926202528716
2926.0,0.0022642234021015284
2925.0,0.0020459959305969555
2924.0,0.0018714928717336043
2923.0,0.0017406615763013722
2922.0,0.001609869681952425
2921.0,0.0014791171649619628
2920.0,0.001348404001626502
2919.0,0.0012612837441823288
2918.0,0.0011741809597138886
2917.0,0.0010870956412141197
2916.0,0.0010000277816797354
2915.0,0.000869458712629001
2914.0,0.0007824344698965646
2913.0,0.0006954276616513155
2912.0,0.0006084382809090627
2911.0,0.0005649501236701937
2910.0,0.0004779868710962365
2909.0,0.0003910410285830057
2908.0,0.00030411258916074324
2907.0,0.00017375254558760211
2906.0,8.686758342868472e-05
2905.0,4.343161980746579e-05
2904.0,0.0
2903.0,0.0
2902.0,-8.685021164911433e-05
2901.0,-0.00013026880522692963
2900.0,-0.00013026880522692963
2899.0,-0.00013026880522692963
2898.0,-0.00013026880522692963
2897.0,-8.685021164911433e-05
2896.0,-4.3427276862573194e-05
2895.0,0.0
2894.0,4.343161980746579e-05
2893.0,0.0001303078917322953
2892.0,0.00021720154586435392
2891.0,0.00030411258916074324
2890.0,0.0004779868710962365
2889.0,0.0006954276616513155
2888.0,0.0009129773741116676
2887.0,0.0010870956412141197
2886.0,0.0011741809597138886
2885.0,0.001304841688344327
2884.0,0.0014791171649619628
2883.0,0.0016970599014589638
2882.0,0.0018278780605593958
2881.0,0.001915112063444413
2880.0,0.0019587356365717845
2879.0,0.001915112063444413
2878.0,0.0018278780605593958
2877.0,0.001609869681952425
2876.0,0.001348404001626502
2875.0,0.0010000277816797354
2874.0,0.0006084382809090627
2873.0,0.00021720154586435392
2872.0,-0.00017368305846510168
2871.0,-0.0005208409361854294
2870.0,-0.0007376737740329986
2869.0,-0.0008677215312267172
2868.0,-0.0008677215312267172
2867.0,-0.0008677215312267172
2866.0,-0.0008677215312267172
2865.0,-0.0008243766056055257
2864.0,-0.0007810273534953893
2863.0,-0.0007810273534953893
2862.0,-0.0007810273534953893
2861.0,-0.0007810273534953893
2860.0,-0.0007376737740329986
2859.0,-0.0006509536295951079
2858.0,-0.0005642161653756084
2857.0,-0.0006075870628903246
2856.0,-0.0006943158663546001
2855.0,-0.0008243766056055257
2854.0,-0.0009110621312231615
2853.0,-0.0009110621312231615
2852.0,-0.0008677215312267172
2851.0,-0.0007376737740329986
2850.0,-0.0006509536295951079
2849.0,-0.0006075870628903246
2848.0,-0.0006509536295951079
2847.0,-0.0007376737740329986
2846.0,-0.0008243766056055257
2845.0,-0.0009543984064577238
2844.0,-0.001041057986093552
2843.0,-0.0010843812922201046
2842.0,-0.001041057986093552
2841.0,-0.0009543984064577238
2840.0,-0.0008243766056055257
2839.0,-0.0007376737740329986
2838.0,-0.0007376737740329986
2837.0,-0.0006943158663546001
2836.0,-0.0006509536295951079
2835.0,-0.0006509536295951079
2834.0,-0.0006509536295951079
2833.0,-0.0006943158663546001
2832.0,-0.0006943158663546001
2831.0,-0.0006943158663546001
2830.0,-0.0006943158663546001
2829.0,-0.0006509536295951079
2828.0,-0.0006075870628903246
2827.0,-0.0006509536295951079
2826.0,-0.0006943158663546001
2825.0,-0.0006943158663546001
2824.0,-0.0006943158663546001
2823.0,-0.0006943158663546001
2822.0,-0.0007376737740329986
2821.0,-0.0007376737740329986
2820.0,-0.0008243766056055257
2819.0,-0.0008677215312267172
2818.0,-0.0008677215312267172
2817.0,-0.0008677215312267172
2816.0,-0.0008677215312267172
2815.0,-0.0009110621312231615
2814.0,-0.0009977303577937136
2813.0,-0.0010843812922201046
2812.0,-0.0010843812922201046
2811.0,-0.0010843812922201046
2810.0,-0.0011277002770349043
2809.0,-0.0011277002770349043
2808.0,-0.0011277002770349043
2807.0,-0.0011277002770349043
2806.0,-0.0010843812922201046
2805.0,-0.0011277002770349043
2804.0,-0.0011710149414008164
2803.0,-0.001257631312230778
2802.0,-0.001344230411601366
2801.0,-0.0013875234866409514
2800.0,-0.001344230411601366
2799.0,-0.001257631312230778
2798.0,-0.0011710149414008164
2797.0,-0.001041057986093552
2796.0,-0.0009977303577937136
2795.0,-0.001041057986093552
2794.0,-0.0011710149414008164
2793.0,-0.001344230411601366
2792.0,-0.0015173768235041685
2791.0,-0.0015606526425728795
2790.0,-0.0015173768235041685
2789.0,-0.001474096691732818
2788.0,-0.0014308122463981832
2787.0,-0.0013875234866409514
2786.0,-0.0013875234866409514
2785.0,-0.0014308122463981832
2784.0,-0.0015173768235041685
2783.0,-0.0016471913460383014
2782.0,-0.001733712809000476
2781.0,-0.0016904542321527494
2780.0,-0.0016039241497978196
2779.0,-0.0015173768235041685
2778.0,-0.0015173768235041685
2777.0,-0.0015606526425728795
2776.0,-0.0016471913460383014
2775.0,-0.0016904542321527494
2774.0,-0.0016471913460383014
2773.0,-0.0015606526425728795
2772.0,-0.001474096691732818
2771.0,-0.001474096691732818
2770.0,-0.0015606526425728795
2769.0,-0.0016471913460383014
2768.0,-0.001733712809000476
2767.0,-0.001733712809000476
2766.0,-0.0016904542321527494
2765.0,-0.0016039241497978196
2764.0,-0.001474096691732818
2763.0,-0.0013875234866409514
2762.0,-0.0013875234866409514
2761.0,-0.0014308122463981832
2760.0,-0.001474096691732818
2759.0,-0.001474096691732818
2758.0,-0.0015173768235041685
2757.0,-0.0015606526425728795
2756.0,-0.0016471913460383014
2755.0,-0.0016471913460383014
2754.0,-0.0016039241497978196
2753.0,-0.001474096691732818
2752.0,-0.0013875234866409514
2751.0,-0.0013875234866409514
2750.0,-0.0014308122463981832
2749.0,-0.001474096691732818
2748.0,-0.001474096691732818
2747.0,-0.001474096691732818
2746.0,-0.001474096691732818
2745.0,-0.0015173768235041685
2744.0,-0.0015173768235041685
2743.0,-0.0016039241497978196
2742.0,-0.0016904542321527494
2741.0,-0.001733712809000476
2740.0,-0.0016471913460383014
2739.0,-0.0015173768235041685
2738.0,-0.0013875234866409514
2737.0,-0.001344230411601366
2736.0,-0.001344230411601366
2735.0,-0.0013875234866409514
2734.0,-0.0014308122463981832
2733.0,-0.0014308122463981832
2732.0,-0.0015173768235041685
2731.0,-0.0016039241497978196
2730.0,-0.001733712809000476
2729.0,-0.001776967077439462
2728.0,-0.001776967077439462
2727.0,-0.001733712809000476
2726.0,-0.0016471913460383014
2725.0,-0.0016039241497978196
2724.0,-0.0015173768235041685
2723.0,-0.0014308122463981832
2722.0,-0.0013009330204178937
2721.0,-0.0011710149414008164
2720.0,-0.001041057986093552
2719.0,-0.0009977303577937136
2718.0,-0.0009977303577937136
2717.0,-0.0009977303577937136
2716.0,-0.001041057986093552
2715.0,-0.0011277002770349043
2714.0,-0.0011277002770349043
2713.0,-0.0011277002770349043
2712.0,-0.0011277002770349043
2711.0,-0.00121432528617893
2710.0,-0.0013875234866409514
2709.0,-0.0015173768235041685
2708.0,-0.0015606526425728795
2707.0,-0.0015173768235041685
2706.0,-0.0014308122463981832
2705.0,-0.001344230411601366
2704.0,-0.001257631312230778
2703.0,-0.001257631312230778
2702.0,-0.001344230411601366
2701.0,-0.0013875234866409514
2700.0,-0.0014308122463981832
2699.0,-0.0014308122463981832
2698.0,-0.0013875234866409514
2697.0,-0.001344230411601366
2696.0,-0.001257631312230778
2695.0,-0.001257631312230778
2694.0,-0.001344230411601366
2693.0,-0.0013875234866409514
2692.0,-0.001474096691732818
2691.0,-0.001474096691732818
2690.0,-0.001474096691732818
2689.0,-0.0014308122463981832
2688.0,-0.001344230411601366
2687.0,-0.0011710149414008164
2686.0,-0.0011277002770349043
2685.0,-0.0010843812922201046
2684.0,-0.0011710149414008164
2683.0,-0.001257631312230778
2682.0,-0.0013009330204178937
2681.0,-0.001344230411601366
2680.0,-0.0013009330204178937
2679.0,-0.001257631312230778
2678.0,-0.00121432528617893
2677.0,-0.00121432528617893
2676.0,-0.00121432528617893
2675.0,-0.00121432528617893
2674.0,-0.0011277002770349043
2673.0,-0.001041057986093552
2672.0,-0.0009977303577937136
2671.0,-0.0009977303577937136
2670.0,-0.0010843812922201046
2669.0,-0.0011277002770349043
2668.0,-0.0011710149414008164
2667.0,-0.0011710149414008164
2666.0,-0.0011710149414008164
2665.0,-0.00121432528617893
2664.0,-0.001257631312230778
2663.0,-0.0013009330204178937
2662.0,-0.0013009330204178937
2661.0,-0.0013009330204178937
2660.0,-0.00121432528617893
2659.0,-0.0011710149414008164
2658.0,-0.0011277002770349043
2657.0,-0.0010843812922201046
2656.0,-0.001041057986093552
2655.0,-0.001041057986093552
2654.0,-0.0009977303577937136
2653.0,-0.0009977303577937136
2652.0,-0.0009977303577937136
2651.0,-0.001041057986093552
2650.0,-0.0010843812922201046
2649.0,-0.0011277002770349043
2648.0,-0.0011277002770349043
2647.0,-0.0011277002770349043
2646.0,-0.0010843812922201046
2645.0,-0.0010843812922201046
2644.0,-0.0010843812922201046
2643.0,-0.0010843812922201046
2642.0,-0.0010843812922201046
2641.0,-0.0010843812922201046
2640.0,-0.0011277002770349043
2639.0,-0.0011277002770349043
2638.0,-0.0011710149414008164
2637.0,-0.0011710149414008164
2636.0,-0.0011277002770349043
2635.0,-0.0011710149414008164
2634.0,-0.0011710149414008164
2633.0,-0.00121432528617893
2632.0,-0.001257631312230778
2631.0,-0.001257631312230778
2630.0,-0.001257631312230778
2629.0,-0.001257631312230778
2628.0,-0.00121432528617893
2627.0,-0.00121432528617893
2626.0,-0.00121432528617893
2625.0,-0.001257631312230778
2624.0,-0.001257631312230778
2623.0,-0.001257631312230778
2622.0,-0.001257631312230778
2621.0,-0.0013009330204178937
2620.0,-0.0013009330204178937
2619.0,-0.0013009330204178937
2618.0,-0.0013009330204178937
2617.0,-0.0013009330204178937
2616.0,-0.001257631312230778
2615.0,-0.001257631312230778
2614.0,-0.001257631312230778
2613.0,-0.0013009330204178937
2612.0,-0.0013009330204178937
2611.0,-0.0013009330204178937
2610.0,-0.001257631312230778
2609.0,-0.00121432528617893
2608.0,-0.0011710149414008164
2607.0,-0.0011710149414008164
2606.0,-0.001257631312230778
2605.0,-0.0013875234866409514
2604.0,-0.0014308122463981832
2603.0,-0.001474096691732818
2602.0,-0.0014308122463981832
2601.0,-0.001344230411601366
2600.0,-0.001257631312230778
2599.0,-0.001257631312230778
2598.0,-0.0013009330204178937
2597.0,-0.001344230411601366
2596.0,-0.001344230411601366
2595.0,-0.0013009330204178937
2594.0,-0.00121432528617893
2593.0,-0.0011710149414008164
2592.0,-0.0011710149414008164
2591.0,-0.001257631312230778
2590.0,-0.001344230411601366
2589.0,-0.001344230411601366
2588.0,-0.0013009330204178937
2587.0,-0.00121432528617893
2586.0,-0.0011277002770349043
2585.0,-0.0010843812922201046
2584.0,-0.0010843812922201046
2583.0,-0.0011277002770349043
2582.0,-0.00121432528617893
2581.0,-0.0013009330204178937
2580.0,-0.001344230411601366
2579.0,-0.0014308122463981832
2578.0,-0.001474096691732818
2577.0,-0.0015173768235041685
2576.0,-0.001474096691732818
2575.0,-0.0014308122463981832
2574.0,-0.0013875234866409514
2573.0,-0.001344230411601366
2572.0,-0.0013009330204178937
2571.0,-0.0013009330204178937
2570.0,-0.001344230411601366
2569.0,-0.0013875234866409514
2568.0,-0.0014308122463981832
2567.0,-0.001474096691732818
2566.0,-0.0015173768235041685
2565.0,-0.0015173768235041685
2564.0,-0.0015173768235041685
2563.0,-0.001474096691732818
2562.0,-0.0014308122463981832
2561.0,-0.0014308122463981832
2560.0,-0.0014308122463981832
2559.0,-0.0014308122463981832
2558.0,-0.001474096691732818
2557.0,-0.0015173768235041685
2556.0,-0.0015606526425728795
2555.0,-0.0016039241497978196
2554.0,-0.0016039241497978196
2553.0,-0.0016039241497978196
2552.0,-0.0016039241497978196
2551.0,-0.0016471913460383014
2550.0,-0.0016471913460383014
2549.0,-0.0016039241497978196
2548.0,-0.001474096691732818
2547.0,-0.0013875234866409514
2546.0,-0.001344230411601366
2545.0,-0.001344230411601366
2544.0,-0.001344230411601366
2543.0,-0.0013875234866409514
2542.0,-0.0014308122463981832
2541.0,-0.001474096691732818
2540.0,-0.0015173768235041685
2539.0,-0.0015173768235041685
2538.0,-0.0015173768235041685
2537.0,-0.0015173768235041685
2536.0,-0.001474096691732818
2535.0,-0.001474096691732818
2534.0,-0.001474096691732818
2533.0,-0.001474096691732818
2532.0,-0.001474096691732818
2531.0,-0.001474096691732818
2530.0,-0.0015173768235041685
2529.0,-0.0015173768235041685
2528.0,-0.0015173768235041685
2527.0,-0.0015173768235041685
2526.0,-0.001474096691732818
2525.0,-0.001474096691732818
2524.0,-0.0014308122463981832
2523.0,-0.0013875234866409514
2522.0,-0.001344230411601366
2521.0,-0.001344230411601366
2520.0,-0.001344230411601366
2519.0,-0.0013875234866409514
2518.0,-0.0014308122463981832
2517.0,-0.001474096691732818
2516.0,-0.0015173768235041685
2515.0,-0.0015173768235041685
2514.0,-0.0015173768235041685
2513.0,-0.0015606526425728795
2512.0,-0.0015606526425728795
2511.0,-0.0015606526425728795
2510.0,-0.0015606526425728795
2509.0,-0.001474096691732818
2508.0,-0.0013875234866409514
2507.0,-0.0013009330204178937
2506.0,-0.001257631312230778
2505.0,-0.0013009330204178937
2504.0,-0.0014308122463981832
2503.0,-0.0015606526425728795
2502.0,-0.0016471913460383014
2501.0,-0.0016471913460383014
2500.0,-0.0016039241497978196
2499.0,-0.0016039241497978196
2498.0,-0.0016471913460383014
2497.0,-0.0016471913460383014
2496.0,-0.0016039241497978196
2495.0,-0.0015606526425728795
2494.0,-0.0015173768235041685
2493.0,-0.0015606526425728795
2492.0,-0.0016039241497978196
2491.0,-0.0016904542321527494
2490.0,-0.001776967077439462
2489.0,-0.0018202170383281313
2488.0,-0.001776967077439462
2487.0,-0.001776967077439462
2486.0,-0.001776967077439462
2485.0,-0.001776967077439462
2484.0,-0.0016904542321527494
2483.0,-0.0015606526425728795
2482.0,-0.0014308122463981832
2481.0,-0.001344230411601366
2480.0,-0.0013875234866409514
2479.0,-0.0014308122463981832
2478.0,-0.0015606526425728795
2477.0,-0.0016039241497978196
2476.0,-0.0016471913460383014
2475.0,-0.0016039241497978196
2474.0,-0.0015606526425728795
2473.0,-0.0016039241497978196
2472.0,-0.0016904542321527494
2471.0,-0.001776967077439462
2470.0,-0.0018202170383281313
2469.0,-0.001776967077439462
2468.0,-0.001776967077439462
2467.0,-0.0018202170383281313
2466.0,-0.0018634626925240205
2465.0,-0.0018202170383281313
2464.0,-0.001776967077439462
2463.0,-0.001776967077439462
2462.0,-0.001776967077439462
2461.0,-0.001776967077439462
2460.0,-0.001776967077439462
2459.0,-0.001776967077439462
2458.0,-0.001733712809000476
2457.0,-0.0016904542321527494
2456.0,-0.0016471913460383014
2455.0,-0.0016471913460383014
2454.0,-0.0016471913460383014
2453.0,-0.0016471913460383014
2452.0,-0.0016471913460383014
2451.0,-0.0016471913460383014
2450.0,-0.0016471913460383014
2449.0,-0.0016904542321527494
2448.0,-0.0016904542321527494
2447.0,-0.001733712809000476
2446.0,-0.001733712809000476
2445.0,-0.0016904542321527494
2444.0,-0.0016039241497978196
2443.0,-0.0015173768235041685
2442.0,-0.001474096691732818
2441.0,-0.001474096691732818
2440.0,-0.001474096691732818
2439.0,-0.001474096691732818
2438.0,-0.001474096691732818
2437.0,-0.0014308122463981832
2436.0,-0.0013875234866409514
2435.0,-0.0014308122463981832
2434.0,-0.001474096691732818
2433.0,-0.001474096691732818
2432.0,-0.001474096691732818
2431.0,-0.001474096691732818
2430.0,-0.001474096691732818
2429.0,-0.0013875234866409514
2428.0,-0.001257631312230778
2427.0,-0.0011277002770349043
2426.0,-0.001041057986093552
2425.0,-0.0010843812922201046
2424.0,-0.0011277002770349043
2423.0,-0.0011710149414008164
2422.0,-0.0011710149414008164
2421.0,-0.0011710149414008164
2420.0,-0.0011277002770349043
2419.0,-0.0010843812922201046
2418.0,-0.0010843812922201046
2417.0,-0.001041057986093552
2416.0,-0.001041057986093552
2415.0,-0.001041057986093552
2414.0,-0.0011277002770349043
2413.0,-0.00121432528617893
2412.0,-0.00121432528617893
2411.0,-0.0011277002770349043
2410.0,-0.0010843812922201046
2409.0,-0.001041057986093552
2408.0,-0.0009977303577937136
2407.0,-0.0009977303577937136
2406.0,-0.0009543984064577238
2405.0,-0.0009110621312231615
2404.0,-0.0008243766056055257
2403.0,-0.0007810273534953893
2402.0,-0.0007810273534953893
2401.0,-0.0007810273534953893
2400.0,-0.0008243766056055257
2399.0,-0.0009110621312231615
2398.0,-0.0009977303577937136
2397.0,-0.0009977303577937136
2396.0,-0.0009543984064577238
2395.0,-0.0008677215312267172
2394.0,-0.0008243766056055257
2393.0,-0.0008243766056055257
2392.0,-0.0007810273534953893
2391.0,-0.0007810273534953893
2390.0,-0.0008243766056055257
2389.0,-0.0008243766056055257
2388.0,-0.0008677215312267172
2387.0,-0.0008677215312267172
2386.0,-0.0009110621312231615
2385.0,-0.0009110621312231615
2384.0,-0.0009110621312231615
2383.0,-0.0009977303577937136
2382.0,-0.0011277002770349043
2381.0,-0.0013875234866409514
2380.0,-0.0016471913460383014
2379.0,-0.0019067040408846658
2378.0,-0.0020364022595291686
2377.0,-0.0019499410842680476
2376.0,-0.0019067040408846658
2375.0,-0.0021228462251614566
2374.0,-0.002597980719908577
2373.0,-0.0030725959676747294
2372.0,-0.003201946521692367
2371.0,-0.0030725959676747294
2370.0,-0.0027274726898296464
2369.0,-0.0022092729880145434
2368.0,-0.0016039241497978196
2367.0,-0.0011710149414008164
2366.0,-0.0010843812922201046
2365.0,-0.0010843812922201046
2364.0,-0.001257631312230778
2363.0,-0.0011277002770349043
2362.0,-0.0015173768235041685
2361.0,-0.0011710149414008164
2360.0,-0.005309236848516363
2359.0,-0.00552369267327979
2358.0,-0.00445035298922436
2357.0,-0.00445035298922436
2356.0,-0.004708196544336296
2355.0,-0.005266332972768684
2354.0,-0.005352136486216796
2353.0,-0.004922949296525481
2352.0,-0.004493337547274212
2351.0,-0.004493337547274212
2350.0,-0.004794110388711914
2349.0,-0.005094675072548682
2348.0,-0.005223424858135761
2347.0,-0.005266332972768684
2346.0,-0.005480809979401258
2345.0,-0.005995123054691298
2344.0,-0.006637159068586307
2343.0,-0.007064656378331868
2342.0,-0.007021925578680754
2341.0,-0.006637159068586307
2340.0,-0.006252051369364686
2339.0,-0.005995123054691298
2338.0,-0.005695181118510195
2337.0,-0.005137595908863979
2336.0,-0.004536317851322913
2335.0,-0.0042353663594676405
2334.0,-0.004536317851322913
2333.0,-0.004794110388711914
2332.0,-0.005695181118510195
2331.0,-0.0029432068763250996
2330.0,-0.002856926061120646
2329.0,-0.0034605321095062536
2328.0,-0.0025548081484823015
2327.0,-0.0018634626925240205
2326.0,-0.0011710149414008164
2325.0,-0.001041057986093552
2324.0,-0.0015606526425728795
2323.0,-0.0020796263931210923
2322.0,-0.0024252646779014952
2321.0,-0.0022524799205383417
2320.0,-0.0018634626925240205
2319.0,-0.0016039241497978196
2318.0,-0.0014308122463981832
2317.0,-0.001474096691732818
2316.0,-0.001474096691732818
2315.0,-0.0018634626925240205
2314.0,-0.0022092729880145434
2313.0,-0.0026411490000399773
2312.0,-0.002684312989729598
2311.0,-0.002684312989729598
2310.0,-0.002597980719908577
2309.0,-0.002684312989729598
2308.0,-0.0027274726898296464
2307.0,-0.002900068611387585
2306.0,-0.003029470553618019
2305.0,-0.003158833950862139
2304.0,-0.0032450548131470747
2303.0,-0.0033312585613267665
2302.0,-0.0032881588260753603
2301.0,-0.0032881588260753603
2300.0,-0.003158833950862139
2299.0,-0.003115717099805959
2298.0,-0.003029470553618019
2297.0,-0.0029863408567849525
2296.0,-0.002856926061120646
2295.0,-0.0028137792246734072
2294.0,-0.0027706281011936618
2293.0,-0.0027274726898296464
2292.0,-0.0026411490000399773
2291.0,-0.0025548081484823015
2290.0,-0.0024684501283323
2289.0,-0.0023820749327607693
2288.0,-0.002338880892056583
2287.0,-0.0022956825549340643
2286.0,-0.0022956825549340643
2285.0,-0.0022524799205383417
2284.0,-0.0021660617565077978
2283.0,-0.0020364022595291686
2282.0,-0.0019931738235303698
2281.0,-0.0019931738235303698
2280.0,-0.0020364022595291686
2279.0,-0.0021228462251614566
2278.0,-0.0021660617565077978
2277.0,-0.0021660617565077978
2276.0,-0.0021660617565077978
2275.0,-0.0021228462251614566
2274.0,-0.0021228462251614566
2273.0,-0.0021228462251614566
2272.0,-0.0021660617565077978
2271.0,-0.0022956825549340643
2270.0,-0.0022956825549340643
2269.0,-0.0022524799205383417
2268.0,-0.0021228462251614566
2267.0,-0.0019931738235303698
2266.0,-0.0019931738235303698
2265.0,-0.0019931738235303698
2264.0,-0.0019931738235303698
2263.0,-0.0019931738235303698
2262.0,-0.0020364022595291686
2261.0,-0.0021228462251614566
2260.0,-0.0021660617565077978
2259.0,-0.0022524799205383417
2258.0,-0.0022956825549340643
2257.0,-0.0022524799205383417
2256.0,-0.0022092729880145434
2255.0,-0.0021660617565077978
2254.0,-0.0021660617565077978
2253.0,-0.0021228462251614566
2252.0,-0.0021228462251614566
2251.0,-0.0021228462251614566
2250.0,-0.0022092729880145434
2249.0,-0.0022956825549340643
2248.0,-0.002338880892056583
2247.0,-0.0023820749327607693
2246.0,-0.002338880892056583
2245.0,-0.0022524799205383417
2244.0,-0.0021660617565077978
2243.0,-0.0021660617565077978
2242.0,-0.0022092729880145434
2241.0,-0.0022092729880145434
2240.0,-0.0022092729880145434
2239.0,-0.0022092729880145434
2238.0,-0.0022524799205383417
2237.0,-0.0022956825549340643
2236.0,-0.0022956825549340643
2235.0,-0.0022956825549340643
2234.0,-0.0022956825549340643
2233.0,-0.0022524799205383417
2232.0,-0.0022524799205383417
2231.0,-0.0022524799205383417
2230.0,-0.0022956825549340643
2229.0,-0.0022956825549340643
2228.0,-0.0022956825549340643
2227.0,-0.0022524799205383417
2226.0,-0.0022092729880145434
2225.0,-0.0021660617565077978
2224.0,-0.0021660617565077978
2223.0,-0.0021660617565077978
2222.0,-0.0022092729880145434
2221.0,-0.0022956825549340643
2220.0,-0.002338880892056583
2219.0,-0.0023820749327607693
2218.0,-0.0024252646779014952
2217.0,-0.0024252646779014952
2216.0,-0.0023820749327607693
2215.0,-0.0023820749327607693
2214.0,-0.0024252646779014952
2213.0,-0.0024684501283323
2212.0,-0.0025116312849080558
2211.0,-0.0025548081484823015
2210.0,-0.002597980719908577
2209.0,-0.002597980719908577
2208.0,-0.002597980719908577
2207.0,-0.002597980719908577
2206.0,-0.0025548081484823015
2205.0,-0.0025548081484823015
2204.0,-0.0024684501283323
2203.0,-0.0025116312849080558
2202.0,-0.002597980719908577
2201.0,-0.002684312989729598
2200.0,-0.0027274726898296464
2199.0,-0.0026411490000399773
2198.0,-0.0025548081484823015
2197.0,-0.0024684501283323
2196.0,-0.0023820749327607693
2195.0,-0.0023820749327607693
2194.0,-0.0024252646779014952
2193.0,-0.0024684501283323
2192.0,-0.0024684501283323
2191.0,-0.0024684501283323
2190.0,-0.0024684501283323
2189.0,-0.0023820749327607693
2188.0,-0.0022956825549340643
2187.0,-0.0022092729880145434
2186.0,-0.0022092729880145434
2185.0,-0.0022092729880145434
2184.0,-0.0021660617565077978
2183.0,-0.0022092729880145434
2182.0,-0.0022092729880145434
2181.0,-0.0022524799205383417
2180.0,-0.0022956825549340643
2179.0,-0.0023820749327607693
2178.0,-0.0024684501283323
2177.0,-0.0025116312849080558
2176.0,-0.0025116312849080558
2175.0,-0.0024252646779014952
2174.0,-0.0023820749327607693
2173.0,-0.0022956825549340643
2172.0,-0.0022092729880145434
2171.0,-0.0022092729880145434
2170.0,-0.0022524799205383417
2169.0,-0.0022956825549340643
2168.0,-0.002338880892056583
2167.0,-0.002338880892056583
2166.0,-0.0023820749327607693
2165.0,-0.0024252646779014952
2164.0,-0.0024252646779014952
2163.0,-0.0023820749327607693
2162.0,-0.0024252646779014952
2161.0,-0.0024252646779014952
2160.0,-0.0024252646779014952
2159.0,-0.0023820749327607693
2158.0,-0.0022956825549340643
2157.0,-0.0022092729880145434
2156.0,-0.0022092729880145434
2155.0,-0.0022092729880145434
2154.0,-0.0022524799205383417
2153.0,-0.002338880892056583
2152.0,-0.0024252646779014952
2151.0,-0.0024684501283323
2150.0,-0.0025116312849080558
2149.0,-0.0024252646779014952
2148.0,-0.002338880892056583
2147.0,-0.0022956825549340643
2146.0,-0.0022956825549340643
2145.0,-0.0022956825549340643
2144.0,-0.0022092729880145434
2143.0,-0.0021228462251614566
2142.0,-0.0021228462251614566
2141.0,-0.0021660617565077978
2140.0,-0.0022092729880145434
2139.0,-0.0022524799205383417
2138.0,-0.0022524799205383417
2137.0,-0.0022092729880145434
2136.0,-0.0021660617565077978
2135.0,-0.0021660617565077978
2134.0,-0.0022092729880145434
2133.0,-0.0022092729880145434
2132.0,-0.0021660617565077978
2131.0,-0.0020364022595291686
2130.0,-0.0019499410842680476
2129.0,-0.0018634626925240205
2128.0,-0.0018202170383281313
2127.0,-0.0018202170383281313
2126.0,-0.0018634626925240205
2125.0,-0.0018634626925240205
2124.0,-0.0018634626925240205
2123.0,-0.0018634626925240205
2122.0,-0.0018634626925240205
2121.0,-0.0018202170383281313
2120.0,-0.001776967077439462
2119.0,-0.001776967077439462
2118.0,-0.001776967077439462
2117.0,-0.001776967077439462
2116.0,-0.001776967077439462
2115.0,-0.001733712809000476
2114.0,-0.001733712809000476
2113.0,-0.001776967077439462
2112.0,-0.0018202170383281313
2111.0,-0.0018634626925240205
2110.0,-0.0019067040408846658
2109.0,-0.0019067040408846658
2108.0,-0.0018634626925240205
2107.0,-0.0018202170383281313
2106.0,-0.0018202170383281313
2105.0,-0.001776967077439462
2104.0,-0.0016904542321527494
2103.0,-0.0016039241497978196
2102.0,-0.0015173768235041685
2101.0,-0.0014308122463981832
2100.0,-0.0014308122463981832
2099.0,-0.0015173768235041685
2098.0,-0.0016471913460383014
2097.0,-0.001776967077439462
2096.0,-0.0018634626925240205
2095.0,-0.0018634626925240205
2094.0,-0.0018202170383281313
2093.0,-0.001733712809000476
2092.0,-0.0016039241497978196
2091.0,-0.0015173768235041685
2090.0,-0.0015173768235041685
2089.0,-0.0015173768235041685
2088.0,-0.0015173768235041685
2087.0,-0.001474096691732818
2086.0,-0.001474096691732818
2085.0,-0.001474096691732818
2084.0,-0.0015173768235041685
2083.0,-0.0015606526425728795
2082.0,-0.0016039241497978196
2081.0,-0.0015606526425728795
2080.0,-0.0015173768235041685
2079.0,-0.001474096691732818
2078.0,-0.0015173768235041685
2077.0,-0.0016039241497978196
2076.0,-0.001733712809000476
2075.0,-0.0018202170383281313
2074.0,-0.0019067040408846658
2073.0,-0.0019067040408846658
2072.0,-0.0019067040408846658
2071.0,-0.0018634626925240205
2070.0,-0.0018634626925240205
2069.0,-0.0018634626925240205
2068.0,-0.0018634626925240205
2067.0,-0.0018634626925240205
2066.0,-0.0019067040408846658
2065.0,-0.0019931738235303698
2064.0,-0.0019931738235303698
2063.0,-0.0020364022595291686
2062.0,-0.0020364022595291686
2061.0,-0.0020364022595291686
2060.0,-0.0020364022595291686
2059.0,-0.0020796263931210923
2058.0,-0.0021228462251614566
2057.0,-0.0022092729880145434
2056.0,-0.0022092729880145434
2055.0,-0.0022092729880145434
2054.0,-0.0022524799205383417
2053.0,-0.0022524799205383417
2052.0,-0.0022956825549340643
2051.0,-0.0023820749327607693
2050.0,-0.0024684501283323
2049.0,-0.0025116312849080558
2048.0,-0.0025548081484823015
2047.0,-0.002597980719908577
2046.0,-0.002684312989729598
2045.0,-0.0027706281011936618
2044.0,-0.0028137792246734072
2043.0,-0.002856926061120646
2042.0,-0.002900068611387585
2041.0,-0.002900068611387585
2040.0,-0.002856926061120646
2039.0,-0.0028137792246734072
2038.0,-0.0027706281011936618
2037.0,-0.0027706281011936618
2036.0,-0.0028137792246734072
2035.0,-0.002856926061120646
2034.0,-0.002856926061120646
2033.0,-0.002900068611387585
2032.0,-0.002856926061120646
2031.0,-0.002856926061120646
2030.0,-0.002900068611387585
2029.0,-0.002900068611387585
2028.0,-0.002900068611387585
2027.0,-0.002856926061120646
2026.0,-0.002900068611387585
2025.0,-0.002900068611387585
2024.0,-0.002900068611387585
2023.0,-0.0029432068763250996
2022.0,-0.0029863408567849525
2021.0,-0.0029863408567849525
2020.0,-0.0029432068763250996
2019.0,-0.002856926061120646
2018.0,-0.0028137792246734072
2017.0,-0.0028137792246734072
2016.0,-0.0027706281011936618
2015.0,-0.0027706281011936618
2014.0,-0.0027706281011936618
2013.0,-0.0027706281011936618
2012.0,-0.0027706281011936618
2011.0,-0.0027706281011936618
2010.0,-0.0027706281011936618
2009.0,-0.0027274726898296464
2008.0,-0.0026411490000399773
2007.0,-0.002597980719908577
2006.0,-0.0026411490000399773
2005.0,-0.002597980719908577
2004.0,-0.0024684501283323
2003.0,-0.002338880892056583
2002.0,-0.0022524799205383417
2001.0,-0.0022092729880145434
2000.0,-0.0022092729880145434
1999.0,-0.0022956825549340643
1998.0,-0.002338880892056583
1997.0,-0.0023820749327607693
1996.0,-0.0023820749327607693
1995.0,-0.0024684501283323
1994.0,-0.0025548081484823015
1993.0,-0.002597980719908577
1992.0,-0.0025548081484823015
1991.0,-0.0025116312849080558
1990.0,-0.0024684501283323
1989.0,-0.0024252646779014952
1988.0,-0.002338880892056583
1987.0,-0.0022956825549340643
1986.0,-0.0022956825549340643
1985.0,-0.002338880892056583
1984.0,-0.0022956825549340643
1983.0,-0.0022524799205383417
1982.0,-0.0022524799205383417
1981.0,-0.0022524799205383417
1980.0,-0.0022956825549340643
1979.0,-0.0022956825549340643
1978.0,-0.002338880892056583
1977.0,-0.0023820749327607693
1976.0,-0.002338880892056583
1975.0,-0.0022956825549340643
1974.0,-0.0022524799205383417
1973.0,-0.0021660617565077978
1972.0,-0.0020796263931210923
1971.0,-0.0019931738235303698
1970.0,-0.0019931738235303698
1969.0,-0.0020364022595291686
1968.0,-0.0020364022595291686
1967.0,-0.0020796263931210923
1966.0,-0.0021228462251614566
1965.0,-0.0021660617565077978
1964.0,-0.0021660617565077978
1963.0,-0.0022092729880145434
1962.0,-0.0022524799205383417
1961.0,-0.0022524799205383417
1960.0,-0.0021660617565077978
1959.0,-0.0021228462251614566
1958.0,-0.0021660617565077978
1957.0,-0.0022524799205383417
1956.0,-0.002338880892056583
1955.0,-0.0023820749327607693
1954.0,-0.0024252646779014952
1953.0,-0.0024684501283323
1952.0,-0.0024252646779014952
1951.0,-0.0024684501283323
1950.0,-0.0025548081484823015
1949.0,-0.0026411490000399773
1948.0,-0.002684312989729598
1947.0,-0.002684312989729598
1946.0,-0.0027274726898296464
1945.0,-0.0027274726898296464
1944.0,-0.0027274726898296464
1943.0,-0.0028137792246734072
1942.0,-0.002900068611387585
1941.0,-0.0029432068763250996
1940.0,-0.002856926061120646
1939.0,-0.002856926061120646
1938.0,-0.002856926061120646
1937.0,-0.002900068611387585
1936.0,-0.0029432068763250996
1935.0,-0.0029863408567849525
1934.0,-0.003029470553618019
1933.0,-0.0030725959676747294
1932.0,-0.0030725959676747294
1931.0,-0.003029470553618019
1930.0,-0.003029470553618019
1929.0,-0.0029863408567849525
1928.0,-0.002856926061120646
1927.0,-0.0027274726898296464
1926.0,-0.002684312989729598
1925.0,-0.0026411490000399773
1924.0,-0.002597980719908577
1923.0,-0.0027274726898296464
1922.0,-0.002900068611387585
1921.0,-0.0029863408567849525
1920.0,-0.002900068611387585
1919.0,-0.0028137792246734072
1918.0,-0.0028137792246734072
1917.0,-0.002856926061120646
1916.0,-0.002900068611387585
1915.0,-0.002900068611387585
1914.0,-0.0029432068763250996
1913.0,-0.0029432068763250996
1912.0,-0.002900068611387585
1911.0,-0.002856926061120646
1910.0,-0.002856926061120646
1909.0,-0.0028137792246734072
1908.0,-0.0027706281011936618
1907.0,-0.0027706281011936618
1906.0,-0.0027706281011936618
1905.0,-0.0028137792246734072
1904.0,-0.0027706281011936618
1903.0,-0.0027706281011936618
1902.0,-0.0027706281011936618
1901.0,-0.002684312989729598
1900.0,-0.002597980719908577
1899.0,-0.0025548081484823015
1898.0,-0.0026411490000399773
1897.0,-0.0026411490000399773
1896.0,-0.0026411490000399773
1895.0,-0.002597980719908577
1894.0,-0.002597980719908577
1893.0,-0.002597980719908577
1892.0,-0.0025548081484823015
1891.0,-0.0025116312849080558
1890.0,-0.002597980719908577
1889.0,-0.002684312989729598
1888.0,-0.0027274726898296464
1887.0,-0.002684312989729598
1886.0,-0.002684312989729598
1885.0,-0.0026411490000399773
1884.0,-0.002597980719908577
1883.0,-0.0026411490000399773
1882.0,-0.002684312989729598
1881.0,-0.0026411490000399773
1880.0,-0.0024684501283323
1879.0,-0.002338880892056583
1878.0,-0.0022524799205383417
1877.0,-0.0022524799205383417
1876.0,-0.0022092729880145434
1875.0,-0.0022524799205383417
1874.0,-0.002338880892056583
1873.0,-0.0023820749327607693
1872.0,-0.002338880892056583
1871.0,-0.0022956825549340643
1870.0,-0.0022956825549340643
1869.0,-0.0022524799205383417
1868.0,-0.0021660617565077978
1867.0,-0.0021228462251614566
1866.0,-0.0020796263931210923
1865.0,-0.0019931738235303698
1864.0,-0.0018634626925240205
1863.0,-0.0018634626925240205
1862.0,-0.0018634626925240205
1861.0,-0.0019067040408846658
1860.0,-0.0018634626925240205
1859.0,-0.001776967077439462
1858.0,-0.001733712809000476
1857.0,-0.0016471913460383014
1856.0,-0.0015173768235041685
1855.0,-0.001474096691732818
1854.0,-0.0015173768235041685
1853.0,-0.0015173768235041685
1852.0,-0.001474096691732818
1851.0,-0.0013875234866409514
1850.0,-0.001344230411601366
1849.0,-0.001257631312230778
1848.0,-0.0011710149414008164
1847.0,-0.001041057986093552
1846.0,-0.0009977303577937136
1845.0,-0.0008677215312267172
1844.0,-0.0006509536295951079
1843.0,-0.0004774613744551459
1842.0,-0.0003906892499099257
1841.0,-0.00017368305846510168
1840.0,8.686758342868472e-05
1839.0,0.00026065489343207737
1838.0,0.00043451177401765406
1837.0,0.0006954276616513155
1836.0,0.0010000277816797354
1835.0,0.0011741809597138886
1834.0,0.0012177301682640973
1833.0,0.0012612837441823288
1832.0,0.0014355417390583547
1831.0,0.0016970599014589638
1830.0,0.0019587356365717845
1829.0,0.0022205691343961664
1828.0,0.002482560585275184
1827.0,0.0027447101798967477
1826.0,0.0028758443407954637
1825.0,0.003050751504618754
1824.0,0.0033132443998284966
1823.0,0.003488327845821315
1822.0,0.0036634819042162814
1821.0,0.0038825238627120395
1820.0,0.004189368323957332
1819.0,0.004452550524862486
1818.0,0.00458420145758498
1817.0,0.004759798137184523
1816.0,0.004935465843858511
1815.0,0.005023326350308999
1814.0,0.005067263269958211
1813.0,0.005199100705396198
1812.0,0.005550862985963967
1811.0,0.005858888873877532
1810.0,0.006079041198713275
1809.0,0.006431517210272464
1808.0,0.006872514894289861
1807.0,0.007181479933320523
1806.0,0.007402303897961815
1805.0,0.007667440952535687
1804.0,0.008109696063975047
1803.0,0.00850811108984062
1802.0,0.008951223547323472
1801.0,0.009616741093766423
1800.0,0.01046119667949763
1799.0,0.011129033935354915
1798.0,0.011664044143949504
1797.0,0.012333735073725371
1796.0,0.01322826573375524
1795.0,0.014124642691606404
1794.0,0.015202742910707112
1793.0,0.016960383953898095
1792.0,0.019269623464054586
1791.0,0.0214542995372613
1790.0,0.023329119375188556
1789.0,0.02544225514642018
1788.0,0.027936083991977778
1787.0,0.030863766403287585
1786.0,0.03437503289075727
1785.0,0.038531444649213764
1784.0,0.042775942156833
1783.0,0.04672366333269573
1782.0,0.051098239029786274
1781.0,0.056406567231630955
1780.0,0.06218131530164395
1779.0,0.0671712330991534
1778.0,0.07124579782334672
1777.0,0.07515236702446293
1776.0,0.07899019850296574
1775.0,0.08249449044745338
1774.0,0.08655704514060414
1773.0,0.09301884677114591
1772.0,0.10132965703447017
1771.0,0.1081838804751396
1770.0,0.11328372588352176
1769.0,0.11924355548978971
1768.0,0.12702836926155658
1767.0,0.13513308567147386
1766.0,0.1419442819496357
1765.0,0.14813039927023364
1764.0,0.1558335895497993
1763.0,0.16729952903943257
1762.0,0.18263298371240588
1761.0,0.1979107421182673
1760.0,0.2093630380682967
1759.0,0.2182446253475312
1758.0,0.22826557461323072
1757.0,0.2412394560900204
1756.0,0.2530545903848953
1755.0,0.25916379294268843
1754.0,0.26098175411651914
1753.0,0.2626483041962855
1752.0,0.2669633170664205
1751.0,0.2732727909734278
1750.0,0.2788491562503159
1749.0,0.2826624172761363
1748.0,0.2839966563652008
1747.0,0.2818305946086932
1746.0,0.2767085535224161
1745.0,0.2701874928390644
1744.0,0.26256879948541756
1743.0,0.25352149006996894
1742.0,0.24283180778572744
1741.0,0.2304749798289496
1740.0,0.216739767127051
1739.0,0.20259395032361804
1738.0,0.18936429972446267
1737.0,0.17685194018930606
1736.0,0.16361258067358908
1735.0,0.1491088158640761
1734.0,0.13572630319562085
1733.0,0.12557616941349803
1732.0,0.11719095860756013
1731.0,0.10941133229451272
1730.0,0.1022080180607754
1729.0,0.0957714836599215
1728.0,0.0900163050601559
1727.0,0.08512818245994969
1726.0,0.08102656950704579
1725.0,0.07727454200674
1724.0,0.07376047895413773
1723.0,0.07058107428570715
1722.0,0.06772922410050963
1721.0,0.06494641076893504
1720.0,0.06198090252378963
1719.0,0.05908526241971446
1718.0,0.056950888991593285
1717.0,0.055172003656783764
1716.0,0.05290953578037816
1715.0,0.05056119896349576
1714.0,0.04841965509660828
1713.0,0.04624030826677128
1712.0,0.04383156952463674
1711.0,0.041483896576958834
1710.0,0.03943409718180235
1709.0,0.037583306554248797
1708.0,0.035646070707806565
1707.0,0.03376437590141812
1706.0,0.03217132066984485
1705.0,0.0307239045110681
1704.0,0.029281296279810798
1703.0,0.027889771597169544
1702.0,0.026733563891471412
1701.0,0.025718641122169483
1700.0,0.024522236834125355
1699.0,0.023191662661933732
1698.0,0.02227639471115217
1697.0,0.02168250325324883
1696.0,0.021043834782408455
1695.0,0.02036058777709271
1694.0,0.019723858922159776
1693.0,0.019133445417920836
1692.0,0.01840788278591865
1691.0,0.017502630802287644
1690.0,0.01677978535189717
1689.0,0.016193358021584725
1688.0,0.015607721475734415
1687.0,0.015067833932588037
1686.0,0.014663358264387139
1685.0,0.01452861671041239
1684.0,0.014438812226654996
1683.0,0.013990068146738865
1682.0,0.013586594534531482
1681.0,0.01322826573375524
1680.0,0.012780770091995297
1679.0,0.012333735073725371
1678.0,0.0119764380713403
1677.0,0.011753276624621556
1676.0,0.011485634166333858
1675.0,0.01117359295472431
1674.0,0.01086177578421088
1673.0,0.010550182333308289
1672.0,0.01023881228122181
1671.0,0.01001654169860089
1670.0,0.009972101229705377
1669.0,0.009927665307847056
1668.0,0.00966114521239847
1667.0,0.00939478857608056
1666.0,0.00908424549391551
1665.0,0.008773924307505121
1664.0,0.008463824699968647
1663.0,0.008242460465651913
1662.0,0.008153946355103248
1661.0,0.008021209005416363
1660.0,0.007755855953228474
1659.0,0.007534852191956709
1658.0,0.007313960837872058
1657.0,0.007093181776687496
1656.0,0.006872514894289861
1655.0,0.006740168563263094
1654.0,0.007004901568658406
1653.0,0.007313960837872058
1652.0,0.006828394969235152
1651.0,0.006431517210272464
1650.0,0.006299305179649828
1649.0,0.006079041198713275
1648.0,0.005682847330363394
1647.0,0.005506877116487674
1646.0,0.005550862985963967
1645.0,0.005638848091999105
1644.0,0.005638848091999105
1643.0,0.005594853310833647
1642.0,0.005550862985963967
1641.0,0.00541891874010525
1640.0,0.005199100705396198
1639.0,0.005067263269958211
1638.0,0.005023326350308999
1637.0,0.005111204635089406
1636.0,0.0052870145684298375
1635.0,0.005330978174470591
1634.0,0.0052870145684298375
1633.0,0.005243055412371911
1632.0,0.005111204635089406
1631.0,0.004979393875242044
1630.0,0.004803708402820517
1629.0,0.004715892310740433
1628.0,0.004671990922590297
1627.0,0.004671990922590297
1626.0,0.004759798137184523
1625.0,0.00484762310854614
1624.0,0.004803708402820517
1623.0,0.004628093971837721
1622.0,0.004452550524862486
1621.0,0.0043648054024501
1620.0,0.004277078004534696
1619.0,0.004189368323957332
1618.0,0.004145520125434121
1617.0,0.004145520125434121
1616.0,0.00401400208620073
1615.0,0.0038825238627120395
1614.0,0.0038387066319929275
1613.0,0.003794893821675638
1612.0,0.0036634819042162814
1611.0,0.0034445503666347133
1610.0,0.0032694845648473247
1609.0,0.0031819781204844855
1608.0,0.003050751504618754
1607.0,0.0030070181092942683
1606.0,0.0029632891174733444
1605.0,0.0029195645282691363
1604.0,0.0028321285541661467
1603.0,0.002701007590486082
1602.0,0.002569926202528716
1601.0,0.002395212539545666
1600.0,0.0022205691343961664
1599.0,0.0020459959305969555
1598.0,0.0019587356365717845
1597.0,0.0018714928717336043
1596.0,0.0017406615763013722
1595.0,0.0016534626036355249
1594.0,0.001609869681952425
1593.0,0.0015662811355310335
1592.0,0.0014355417390583547
1591.0,0.001304841688344327
1590.0,0.0012177301682640973
1589.0,0.0011741809597138886
1588.0,0.0011306361176557367
1587.0,0.0010435595295137379
1586.0,0.0010000277816797354
1585.0,0.0009129773741116676
1584.0,0.0008259444115150671
1583.0,0.0007389288868995258
1582.0,0.0006084382809090627
1581.0,0.000521466320689834
1580.0,0.00043451177401765406
1579.0,0.00043451177401765406
1578.0,0.00043451177401765406
1577.0,0.0003910410285830057
1576.0,0.00026065489343207737
1575.0,8.686758342868472e-05
1574.0,8.686758342868472e-05
1573.0,0.00021720154586435392
1572.0,0.00026065489343207737
1571.0,0.00021720154586435392
1570.0,0.0001303078917322953
1569.0,8.686758342868472e-05
1568.0,8.686758342868472e-05
1567.0,0.0001303078917322953
1566.0,0.0001303078917322953
1565.0,4.343161980746579e-05
1564.0,-8.685021164911433e-05
1563.0,-0.00021709297223004853
1562.0,-0.00021709297223004853
1561.0,-0.00021709297223004853
1560.0,-0.00021709297223004853
1559.0,0.0
1558.0,0.0
1557.0,0.0
1556.0,0.0001303078917322953
1555.0,0.0001303078917322953
1554.0,8.686758342868472e-05
1553.0,4.343161980746579e-05
1552.0,8.686758342868472e-05
1551.0,0.00017375254558760211
1550.0,0.00026065489343207737
1549.0,0.00026065489343207737
1548.0,0.00026065489343207737
1547.0,0.00026065489343207737
1546.0,0.00030411258916074324
1545.0,0.0003910410285830057
1544.0,0.0003910410285830057
1543.0,0.0003910410285830057
1542.0,0.0003475746339209884
1541.0,0.00043451177401765406
1540.0,0.0004779868710962365
1539.0,0.00030411258916074324
1538.0,0.00017375254558760211
1537.0,0.00021720154586435392
1536.0,0.00026065489343207737
1535.0,0.00021720154586435392
1534.0,0.00017375254558760211
1533.0,0.00017375254558760211
1532.0,0.00021720154586435392
1531.0,0.00026065489343207737
1530.0,0.00026065489343207737
1529.0,0.00021720154586435392
1528.0,0.00017375254558760211
1527.0,0.0001303078917322953
1526.0,0.0001303078917322953
1525.0,0.0001303078917322953
1524.0,0.0001303078917322953
1523.0,0.0001303078917322953
1522.0,0.0001303078917322953
1521.0,0.0001303078917322953
1520.0,4.343161980746579e-05
1519.0,4.343161980746579e-05
1518.0,4.343161980746579e-05
1517.0,8.686758342868472e-05
1516.0,0.00021720154586435392
1515.0,0.00030411258916074324
1514.0,0.00043451177401765406
1513.0,0.0005649501236701937
1512.0,0.0006084382809090627
1511.0,0.000521466320689834
1510.0,0.0004779868710962365
1509.0,0.00043451177401765406
1508.0,0.0004779868710962365
1507.0,0.0005649501236701937
1506.0,0.000521466320689834
1505.0,0.00043451177401765406
1504.0,0.0004779868710962365
1503.0,0.000521466320689834
1502.0,0.000521466320689834
1501.0,0.000521466320689834
1500.0,0.000521466320689834
1499.0,0.0004779868710962365
1498.0,0.00043451177401765406
1497.0,0.0005649501236701937
1496.0,0.0006519307932786322
1495.0,0.0006519307932786322
1494.0,0.0006084382809090627
1493.0,0.0006519307932786322
1492.0,0.0007824344698965646
1491.0,0.0009129773741116676
1490.0,0.0010870956412141197
1489.0,0.001304841688344327
1488.0,0.0014791171649619628
1487.0,0.001609869681952425
1486.0,0.0016534626036355249
1485.0,0.0016970599014589638
1484.0,0.0018278780605593958
1483.0,0.001915112063444413
1482.0,0.002089632653256679
1481.0,0.002351545103793873
1480.0,0.002701007590486082
1479.0,0.003050751504618754
1478.0,0.0034007772998332353
1477.0,0.003970171588923321
1476.0,0.004628093971837721
1475.0,0.00541891874010525
1474.0,0.006651960076740071
1473.0,0.0087296108049002
1472.0,0.01117359295472431
1471.0,0.01322826573375524
1470.0,0.015157768594724175
1469.0,0.017367005605150476
1468.0,0.01995115493504329
1467.0,0.02314585342378117
1466.0,0.0277045713888604
1465.0,0.0338113190438627
1464.0,0.040005161671583744
1463.0,0.04474531717982
1462.0,0.04837110616336182
1461.0,0.0515870342213991
1460.0,0.054876229877880656
1459.0,0.058836539841526925
1458.0,0.0654005617819271
1457.0,0.07360609973031784
1456.0,0.07862570458152551
1455.0,0.08003329851661278
1454.0,0.08034671768963575
1453.0,0.08045124103115198
1452.0,0.08039897621588898
1451.0,0.07977228854307139
1450.0,0.07872981449018734
1449.0,0.07711890879170658
1448.0,0.07473949048056472
1447.0,0.07139934015547578
1446.0,0.06727263269847072
1445.0,0.062381820606176586
1444.0,0.0567528748621382
1443.0,0.05065879322950262
1442.0,0.04460091336073302
1441.0,0.03886378261277468
1440.0,0.03376437590141812
1439.0,0.029374223311705583
1438.0,0.025304128090317013
1437.0,0.021271822861508305
1436.0,0.01781925440359733
1435.0,0.015562705203923999
1434.0,0.013990068146738865
1433.0,0.01260190086298274
1432.0,0.01117359295472431
1431.0,0.009972101229705377
1430.0,0.008951223547323472
1429.0,0.008065450281052211
1428.0,0.007358130121602358
1427.0,0.006784279525863024
1426.0,0.006387442061109638
1425.0,0.00590291041179003
1424.0,0.00541891874010525
1423.0,0.005111204635089406
1422.0,0.004935465843858511
1421.0,0.004715892310740433
1420.0,0.0044964297349936455
1419.0,0.004408675747646695
1418.0,0.004320939488377862
1417.0,0.004145520125434121
1416.0,0.003926345514724705
1415.0,0.0038387066319929275
1414.0,0.0037510854308679953
1413.0,0.003707281458678491
1412.0,0.003707281458678491
1411.0,0.0038825238627120395
1410.0,0.0040578370074493275
1409.0,0.004101676353562844
1408.0,0.004145520125434121
1407.0,0.004320939488377862
1406.0,0.004671990922590297
1405.0,0.005155150446602086
1404.0,0.00577085918230158
1403.0,0.006387442061109638
1402.0,0.007093181776687496
1401.0,0.007844288957383316
1400.0,0.009128595198514056
1399.0,0.010995384301463185
1398.0,0.013004460275618523
1397.0,0.015157768594724175
1396.0,0.01800028587012159
1395.0,0.021865152601710403
1394.0,0.026225806029419818
1393.0,0.03030458888152676
1392.0,0.034187046963396917
1391.0,0.03800971255993524
1390.0,0.041914151478914974
1389.0,0.04633693625290869
1388.0,0.0515870342213991
1387.0,0.0571489934456626
1386.0,0.061780582187257016
1385.0,0.06489597884855036
1384.0,0.06701917807680191
1383.0,0.06823711151882228
1382.0,0.0685421293109949
1381.0,0.06767846801070698
1380.0,0.06575411897692884
1379.0,0.06293368798257193
1378.0,0.05963295401433477
1377.0,0.056406567231630955
1376.0,0.053842605077627725
1375.0,0.05256627811294923
1374.0,0.05286048235717078
1373.0,0.05423607688882637
1372.0,0.05601112492622806
1371.0,0.05794231615860479
1370.0,0.06003170944866376
1369.0,0.062131203436140536
1368.0,0.06388856832514578
1367.0,0.06509774167768612
1366.0,0.06575411897692884
1365.0,0.0663102910421054
1364.0,0.06722192993944942
1363.0,0.0685421293109949
1362.0,0.06981534770138009
1361.0,0.07058107428570715
1360.0,0.07078549626260622
1359.0,0.07063217075990047
1358.0,0.07017251876930874
1357.0,0.06940751155740177
1356.0,0.06828793294324442
1355.0,0.06676587128519196
1354.0,0.06489597884855036
1353.0,0.06278310913729457
1352.0,0.06048074738138154
1351.0,0.05809122563440061
1350.0,0.05571477931124735
1349.0,0.05340037498486727
1348.0,0.05119595406718891
1347.0,0.04909991063361274
1346.0,0.04715914332429838
1345.0,0.04537162249272897
1344.0,0.04363944632667782
1343.0,0.04196198390166317
1342.0,0.040338629726504704
1341.0,0.03886378261277468
1340.0,0.03763066432997886
1339.0,0.03663723389626394
1338.0,0.03583468937826462
1337.0,0.03508070571335731
1336.0,0.03428102975577918
1335.0,0.033482823553208085
1334.0,0.03277974021703267
1333.0,0.032124554451966825
1332.0,0.03151705144606498
1331.0,0.03105031901865729
1330.0,0.0307239045110681
1329.0,0.030490901403433135
1328.0,0.030351159519274695
1327.0,0.030211462585061133
1326.0,0.030118356253500123
1325.0,0.03002526987828502
1324.0,0.029978734171634214
1323.0,0.029932203450862893
1322.0,0.029885677714903025
1321.0,0.029885677714903025
1320.0,0.029885677714903025
1319.0,0.029978734171634214
1318.0,0.030071810571884017
1317.0,0.030118356253500123
1316.0,0.030164906924202484
1315.0,0.030211462585061133
1314.0,0.030351159519274695
1313.0,0.030490901403433135
1312.0,0.03063068826647264
1311.0,0.0307239045110681
1310.0,0.030770520137356927
1309.0,0.030863766403287585
1308.0,0.030910397045078586
1307.0,0.030957032694186815
1306.0,0.031003673351687855
1305.0,0.030957032694186815
1304.0,0.030863766403287585
1303.0,0.030770520137356927
1302.0,0.03063068826647264
1301.0,0.030444315779156517
1300.0,0.030118356253500123
1299.0,0.02969962459782227
1298.0,0.029188389127482228
1297.0,0.028538594975413334
1296.0,0.027750864037404455
1295.0,0.026872146400301444
1294.0,0.025995203102585407
1293.0,0.02521206778644225
1292.0,0.024568191490736968
1291.0,0.024246610963712723
1290.0,0.024338466818941473
1289.0,0.02498200236711723
1288.0,0.026087429580295085
1287.0,0.027565723042634938
1286.0,0.02942069428514915
1285.0,0.031563752288295444
1284.0,0.033952178923546183
1283.0,0.03649550058570927
1282.0,0.03924390909822728
1281.0,0.04215336629184985
1280.0,0.04508244626504121
1279.0,0.047982909952573705
1278.0,0.05075640943173498
1277.0,0.05340037498486727
1276.0,0.05581353871631256
1275.0,0.05804158346918653
1274.0,0.05998184499233683
1273.0,0.06173051653708872
1272.0,0.06328524178879635
1271.0,0.06454311928839007
1270.0,0.0655520510510299
1269.0,0.06620911585658007
1268.0,0.06661395809694559
1267.0,0.0666645899223488
1266.0,0.06646209802829528
1265.0,0.06610796423578891
1264.0,0.06550154875643233
1263.0,0.06469430971007495
1262.0,0.06373765809652254
1261.0,0.06263258248271053
1260.0,0.06148027482350815
1259.0,0.06028111764589528
1258.0,0.05898575629443026
1257.0,0.057743849580535134
1256.0,0.05655495097496965
1255.0,0.05546797900801881
1254.0,0.05448217792216048
1253.0,0.053646002773725554
1252.0,0.05290953578037816
1251.0,0.05232126006306337
1250.0,0.0518316382728683
1249.0,0.05148923116234294
1248.0,0.05129369109514803
1247.0,0.051244819831730126
1246.0,0.05129369109514803
1245.0,0.05144033789103841
1244.0,0.051684859310652254
1243.0,0.052027420754219955
1242.0,0.052468254304406825
1241.0,0.05310580489767336
1240.0,0.05389176956309405
1239.0,0.054728418492290265
1238.0,0.05561604235915585
1237.0,0.05670338543334519
1236.0,0.05794231615860479
1235.0,0.05943371350990989
1234.0,0.06103020277710969
1233.0,0.06283329628496737
1232.0,0.06484555278383164
1231.0,0.06706985716921054
1230.0,0.06950943469373039
1229.0,0.07221915065262552
1228.0,0.07510073598571654
1227.0,0.0781575185941421
1226.0,0.08144546944972642
1225.0,0.08491689834879956
1224.0,0.08862929288386212
1223.0,0.09242742120144909
1222.0,0.09631326826349751
1221.0,0.10039834085387778
1220.0,0.10463271122663809
1219.0,0.10902040301031102
1218.0,0.11339648571328764
1217.0,0.11764625361128611
1216.0,0.12176553132495593
1215.0,0.12557616941349803
1214.0,0.12918657608440243
1213.0,0.1325325121409484
1212.0,0.13542959314656988
1211.0,0.13786862068696282
1210.0,0.13978181533124334
1209.0,0.14128238513970826
1208.0,0.14242629585250421
1207.0,0.1432711096171173
1206.0,0.1438755557576996
1205.0,0.14435971910985468
1204.0,0.14484442282300614
1203.0,0.14551177495556966
1202.0,0.14642345638035836
1201.0,0.14764201633217278
1200.0,0.14923127307111983
1199.0,0.15107228677292173
1198.0,0.1532918545439932
1197.0,0.1560823619936076
1196.0,0.15945481236316117
1195.0,0.163359458427226
1194.0,0.16781053893148679
1193.0,0.1730186630880064
1192.0,0.17901082358395048
1191.0,0.18575240426807982
1190.0,0.19314197048118253
1189.0,0.2014874669686484
1188.0,0.2107013888405589
1187.0,0.22047565667521019
1186.0,0.23040115161255348
1185.0,0.24033215531036944
1184.0,0.24972308484600725
1183.0,0.2577463300934064
1182.0,0.2635238179723034
1181.0,0.26640153903866093
1180.0,0.26560025747943294
1179.0,0.26034855629062315
1178.0,0.2508049577803275
1177.0,0.2376215706880358
1176.0,0.22177637323390353
1175.0,0.20432849405397824
1174.0,0.18628560811885508
1173.0,0.1686422145579325
1172.0,0.15205736115477642
1171.0,0.13685565374733244
1170.0,0.12308968865537295
1169.0,0.11097857790477517
1168.0,0.10034361969436434
1167.0,0.09108625997902897
1166.0,0.08301995267961781
1165.0,0.07613452481449845
1164.0,0.0702746216219956
1163.0,0.06529959828457499
1162.0,0.0611301784870133
1161.0,0.05764465029232335
1160.0,0.05462990550969615
1159.0,0.05212534510230182
1158.0,0.05012229596312534
1157.0,0.0486139051197072
1156.0,0.047595060422975566
1155.0,0.04701393480294458
1154.0,0.04686877481655505
1153.0,0.04711073508906982
1152.0,0.047934409814949674
1151.0,0.04939177521576932
1150.0,0.05153812993871654
1149.0,0.05443294655761144
1148.0,0.05814087347462649
1147.0,0.06263258248271053
1146.0,0.06803388527182741
1145.0,0.07443009045662374
1144.0,0.08175990977858505
1143.0,0.08980263003399913
1142.0,0.09837823590664274
1141.0,0.10723776538418317
1140.0,0.1163953390777075
1139.0,0.12551818230053358
1138.0,0.13442229258007088
1137.0,0.14290884532648618
1136.0,0.15082636690117335
1135.0,0.15801519540988607
1134.0,0.16437283379010226
1133.0,0.17005330405836405
1132.0,0.17509352869788763
1131.0,0.17927323717616583
1130.0,0.18256685588861554
1129.0,0.18468795647564096
1128.0,0.18561920553006184
1127.0,0.1851533313955367
1126.0,0.18329481633348466
1125.0,0.18019293540924397
1124.0,0.17606954487443605
1123.0,0.1712756728612086
1122.0,0.16634300310712757
1121.0,0.16171775008531153
1120.0,0.1577028656719348
1119.0,0.15428198203334142
1118.0,0.1514414278762366
1117.0,0.14929251462546267
1116.0,0.1478861391502384
1115.0,0.1472151313194523
1114.0,0.1472151313194523
1113.0,0.14819148577176255
1112.0,0.1500894416985039
1111.0,0.15298290206464582
1110.0,0.15676722190199066
1109.0,0.16152872092807113
1108.0,0.16710805524020933
1107.0,0.1733422081241307
1106.0,0.18006143064460467
1105.0,0.1871534630329288
1104.0,0.19449914184159978
1103.0,0.20190206793751408
1102.0,0.20915209603456808
1101.0,0.21659671887743648
1100.0,0.22424396215590203
1099.0,0.23180603836692848
1098.0,0.2393513804186438
1097.0,0.24695343837347083
1096.0,0.2546128786799913
1095.0,0.2620126736665691
1094.0,0.26913700795350604
1093.0,0.27638016448453673
1092.0,0.2835792661534451
1091.0,0.2905604258675891
1090.0,0.297224922098956
1089.0,0.30373100325446734
1088.0,0.31006989598178203
1087.0,0.3156035215809796
1086.0,0.32020882901964565
1085.0,0.3238553196437939
1084.0,0.3264262035769485
1083.0,0.32771737521107935
1082.0,0.32771737521107935
1081.0,0.32679471822095474
1080.0,0.32495526404410735
1079.0,0.32202824718926015
1078.0,0.31794522292619276
1077.0,0.3128278954052004
1076.0,0.3068888845378588
1075.0,0.29972906264356314
1074.0,0.2914941190447631
1073.0,0.2824127031445396
1072.0,0.27270279719641266
1071.0,0.2623303726433581
1070.0,0.25150187338626306
1069.0,0.24055880286630238
1068.0,0.22958986848609375
1067.0,0.21889116427053357
1066.0,0.2088709992727138
1065.0,0.200246033588114
1064.0,0.1930742231162681
1063.0,0.1872871332346313
1062.0,0.18289759574307696
1061.0,0.18006143064460467
1060.0,0.1785519809824696
1059.0,0.17815907279954568
1058.0,0.1785519809824696
1057.0,0.17973284283903546
1056.0,0.18157614490792118
1055.0,0.18375870000821704
1054.0,0.18608557995139652
1053.0,0.18869315991866387
1052.0,0.191383964573008
1051.0,0.19409154492580294
1050.0,0.19688444510997294
1049.0,0.19983300979863605
1048.0,0.20280173016104097
1047.0,0.20551195334083028
1046.0,0.20774842809673588
1045.0,0.20943337485392344
1044.0,0.21034879120659045
1043.0,0.2102078322693246
1042.0,0.2089412564081745
1041.0,0.2069083998234198
1040.0,0.2040505010971967
1039.0,0.200246033588114
1038.0,0.19558794086228604
1037.0,0.19044028536473223
1036.0,0.1849538239353694
1035.0,0.17927323717616583
1034.0,0.17340694606595197
1033.0,0.16781053893148679
1032.0,0.16253782851400533
1031.0,0.1576404266693252
1030.0,0.1532918545439932
1029.0,0.14941502364796855
1028.0,0.1459369881335788
1027.0,0.1427278264359586
1026.0,0.13948232253825377
1025.0,0.13620146131949973
1024.0,0.13265038281120756
1023.0,0.1287190271420271
1022.0,0.12441789567211425
1021.0,0.11992991593593283
1020.0,0.11531789579397489
1019.0,0.11058623595729111
1018.0,0.10579474085791629
1017.0,0.10116516193172598
1016.0,0.09669292003582619
1015.0,0.09242742120144909
1014.0,0.08836306687055773
1013.0,0.08449463824562353
1012.0,0.08086958613938555
1011.0,0.07753405470158659
1010.0,0.07448164182257
1009.0,0.0718090519612431
1008.0,0.06940751155740177
1007.0,0.0671712330991534
1006.0,0.06509774167768612
1005.0,0.06318476880236723
1004.0,0.06143024377893891
1003.0,0.05978244440026481
1002.0,0.0582898510583536
1001.0,0.056950888991593285
1000.0,0.055764156206519866
999.0,0.05462990550969615
998.0,0.053596866100945384
997.0,0.05266432405126009
996.0,0.05173378011970464
995.0,0.05085404758005607
994.0,0.04997609347667353
993.0,0.04919717703534143
992.0,0.048468209457651845
991.0,0.047595060422975566
990.0,0.04667530361081473
989.0,0.04580574818413763
988.0,0.04503426894157925
987.0,0.04440844959427559
986.0,0.043735497301724546
985.0,0.043063586155803746
984.0,0.042392712939904875
983.0,0.04167506835594681
982.0,0.041006334969674096
981.0,0.0402909757535701
980.0,0.03957679292217042
979.0,0.038816290187564384
978.0,0.03800971255993524
977.0,0.03720463014276687
976.0,0.03649550058570927
975.0,0.03588185684851508
974.0,0.035363296211498474
973.0,0.03484535401307465
972.0,0.03437503289075727
971.0,0.033905220553829274
970.0,0.033482823553208085
969.0,0.033060836978886954
968.0,0.03273290844021437
967.0,0.03263926003405038
966.0,0.032920265855503006
965.0,0.03343591590268957
964.0,0.03423403581731388
963.0,0.03517488211661135
962.0,0.036401037402758574
961.0,0.03782014709123227
960.0,0.03943409718180235
959.0,0.040958607678906356
958.0,0.042201225070002124
957.0,0.042967683653061695
956.0,0.04315950984076644
955.0,0.04287180232318688
954.0,0.042201225070002124
953.0,0.04138834223512067
952.0,0.040529297924893015
951.0,0.03967194946985697
950.0,0.03886378261277468
949.0,0.038057116858612794
948.0,0.037251946641359446
947.0,0.036542739883292485
946.0,0.03597620715996652
945.0,0.03545753392086315
944.0,0.03489241415094413
943.0,0.03442204208947208
942.0,0.03399914237121604
941.0,0.03362357691107709
940.0,0.033295223342125535
939.0,0.03301397488206215
938.0,0.032873418923587305
937.0,0.03277974021703267
936.0,0.03273290844021437
935.0,0.03263926003405038
934.0,0.032545631817259224
933.0,0.03245202378113787
932.0,0.03245202378113787
931.0,0.03249882527715853
930.0,0.032592443402527316
929.0,0.03273290844021437
928.0,0.03301397488206215
927.0,0.03334211579824231
926.0,0.03362357691107709
925.0,0.033905220553829274
924.0,0.034046110897937076
923.0,0.03414006319292828
922.0,0.03423403581731388
921.0,0.03428102975577918
920.0,0.03428102975577918
919.0,0.034187046963396917
918.0,0.034046110897937076
917.0,0.03385826726096752
916.0,0.03362357691107709
915.0,0.033482823553208085
914.0,0.033295223342125535
913.0,0.0329671178412978
912.0,0.032545631817259224
911.0,0.032031037121307726
910.0,0.03161045815293173
909.0,0.03128362253321426
908.0,0.03105031901865729
907.0,0.030910397045078586
906.0,0.030863766403287585
905.0,0.0307239045110681
904.0,0.03058408764601861
903.0,0.030490901403433135
902.0,0.030537492025363155
901.0,0.03063068826647264
900.0,0.0307239045110681
899.0,0.03081714076773867
898.0,0.030863766403287585
897.0,0.03081714076773867
896.0,0.03063068826647264
895.0,0.030351159519274695
894.0,0.03002526987828502
893.0,0.02960662792039992
892.0,0.029095501846216454
891.0,0.028538594975413334
890.0,0.02798240132598462
889.0,0.02751945012352408
888.0,0.027149444152769986
887.0,0.027056991894431892
886.0,0.027288159452933503
885.0,0.027889771597169544
884.0,0.028863370523193765
883.0,0.030351159519274695
882.0,0.03245202378113787
881.0,0.03517488211661135
880.0,0.038341651362284734
879.0,0.041914151478914974
878.0,0.04585401117045196
877.0,0.04987865248862655
876.0,0.05394093961487645
875.0,0.05784307153250956
874.0,0.06143024377893891
873.0,0.06459351024765114
872.0,0.0671712330991534
871.0,0.06915280831750303
870.0,0.07058107428570715
869.0,0.07150173187630915
868.0,0.0718090519612431
867.0,0.07155293679081787
866.0,0.07078549626260622
865.0,0.06971335275448043
864.0,0.06833876031551878
863.0,0.06661395809694559
862.0,0.06454311928839007
861.0,0.06203099704854709
860.0,0.059135024033278416
859.0,0.05586292684190197
858.0,0.05227227303668425
857.0,0.0486139051197072
856.0,0.04508244626504121
855.0,0.04186632432376469
854.0,0.03914884628031379
853.0,0.037062711569998186
852.0,0.03545753392086315
851.0,0.03428102975577918
850.0,0.033482823553208085
849.0,0.03282657704446046
848.0,0.032218091924200776
847.0,0.03147035562516054
846.0,0.03058408764601861
845.0,0.02932775731028059
844.0,0.027750864037404455
843.0,0.025995203102585407
842.0,0.024338466818941473
841.0,0.02291687968414724
840.0,0.021773818325474092
839.0,0.020861530453190058
838.0,0.020178569969774962
837.0,0.019678413991243593
836.0,0.019178833355664393
835.0,0.01858915983411169
834.0,0.01800028587012159
833.0,0.017412209298337533
832.0,0.016915227262211507
831.0,0.016509028184833463
830.0,0.016238439713835096
829.0,0.015922966097169144
828.0,0.015562705203923999
827.0,0.015292705517326866
826.0,0.015157768594724175
825.0,0.015157768594724175
824.0,0.015112798935672522
823.0,0.015022873584506602
822.0,0.014888020460646079
821.0,0.014753209197138295
820.0,0.014618439768003144
819.0,0.01452861671041239
818.0,0.014349026309051105
817.0,0.014124642691606404
816.0,0.013900374944870508
815.0,0.01381070026317599
814.0,0.013900374944870508
813.0,0.01403492169512921
812.0,0.014079779876432497
811.0,0.014079779876432497
810.0,0.01403492169512921
809.0,0.013990068146738865
808.0,0.013945219230304673
807.0,0.013945219230304673
806.0,0.013945219230304673
805.0,0.013945219230304673
804.0,0.013900374944870508
803.0,0.013945219230304673
802.0,0.014079779876432497
801.0,0.014124642691606404
800.0,0.014124642691606404
799.0,0.014079779876432497
798.0,0.014169510141607944
797.0,0.014304140310157809
796.0,0.01452861671041239
795.0,0.014798141635428141
794.0,0.015112798935672522
793.0,0.01538268676325183
792.0,0.015517693597737248
791.0,0.015517693597737248
790.0,0.015607721475734415
789.0,0.016058141016111804
788.0,0.01677978535189717
787.0,0.017728766960431575
786.0,0.018679826740892747
785.0,0.01949668180660491
784.0,0.02026956933771462
783.0,0.021089422824428272
782.0,0.02200219004126036
781.0,0.02291687968414724
780.0,0.023787622882622816
779.0,0.024568191490736968
778.0,0.025350165561278004
777.0,0.026225806029419818
776.0,0.027334407733889066
775.0,0.02872415126189476
774.0,0.030397735151460825
773.0,0.032124554451966825
772.0,0.033905220553829274
771.0,0.035646070707806565
770.0,0.037488606492403154
769.0,0.03943409718180235
768.0,0.041483896576958834
767.0,0.043735497301724546
766.0,0.04624030826677128
765.0,0.048905443158337114
764.0,0.05173378011970464
763.0,0.054679159207724926
762.0,0.057743849580535134
761.0,0.06083032037482261
760.0,0.06373765809652254
759.0,0.06625970050306473
758.0,0.068389593637038
757.0,0.07007043991541217
756.0,0.07124579782334672
755.0,0.07170658776779781
754.0,0.0716553647351379
753.0,0.07124579782334672
752.0,0.07042782092345012
751.0,0.06915280831750303
750.0,0.06742477650170953
749.0,0.06565307326174441
748.0,0.06424089625468832
747.0,0.06323500239005853
746.0,0.06258241852286206
745.0,0.061880730805688344
744.0,0.06098022355133348
743.0,0.05978244440026481
742.0,0.05843887976392925
741.0,0.057000406633959555
740.0,0.05531996611868961
739.0,0.053351266093323746
738.0,0.05119595406718891
737.0,0.04875964967565971
736.0,0.04599883231842972
735.0,0.04291974034210022
734.0,0.03962436858984186
733.0,0.03635381351515665
732.0,0.033295223342125535
731.0,0.03081714076773867
730.0,0.02904906565457588
729.0,0.027889771597169544
728.0,0.02710321556345563
727.0,0.02677975314776626
726.0,0.027056991894431892
725.0,0.027843464140506313
724.0,0.02890978686288448
723.0,0.03002526987828502
722.0,0.03133029827960798
721.0,0.0329671178412978
720.0,0.0349394793888016
719.0,0.0369681249461018
718.0,0.038816290187564384
717.0,0.04038628892895613
716.0,0.04172287445230238
715.0,0.04301563225723992
714.0,0.04426415772233416
713.0,0.04541983725624266
712.0,0.04624030826677128
711.0,0.04686877481655505
710.0,0.04749815213697639
709.0,0.04837110616336182
708.0,0.049294465226138895
707.0,0.050171041064686284
706.0,0.050805225762017736
705.0,0.05100054597304693
704.0,0.050707598587974356
703.0,0.05021979163799939
702.0,0.04997609347667353
701.0,0.050171041064686284
700.0,0.05056119896349576
699.0,0.05065879322950262
698.0,0.050317309204795935
697.0,0.04987865248862655
696.0,0.04963514562387683
695.0,0.04982994019179987
694.0,0.050414848673348
693.0,0.05129369109514803
692.0,0.0518316382728683
691.0,0.0515870342213991
690.0,0.05075640943173498
689.0,0.04997609347667353
688.0,0.04982994019179987
687.0,0.05012229596312534
686.0,0.050317309204795935
685.0,0.049927370249842395
684.0,0.04905128560059957
683.0,0.04827402457540786
682.0,0.04807992647970649
681.0,0.04841965509660828
680.0,0.0486139051197072
679.0,0.04803141550708934
678.0,0.04682039893436585
677.0,0.0454680573730859
676.0,0.04464904263234004
675.0,0.04426415772233416
674.0,0.04387961360698034
673.0,0.043495409683302455
672.0,0.04368746915880539
671.0,0.04402377775167454
670.0,0.043303435105349175
669.0,0.041197296600497646
668.0,0.040243327009005014
667.0,0.042057664554595586
666.0,0.04402377775167454
665.0,0.0439276630048171
664.0,0.04200982159316968
663.0,0.03957679292217042
662.0,0.03763066432997886
661.0,0.03663723389626394
660.0,0.03644826642590382
659.0,0.03682628362474838
658.0,0.037251946641359446
657.0,0.03701541568300293
656.0,0.03621217265444465
655.0,0.03526907894637077
654.0,0.034469056377139484
653.0,0.034046110897937076
652.0,0.03414006319292828
651.0,0.03442204208947208
650.0,0.03432802877989327
649.0,0.033905220553829274
648.0,0.03399914237121604
647.0,0.0349394793888016
646.0,0.035740369803151095
645.0,0.03512779136222477
644.0,0.033060836978886954
643.0,0.031096969696171817
642.0,0.030397735151460825
641.0,0.030770520137356927
640.0,0.03161045815293173
639.0,0.032545631817259224
638.0,0.03357665405630694
637.0,0.03442204208947208
636.0,0.03503362516890207
635.0,0.03550466044490741
634.0,0.03555179208333925
633.0,0.03465716443937783
632.0,0.03282657704446046
631.0,0.031143625385307683
630.0,0.030211462585061133
629.0,0.029932203450862893
628.0,0.029932203450862893
627.0,0.030211462585061133
626.0,0.03081714076773867
625.0,0.031563752288295444
624.0,0.03245202378113787
623.0,0.03362357691107709
622.0,0.03475124903287918
621.0,0.03475124903287918
620.0,0.033154576345083564
619.0,0.030863766403287585
618.0,0.029188389127482228
617.0,0.028167720075074953
616.0,0.027010773144651168
615.0,0.02544225514642018
614.0,0.024108863598207186
613.0,0.023283295636617574
612.0,0.022871099419317753
611.0,0.02255077261765881
610.0,0.022413561996148967
609.0,0.022367834754000393
608.0,0.02227639471115217
607.0,0.022093572362881675
606.0,0.0214542995372613
605.0,0.02004210665933459
604.0,0.017864505196230507
603.0,0.015652742414136167
602.0,0.014304140310157809
601.0,0.01403492169512921
600.0,0.015067833932588037
