cm-1,A
4000.0,0.05963295401433477
3999.0,0.05973260855398799
3998.0,0.05988213325228142
3997.0,0.05998184499233683
3996.0,0.060081579630943294
3995.0,0.0601813371786204
3994.0,0.06028111764589528
3993.0,0.06038092104330195
3992.0,0.060430831344098435
3991.0,0.06033101647767336
3990.0,0.060131455540490375
3989.0,0.05988213325228142
3988.0,0.05968277842578207
3987.0,0.05968277842578207
3986.0,0.05993198626064755
3985.0,0.0601813371786204
3984.0,0.06038092104330195
3983.0,0.060430831344098435
3982.0,0.06038092104330195
3981.0,0.06033101647767336
3980.0,0.06028111764589528
3979.0,0.060231224546650086
3978.0,0.060231224546650086
3977.0,0.06028111764589528
3976.0,0.06028111764589528
3975.0,0.06028111764589528
3974.0,0.060231224546650086
3973.0,0.060131455540490375
3972.0,0.06003170944866376
3971.0,0.05998184499233683
3970.0,0.05998184499233683
3969.0,0.05998184499233683
3968.0,0.06003170944866376
3967.0,0.06003170944866376
3966.0,0.05998184499233683
3965.0,0.05988213325228142
3964.0,0.05983228596592505
3963.0,0.05988213325228142
3962.0,0.06003170944866376
3961.0,0.06028111764589528
3960.0,0.06058059667068294
3959.0,0.06083032037482261
3958.0,0.06103020277710969
3957.0,0.06098022355133348
3956.0,0.060880282351513104
3955.0,0.060730413661268745
3954.0,0.06063052992534024
3953.0,0.060530669156469985
3952.0,0.06038092104330195
3951.0,0.060231224546650086
3950.0,0.0601813371786204
3949.0,0.06033101647767336
3948.0,0.06058059667068294
3947.0,0.06068046892176193
3946.0,0.06058059667068294
3945.0,0.06033101647767336
3944.0,0.060081579630943294
3943.0,0.05988213325228142
3942.0,0.05973260855398799
3941.0,0.05968277842578207
3940.0,0.05978244440026481
3939.0,0.060081579630943294
3938.0,0.06048074738138154
3937.0,0.06078036414518184
3936.0,0.06093025007657582
3935.0,0.06103020277710969
3934.0,0.06108018775522828
3933.0,0.06103020277710969
3932.0,0.06093025007657582
3931.0,0.06083032037482261
3930.0,0.06068046892176193
3929.0,0.06048074738138154
3928.0,0.06033101647767336
3927.0,0.06028111764589528
3926.0,0.060430831344098435
3925.0,0.06063052992534024
3924.0,0.060730413661268745
3923.0,0.060730413661268745
3922.0,0.060730413661268745
3921.0,0.06068046892176193
3920.0,0.060530669156469985
3919.0,0.06038092104330195
3918.0,0.060430831344098435
3917.0,0.060730413661268745
3916.0,0.06098022355133348
3915.0,0.06103020277710969
3914.0,0.06108018775522828
3913.0,0.06128018521761747
3912.0,0.06153031163235467
3911.0,0.061580354206806964
3910.0,0.061380218497318895
3909.0,0.06103020277710969
3908.0,0.060530669156469985
3907.0,0.060131455540490375
3906.0,0.05988213325228142
3905.0,0.05998184499233683
3904.0,0.06028111764589528
3903.0,0.060530669156469985
3902.0,0.06063052992534024
3901.0,0.06093025007657582
3900.0,0.06153031163235467
3899.0,0.06203099704854709
3898.0,0.06223143295006417
3897.0,0.06223143295006417
3896.0,0.06223143295006417
3895.0,0.062131203436140536
3894.0,0.061880730805688344
3893.0,0.061680456657844385
3892.0,0.06173051653708872
3891.0,0.061780582187257016
3890.0,0.06143024377893891
3889.0,0.06083032037482261
3888.0,0.06083032037482261
3887.0,0.06133019897732073
3886.0,0.06173051653708872
3885.0,0.06153031163235467
3884.0,0.06098022355133348
3883.0,0.06068046892176193
3882.0,0.06103020277710969
3881.0,0.06153031163235467
3880.0,0.061680456657844385
3879.0,0.06143024377893891
3878.0,0.06108018775522828
3877.0,0.06118017497378969
3876.0,0.061580354206806964
3875.0,0.06173051653708872
3874.0,0.06118017497378969
3873.0,0.06028111764589528
3872.0,0.05973260855398799
3871.0,0.060131455540490375
3870.0,0.060880282351513104
3869.0,0.06108018775522828
3868.0,0.06078036414518184
3867.0,0.060880282351513104
3866.0,0.061580354206806964
3865.0,0.06198090252378963
3864.0,0.061780582187257016
3863.0,0.061830653609679764
3862.0,0.06223143295006417
3861.0,0.06263258248271053
3860.0,0.06258241852286206
3859.0,0.06208109735221967
3858.0,0.061380218497318895
3857.0,0.06063052992534024
3856.0,0.060081579630943294
3855.0,0.05993198626064755
3854.0,0.06038092104330195
3853.0,0.06133019897732073
3852.0,0.06153031163235467
3851.0,0.06098022355133348
3850.0,0.06143024377893891
3849.0,0.06243196139961715
3848.0,0.06283329628496737
3847.0,0.06258241852286206
3846.0,0.06218131530164395
3845.0,0.061830653609679764
3844.0,0.06148027482350815
3843.0,0.06103020277710969
3842.0,0.06058059667068294
3841.0,0.060231224546650086
3840.0,0.060131455540490375
3839.0,0.060231224546650086
3838.0,0.06038092104330195
3837.0,0.06033101647767336
3836.0,0.0601813371786204
3835.0,0.060131455540490375
3834.0,0.060430831344098435
3833.0,0.06093025007657582
3832.0,0.06143024377893891
3831.0,0.061680456657844385
3830.0,0.061780582187257016
3829.0,0.06193081377661436
3828.0,0.06218131530164395
3827.0,0.062331685600995
3826.0,0.06203099704854709
3825.0,0.06133019897732073
3824.0,0.060880282351513104
3823.0,0.06103020277710969
3822.0,0.06163040254819374
3821.0,0.06208109735221967
3820.0,0.06193081377661436
3819.0,0.06118017497378969
3818.0,0.06133019897732073
3817.0,0.06248210798265341
3816.0,0.06338573802478864
3815.0,0.06333548699992453
3814.0,0.06283329628496737
3813.0,0.06293368798257193
3812.0,0.06358680028852026
3811.0,0.06388856832514578
3810.0,0.06363708040225546
3809.0,0.06333548699992453
3808.0,0.06343599486473406
3807.0,0.06348625752110681
3806.0,0.06288348923294618
3805.0,0.061880730805688344
3804.0,0.06148027482350815
3803.0,0.06193081377661436
3802.0,0.062281556382736136
3801.0,0.06198090252378963
3800.0,0.06108018775522828
3799.0,0.060430831344098435
3798.0,0.06103020277710969
3797.0,0.06218131530164395
3796.0,0.06288348923294618
3795.0,0.06318476880236723
3794.0,0.06348625752110681
3793.0,0.06403953101083348
3792.0,0.06454311928839007
3791.0,0.06474471821595262
3790.0,0.06469430971007495
3789.0,0.06469430971007495
3788.0,0.06464390705442691
3787.0,0.06449273417528723
3786.0,0.06429125215733666
3785.0,0.06403953101083348
3784.0,0.06353652599525317
3783.0,0.06293368798257193
3782.0,0.06258241852286206
3781.0,0.06268275223750575
3780.0,0.0630843190547461
3779.0,0.06348625752110681
3778.0,0.0636873663378068
3777.0,0.06378795567975115
3776.0,0.06403953101083348
3775.0,0.06429125215733666
3774.0,0.06424089625468832
3773.0,0.06393888339001164
3772.0,0.0636873663378068
3771.0,0.06363708040225546
3770.0,0.06363708040225546
3769.0,0.06348625752110681
3768.0,0.06343599486473406
3767.0,0.06373765809652254
3766.0,0.06439198148213077
3765.0,0.06474471821595262
3764.0,0.06464390705442691
3763.0,0.06434161389936577
3762.0,0.06414020196211956
3761.0,0.06398920428479049
3760.0,0.06343599486473406
3759.0,0.06283329628496737
3758.0,0.06253226035662252
3757.0,0.062281556382736136
3756.0,0.06203099704854709
3755.0,0.061830653609679764
3754.0,0.06173051653708872
3753.0,0.06148027482350815
3752.0,0.0611301784870133
3751.0,0.06128018521761747
3750.0,0.06203099704854709
3749.0,0.062331685600995
3748.0,0.061880730805688344
3747.0,0.061830653609679764
3746.0,0.06268275223750575
3745.0,0.06373765809652254
3744.0,0.06419054619006714
3743.0,0.06383825908884244
3742.0,0.06358680028852026
3741.0,0.06439198148213077
3740.0,0.06514819703433927
3739.0,0.06489597884855036
3738.0,0.06424089625468832
3737.0,0.06388856832514578
3736.0,0.06378795567975115
3735.0,0.06383825908884244
3734.0,0.06393888339001164
3733.0,0.06424089625468832
3732.0,0.06459351024765114
3731.0,0.06469430971007495
3730.0,0.06464390705442691
3729.0,0.06494641076893504
3728.0,0.0655520510510299
3727.0,0.06590573164451952
3726.0,0.06580465065211571
3725.0,0.06550154875643233
3724.0,0.0654005617819271
3723.0,0.06545105233385295
3722.0,0.0653500770992892
3721.0,0.06514819703433927
3720.0,0.06484555278383164
3719.0,0.06469430971007495
3718.0,0.06454311928839007
3717.0,0.06434161389936577
3716.0,0.06408986356949264
3715.0,0.06393888339001164
3714.0,0.06398920428479049
3713.0,0.06398920428479049
3712.0,0.06403953101083348
3711.0,0.06454311928839007
3710.0,0.06524912533642091
3709.0,0.06565307326174441
3708.0,0.0658551882075229
3707.0,0.06600683616875758
3706.0,0.06600683616875758
3705.0,0.06600683616875758
3704.0,0.0659562809644747
3703.0,0.0659562809644747
3702.0,0.06580465065211571
3701.0,0.06545105233385295
3700.0,0.06504729218214189
3699.0,0.06489597884855036
3698.0,0.06524912533642091
3697.0,0.06570359318059427
3696.0,0.0659562809644747
3695.0,0.0659562809644747
3694.0,0.06590573164451952
3693.0,0.06570359318059427
3692.0,0.06519865825346338
3691.0,0.06444235490698613
3690.0,0.06393888339001164
3689.0,0.06378795567975115
3688.0,0.06353652599525317
3687.0,0.06313454102437754
3686.0,0.06333548699992453
3685.0,0.06424089625468832
3684.0,0.06519865825346338
3683.0,0.06560255921901192
3682.0,0.06560255921901192
3681.0,0.0655520510510299
3680.0,0.0654005617819271
3679.0,0.06489597884855036
3678.0,0.06419054619006714
3677.0,0.06373765809652254
3676.0,0.0636873663378068
3675.0,0.06353652599525317
3674.0,0.06268275223750575
3673.0,0.06198090252378963
3672.0,0.06268275223750575
3671.0,0.06393888339001164
3670.0,0.06464390705442691
3669.0,0.06499684854634524
3668.0,0.06504729218214189
3667.0,0.06519865825346338
3666.0,0.06575411897692884
3665.0,0.0663102910421054
3664.0,0.06661395809694559
3663.0,0.06671522765130522
3662.0,0.0666645899223488
3661.0,0.06646209802829528
3660.0,0.06605739725873905
3659.0,0.06570359318059427
3658.0,0.06565307326174441
3657.0,0.06575411897692884
3656.0,0.0658551882075229
3655.0,0.0655520510510299
3654.0,0.06504729218214189
3653.0,0.06479513257341862
3652.0,0.06459351024765114
3651.0,0.06414020196211956
3650.0,0.0636873663378068
3649.0,0.06424089625468832
3648.0,0.06519865825346338
3647.0,0.06545105233385295
3646.0,0.06524912533642091
3645.0,0.06550154875643233
3644.0,0.06610796423578891
3643.0,0.06681652082538614
3642.0,0.06732334137759932
3641.0,0.0676277178520861
3640.0,0.06777998612288094
3639.0,0.06788152797087754
3638.0,0.06788152797087754
3637.0,0.06767846801070698
3636.0,0.06747550294945781
3635.0,0.06747550294945781
3634.0,0.06742477650170953
3633.0,0.06706985716921054
3632.0,0.06656333217371957
3631.0,0.06636088747507496
3630.0,0.06641148980334699
3629.0,0.06671522765130522
3628.0,0.06696850489759454
3627.0,0.06686717627326577
3626.0,0.06691783763020887
3625.0,0.06742477650170953
3624.0,0.0675769736232612
3623.0,0.06712054217620067
3622.0,0.06646209802829528
3621.0,0.0659562809644747
3620.0,0.06570359318059427
3619.0,0.06575411897692884
3618.0,0.06600683616875758
3617.0,0.06625970050306473
3616.0,0.06661395809694559
3615.0,0.06701917807680191
3614.0,0.06722192993944942
3613.0,0.0671712330991534
3612.0,0.06706985716921054
3611.0,0.0671712330991534
3610.0,0.06752623532284674
3609.0,0.0680846829187538
3608.0,0.0685421293109949
3607.0,0.0688982543673613
3606.0,0.0690000580438479
3605.0,0.06894915322260897
3604.0,0.06874559358358656
3603.0,0.06833876031551878
3602.0,0.0678307540792078
3601.0,0.06752623532284674
3600.0,0.06737405597821788
3599.0,0.06737405597821788
3598.0,0.06737405597821788
3597.0,0.06732334137759932
3596.0,0.06727263269847072
3595.0,0.06737405597821788
3594.0,0.06767846801070698
3593.0,0.06798309356579857
3592.0,0.06813548650796819
3591.0,0.0681862960408608
3590.0,0.06828793294324442
3589.0,0.0684912781333824
3588.0,0.06879647454924775
3587.0,0.06894915322260897
3586.0,0.06879647454924775
3585.0,0.06833876031551878
3584.0,0.0680846829187538
3583.0,0.06813548650796819
3582.0,0.06828793294324442
3581.0,0.0685421293109949
3580.0,0.06879647454924775
3579.0,0.06905096883247697
3578.0,0.0691018855898955
3577.0,0.06894915322260897
3576.0,0.06874559358358656
3575.0,0.06864384953207203
3574.0,0.06864384953207203
3573.0,0.06879647454924775
3572.0,0.0688982543673613
3571.0,0.06894915322260897
3570.0,0.06884736147670667
3569.0,0.06864384953207203
3568.0,0.068389593637038
3567.0,0.06833876031551878
3566.0,0.06859298644342648
3565.0,0.06874559358358656
3564.0,0.06874559358358656
3563.0,0.06884736147670667
3562.0,0.0690000580438479
3561.0,0.0692037370166998
3560.0,0.06940751155740177
3559.0,0.06956040523329987
3558.0,0.06956040523329987
3557.0,0.06950943469373039
3556.0,0.06956040523329987
3555.0,0.06966236426227002
3554.0,0.06976434723371505
3553.0,0.06966236426227002
3552.0,0.06940751155740177
3551.0,0.06915280831750303
3550.0,0.06905096883247697
3549.0,0.06915280831750303
3548.0,0.06930561233546473
3547.0,0.06935655895783555
3546.0,0.06930561233546473
3545.0,0.06925467168888666
3544.0,0.06935655895783555
3543.0,0.06950943469373039
3542.0,0.06971335275448043
3541.0,0.0699173666076287
3540.0,0.0699173666076287
3539.0,0.06986635415888243
3538.0,0.06986635415888243
3537.0,0.0699173666076287
3536.0,0.07007043991541217
3535.0,0.07017251876930874
3534.0,0.07012147634321675
3533.0,0.0699173666076287
3532.0,0.06966236426227002
3531.0,0.06940751155740177
3530.0,0.06925467168888666
3529.0,0.06930561233546473
3528.0,0.06950943469373039
3527.0,0.06976434723371505
3526.0,0.07007043991541217
3525.0,0.0702746216219956
3524.0,0.07037674848475972
3523.0,0.07037674848475972
3522.0,0.07032568205141221
3521.0,0.07032568205141221
3520.0,0.0702746216219956
3519.0,0.07017251876930874
3518.0,0.07007043991541217
3517.0,0.07012147634321675
3516.0,0.07042782092345012
3515.0,0.07083661679493547
3514.0,0.07109230975604719
3513.0,0.07114346641808922
3512.0,0.0709900145060387
3511.0,0.07083661679493547
3510.0,0.07068327324650436
3509.0,0.07058107428570715
3508.0,0.07047889936889606
3507.0,0.07037674848475972
3506.0,0.07032568205141221
3505.0,0.07037674848475972
3504.0,0.07047889936889606
3503.0,0.07063217075990047
3502.0,0.07073438174693436
3501.0,0.0709900145060387
3500.0,0.0713481533463054
3499.0,0.07170658776779781
3498.0,0.07186029312488018
3497.0,0.07170658776779781
3496.0,0.07155293679081787
3495.0,0.07160414774328627
3494.0,0.0718090519612431
3493.0,0.07196279359311708
3492.0,0.07170658776779781
3491.0,0.07119462910671581
3490.0,0.07063217075990047
3489.0,0.07037674848475972
3488.0,0.07047889936889606
3487.0,0.07083661679493547
3486.0,0.07119462910671581
3485.0,0.07139934015547578
3484.0,0.07145053299833615
3483.0,0.07139934015547578
3482.0,0.07129697256940304
3481.0,0.07124579782334672
3480.0,0.0713481533463054
3479.0,0.07160414774328627
3478.0,0.07186029312488018
3477.0,0.0720140529005715
3476.0,0.07191154033502922
3475.0,0.0716553647351379
3474.0,0.07145053299833615
3473.0,0.07145053299833615
3472.0,0.0716553647351379
3471.0,0.07186029312488018
3470.0,0.0720140529005715
3469.0,0.07196279359311708
3468.0,0.0718090519612431
3467.0,0.0716553647351379
3466.0,0.07155293679081787
3465.0,0.07170658776779781
3464.0,0.07211658966929302
3463.0,0.0725783049495814
3462.0,0.07288638806623937
3461.0,0.07283502570063005
3460.0,0.07247565912497134
3459.0,0.0720140529005715
3458.0,0.07170658776779781
3457.0,0.07160414774328627
3456.0,0.07160414774328627
3455.0,0.07170658776779781
3454.0,0.0718090519612431
3453.0,0.0718090519612431
3452.0,0.07175781684269089
3451.0,0.0716553647351379
3450.0,0.07150173187630915
3449.0,0.07129697256940304
3448.0,0.07114346641808922
3447.0,0.07109230975604719
3446.0,0.07114346641808922
3445.0,0.07129697256940304
3444.0,0.07139934015547578
3443.0,0.07139934015547578
3442.0,0.07139934015547578
3441.0,0.07145053299833615
3440.0,0.07170658776779781
3439.0,0.07211658966929302
3438.0,0.07252697900472405
3437.0,0.07283502570063005
3436.0,0.07288638806623937
3435.0,0.07283502570063005
3434.0,0.07278366940873537
3433.0,0.07273231918911849
3432.0,0.07278366940873537
3431.0,0.07288638806623937
3430.0,0.07293775650699996
3429.0,0.07304051161972436
3428.0,0.07304051161972436
3427.0,0.0729891310243489
3426.0,0.07293775650699996
3425.0,0.07293775650699996
3424.0,0.0729891310243489
3423.0,0.0729891310243489
3422.0,0.07304051161972436
3421.0,0.07304051161972436
3420.0,0.07304051161972436
3419.0,0.0729891310243489
3418.0,0.0729891310243489
3417.0,0.0729891310243489
3416.0,0.0729891310243489
3415.0,0.07304051161972436
3414.0,0.07319468988839395
3413.0,0.07334892291111106
3412.0,0.07334892291111106
3411.0,0.07319468988839395
3410.0,0.0729891310243489
3409.0,0.07283502570063005
3408.0,0.07283502570063005
3407.0,0.07293775650699996
3406.0,0.07309189829456408
3405.0,0.07314329105030759
3404.0,0.07309189829456408
3403.0,0.07288638806623937
3402.0,0.07273231918911849
3401.0,0.07268097504034388
3400.0,0.07288638806623937
3399.0,0.07309189829456408
3398.0,0.07329750581735506
3397.0,0.07340034609297241
3396.0,0.07340034609297241
3395.0,0.07334892291111106
3394.0,0.0732460948102629
3393.0,0.07329750581735506
3392.0,0.07340034609297241
3391.0,0.07350321072677968
3390.0,0.0734517753643813
3389.0,0.07329750581735506
3388.0,0.0729891310243489
3387.0,0.07268097504034388
3386.0,0.07252697900472405
3385.0,0.07262963696097646
3384.0,0.07293775650699996
3383.0,0.0732460948102629
3382.0,0.07329750581735506
3381.0,0.07319468988839395
3380.0,0.0729891310243489
3379.0,0.07288638806623937
3378.0,0.07283502570063005
3377.0,0.07283502570063005
3376.0,0.07273231918911849
3375.0,0.0725783049495814
3374.0,0.07247565912497134
3373.0,0.07247565912497134
3372.0,0.07268097504034388
3371.0,0.0729891310243489
3370.0,0.0732460948102629
3369.0,0.0732460948102629
3368.0,0.07314329105030759
3367.0,0.07304051161972436
3366.0,0.0729891310243489
3365.0,0.0729891310243489
3364.0,0.07304051161972436
3363.0,0.07309189829456408
3362.0,0.07314329105030759
3361.0,0.0732460948102629
3360.0,0.07329750581735506
3359.0,0.07340034609297241
3358.0,0.07350321072677968
3357.0,0.07340034609297241
3356.0,0.0732460948102629
3355.0,0.07304051161972436
3354.0,0.07293775650699996
3353.0,0.07283502570063005
3352.0,0.07273231918911849
3351.0,0.07262963696097646
3350.0,0.07268097504034388
3349.0,0.07283502570063005
3348.0,0.07304051161972436
3347.0,0.0732460948102629
3346.0,0.0734517753643813
3345.0,0.07376047895413773
3344.0,0.07412091069849924
3343.0,0.07437854520917098
3342.0,0.07443009045662374
3341.0,0.07422394616325367
3340.0,0.07391491307485598
3339.0,0.07376047895413773
3338.0,0.07370901311513656
3337.0,0.07376047895413773
3336.0,0.07376047895413773
3335.0,0.07376047895413773
3334.0,0.07370901311513656
3333.0,0.07360609973031784
3332.0,0.07355465218161061
3331.0,0.07350321072677968
3330.0,0.07340034609297241
3329.0,0.07334892291111106
3328.0,0.07334892291111106
3327.0,0.0734517753643813
3326.0,0.07350321072677968
3325.0,0.07350321072677968
3324.0,0.0732460948102629
3323.0,0.0729891310243489
3322.0,0.07293775650699996
3321.0,0.07314329105030759
3320.0,0.0734517753643813
3319.0,0.07365755337434488
3318.0,0.07350321072677968
3317.0,0.07314329105030759
3316.0,0.07273231918911849
3315.0,0.07262963696097646
3314.0,0.07283502570063005
3313.0,0.07319468988839395
3312.0,0.07360609973031784
3311.0,0.07396640332115534
3310.0,0.07422394616325367
3309.0,0.07437854520917098
3308.0,0.07443009045662374
3307.0,0.07437854520917098
3306.0,0.07427547306393745
3305.0,0.07406940213152868
3304.0,0.07391491307485598
3303.0,0.07376047895413773
3302.0,0.07370901311513656
3301.0,0.07381195089279391
3300.0,0.07401789967289685
3299.0,0.07417242537525759
3298.0,0.07432700607875953
3297.0,0.07437854520917098
3296.0,0.07437854520917098
3295.0,0.07437854520917098
3294.0,0.07437854520917098
3293.0,0.07437854520917098
3292.0,0.07432700607875953
3291.0,0.07437854520917098
3290.0,0.07458476291575367
3289.0,0.07489427319033615
3288.0,0.07515236702446293
3287.0,0.07515236702446293
3286.0,0.07489427319033615
3285.0,0.07453319930846214
3284.0,0.07422394616325367
3283.0,0.07412091069849924
3282.0,0.07422394616325367
3281.0,0.07432700607875953
3280.0,0.07432700607875953
3279.0,0.07417242537525759
3278.0,0.07406940213152868
3277.0,0.07401789967289685
3276.0,0.07412091069849924
3275.0,0.07427547306393745
3274.0,0.07437854520917098
3273.0,0.07443009045662374
3272.0,0.07437854520917098
3271.0,0.07432700607875953
3270.0,0.07422394616325367
3269.0,0.07401789967289685
3268.0,0.07386342893255127
3267.0,0.07376047895413773
3266.0,0.07381195089279391
3265.0,0.07396640332115534
3264.0,0.07412091069849924
3263.0,0.07427547306393745
3262.0,0.07437854520917098
3261.0,0.07432700607875953
3260.0,0.07417242537525759
3259.0,0.07401789967289685
3258.0,0.07396640332115534
3257.0,0.07406940213152868
3256.0,0.07422394616325367
3255.0,0.07437854520917098
3254.0,0.07443009045662374
3253.0,0.07432700607875953
3252.0,0.07417242537525759
3251.0,0.07401789967289685
3250.0,0.07391491307485598
3249.0,0.07386342893255127
3248.0,0.07386342893255127
3247.0,0.07401789967289685
3246.0,0.07417242537525759
3245.0,0.07422394616325367
3244.0,0.07406940213152868
3243.0,0.07391491307485598
3242.0,0.07391491307485598
3241.0,0.07396640332115534
3240.0,0.07401789967289685
3239.0,0.07396640332115534
3238.0,0.07386342893255127
3237.0,0.07381195089279391
3236.0,0.07381195089279391
3235.0,0.07381195089279391
3234.0,0.07376047895413773
3233.0,0.07360609973031784
3232.0,0.0734517753643813
3231.0,0.0734517753643813
3230.0,0.07350321072677968
3229.0,0.07355465218161061
3228.0,0.07350321072677968
3227.0,0.0734517753643813
3226.0,0.0734517753643813
3225.0,0.0734517753643813
3224.0,0.07340034609297241
3223.0,0.07334892291111106
3222.0,0.07334892291111106
3221.0,0.07329750581735506
3220.0,0.0732460948102629
3219.0,0.0732460948102629
3218.0,0.07340034609297241
3217.0,0.07355465218161061
3216.0,0.07365755337434488
3215.0,0.07360609973031784
3214.0,0.07340034609297241
3213.0,0.0732460948102629
3212.0,0.0732460948102629
3211.0,0.07340034609297241
3210.0,0.07360609973031784
3209.0,0.07381195089279391
3208.0,0.07391491307485598
3207.0,0.07406940213152868
3206.0,0.07412091069849924
3205.0,0.07412091069849924
3204.0,0.07412091069849924
3203.0,0.07417242537525759
3202.0,0.07422394616325367
3201.0,0.07422394616325367
3200.0,0.07412091069849924
3199.0,0.07391491307485598
3198.0,0.07376047895413773
3197.0,0.07365755337434488
3196.0,0.07355465218161061
3195.0,0.07350321072677968
3194.0,0.07355465218161061
3193.0,0.07360609973031784
3192.0,0.07370901311513656
3191.0,0.07376047895413773
3190.0,0.07376047895413773
3189.0,0.07360609973031784
3188.0,0.07350321072677968
3187.0,0.0734517753643813
3186.0,0.07340034609297241
3185.0,0.07334892291111106
3184.0,0.0732460948102629
3183.0,0.07319468988839395
3182.0,0.07329750581735506
3181.0,0.0734517753643813
3180.0,0.07360609973031784
3179.0,0.07370901311513656
3178.0,0.07355465218161061
3177.0,0.0732460948102629
3176.0,0.07293775650699996
3175.0,0.07288638806623937
3174.0,0.0729891310243489
3173.0,0.0732460948102629
3172.0,0.07340034609297241
3171.0,0.07350321072677968
3170.0,0.07350321072677968
3169.0,0.0734517753643813
3168.0,0.07340034609297241
3167.0,0.07334892291111106
3166.0,0.07329750581735506
3165.0,0.0732460948102629
3164.0,0.07309189829456408
3163.0,0.07293775650699996
3162.0,0.07273231918911849
3161.0,0.0725783049495814
3160.0,0.07237303755504598
3159.0,0.07221915065262552
3158.0,0.07211658966929302
3157.0,0.07206531825882068
3156.0,0.07211658966929302
3155.0,0.07221915065262552
3154.0,0.07232173586200852
3153.0,0.07237303755504598
3152.0,0.07242434530888953
3151.0,0.07232173586200852
3150.0,0.07221915065262552
3149.0,0.07211658966929302
3148.0,0.07206531825882068
3147.0,0.07216786713341827
3146.0,0.07221915065262552
3145.0,0.07211658966929302
3144.0,0.07191154033502922
3143.0,0.07160414774328627
3142.0,0.07150173187630915
3141.0,0.07160414774328627
3140.0,0.07186029312488018
3139.0,0.07216786713341827
3138.0,0.07227044022834539
3137.0,0.07216786713341827
3136.0,0.07196279359311708
3135.0,0.07175781684269089
3134.0,0.07155293679081787
3133.0,0.07145053299833615
3132.0,0.07145053299833615
3131.0,0.07155293679081787
3130.0,0.07175781684269089
3129.0,0.07191154033502922
3128.0,0.07191154033502922
3127.0,0.07186029312488018
3126.0,0.07170658776779781
3125.0,0.07160414774328627
3124.0,0.07139934015547578
3123.0,0.07119462910671581
3122.0,0.0709900145060387
3121.0,0.07083661679493547
3120.0,0.07078549626260622
3119.0,0.07083661679493547
3118.0,0.07088774334533943
3117.0,0.07078549626260622
3116.0,0.07058107428570715
3115.0,0.07037674848475972
3114.0,0.07022356719509815
3113.0,0.07017251876930874
3112.0,0.07022356719509815
3111.0,0.07032568205141221
3110.0,0.07032568205141221
3109.0,0.07032568205141221
3108.0,0.07037674848475972
3107.0,0.07042782092345012
3106.0,0.07047889936889606
3105.0,0.07032568205141221
3104.0,0.06996838504902692
3103.0,0.06956040523329987
3102.0,0.06930561233546473
3101.0,0.06930561233546473
3100.0,0.06930561233546473
3099.0,0.06930561233546473
3098.0,0.06915280831750303
3097.0,0.0690000580438479
3096.0,0.06879647454924775
3095.0,0.06859298644342648
3094.0,0.06844043290919477
3093.0,0.06828793294324442
3092.0,0.0681862960408608
3091.0,0.0680846829187538
3090.0,0.06793230779927839
3089.0,0.06772922410050963
3088.0,0.06752623532284674
3087.0,0.06747550294945781
3086.0,0.06767846801070698
3085.0,0.06798309356579857
3084.0,0.0681862960408608
3083.0,0.06823711151882228
3082.0,0.06823711151882228
3081.0,0.0681862960408608
3080.0,0.06813548650796819
3079.0,0.06813548650796819
3078.0,0.06803388527182741
3077.0,0.06788152797087754
3076.0,0.0675769736232612
3075.0,0.06712054217620067
3074.0,0.0666645899223488
3073.0,0.0663102910421054
3072.0,0.06615853710127872
3071.0,0.0663102910421054
3070.0,0.0665127121512945
3069.0,0.06661395809694559
3068.0,0.06661395809694559
3067.0,0.06646209802829528
3066.0,0.06636088747507496
3065.0,0.06636088747507496
3064.0,0.06636088747507496
3063.0,0.06625970050306473
3062.0,0.06600683616875758
3061.0,0.06560255921901192
3060.0,0.06514819703433927
3059.0,0.06484555278383164
3058.0,0.06474471821595262
3057.0,0.06484555278383164
3056.0,0.06489597884855036
3055.0,0.06484555278383164
3054.0,0.06464390705442691
3053.0,0.06434161389936577
3052.0,0.06414020196211956
3051.0,0.06388856832514578
3050.0,0.06358680028852026
3049.0,0.06318476880236723
3048.0,0.06278310913729457
3047.0,0.06248210798265341
3046.0,0.062381820606176586
3045.0,0.06243196139961715
3044.0,0.06253226035662252
3043.0,0.06263258248271053
3042.0,0.06268275223750575
3041.0,0.06258241852286206
3040.0,0.062281556382736136
3039.0,0.06193081377661436
3038.0,0.06153031163235467
3037.0,0.06118017497378969
3036.0,0.06093025007657582
3035.0,0.06083032037482261
3034.0,0.060730413661268745
3033.0,0.06058059667068294
3032.0,0.06038092104330195
3031.0,0.060131455540490375
3030.0,0.05983228596592505
3029.0,0.05948351506743288
3028.0,0.05918479134919874
3027.0,0.05898575629443026
3026.0,0.058836539841526925
3025.0,0.05868737463933793
3024.0,0.05843887976392925
3023.0,0.05804158346918653
3022.0,0.05769424710410598
3021.0,0.057396751157843484
3020.0,0.057198533682059516
3019.0,0.057049929922901255
3018.0,0.0567528748621382
3017.0,0.05635711724787096
3016.0,0.05586292684190197
3015.0,0.05541863577307371
3014.0,0.0549747987575373
3013.0,0.05462990550969615
3012.0,0.054186873412661596
3011.0,0.05379344615721715
3010.0,0.053449489430144714
3009.0,0.0531548860393769
3008.0,0.05286048235717078
3007.0,0.052468254304406825
3006.0,0.052027420754219955
3005.0,0.0515870342213991
3004.0,0.05114709380028648
3003.0,0.050805225762017736
3002.0,0.05036607620073763
3001.0,0.049927370249842395
3000.0,0.04953778109440221
2999.0,0.049245818406496555
2998.0,0.04905128560059957
2997.0,0.04875964967565971
2996.0,0.04837110616336182
2995.0,0.047934409814949674
2994.0,0.04754660357696672
2993.0,0.04711073508906982
2992.0,0.04667530361081473
2991.0,0.04628861957244457
2990.0,0.045902279520810385
2989.0,0.045660991397539874
2988.0,0.045564513671517703
2987.0,0.045564513671517703
2986.0,0.045660991397539874
2985.0,0.04575749056067524
2984.0,0.04585401117045196
2983.0,0.04599883231842972
2982.0,0.04643358574299339
2981.0,0.04715914332429838
2980.0,0.04807992647970649
2979.0,0.049245818406496555
2978.0,0.05056119896349576
2977.0,0.05217431555754937
2976.0,0.054186873412661596
2975.0,0.05660442349104544
2974.0,0.05933412752417122
2973.0,0.06253226035662252
2972.0,0.06625970050306473
2971.0,0.07083661679493547
2970.0,0.07623803917129979
2969.0,0.08228448344050654
2968.0,0.08894897967187343
2967.0,0.096150661903319
2966.0,0.10397008760377302
2965.0,0.11232644754555254
2964.0,0.12101887660626365
2963.0,0.1294790499872358
2962.0,0.1370342410222376
2961.0,0.1432711096171173
2960.0,0.1480693213597324
2959.0,0.1517492853229574
2958.0,0.15471587365200845
2957.0,0.15782777061438424
2956.0,0.16165473122400909
2955.0,0.16698045292346864
2954.0,0.1743791749964998
2953.0,0.18395765907800343
2952.0,0.19517932127883775
2951.0,0.2069083998234198
2950.0,0.21767073100316314
2949.0,0.2259942697417905
2948.0,0.23054882059796222
2947.0,0.2306226739238615
2946.0,0.22621355501880647
2945.0,0.21795758337944582
2944.0,0.20718822875185294
2943.0,0.19504320014250842
2942.0,0.18269912160667867
2941.0,0.1711468403233598
2940.0,0.16127680996862814
2939.0,0.1535391748706676
2938.0,0.14819148577176255
2937.0,0.14502632627358292
2936.0,0.14375459920994582
2935.0,0.14429916916456276
2934.0,0.14642345638035836
2933.0,0.15015080439474215
2932.0,0.15546069787099204
2931.0,0.16222223044626682
2930.0,0.17031035910102887
2929.0,0.17933886535640453
2928.0,0.18909571933129965
2927.0,0.19935164463601196
2926.0,0.20992605157369537
2925.0,0.2206199885083442
2924.0,0.23143589048642665
2923.0,0.24245214653075609
2922.0,0.25391095694379984
2921.0,0.26600071346161314
2920.0,0.2786016244784948
2919.0,0.29140915484965624
2918.0,0.3039058400047767
2917.0,0.3148855309534606
2916.0,0.3233063903751334
2915.0,0.3279945549770482
2914.0,0.3286419965565084
2913.0,0.32569011105852286
2912.0,0.32011805788713765
2911.0,0.31327437892545795
2910.0,0.30636097383845184
2909.0,0.2999889376778877
2908.0,0.2943073034622965
2907.0,0.2891213823148271
2906.0,0.28424728317714054
2905.0,0.2795099315499485
2904.0,0.27474193364003896
2903.0,0.26978315943130604
2902.0,0.2645607967485186
2901.0,0.25916379294268843
2900.0,0.25391095694379984
2899.0,0.24879790541164692
2898.0,0.24389662841489446
2897.0,0.2391253619478111
2896.0,0.23448045690204733
2895.0,0.2299584456803314
2894.0,0.22555603107503486
2893.0,0.2214146721370378
2892.0,0.21759904750347014
2891.0,0.21438547505317596
2890.0,0.21183162885883222
2889.0,0.2101373699536182
2888.0,0.20901152491118413
2887.0,0.2083093509798819
2886.0,0.20795868928791772
2885.0,0.20781850385032108
2884.0,0.20795868928791772
2883.0,0.20844969497266996
2882.0,0.2092223986623063
2881.0,0.21034879120659045
2880.0,0.2119731159041962
2879.0,0.21381665443236653
2878.0,0.21573941743391623
2877.0,0.21731243176503368
2876.0,0.21817284706757212
2875.0,0.21817284706757212
2874.0,0.21759904750347014
2873.0,0.21695442788530706
2872.0,0.21659671887743648
2871.0,0.21702600505595182
2870.0,0.21831641549264935
2869.0,0.22047565667521019
2868.0,0.22337144657984997
2867.0,0.22635980673997413
2866.0,0.22870655737094037
2865.0,0.2296635589048508
2864.0,0.22848601002033342
2863.0,0.22497239990115525
2862.0,0.2193946941610303
2861.0,0.21239785381766252
2860.0,0.2049546295788751
2859.0,0.19777376230892996
2858.0,0.19165396425960513
2857.0,0.18688624599210146
2856.0,0.18349356295364294
2855.0,0.1815101777957866
2854.0,0.18065351591954726
2853.0,0.18104868835982724
2852.0,0.18269912160667867
2851.0,0.18555262147751228
2850.0,0.18936429972446267
2849.0,0.1934808659192948
2848.0,0.19702114466473808
2847.0,0.19962664510865036
2846.0,0.20121128604875071
2845.0,0.20252471246266568
2844.0,0.20453710560962013
2843.0,0.2076783636484265
2842.0,0.212185432936977
2841.0,0.21767073100316314
2840.0,0.22366209037982476
2839.0,0.22951619056889205
2838.0,0.2344059446805551
2837.0,0.23754651763645307
2836.0,0.23859844250136897
2835.0,0.23724643506662613
2834.0,0.2336615247487126
2833.0,0.2280452510360509
2832.0,0.22105327203138314
2831.0,0.2133195468033513
2830.0,0.20565139610391725
2829.0,0.19866490432545336
2828.0,0.19266796070880954
2827.0,0.18748771571001743
2826.0,0.18302996224270052
2825.0,0.17907641211868253
2824.0,0.17574396237031764
2823.0,0.1730186630880064
2822.0,0.1706318920111798
2821.0,0.16838614469090118
2820.0,0.16627930955536674
2819.0,0.16430942850757435
2818.0,0.16253782851400533
2817.0,0.16102504504453208
2816.0,0.159517512786558
2815.0,0.15801519540988607
2814.0,0.15664262156204445
2813.0,0.15546069787099204
2812.0,0.15446788250642451
2811.0,0.1535391748706676
2810.0,0.1527358982292355
2809.0,0.15181088300860135
2808.0,0.15088783381542248
2807.0,0.14984407757790774
2806.0,0.14874165128092476
2805.0,0.14752000636314366
2804.0,0.14630178822382556
2803.0,0.14514763758216587
2802.0,0.14429916916456276
2801.0,0.14369413356670102
2800.0,0.14321071124668383
2799.0,0.1427278264359586
2798.0,0.14212497447643746
2797.0,0.14140265500530758
2796.0,0.14056146454494378
2795.0,0.1397219002477652
2794.0,0.1388839558386048
2793.0,0.13822670328130693
2792.0,0.13774932540207496
2791.0,0.1373320497714121
2790.0,0.1370342410222376
2789.0,0.1366771398795441
2788.0,0.136142038116027
2787.0,0.13531096586314884
2786.0,0.13448148092522594
2785.0,0.1337717526203528
2784.0,0.13335827943396006
2783.0,0.13306318226836056
2782.0,0.1325325121409484
2781.0,0.13182595914036166
2780.0,0.1311205537629121
2779.0,0.1305922506177981
2778.0,0.1302990263261221
2777.0,0.13006458935314003
2776.0,0.12977172098820566
2775.0,0.12942053944731513
2774.0,0.12895273869450063
2773.0,0.1284854412916181
2772.0,0.1280186461566306
2771.0,0.1277271537757949
2770.0,0.12743585690934855
2769.0,0.12714475529518965
2768.0,0.12691201440971422
2767.0,0.126621263590859
2766.0,0.12627261935332057
2765.0,0.12598229613781387
2764.0,0.12575017722159698
2763.0,0.12557616941349803
2762.0,0.12546020292898974
2761.0,0.1252863112422209
2760.0,0.125054563914468
2759.0,0.12476505354983503
2758.0,0.1244757360506914
2757.0,0.12424442074194553
2756.0,0.12418661116024232
2755.0,0.12418661116024232
2754.0,0.12412880927263426
2753.0,0.12401322857151209
2752.0,0.12395544975390482
2751.0,0.12395544975390482
2750.0,0.12383991517437187
2749.0,0.1236666709136196
2748.0,0.12337808396572703
2747.0,0.12320502379929943
2746.0,0.12303203256741524
2745.0,0.12291674334934943
2744.0,0.12274386688641381
2743.0,0.12257105921178035
2742.0,0.12245589228405596
2741.0,0.12234075588839133
2740.0,0.12234075588839133
2739.0,0.12234075588839133
2738.0,0.12234075588839133
2737.0,0.12222565000860186
2736.0,0.12205304837081177
2735.0,0.12193801870998744
2734.0,0.1219955297319748
2733.0,0.12205304837081177
2732.0,0.12216810850710624
2731.0,0.12228319913502328
2730.0,0.12239832027072817
2729.0,0.12251347193039863
2728.0,0.12257105921178035
2727.0,0.12274386688641381
2726.0,0.12291674334934943
2725.0,0.12326270285933538
2724.0,0.12372441132212098
2723.0,0.12424442074194553
2722.0,0.12453358413361437
2721.0,0.12459143992293642
2720.0,0.12441789567211425
2719.0,0.12412880927263426
2718.0,0.12378215940835768
2717.0,0.12337808396572703
2716.0,0.12303203256741524
2715.0,0.12274386688641381
2714.0,0.12245589228405596
2713.0,0.12228319913502328
2712.0,0.12216810850710624
2711.0,0.12193801870998744
2710.0,0.12165057778222454
2709.0,0.1213058996038916
2708.0,0.12101887660626365
2707.0,0.12084675381575383
2706.0,0.12067469921519258
2705.0,0.12050271275057156
2704.0,0.12015894401343741
2703.0,0.11987267778337518
2702.0,0.11964380058076385
2701.0,0.11952940719622163
2700.0,0.11935787359571504
2699.0,0.11924355548978971
2698.0,0.11912926746757657
2697.0,0.1190150095132465
2696.0,0.11890078161098283
2695.0,0.11878658374498086
2694.0,0.11861534322942724
2693.0,0.11844417020668851
2692.0,0.11844417020668851
2691.0,0.11850122038501709
2690.0,0.11855827805860697
2689.0,0.11855827805860697
2688.0,0.11844417020668851
2687.0,0.11844417020668851
2686.0,0.11844417020668851
2685.0,0.11850122038501709
2684.0,0.11855827805860697
2683.0,0.11855827805860697
2682.0,0.11850122038501709
2681.0,0.11833009232793867
2680.0,0.11815903167507247
2679.0,0.11798803837334138
2678.0,0.11787408022996826
2677.0,0.11781711236973003
2676.0,0.11770319906234805
2675.0,0.11764625361128611
2674.0,0.11764625361128611
2673.0,0.11764625361128611
2672.0,0.11770319906234805
2671.0,0.11781711236973003
2670.0,0.11787408022996826
2669.0,0.11793105556385153
2668.0,0.11781711236973003
2667.0,0.11764625361128611
2666.0,0.11730473761840288
2665.0,0.1170772093974013
2664.0,0.11702034596270106
2663.0,0.11713408027837091
2662.0,0.11736163830396129
2661.0,0.1174754620451195
2660.0,0.11741854644554883
2659.0,0.11719095860756013
2658.0,0.1169634899723202
2657.0,0.11690664142431006
2656.0,0.1170772093974013
2655.0,0.11736163830396129
2654.0,0.1175323851046286
2653.0,0.1174754620451195
2652.0,0.11719095860756013
2651.0,0.11702034596270106
2650.0,0.1169634899723202
2649.0,0.11702034596270106
2648.0,0.11719095860756013
2647.0,0.11724784438692004
2646.0,0.11713408027837091
2645.0,0.11684980031672243
2644.0,0.11645212073195621
2643.0,0.11611154211151953
2642.0,0.11599807523121286
2641.0,0.11594135290606156
2640.0,0.11588463798833115
2639.0,0.1157145376603248
2638.0,0.11554450392951199
2637.0,0.11537453674376552
2636.0,0.11548784080960606
2635.0,0.1157145376603248
2634.0,0.11599807523121286
2633.0,0.11622503864474187
2632.0,0.11622503864474187
2631.0,0.11611154211151953
2630.0,0.11599807523121286
2629.0,0.11605480496572018
2628.0,0.11611154211151953
2627.0,0.11611154211151953
2626.0,0.11599807523121286
2625.0,0.11588463798833115
2624.0,0.11582793047608719
2623.0,0.11588463798833115
2622.0,0.11599807523121286
2621.0,0.11622503864474187
2620.0,0.11633856484638239
2619.0,0.1163953390777075
2618.0,0.11628179803604044
2617.0,0.11616828667054757
2616.0,0.11611154211151953
2615.0,0.11616828667054757
2614.0,0.11628179803604044
2613.0,0.11645212073195621
2612.0,0.1165089098110701
2611.0,0.1165089098110701
2610.0,0.11633856484638239
2609.0,0.11605480496572018
2608.0,0.11577123036739612
2607.0,0.11565785235294102
2606.0,0.11560117444331386
2605.0,0.11560117444331386
2604.0,0.11565785235294102
2603.0,0.11577123036739612
2602.0,0.11588463798833115
2601.0,0.11594135290606156
2600.0,0.11594135290606156
2599.0,0.11582793047608719
2598.0,0.11582793047608719
2597.0,0.11588463798833115
2596.0,0.11594135290606156
2595.0,0.11599807523121286
2594.0,0.11594135290606156
2593.0,0.11588463798833115
2592.0,0.11577123036739612
2591.0,0.1157145376603248
2590.0,0.1157145376603248
2589.0,0.1157145376603248
2588.0,0.11577123036739612
2587.0,0.11594135290606156
2586.0,0.11616828667054757
2585.0,0.11633856484638239
2584.0,0.1165089098110701
2583.0,0.11662251025166115
2582.0,0.116736140415026
2581.0,0.1169634899723202
2580.0,0.11713408027837091
2579.0,0.11719095860756013
2578.0,0.1170772093974013
2577.0,0.11690664142431006
2576.0,0.11667932161702477
2575.0,0.1165657063169907
2574.0,0.1165657063169907
2573.0,0.1165657063169907
2572.0,0.1165657063169907
2571.0,0.11662251025166115
2570.0,0.11667932161702477
2569.0,0.116736140415026
2568.0,0.11679296664760996
2567.0,0.116736140415026
2566.0,0.1165089098110701
2565.0,0.11616828667054757
2564.0,0.11588463798833115
2563.0,0.11577123036739612
2562.0,0.1157145376603248
2561.0,0.1157145376603248
2560.0,0.11560117444331386
2559.0,0.11554450392951199
2558.0,0.11554450392951199
2557.0,0.11554450392951199
2556.0,0.11548784080960606
2555.0,0.11543118508166672
2554.0,0.11531789579397489
2553.0,0.11526126223036814
2552.0,0.11526126223036814
2551.0,0.11531789579397489
2550.0,0.11537453674376552
2549.0,0.11543118508166672
2548.0,0.11548784080960606
2547.0,0.11560117444331386
2546.0,0.11577123036739612
2545.0,0.11582793047608719
2544.0,0.11577123036739612
2543.0,0.11565785235294102
2542.0,0.11543118508166672
2541.0,0.11526126223036814
2540.0,0.11509140583739286
2539.0,0.11509140583739286
2538.0,0.11514801725400226
2537.0,0.11526126223036814
2536.0,0.11526126223036814
2535.0,0.11526126223036814
2534.0,0.11531789579397489
2533.0,0.11543118508166672
2532.0,0.11554450392951199
2531.0,0.11560117444331386
2530.0,0.11565785235294102
2529.0,0.1157145376603248
2528.0,0.11577123036739612
2527.0,0.11582793047608719
2526.0,0.11565785235294102
2525.0,0.11537453674376552
2524.0,0.11503480179926728
2523.0,0.11475189221861393
2522.0,0.11463877996848804
2521.0,0.11475189221861393
2520.0,0.11492161585077598
2519.0,0.11503480179926728
2518.0,0.11503480179926728
2517.0,0.11503480179926728
2516.0,0.1149782051377024
2515.0,0.11509140583739286
2514.0,0.11526126223036814
2513.0,0.11543118508166672
2512.0,0.11554450392951199
2511.0,0.11554450392951199
2510.0,0.11543118508166672
2509.0,0.11531789579397489
2508.0,0.11520463605101905
2507.0,0.11514801725400226
2506.0,0.11520463605101905
2505.0,0.11520463605101905
2504.0,0.11520463605101905
2503.0,0.11514801725400226
2502.0,0.11514801725400226
2501.0,0.11514801725400226
2500.0,0.11520463605101905
2499.0,0.11520463605101905
2498.0,0.11509140583739286
2497.0,0.1149782051377024
2496.0,0.11492161585077598
2495.0,0.11492161585077598
2494.0,0.11492161585077598
2493.0,0.11503480179926728
2492.0,0.11514801725400226
2491.0,0.11526126223036814
2490.0,0.11531789579397489
2489.0,0.11526126223036814
2488.0,0.11520463605101905
2487.0,0.11520463605101905
2486.0,0.11526126223036814
2485.0,0.11531789579397489
2484.0,0.11526126223036814
2483.0,0.11514801725400226
2482.0,0.11503480179926728
2481.0,0.11509140583739286
2480.0,0.11526126223036814
2479.0,0.11548784080960606
2478.0,0.11560117444331386
2477.0,0.11565785235294102
2476.0,0.11565785235294102
2475.0,0.11560117444331386
2474.0,0.11565785235294102
2473.0,0.11577123036739612
2472.0,0.11594135290606156
2471.0,0.11605480496572018
2470.0,0.11599807523121286
2469.0,0.1157145376603248
2468.0,0.11537453674376552
2467.0,0.11526126223036814
2466.0,0.11531789579397489
2465.0,0.11560117444331386
2464.0,0.1157145376603248
2463.0,0.1157145376603248
2462.0,0.11560117444331386
2461.0,0.11548784080960606
2460.0,0.11554450392951199
2459.0,0.11565785235294102
2458.0,0.11577123036739612
2457.0,0.11588463798833115
2456.0,0.11588463798833115
2455.0,0.11588463798833115
2454.0,0.11594135290606156
2453.0,0.11594135290606156
2452.0,0.11594135290606156
2451.0,0.11588463798833115
2450.0,0.11582793047608719
2449.0,0.11588463798833115
2448.0,0.11588463798833115
2447.0,0.11588463798833115
2446.0,0.11582793047608719
2445.0,0.11582793047608719
2444.0,0.11599807523121286
2443.0,0.11633856484638239
2442.0,0.1165657063169907
2441.0,0.1165657063169907
2440.0,0.11633856484638239
2439.0,0.11611154211151953
2438.0,0.11599807523121286
2437.0,0.11599807523121286
2436.0,0.11605480496572018
2435.0,0.11611154211151953
2434.0,0.11628179803604044
2433.0,0.1163953390777075
2432.0,0.1165089098110701
2431.0,0.11645212073195621
2430.0,0.11645212073195621
2429.0,0.1165089098110701
2428.0,0.11667932161702477
2427.0,0.11679296664760996
2426.0,0.11684980031672243
2425.0,0.11690664142431006
2424.0,0.11702034596270106
2423.0,0.11719095860756013
2422.0,0.11736163830396129
2421.0,0.1174754620451195
2420.0,0.11741854644554883
2419.0,0.11730473761840288
2418.0,0.11724784438692004
2417.0,0.11724784438692004
2416.0,0.11730473761840288
2415.0,0.11736163830396129
2414.0,0.11736163830396129
2413.0,0.11736163830396129
2412.0,0.11736163830396129
2411.0,0.11736163830396129
2410.0,0.11736163830396129
2409.0,0.11736163830396129
2408.0,0.11741854644554883
2407.0,0.11741854644554883
2406.0,0.1174754620451195
2405.0,0.1174754620451195
2404.0,0.1174754620451195
2403.0,0.11741854644554883
2402.0,0.11741854644554883
2401.0,0.11741854644554883
2400.0,0.11741854644554883
2399.0,0.11736163830396129
2398.0,0.11724784438692004
2397.0,0.11724784438692004
2396.0,0.11724784438692004
2395.0,0.11730473761840288
2394.0,0.11730473761840288
2393.0,0.11719095860756013
2392.0,0.11713408027837091
2391.0,0.11719095860756013
2390.0,0.11741854644554883
2389.0,0.11770319906234805
2388.0,0.11798803837334138
2387.0,0.11821604440661537
2386.0,0.1183871275216517
2385.0,0.11855827805860697
2384.0,0.11878658374498086
2383.0,0.1190150095132465
2382.0,0.11912926746757657
2381.0,0.11890078161098283
2380.0,0.11821604440661537
2379.0,0.11713408027837091
2378.0,0.11599807523121286
2377.0,0.1149782051377024
2376.0,0.11435612816423602
2375.0,0.11418662533951118
2374.0,0.11446916681190777
2373.0,0.11520463605101905
2372.0,0.11622503864474187
2371.0,0.11736163830396129
2370.0,0.11810202642698875
2369.0,0.11798803837334138
2368.0,0.11730473761840288
2367.0,0.11702034596270106
2366.0,0.11787408022996826
2365.0,0.11941504393502012
2364.0,0.12033079436794658
2363.0,0.11970100857424737
2362.0,0.11787408022996826
2361.0,0.11577123036739612
2360.0,0.11424311893073247
2359.0,0.1138478180292033
2358.0,0.114865033936566
2357.0,0.1163953390777075
2356.0,0.11679296664760996
2355.0,0.11582793047608719
2354.0,0.114865033936566
2353.0,0.1149782051377024
2352.0,0.1157145376603248
2351.0,0.11628179803604044
2350.0,0.1165657063169907
2349.0,0.116736140415026
2348.0,0.11667932161702477
2347.0,0.11628179803604044
2346.0,0.11594135290606156
2345.0,0.11616828667054757
2344.0,0.1169634899723202
2343.0,0.11764625361128611
2342.0,0.11787408022996826
2341.0,0.11736163830396129
2340.0,0.11599807523121286
2339.0,0.1145256971708426
2338.0,0.11401718864502697
2337.0,0.1148084593931522
2336.0,0.11616828667054757
2335.0,0.11667932161702477
2334.0,0.11594135290606156
2333.0,0.11463877996848804
2332.0,0.11401718864502697
2331.0,0.11446916681190777
2330.0,0.11577123036739612
2329.0,0.11724784438692004
2328.0,0.11867241589944855
2327.0,0.11981544717356662
2326.0,0.12056003400478299
2325.0,0.12056003400478299
2324.0,0.11981544717356662
2323.0,0.11890078161098283
2322.0,0.11827306462358211
2321.0,0.11787408022996826
2320.0,0.11741854644554883
2319.0,0.1169634899723202
2318.0,0.11679296664760996
2317.0,0.11702034596270106
2316.0,0.11741854644554883
2315.0,0.11781711236973003
2314.0,0.11804502866039956
2313.0,0.1183871275216517
2312.0,0.11884367892443626
2311.0,0.11930071078129845
2310.0,0.11970100857424737
2309.0,0.12004441487725082
2308.0,0.12027350336042275
2307.0,0.12050271275057156
2306.0,0.12061736282565727
2305.0,0.12044539906102569
2304.0,0.1202162199095842
2303.0,0.1199871616332282
2302.0,0.11987267778337518
2301.0,0.11992991593593283
2300.0,0.1202162199095842
2299.0,0.1207320431753871
2298.0,0.12142076193778073
2297.0,0.1219955297319748
2296.0,0.12222565000860186
2295.0,0.12222565000860186
2294.0,0.1219955297319748
2293.0,0.12176553132495593
2292.0,0.12153565465853111
2291.0,0.1213058996038916
2290.0,0.12107626603243293
2289.0,0.12096149476276286
2288.0,0.12084675381575383
2287.0,0.1207320431753871
2286.0,0.12056003400478299
2285.0,0.12050271275057156
2284.0,0.12056003400478299
2283.0,0.12067469921519258
2282.0,0.1207893947082408
2281.0,0.1207893947082408
2280.0,0.1207893947082408
2279.0,0.1207320431753871
2278.0,0.1207320431753871
2277.0,0.1207893947082408
2276.0,0.1207893947082408
2275.0,0.1207320431753871
2274.0,0.1207320431753871
2273.0,0.1207320431753871
2272.0,0.1207320431753871
2271.0,0.12061736282565727
2270.0,0.12044539906102569
2269.0,0.1203880929341492
2268.0,0.1203880929341492
2267.0,0.12050271275057156
2266.0,0.12067469921519258
2265.0,0.12084675381575383
2264.0,0.12107626603243293
2263.0,0.12124847982699793
2262.0,0.12136332697348307
2261.0,0.12136332697348307
2260.0,0.1213058996038916
2259.0,0.12119106764079435
2258.0,0.12119106764079435
2257.0,0.1213058996038916
2256.0,0.12142076193778073
2255.0,0.12142076193778073
2254.0,0.12136332697348307
2253.0,0.12124847982699793
2252.0,0.12113366304327466
2251.0,0.12113366304327466
2250.0,0.12119106764079435
2249.0,0.12124847982699793
2248.0,0.12124847982699793
2247.0,0.12124847982699793
2246.0,0.12119106764079435
2245.0,0.12124847982699793
2244.0,0.12136332697348307
2243.0,0.12142076193778073
2242.0,0.12142076193778073
2241.0,0.12147820449879343
2240.0,0.12159311241900439
2239.0,0.12170805075020397
2238.0,0.12170805075020397
2237.0,0.12165057778222454
2236.0,0.12147820449879343
2235.0,0.1213058996038916
2234.0,0.12119106764079435
2233.0,0.12119106764079435
2232.0,0.12124847982699793
2231.0,0.1213058996038916
2230.0,0.12147820449879343
2229.0,0.12165057778222454
2228.0,0.12182301950849372
2227.0,0.12188051530283239
2226.0,0.12182301950849372
2225.0,0.12182301950849372
2224.0,0.12182301950849372
2223.0,0.12188051530283239
2222.0,0.12188051530283239
2221.0,0.12182301950849372
2220.0,0.12176553132495593
2219.0,0.12182301950849372
2218.0,0.12188051530283239
2217.0,0.12193801870998744
2216.0,0.12193801870998744
2215.0,0.1219955297319748
2214.0,0.1219955297319748
2213.0,0.1219955297319748
2212.0,0.12193801870998744
2211.0,0.12193801870998744
2210.0,0.12205304837081177
2209.0,0.12216810850710624
2208.0,0.12222565000860186
2207.0,0.12222565000860186
2206.0,0.12216810850710624
2205.0,0.12216810850710624
2204.0,0.12228319913502328
2203.0,0.12239832027072817
2202.0,0.12245589228405596
2201.0,0.12257105921178035
2200.0,0.12262865413022594
2199.0,0.12268625668776156
2198.0,0.12268625668776156
2197.0,0.12262865413022594
2196.0,0.12262865413022594
2195.0,0.12268625668776156
2194.0,0.12274386688641381
2193.0,0.12274386688641381
2192.0,0.12280148472821018
2191.0,0.12280148472821018
2190.0,0.12285911021517903
2189.0,0.12297438413275108
2188.0,0.12303203256741524
2187.0,0.12308968865537295
2186.0,0.12303203256741524
2185.0,0.12303203256741524
2184.0,0.12308968865537295
2183.0,0.12326270285933538
2182.0,0.12337808396572703
2181.0,0.12337808396572703
2180.0,0.1233203895807995
2179.0,0.12320502379929943
2178.0,0.12308968865537295
2177.0,0.12303203256741524
2176.0,0.12303203256741524
2175.0,0.12303203256741524
2174.0,0.12308968865537295
2173.0,0.12320502379929943
2172.0,0.1233203895807995
2171.0,0.12343578601615435
2170.0,0.12343578601615435
2169.0,0.12349349573411894
2168.0,0.12349349573411894
2167.0,0.12355121312165873
2166.0,0.12355121312165873
2165.0,0.12360893818081231
2164.0,0.1236666709136196
2163.0,0.12372441132212098
2162.0,0.12378215940835768
2161.0,0.12389767862220635
2160.0,0.12407101507707297
2159.0,0.12424442074194553
2158.0,0.12436006299583169
2157.0,0.12441789567211425
2156.0,0.1244757360506914
2155.0,0.12453358413361437
2154.0,0.1244757360506914
2153.0,0.12441789567211425
2152.0,0.12441789567211425
2151.0,0.12436006299583169
2150.0,0.12436006299583169
2149.0,0.12430223801979201
2148.0,0.12424442074194553
2147.0,0.12418661116024232
2146.0,0.12407101507707297
2145.0,0.12395544975390482
2144.0,0.12378215940835768
2143.0,0.12372441132212098
2142.0,0.12378215940835768
2141.0,0.12395544975390482
2140.0,0.12418661116024232
2139.0,0.1244757360506914
2138.0,0.12464930342071079
2137.0,0.12470717462899183
2136.0,0.12464930342071079
2135.0,0.12459143992293642
2134.0,0.12459143992293642
2133.0,0.12464930342071079
2132.0,0.12464930342071079
2131.0,0.12470717462899183
2130.0,0.12470717462899183
2129.0,0.12470717462899183
2128.0,0.12482294018529605
2127.0,0.1249387366082999
2126.0,0.125054563914468
2125.0,0.125054563914468
2124.0,0.124996646399959
2123.0,0.124996646399959
2122.0,0.125054563914468
2121.0,0.125054563914468
2120.0,0.124996646399959
2119.0,0.1248808345374317
2118.0,0.12482294018529605
2117.0,0.1248808345374317
2116.0,0.124996646399959
2115.0,0.1251124891538875
2114.0,0.12517042212027807
2113.0,0.1252863112422209
2112.0,0.12534426740189897
2111.0,0.12540223129680017
2110.0,0.12540223129680017
2109.0,0.12546020292898974
2108.0,0.12557616941349803
2107.0,0.12551818230053358
2106.0,0.12546020292898974
2105.0,0.12534426740189897
2104.0,0.1252863112422209
2103.0,0.12534426740189897
2102.0,0.12540223129680017
2101.0,0.12551818230053358
2100.0,0.12563416426995122
2099.0,0.1258081953209289
2098.0,0.12598229613781387
2097.0,0.12598229613781387
2096.0,0.12592425477696523
2095.0,0.12575017722159698
2094.0,0.12569216687196105
2093.0,0.12575017722159698
2092.0,0.12586622117202761
2091.0,0.12586622117202761
2090.0,0.1258081953209289
2089.0,0.1258081953209289
2088.0,0.12598229613781387
2087.0,0.1260984021355387
2086.0,0.12621453918179926
2085.0,0.12621453918179926
2084.0,0.12621453918179926
2083.0,0.1263307072932056
2082.0,0.12644690648638135
2081.0,0.12650501774383094
2080.0,0.12644690648638135
2079.0,0.1263307072932056
2078.0,0.126156466776564
2077.0,0.1260984021355387
2076.0,0.126156466776564
2075.0,0.12621453918179926
2074.0,0.1263307072932056
2073.0,0.12644690648638135
2072.0,0.12667939818460128
2071.0,0.12691201440971422
2070.0,0.12702836926155658
2069.0,0.1270865583796048
2068.0,0.12697018793895576
2067.0,0.12685384867174432
2066.0,0.12679569072295926
2065.0,0.12685384867174432
2064.0,0.12685384867174432
2063.0,0.12679569072295926
2062.0,0.12667939818460128
2061.0,0.126621263590859
2060.0,0.12667939818460128
2059.0,0.12679569072295926
2058.0,0.12691201440971422
2057.0,0.12697018793895576
2056.0,0.12702836926155658
2055.0,0.1270865583796048
2054.0,0.12714475529518965
2053.0,0.12714475529518965
2052.0,0.1270865583796048
2051.0,0.12702836926155658
2050.0,0.12697018793895576
2049.0,0.12691201440971422
2048.0,0.12697018793895576
2047.0,0.12714475529518965
2046.0,0.12731939284807026
2045.0,0.12743585690934855
2044.0,0.12743585690934855
2043.0,0.12737762097471172
2042.0,0.12743585690934855
2041.0,0.12749410065407507
2040.0,0.12761061158217912
2039.0,0.1276688787697493
2038.0,0.12778543660241448
2037.0,0.12784372725170723
2036.0,0.12784372725170723
2035.0,0.12778543660241448
2034.0,0.1277271537757949
2033.0,0.12778543660241448
2032.0,0.12784372725170723
2031.0,0.12796033202671375
2030.0,0.1280186461566306
2029.0,0.1281352979118051
2028.0,0.1282519810081284
2027.0,0.1283103343144847
2026.0,0.1282519810081284
2025.0,0.1280186461566306
2024.0,0.12778543660241448
2023.0,0.1277271537757949
2022.0,0.12784372725170723
2021.0,0.12819363554127072
2020.0,0.1284854412916181
2019.0,0.12866061890013913
2018.0,0.12866061890013913
2017.0,0.1286022185125162
2016.0,0.1284854412916181
2015.0,0.12842706445412122
2014.0,0.12836869546244634
2013.0,0.12836869546244634
2012.0,0.12842706445412122
2011.0,0.12854382597704617
2010.0,0.1286022185125162
2009.0,0.1286022185125162
2008.0,0.12854382597704617
2007.0,0.1284854412916181
2006.0,0.12842706445412122
2005.0,0.1284854412916181
2004.0,0.1287190271420271
2003.0,0.12901118623942476
2002.0,0.12912810493225724
2001.0,0.12912810493225724
2000.0,0.1290696416513042
1999.0,0.12895273869450063
1998.0,0.12889429901441463
1997.0,0.12883586719705065
1996.0,0.12877744324029283
1995.0,0.12877744324029283
1994.0,0.12883586719705065
1993.0,0.12895273869450063
1992.0,0.1290696416513042
1991.0,0.1290696416513042
1990.0,0.12901118623942476
1989.0,0.12895273869450063
1988.0,0.12895273869450063
1987.0,0.12895273869450063
1986.0,0.12883586719705065
1985.0,0.1287190271420271
1984.0,0.12877744324029283
1983.0,0.12895273869450063
1982.0,0.12924505510985984
1981.0,0.12936203678919433
1980.0,0.1294790499872358
1979.0,0.1294790499872358
1978.0,0.12953756841108
1977.0,0.1294790499872358
1976.0,0.12936203678919433
1975.0,0.12930354201075
1974.0,0.12936203678919433
1973.0,0.12942053944731513
1972.0,0.1295960947209729
1971.0,0.12971317100740865
1970.0,0.12977172098820566
1969.0,0.12971317100740865
1968.0,0.12971317100740865
1967.0,0.12988884463559924
1966.0,0.13018179202067182
1965.0,0.13035765534840538
1964.0,0.1302990263261221
1963.0,0.13018179202067182
1962.0,0.13000599987825812
1961.0,0.12994741830645506
1960.0,0.12988884463559924
1959.0,0.12988884463559924
1958.0,0.12994741830645506
1957.0,0.12994741830645506
1956.0,0.13000599987825812
1955.0,0.13012318673323353
1954.0,0.13018179202067182
1953.0,0.13024040521758962
1952.0,0.13024040521758962
1951.0,0.1302990263261221
1950.0,0.13035765534840538
1949.0,0.1304749371427727
1948.0,0.13053358991913355
1947.0,0.1306509192409071
1946.0,0.13076828026902376
1945.0,0.1308856730206247
1944.0,0.13094438129809216
1943.0,0.13106182166708868
1942.0,0.13123804178794973
1941.0,0.1312967977214634
1940.0,0.13123804178794973
1939.0,0.1311792938024825
1938.0,0.1311205537629121
1937.0,0.1311205537629121
1936.0,0.1311205537629121
1935.0,0.1311792938024825
1934.0,0.1311792938024825
1933.0,0.1311792938024825
1932.0,0.1311792938024825
1931.0,0.1311205537629121
1930.0,0.13106182166708868
1929.0,0.1311205537629121
1928.0,0.1311205537629121
1927.0,0.1311792938024825
1926.0,0.13123804178794973
1925.0,0.1311792938024825
1924.0,0.1311792938024825
1923.0,0.13123804178794973
1922.0,0.13141433344123432
1921.0,0.1316495003520317
1920.0,0.1318847946727828
1919.0,0.1320613491092153
1918.0,0.132179091954427
1917.0,0.13235576609690147
1916.0,0.13241467345296387
1915.0,0.13235576609690147
1914.0,0.1322379753497993
1913.0,0.13212021654162043
1912.0,0.13194363817695853
1911.0,0.1318847946727828
1910.0,0.13194363817695853
1909.0,0.132179091954427
1908.0,0.13241467345296387
1907.0,0.1325325121409484
1906.0,0.1325325121409484
1905.0,0.13259144347720886
1904.0,0.13265038281120756
1903.0,0.13270933014511588
1902.0,0.13288622016802298
1901.0,0.13300418688935212
1900.0,0.13294519952329842
1899.0,0.13282724882135022
1898.0,0.13270933014511588
1897.0,0.13282724882135022
1896.0,0.13306318226836056
1895.0,0.13324021650489182
1894.0,0.13341732293645103
1893.0,0.13335827943396006
1892.0,0.13324021650489182
1891.0,0.13300418688935212
1890.0,0.13288622016802298
1889.0,0.13294519952329842
1888.0,0.13306318226836056
1887.0,0.1331221856625011
1886.0,0.1331221856625011
1885.0,0.13324021650489182
1884.0,0.13335827943396006
1883.0,0.13347637446715632
1882.0,0.13353543402825974
1881.0,0.13365357725039817
1880.0,0.13371266091580503
1879.0,0.13371266091580503
1878.0,0.13383085236622927
1877.0,0.13388996015562338
1876.0,0.13394907599072514
1875.0,0.13388996015562338
1874.0,0.1337717526203528
1873.0,0.13365357725039817
1872.0,0.13371266091580503
1871.0,0.13371266091580503
1870.0,0.13371266091580503
1869.0,0.1337717526203528
1868.0,0.13394907599072514
1867.0,0.1341264717921853
1866.0,0.13418561983203192
1865.0,0.13430394008392943
1864.0,0.13430394008392943
1863.0,0.13418561983203192
1862.0,0.1340081998737246
1861.0,0.13383085236622927
1860.0,0.13365357725039817
1859.0,0.13347637446715632
1858.0,0.13347637446715632
1857.0,0.13365357725039817
1856.0,0.13388996015562338
1855.0,0.1340081998737246
1854.0,0.1341264717921853
1853.0,0.13424477592854833
1852.0,0.13424477592854833
1851.0,0.13418561983203192
1850.0,0.13424477592854833
1849.0,0.13430394008392943
1848.0,0.13442229258007088
1847.0,0.1345998818206986
1846.0,0.13483678049391368
1845.0,0.1350738084609946
1844.0,0.13513308567147386
1843.0,0.1350738084609946
1842.0,0.1349552783069008
1841.0,0.13489602535887202
1840.0,0.13489602535887202
1839.0,0.13477754370982087
1838.0,0.134659094375416
1837.0,0.134659094375416
1836.0,0.13471831500438958
1835.0,0.1345998818206986
1834.0,0.13448148092522594
1833.0,0.13442229258007088
1832.0,0.13442229258007088
1831.0,0.13442229258007088
1830.0,0.13454067733803532
1829.0,0.13471831500438958
1828.0,0.1349552783069008
1827.0,0.13519237097385295
1826.0,0.13531096586314884
1825.0,0.13537027545448765
1824.0,0.13542959314656988
1823.0,0.1354889189416082
1822.0,0.13554825284181704
1821.0,0.13554825284181704
1820.0,0.1354889189416082
1819.0,0.13537027545448765
1818.0,0.13519237097385295
1817.0,0.13519237097385295
1816.0,0.1352516643703412
1815.0,0.13531096586314884
1814.0,0.13531096586314884
1813.0,0.1352516643703412
1812.0,0.13542959314656988
1811.0,0.13560759484941132
1810.0,0.13572630319562085
1809.0,0.13584504399797437
1808.0,0.13590442657575252
1807.0,0.13596381727422502
1806.0,0.1360232160956132
1805.0,0.136142038116027
1804.0,0.13620146131949973
1803.0,0.1360826230421397
1802.0,0.13596381727422502
1801.0,0.13596381727422502
1800.0,0.1360826230421397
1799.0,0.136142038116027
1798.0,0.136142038116027
1797.0,0.13626089265478303
1796.0,0.13649869935854997
1795.0,0.13661765155921235
1794.0,0.13661765155921235
1793.0,0.13655817138629134
1792.0,0.13661765155921235
1791.0,0.1367961409713705
1790.0,0.1369151746796402
1789.0,0.13709378643700187
1788.0,0.13721290176465573
1787.0,0.13715334001706125
1786.0,0.1370342410222376
1785.0,0.13697470377052956
1784.0,0.1369151746796402
1783.0,0.13673663634951905
1782.0,0.13655817138629134
1781.0,0.13649869935854997
1780.0,0.13673663634951905
1779.0,0.13697470377052956
1778.0,0.1370342410222376
1777.0,0.13685565374733244
1776.0,0.1366771398795441
1775.0,0.13661765155921235
1774.0,0.1367961409713705
1773.0,0.13685565374733244
1772.0,0.13709378643700187
1771.0,0.13739163603505822
1770.0,0.13763006287711765
1769.0,0.13792828062000573
1768.0,0.1381073096085541
1767.0,0.1380476250785483
1766.0,0.13780896894840278
1765.0,0.13768969004572962
1764.0,0.13780896894840278
1763.0,0.13798794874978348
1762.0,0.1381073096085541
1761.0,0.1381073096085541
1760.0,0.1381073096085541
1759.0,0.1381073096085541
1758.0,0.1381073096085541
1757.0,0.13798794874978348
1756.0,0.13798794874978348
1755.0,0.1381073096085541
1754.0,0.13834612978608907
1753.0,0.13864483980673992
1752.0,0.1388241644869712
1751.0,0.1390633792999063
1750.0,0.13936258322624528
1749.0,0.13948232253825377
1748.0,0.1396619934290062
1747.0,0.13984173868172167
1746.0,0.1399616101928065
1745.0,0.14002155835797914
1744.0,0.1400815147992842
1743.0,0.14032142337155173
1742.0,0.14062149557439896
1741.0,0.14086170270546927
1740.0,0.1410419452819942
1739.0,0.14110204276799654
1738.0,0.1409818561111058
1737.0,0.14122226269455074
1736.0,0.1415831222765116
1735.0,0.14170347546611461
1734.0,0.141884067809934
1733.0,0.14200450443907608
1732.0,0.14176366457048695
1731.0,0.14176366457048695
1730.0,0.14200450443907608
1729.0,0.1419442819496357
1728.0,0.14176366457048695
1727.0,0.1414628024303608
1726.0,0.14122226269455074
1725.0,0.1409818561111058
1724.0,0.1409818561111058
1723.0,0.1409217752530305
1722.0,0.1409217752530305
1721.0,0.1409217752530305
1720.0,0.1410419452819942
1719.0,0.1409818561111058
1718.0,0.1410419452819942
1717.0,0.14170347546611461
1716.0,0.14242629585250421
1715.0,0.1427278264359586
1714.0,0.14266750356873148
1713.0,0.1425468829647336
1712.0,0.14230574221345038
1711.0,0.141884067809934
1710.0,0.1415229581866595
1709.0,0.14128238513970826
1708.0,0.14128238513970826
1707.0,0.14128238513970826
1706.0,0.14140265500530758
1705.0,0.14170347546611461
1704.0,0.14206473528057106
1703.0,0.14260718907909875
1702.0,0.1430899396992138
1701.0,0.14315032127482774
1700.0,0.14321071124668383
1699.0,0.14315032127482774
1698.0,0.1430899396992138
1697.0,0.14339193156306385
1696.0,0.14351278713136928
1695.0,0.14315032127482774
1694.0,0.1427278264359586
1693.0,0.1427881576831076
1692.0,0.14302956651750764
1691.0,0.14290884532648618
1690.0,0.14266750356873148
1689.0,0.14260718907909875
1688.0,0.14296920172737604
1687.0,0.14345235514325205
1686.0,0.14357322752975565
1685.0,0.1432711096171173
1684.0,0.14333151638846497
1683.0,0.14351278713136928
1682.0,0.14351278713136928
1681.0,0.14369413356670102
1680.0,0.1438755557576996
1679.0,0.1438755557576996
1678.0,0.14405705376768396
1677.0,0.14417809459397013
1676.0,0.14417809459397013
1675.0,0.143996546002779
1674.0,0.1438755557576996
1673.0,0.14363367634075197
1672.0,0.14363367634075197
1671.0,0.14369413356670102
1670.0,0.143996546002779
1669.0,0.14448084433219988
1668.0,0.1446020033459312
1667.0,0.14448084433219988
1666.0,0.14442027749828212
1665.0,0.14435971910985468
1664.0,0.14435971910985468
1663.0,0.14442027749828212
1662.0,0.14472319616990825
1661.0,0.14484442282300614
1660.0,0.1447838052666366
1659.0,0.14472319616990825
1658.0,0.14472319616990825
1657.0,0.14466259553045968
1656.0,0.14496568332411575
1655.0,0.14514763758216587
1654.0,0.14502632627358292
1653.0,0.1455724942121388
1652.0,0.14575470293388149
1651.0,0.14514763758216587
1650.0,0.1455724942121388
1649.0,0.14605855411951008
1648.0,0.14605855411951008
1647.0,0.14630178822382556
1646.0,0.146788665496683
1645.0,0.14697138528701026
1644.0,0.14703230897118158
1643.0,0.14733705565543076
1642.0,0.1477030341730745
1641.0,0.1480693213597324
1640.0,0.14831368455757254
1639.0,0.14855818532794496
1638.0,0.14874165128092476
1637.0,0.14874165128092476
1636.0,0.148864004988426
1635.0,0.14929251462546267
1634.0,0.1493537648169334
1633.0,0.1493537648169334
1632.0,0.14929251462546267
1631.0,0.1491088158640761
1630.0,0.14874165128092476
1629.0,0.14843591773651155
1628.0,0.1482525808667361
1627.0,0.14831368455757254
1626.0,0.14837479684669086
1625.0,0.14831368455757254
1624.0,0.14800825203784274
1623.0,0.14776406058811253
1622.0,0.14764201633217278
1621.0,0.14752000636314366
1620.0,0.14752000636314366
1619.0,0.14764201633217278
1618.0,0.1477030341730745
1617.0,0.14764201633217278
1616.0,0.14752000636314366
1615.0,0.1472151313194523
1614.0,0.14709324120304634
1613.0,0.14703230897118158
1612.0,0.14672777597931685
1611.0,0.1463626180414057
1610.0,0.14618015414323682
1609.0,0.14605855411951008
1608.0,0.14587621789883287
1607.0,0.14587621789883287
1606.0,0.14605855411951008
1605.0,0.14630178822382556
1604.0,0.14648430324307138
1603.0,0.14672777597931685
1602.0,0.14691047014813452
1601.0,0.14697138528701026
1600.0,0.14684956355215717
1599.0,0.1466060225493342
1598.0,0.14642345638035836
1597.0,0.14618015414323682
1596.0,0.14599776687301103
1595.0,0.1459369881335788
1594.0,0.1461193498754576
1593.0,0.14624096692523136
1592.0,0.14630178822382556
1591.0,0.14624096692523136
1590.0,0.1461193498754576
1589.0,0.1459369881335788
1588.0,0.14575470293388149
1587.0,0.1456332219591303
1586.0,0.1456939581989194
1585.0,0.14587621789883287
1584.0,0.1459369881335788
1583.0,0.14605855411951008
1582.0,0.14605855411951008
1581.0,0.14587621789883287
1580.0,0.14575470293388149
1579.0,0.14587621789883287
1578.0,0.14618015414323682
1577.0,0.14624096692523136
1576.0,0.1461193498754576
1575.0,0.14587621789883287
1574.0,0.1456939581989194
1573.0,0.1456939581989194
1572.0,0.1456939581989194
1571.0,0.14539036190420496
1570.0,0.14514763758216587
1569.0,0.14526898278605782
1568.0,0.14539036190420496
1567.0,0.1456332219591303
1566.0,0.14581545616639335
1565.0,0.14575470293388149
1564.0,0.1456332219591303
1563.0,0.14581545616639335
1562.0,0.1463626180414057
1561.0,0.1466060225493342
1560.0,0.14587621789883287
1559.0,0.1459369881335788
1558.0,0.14703230897118158
1557.0,0.14666689499766483
1556.0,0.14672777597931685
1555.0,0.14703230897118158
1554.0,0.14691047014813452
1553.0,0.1466060225493342
1552.0,0.14630178822382556
1551.0,0.14630178822382556
1550.0,0.14642345638035836
1549.0,0.1465451586319333
1548.0,0.14666689499766483
1547.0,0.14672777597931685
1546.0,0.1466060225493342
1545.0,0.1463626180414057
1544.0,0.14630178822382556
1543.0,0.1463626180414057
1542.0,0.14624096692523136
1541.0,0.14605855411951008
1540.0,0.14642345638035836
1539.0,0.14642345638035836
1538.0,0.1456332219591303
1537.0,0.14539036190420496
1536.0,0.1455724942121388
1535.0,0.1455724942121388
1534.0,0.14539036190420496
1533.0,0.14532966810466452
1532.0,0.14526898278605782
1531.0,0.14496568332411575
1530.0,0.14454141961396383
1529.0,0.14417809459397013
1528.0,0.143996546002779
1527.0,0.14405705376768396
1526.0,0.14405705376768396
1525.0,0.14393604666690019
1524.0,0.14381507327283027
1523.0,0.14357322752975565
1522.0,0.14339193156306385
1521.0,0.14345235514325205
1520.0,0.14339193156306385
1519.0,0.14321071124668383
1518.0,0.14290884532648618
1517.0,0.14266750356873148
1516.0,0.1425468829647336
1515.0,0.14242629585250421
1514.0,0.1423660148499919
1513.0,0.14242629585250421
1512.0,0.1425468829647336
1511.0,0.14248658522331015
1510.0,0.1423660148499919
1509.0,0.14206473528057106
1508.0,0.14170347546611461
1507.0,0.1415831222765116
1506.0,0.14122226269455074
1505.0,0.1402014525194344
1504.0,0.1399616101928065
1503.0,0.14014147951900724
1502.0,0.14014147951900724
1501.0,0.13990167030148193
1500.0,0.1396619934290062
1499.0,0.1394224487555844
1498.0,0.13918303613546223
1497.0,0.13912320359670227
1496.0,0.1394224487555844
1495.0,0.13960209487268727
1494.0,0.13960209487268727
1493.0,0.13954220457652888
1492.0,0.13936258322624528
1491.0,0.13870460647330418
1490.0,0.13780896894840278
1489.0,0.13715334001706125
1488.0,0.1369151746796402
1487.0,0.13661765155921235
1486.0,0.136142038116027
1485.0,0.13572630319562085
1484.0,0.13537027545448765
1483.0,0.1349552783069008
1482.0,0.13442229258007088
1481.0,0.1340081998737246
1480.0,0.1337717526203528
1479.0,0.13359450162194508
1478.0,0.13329924395750092
1477.0,0.13306318226836056
1476.0,0.13341732293645103
1475.0,0.1345998818206986
1474.0,0.13661765155921235
1473.0,0.14032142337155173
1472.0,0.14551177495556966
1471.0,0.15027355580367208
1470.0,0.1540961611012175
1469.0,0.1582027011256446
1468.0,0.16323295260579473
1467.0,0.16909070045355667
1466.0,0.1764605663431411
1465.0,0.18628560811885508
1464.0,0.19797924822802404
1463.0,0.2083093509798819
1462.0,0.21566805197785177
1461.0,0.22105327203138314
1460.0,0.22548303427145044
1459.0,0.22914798835785577
1458.0,0.2326956825467268
1457.0,0.23724643506662613
1456.0,0.2415423113895343
1455.0,0.24359212745104175
1454.0,0.24465881618845242
1453.0,0.2458811057745871
1452.0,0.24710684511540615
1451.0,0.24772101453988138
1450.0,0.24756739073852607
1449.0,0.24649354300903004
1448.0,0.2439727870265589
1447.0,0.23965292147009354
1446.0,0.23433144524098592
1445.0,0.22892721677880523
1444.0,0.22373478173189043
1443.0,0.21867554433301217
1442.0,0.21395878975744576
1441.0,0.2102078322693246
1440.0,0.2074682380986923
1439.0,0.20572113427860006
1438.0,0.20488501436963658
1437.0,0.20530287310800133
1436.0,0.20669864638688495
1435.0,0.20718822875185294
1434.0,0.20593041601836748
1433.0,0.20342566678957041
1432.0,0.20010831534313467
1431.0,0.19620159201032594
1430.0,0.19239733008350535
1429.0,0.18909571933129965
1428.0,0.18641901143180806
1427.0,0.18422307970163732
1426.0,0.18243463044021913
1425.0,0.18085105719286587
1424.0,0.17940450345550985
1423.0,0.17815907279954568
1422.0,0.17724366704860928
1421.0,0.1764605663431411
1420.0,0.1754836719927908
1419.0,0.1745089701205691
1418.0,0.17366599437777985
1417.0,0.17282465170130723
1416.0,0.17198493577602325
1415.0,0.17108243838331405
1414.0,0.1701175535565067
1413.0,0.16909070045355667
1412.0,0.16813022571949832
1411.0,0.16723569505946845
1410.0,0.16647041824135633
1409.0,0.1657700971483227
1408.0,0.16507090353942422
1407.0,0.16437283379010226
1406.0,0.1637391971415132
1405.0,0.16304326294044946
1404.0,0.16234844215360744
1403.0,0.16171775008531153
1402.0,0.16115090926274478
1401.0,0.16058480731610647
1400.0,0.15989390554324223
1399.0,0.15914144595812063
1398.0,0.1583902878315646
1397.0,0.15751557558842988
1396.0,0.15639352807548912
1395.0,0.15515019919336104
1394.0,0.1538485234711846
1393.0,0.15255073750082726
1392.0,0.1514414278762366
1391.0,0.15051916275601385
1390.0,0.14978275820161047
1389.0,0.148864004988426
1388.0,0.1477030341730745
1387.0,0.1466060225493342
1386.0,0.14599776687301103
1385.0,0.1461193498754576
1384.0,0.14733705565543076
1383.0,0.1503963419175529
1382.0,0.15633127702085625
1381.0,0.16602462872009371
1380.0,0.18045606445813123
1379.0,0.200521601162019
1378.0,0.22555603107503486
1377.0,0.25219990913563106
1376.0,0.2762160630346706
1375.0,0.29362364416030995
1374.0,0.30068269897861777
1373.0,0.2967946293045136
1372.0,0.2863414837916436
1371.0,0.27384353382724513
1370.0,0.26098175411651914
1369.0,0.24841299491768987
1368.0,0.23747147755300002
1367.0,0.22892721677880523
1366.0,0.22271820832898515
1365.0,0.21831641549264935
1364.0,0.21531140049857878
1363.0,0.21395878975744576
1362.0,0.21402987486799052
1361.0,0.21538270736712462
1360.0,0.21724080737600282
1359.0,0.21917882414652712
1358.0,0.22047565667521019
1357.0,0.22083657623550135
1356.0,0.22004294875309416
1355.0,0.21831641549264935
1354.0,0.2158107946190393
1353.0,0.2130357405642671
1352.0,0.2104897959097456
1351.0,0.2081690523251638
1350.0,0.20600019901552957
1349.0,0.20391157131933157
1348.0,0.20210951694165114
1347.0,0.20059052038487324
1346.0,0.19935164463601196
1345.0,0.19825338078053978
1344.0,0.19729467292564795
1343.0,0.19633807676377568
1342.0,0.19538358301274483
1341.0,0.1944311824514442
1340.0,0.19368433019188647
1339.0,0.19327749692381868
1338.0,0.19300648631789286
1337.0,0.19273564472389304
1336.0,0.19239733008350535
1335.0,0.19219446772937543
1334.0,0.1920592787845008
1333.0,0.19219446772937543
1332.0,0.19246497193114664
1331.0,0.192938760082761
1330.0,0.19341306567219707
1329.0,0.19361649817583237
1328.0,0.19368433019188647
1327.0,0.1935486767527379
1326.0,0.19334527600813955
1325.0,0.192938760082761
1324.0,0.19246497193114664
1323.0,0.1921268679966679
1322.0,0.1917214904172322
1321.0,0.191383964573008
1320.0,0.19111413264018795
1319.0,0.19091186865365373
1318.0,0.19077707831057822
1317.0,0.19064232978889417
1316.0,0.19044028536473223
1315.0,0.1902383348928749
1314.0,0.19010375339756092
1313.0,0.18990195931885712
1312.0,0.18970025895983111
1311.0,0.18956584407732735
1310.0,0.1894986522334703
1309.0,0.1894986522334703
1308.0,0.189767482004916
1307.0,0.19044028536473223
1306.0,0.191383964573008
1305.0,0.19246497193114664
1304.0,0.19334527600813955
1303.0,0.19388788983090888
1302.0,0.1940236492824372
1301.0,0.19388788983090888
1300.0,0.19375217280420953
1299.0,0.19375217280420953
1298.0,0.19382002601611292
1297.0,0.19409154492580294
1296.0,0.19449914184159978
1295.0,0.19490712165732704
1294.0,0.19524739784953948
1293.0,0.19545169161194398
1292.0,0.19545169161194398
1291.0,0.19538358301274483
1290.0,0.19517932127883775
1289.0,0.1948390984005659
1288.0,0.19456711186786002
1287.0,0.1944311824514442
1286.0,0.19436323369406505
1285.0,0.19422736806433094
1284.0,0.1941594511853273
1283.0,0.1941594511853273
1282.0,0.19429529556613567
1281.0,0.19429529556613567
1280.0,0.19436323369406505
1279.0,0.19436323369406505
1278.0,0.1944311824514442
1277.0,0.1944311824514442
1276.0,0.19436323369406505
1275.0,0.19429529556613567
1274.0,0.1941594511853273
1273.0,0.19409154492580294
1272.0,0.1940236492824372
1271.0,0.19409154492580294
1270.0,0.19422736806433094
1269.0,0.19429529556613567
1268.0,0.19449914184159978
1267.0,0.1948390984005659
1266.0,0.19504320014250842
1265.0,0.19517932127883775
1264.0,0.19531548509305963
1263.0,0.19558794086228604
1262.0,0.19592875111433883
1261.0,0.19613336571501572
1260.0,0.19633807676377568
1259.0,0.19654288435158618
1258.0,0.1969527895088714
1257.0,0.1974315016860435
1256.0,0.1981162928747604
1255.0,0.1987335295103798
1254.0,0.19921420967223735
1253.0,0.19928292171761486
1252.0,0.1990081387398286
1251.0,0.1985276864785288
1250.0,0.1980477651457182
1249.0,0.1977052886025361
1248.0,0.19756837356927637
1247.0,0.19756837356927637
1246.0,0.19756837356927637
1245.0,0.19756837356927637
1244.0,0.19749993223560658
1243.0,0.1974315016860435
1242.0,0.19729467292564795
1241.0,0.19729467292564795
1240.0,0.19722627470802445
1239.0,0.19722627470802445
1238.0,0.19715788726092565
1237.0,0.19702114466473808
1236.0,0.19688444510997294
1235.0,0.1969527895088714
1234.0,0.19702114466473808
1233.0,0.1969527895088714
1232.0,0.196747788569543
1231.0,0.19654288435158618
1230.0,0.19633807676377568
1229.0,0.19613336571501572
1228.0,0.19599694527038736
1227.0,0.19586056766464965
1226.0,0.19592875111433883
1225.0,0.19599694527038736
1224.0,0.19613336571501572
1223.0,0.19620159201032594
1222.0,0.19633807676377568
1221.0,0.19661117501638659
1220.0,0.19681611146465805
1219.0,0.19708951058096025
1218.0,0.19722627470802445
1217.0,0.19722627470802445
1216.0,0.19736308191718943
1215.0,0.1974315016860435
1214.0,0.19749993223560658
1213.0,0.1974315016860435
1212.0,0.19715788726092565
1211.0,0.196747788569543
1210.0,0.19640633522865558
1209.0,0.19620159201032594
1208.0,0.19613336571501572
1207.0,0.19613336571501572
1206.0,0.1960651501361581
1205.0,0.19586056766464965
1204.0,0.19551981089400727
1203.0,0.19517932127883775
1202.0,0.19497515557019485
1201.0,0.19497515557019485
1200.0,0.19517932127883775
1199.0,0.19545169161194398
1198.0,0.19551981089400727
1197.0,0.19545169161194398
1196.0,0.19511125537760865
1195.0,0.19477108579657387
1194.0,0.19449914184159978
1193.0,0.1941594511853273
1192.0,0.19388788983090888
1191.0,0.19382002601611292
1190.0,0.19388788983090888
1189.0,0.19395576425191186
1188.0,0.19395576425191186
1187.0,0.19388788983090888
1186.0,0.19382002601611292
1185.0,0.19382002601611292
1184.0,0.19388788983090888
1183.0,0.19388788983090888
1182.0,0.19382002601611292
1181.0,0.19375217280420953
1180.0,0.19368433019188647
1179.0,0.1935486767527379
1178.0,0.19334527600813955
1177.0,0.1932097284159331
1176.0,0.19334527600813955
1175.0,0.19382002601611292
1174.0,0.1946350925335547
1173.0,0.19592875111433883
1172.0,0.19756837356927637
1171.0,0.19969542244380145
1170.0,0.20204035626280392
1169.0,0.20432849405397824
1168.0,0.20648899420714217
1167.0,0.20809891999042884
1166.0,0.20915209603456808
1165.0,0.20957408260888943
1164.0,0.20957408260888943
1163.0,0.2093630380682967
1162.0,0.2088709992727138
1161.0,0.2083093509798819
1160.0,0.2076783636484265
1159.0,0.20711825461460287
1158.0,0.20676855294347907
1157.0,0.20669864638688495
1156.0,0.20676855294347907
1155.0,0.2069083998234198
1154.0,0.20704829174986794
1153.0,0.20711825461460287
1152.0,0.20718822875185294
1151.0,0.20718822875185294
1150.0,0.20711825461460287
1149.0,0.20697834015401684
1148.0,0.20676855294347907
1147.0,0.20648899420714217
1146.0,0.20600019901552957
1145.0,0.20530287310800133
1144.0,0.20453710560962013
1143.0,0.20384212309308558
1142.0,0.2033562962148836
1141.0,0.2028710122034474
1140.0,0.20231706508510094
1139.0,0.20176382363206424
1138.0,0.20121128604875071
1137.0,0.200797343699475
1136.0,0.200521601162019
1135.0,0.20031490909089955
1134.0,0.20003947259401644
1133.0,0.19962664510865036
1132.0,0.19914550849643908
1131.0,0.19866490432545336
1130.0,0.19825338078053978
1129.0,0.19797924822802404
1128.0,0.19777376230892996
1127.0,0.1976368256904526
1126.0,0.19756837356927637
1125.0,0.19749993223560658
1124.0,0.19756837356927637
1123.0,0.1977052886025361
1122.0,0.1979107421182673
1121.0,0.1980477651457182
1120.0,0.1980477651457182
1119.0,0.19784224681303852
1118.0,0.19756837356927637
1117.0,0.1974315016860435
1116.0,0.1974315016860435
1115.0,0.19756837356927637
1114.0,0.19777376230892996
1113.0,0.1979107421182673
1112.0,0.1979107421182673
1111.0,0.19777376230892996
1110.0,0.19749993223560658
1109.0,0.19722627470802445
1108.0,0.19722627470802445
1107.0,0.19756837356927637
1106.0,0.19832194096410682
1105.0,0.19914550849643908
1104.0,0.19990181982522426
1103.0,0.20045269287438483
1102.0,0.20072839165012724
1101.0,0.2010042655561186
1100.0,0.20107326142279858
1099.0,0.20107326142279858
1098.0,0.20086630669793704
1097.0,0.20065945054641832
1096.0,0.20045269287438483
1095.0,0.200246033588114
1094.0,0.20003947259401644
1093.0,0.19983300979863605
1092.0,0.19948912310563194
1091.0,0.19914550849643908
1090.0,0.1987335295103798
1089.0,0.19825338078053978
1088.0,0.19777376230892996
1087.0,0.19722627470802445
1086.0,0.19667947642124606
1085.0,0.19620159201032594
1084.0,0.19599694527038736
1083.0,0.1960651501361581
1082.0,0.19613336571501572
1081.0,0.1960651501361581
1080.0,0.19579239491795852
1079.0,0.19558794086228604
1078.0,0.19545169161194398
1077.0,0.19551981089400727
1076.0,0.19565608152013425
1075.0,0.19579239491795852
1074.0,0.19579239491795852
1073.0,0.19572423287090612
1072.0,0.19572423287090612
1071.0,0.19579239491795852
1070.0,0.19579239491795852
1069.0,0.19565608152013425
1068.0,0.19545169161194398
1067.0,0.19517932127883775
1066.0,0.19490712165732704
1065.0,0.19470308384201496
1064.0,0.1948390984005659
1063.0,0.19511125537760865
1062.0,0.19551981089400727
1061.0,0.19565608152013425
1060.0,0.19558794086228604
1059.0,0.19531548509305963
1058.0,0.19504320014250842
1057.0,0.1948390984005659
1056.0,0.1948390984005659
1055.0,0.1948390984005659
1054.0,0.1948390984005659
1053.0,0.1948390984005659
1052.0,0.19490712165732704
1051.0,0.19490712165732704
1050.0,0.19504320014250842
1049.0,0.19531548509305963
1048.0,0.19579239491795852
1047.0,0.19640633522865558
1046.0,0.19715788726092565
1045.0,0.1977052886025361
1044.0,0.1981848314185628
1043.0,0.1985276864785288
1042.0,0.19880216554085117
1041.0,0.19887081242029603
1040.0,0.19880216554085117
1039.0,0.198596289982645
1038.0,0.1983905119726812
1037.0,0.19832194096410682
1036.0,0.19832194096410682
1035.0,0.19845909380968174
1034.0,0.19866490432545336
1033.0,0.1990768181867817
1032.0,0.19955787866374353
1031.0,0.19997064075586568
1030.0,0.20003947259401644
1029.0,0.19990181982522426
1028.0,0.19976421067264605
1027.0,0.19983300979863605
1026.0,0.20010831534313467
1025.0,0.20045269287438483
1024.0,0.20065945054641832
1023.0,0.200797343699475
1022.0,0.20086630669793704
1021.0,0.20107326142279858
1020.0,0.20134935455473113
1019.0,0.20176382363206424
1018.0,0.20204035626280392
1017.0,0.20217868863597643
1016.0,0.20217868863597643
1015.0,0.20210951694165114
1014.0,0.20183294028406085
1013.0,0.2014874669686484
1012.0,0.20114226825251436
1011.0,0.20086630669793704
1010.0,0.20059052038487324
1009.0,0.20031490909089955
1008.0,0.20017716900668026
1007.0,0.20003947259401644
1006.0,0.20017716900668026
1005.0,0.20031490909089955
1004.0,0.20059052038487324
1003.0,0.20121128604875071
1002.0,0.20245548563827365
1001.0,0.20453710560962013
1000.0,0.20739821883503362
999.0,0.21063084640851826
998.0,0.21360353862769577
997.0,0.21545402594547736
996.0,0.2159535841918867
995.0,0.21524010533599514
994.0,0.2137456042102197
993.0,0.2119731159041962
992.0,0.21034879120659045
991.0,0.2088709992727138
990.0,0.2076783636484265
989.0,0.20669864638688495
988.0,0.20586064423222616
987.0,0.20509389348319607
986.0,0.20446755728984556
985.0,0.20391157131933157
984.0,0.20342566678957041
983.0,0.20307892466983124
982.0,0.20300960945431368
981.0,0.2032175882986922
980.0,0.20384212309308558
979.0,0.20502425594886842
978.0,0.2069083998234198
977.0,0.20957408260888943
976.0,0.2130357405642671
975.0,0.21688286250953293
974.0,0.2206199885083442
973.0,0.22388020094701222
972.0,0.22606735253235488
971.0,0.2267256516625462
970.0,0.22577509513108107
969.0,0.22366209037982476
968.0,0.22112552799726037
967.0,0.2187474057515435
966.0,0.216739767127051
965.0,0.21524010533599514
964.0,0.2141009716156166
963.0,0.21324857785443885
962.0,0.21246868387276563
961.0,0.21169018789295002
960.0,0.2111248842245832
959.0,0.2107013888405589
958.0,0.2104897959097456
957.0,0.21027830601907826
956.0,0.20992605157369537
955.0,0.20957408260888943
954.0,0.2092223986623063
953.0,0.2089412564081745
952.0,0.20866029603486047
951.0,0.20837951730718585
950.0,0.20809891999042884
949.0,0.20788859091283163
948.0,0.20774842809673588
947.0,0.20781850385032108
946.0,0.208028798979232
945.0,0.2083093509798819
944.0,0.20859008433283988
943.0,0.20866029603486047
942.0,0.20859008433283988
941.0,0.20859008433283988
940.0,0.2088007535011247
939.0,0.20901152491118413
938.0,0.20915209603456808
937.0,0.20915209603456808
936.0,0.2090818047854217
935.0,0.2088007535011247
934.0,0.20844969497266996
933.0,0.20788859091283163
932.0,0.20739821883503362
931.0,0.20718822875185294
930.0,0.20718822875185294
929.0,0.20725821416525125
928.0,0.20732821085843267
927.0,0.20732821085843267
926.0,0.20704829174986794
925.0,0.2065588670223364
924.0,0.20606999322731534
923.0,0.20579088365350362
922.0,0.20579088365350362
921.0,0.20620961530918125
920.0,0.20676855294347907
919.0,0.20704829174986794
918.0,0.20683847075444928
917.0,0.20627944318647673
916.0,0.20586064423222616
915.0,0.20572113427860006
914.0,0.20572113427860006
913.0,0.20593041601836748
912.0,0.206349282292827
911.0,0.20683847075444928
910.0,0.20718822875185294
909.0,0.20711825461460287
908.0,0.20683847075444928
907.0,0.20648899420714217
906.0,0.20627944318647673
905.0,0.20620961530918125
904.0,0.20641913263184408
903.0,0.20704829174986794
902.0,0.2085198839799991
901.0,0.2107013888405589
900.0,0.21317762050081246
899.0,0.21545402594547736
898.0,0.21688286250953293
897.0,0.21745571598998992
896.0,0.2173840679683965
895.0,0.21688286250953293
894.0,0.21616785661555893
893.0,0.21545402594547736
892.0,0.2145989750076125
891.0,0.21367456560992992
890.0,0.21282300752944616
889.0,0.212185432936977
888.0,0.21204387671606817
887.0,0.212185432936977
886.0,0.2122562283535332
885.0,0.2122562283535332
884.0,0.2121146490590755
883.0,0.21183162885883222
882.0,0.2115487929765445
881.0,0.21133678687914248
880.0,0.21133678687914248
879.0,0.21147811277752715
878.0,0.21169018789295002
877.0,0.21176090261783198
876.0,0.21176090261783198
875.0,0.21169018789295002
874.0,0.21183162885883222
873.0,0.21204387671606817
872.0,0.21204387671606817
871.0,0.2119731159041962
870.0,0.21176090261783198
869.0,0.21169018789295002
868.0,0.21183162885883222
867.0,0.2121146490590755
866.0,0.21239785381766252
865.0,0.21253952548158495
864.0,0.21268124337545258
863.0,0.21246868387276563
862.0,0.2121146490590755
861.0,0.21183162885883222
860.0,0.21190236661970263
859.0,0.212185432936977
858.0,0.21239785381766252
857.0,0.21253952548158495
856.0,0.2126103786478899
855.0,0.21268124337545258
854.0,0.2128939069634299
853.0,0.21310667473868428
852.0,0.21324857785443885
851.0,0.2133195468033513
850.0,0.21324857785443885
849.0,0.21317762050081246
848.0,0.21324857785443885
847.0,0.2135325232597176
846.0,0.21402987486799052
845.0,0.21502629004559926
844.0,0.21709759402535544
843.0,0.22025924882325953
842.0,0.22395292881822026
841.0,0.22716507276098175
840.0,0.22885365118501477
839.0,0.22848601002033342
838.0,0.22657927670938993
837.0,0.22409842110832567
836.0,0.22199353857649173
835.0,0.2206199885083442
834.0,0.2198267563574059
833.0,0.2194666746835956
832.0,0.2193946941610303
831.0,0.21961067152904712
830.0,0.2198267563574059
829.0,0.2196826878598488
828.0,0.21910689131292105
827.0,0.21831641549264935
826.0,0.21759904750347014
825.0,0.21724080737600282
824.0,0.21716919479740815
823.0,0.21716919479740815
822.0,0.21724080737600282
821.0,0.21724080737600282
820.0,0.2173840679683965
819.0,0.21759904750347014
818.0,0.2178141335079835
817.0,0.21795758337944582
816.0,0.21802932608744796
815.0,0.21802932608744796
814.0,0.21817284706757212
813.0,0.21881927906273835
812.0,0.22018713682941948
811.0,0.222500680409635
810.0,0.22504531091986135
809.0,0.22709180502872828
808.0,0.22811867980990108
807.0,0.22826557461323072
806.0,0.2280452510360509
805.0,0.2278984307229881
804.0,0.22782503917538577
803.0,0.2274582673590566
802.0,0.2267988576436557
801.0,0.2258481410452895
800.0,0.22504531091986135
799.0,0.22446236521904295
798.0,0.22395292881822026
797.0,0.2234440892967382
796.0,0.2231535913047007
795.0,0.22300841514359493
794.0,0.22279074185431513
793.0,0.2225731776106885
792.0,0.222500680409635
791.0,0.22264568691579112
790.0,0.22300841514359493
789.0,0.22329881601158919
788.0,0.22337144657984997
787.0,0.2231535913047007
786.0,0.2228632874958274
785.0,0.222500680409635
784.0,0.22221081256513253
783.0,0.22199353857649173
782.0,0.22177637323390353
781.0,0.22170400891116615
780.0,0.22170400891116615
779.0,0.22184874961635637
778.0,0.22177637323390353
777.0,0.22155931642876725
776.0,0.2214146721370378
775.0,0.22148698826107527
774.0,0.2216316566441261
773.0,0.22184874961635637
772.0,0.22213837582375806
771.0,0.22235572230351508
770.0,0.22228326139037402
769.0,0.22199353857649173
768.0,0.22170400891116615
767.0,0.22177637323390353
766.0,0.22213837582375806
765.0,0.22279074185431513
764.0,0.2234440892967382
763.0,0.22395292881822026
762.0,0.22424396215590203
761.0,0.22446236521904295
760.0,0.2246808781705225
759.0,0.22489950112097512
758.0,0.2246808781705225
757.0,0.22409842110832567
756.0,0.22337144657984997
755.0,0.2229358452575705
754.0,0.22279074185431513
753.0,0.22264568691579112
752.0,0.2225731776106885
751.0,0.22279074185431513
750.0,0.22329881601158919
749.0,0.22395292881822026
748.0,0.22446236521904295
747.0,0.224608028303388
746.0,0.2243167509739561
745.0,0.22395292881822026
744.0,0.22373478173189043
743.0,0.22395292881822026
742.0,0.22453519065426075
741.0,0.2251182341812037
740.0,0.22555603107503486
739.0,0.22570206150072258
738.0,0.22562904015008334
737.0,0.22548303427145044
736.0,0.2251182341812037
735.0,0.224608028303388
734.0,0.22417118553538762
733.0,0.2243895519936392
732.0,0.22562904015008334
731.0,0.2274582673590566
730.0,0.22885365118501477
729.0,0.22929523178422073
728.0,0.2290743853610009
727.0,0.2286330291422194
726.0,0.22833904065111255
725.0,0.22811867980990108
724.0,0.22826557461323072
723.0,0.22870655737094037
722.0,0.22944252514900487
721.0,0.2304749798289496
720.0,0.23195418589758332
719.0,0.2334384473624691
718.0,0.23433144524098592
717.0,0.2344059446805551
716.0,0.23433144524098592
715.0,0.23448045690204733
714.0,0.23492779889720805
713.0,0.23515164280658918
712.0,0.23500240071511946
711.0,0.23462951970835144
710.0,0.23425695857895557
709.0,0.23418248469008174
708.0,0.23425695857895557
707.0,0.2341080235699846
706.0,0.23351279376030587
705.0,0.23291837863667775
704.0,0.23291837863667775
703.0,0.23358715288760057
702.0,0.23462951970835144
701.0,0.23574912456122687
700.0,0.23739645043319646
699.0,0.23965292147009354
698.0,0.2414665777627134
697.0,0.2420728168866706
696.0,0.2414665777627134
695.0,0.24055880286630238
694.0,0.2395021247734732
693.0,0.23784680769640532
692.0,0.23545028093553277
691.0,0.23328979273774086
690.0,0.23202827861838116
689.0,0.2316579413554667
688.0,0.23225063265442003
687.0,0.23373590934800448
686.0,0.23582386760966934
685.0,0.23732143627256375
684.0,0.23732143627256375
683.0,0.23589862352377122
682.0,0.23403357521428614
681.0,0.2326214758858196
680.0,0.23158391178366822
679.0,0.23054882059796222
678.0,0.22951619056889205
677.0,0.22900079483605928
676.0,0.22958986848609375
675.0,0.2306965398109182
674.0,0.23173198354845193
673.0,0.23225063265442003
672.0,0.23202827861838116
671.0,0.23099212905622624
670.0,0.22892721677880523
669.0,0.22577509513108107
668.0,0.22054781659593825
667.0,0.21795758337944582
666.0,0.2214146721370378
665.0,0.22562904015008334
664.0,0.22885365118501477
663.0,0.23143589048642665
662.0,0.23314118897858238
661.0,0.23328979273774086
660.0,0.23195418589758332
659.0,0.23003219867055757
658.0,0.22819212100089437
657.0,0.22687207596666514
656.0,0.22628667472297836
655.0,0.22650610772902935
654.0,0.22701854965503632
653.0,0.22701854965503632
652.0,0.22628667472297836
651.0,0.2252641174482466
650.0,0.22475374025976347
649.0,0.2251911696892941
648.0,0.22606735253235488
647.0,0.22709180502872828
646.0,0.22826557461323072
645.0,0.23003219867055757
644.0,0.23217650199248308
643.0,0.23425695857895557
642.0,0.23552497256559102
641.0,0.23597339230796277
640.0,0.23627259623430175
639.0,0.23739645043319646
638.0,0.24003014244569276
637.0,0.24412514432750854
636.0,0.24918315735024543
635.0,0.25352149006996894
634.0,0.2547690154718594
633.0,0.25266589038409504
632.0,0.2490290155626811
631.0,0.2461106685401666
630.0,0.24412514432750854
629.0,0.24214865631442017
628.0,0.2393513804186438
627.0,0.2361229685043451
626.0,0.23336411368973242
625.0,0.23180603836692848
624.0,0.23113999915704286
623.0,0.2306965398109182
622.0,0.2302535328205466
621.0,0.2301059641878309
620.0,0.2301797422364078
619.0,0.2303273359445075
618.0,0.23040115161255348
617.0,0.23091821288178105
616.0,0.23202827861838116
615.0,0.23321548450214102
614.0,0.2336615247487126
613.0,0.23381030668984004
612.0,0.23403357521428614
611.0,0.23358715288760057
610.0,0.23150989482875484
609.0,0.22819212100089437
608.0,0.22555603107503486
607.0,0.22482661457521314
606.0,0.2254100497352054
605.0,0.2267988576436557
604.0,0.22914798835785577
603.0,0.2326956825467268
602.0,0.23582386760966934
601.0,0.2363474294354697
600.0,0.23462951970835144
