cm-1,A
4000.0,0.0104
3999.0,0.0104
3998.0,0.0105
3997.0,0.0106
3996.0,0.0106
3995.0,0.0106
3994.0,0.0106
3993.0,0.0106
3992.0,0.0106
3991.0,0.0106
3990.0,0.0106
3989.0,0.0105
3988.0,0.0104
3987.0,0.0104
3986.0,0.0103
3985.0,0.0103
3984.0,0.0103
3983.0,0.0103
3982.0,0.0104
3981.0,0.0105
3980.0,0.0106
3979.0,0.0106
3978.0,0.0106
3977.0,0.0106
3976.0,0.0106
3975.0,0.0106
3974.0,0.0107
3973.0,0.0107
3972.0,0.0107
3971.0,0.0107
3970.0,0.0106
3969.0,0.0105
3968.0,0.0105
3967.0,0.0105
3966.0,0.0106
3965.0,0.0106
3964.0,0.0107
3963.0,0.0107
3962.0,0.0107
3961.0,0.0106
3960.0,0.0106
3959.0,0.0106
3958.0,0.0106
3957.0,0.0106
3956.0,0.0106
3955.0,0.0105
3954.0,0.0105
3953.0,0.0105
3952.0,0.0106
3951.0,0.0106
3950.0,0.0107
3949.0,0.0107
3948.0,0.0107
3947.0,0.0108
3946.0,0.0108
3945.0,0.0109
3944.0,0.0108
3943.0,0.0107
3942.0,0.0106
3941.0,0.0106
3940.0,0.0106
3939.0,0.0107
3938.0,0.0107
3937.0,0.0107
3936.0,0.0107
3935.0,0.0107
3934.0,0.0106
3933.0,0.0106
3932.0,0.0105
3931.0,0.0105
3930.0,0.0105
3929.0,0.0106
3928.0,0.0108
3927.0,0.011
3926.0,0.011
3925.0,0.0108
3924.0,0.0107
3923.0,0.0106
3922.0,0.0106
3921.0,0.0106
3920.0,0.0107
3919.0,0.0107
3918.0,0.0107
3917.0,0.0107
3916.0,0.0107
3915.0,0.0108
3914.0,0.0109
3913.0,0.0109
3912.0,0.0109
3911.0,0.0108
3910.0,0.0107
3909.0,0.0106
3908.0,0.0104
3907.0,0.0103
3906.0,0.0102
3905.0,0.0102
3904.0,0.0102
3903.0,0.0103
3902.0,0.0104
3901.0,0.0105
3900.0,0.0105
3899.0,0.0105
3898.0,0.0106
3897.0,0.0106
3896.0,0.0106
3895.0,0.0106
3894.0,0.0106
3893.0,0.0107
3892.0,0.0106
3891.0,0.0105
3890.0,0.0104
3889.0,0.0104
3888.0,0.0105
3887.0,0.0105
3886.0,0.0105
3885.0,0.0106
3884.0,0.0108
3883.0,0.011
3882.0,0.0111
3881.0,0.011
3880.0,0.0108
3879.0,0.0107
3878.0,0.0107
3877.0,0.0108
3876.0,0.0109
3875.0,0.0109
3874.0,0.0109
3873.0,0.0109
3872.0,0.011
3871.0,0.0108
3870.0,0.0106
3869.0,0.0105
3868.0,0.0107
3867.0,0.0109
3866.0,0.011
3865.0,0.0109
3864.0,0.0109
3863.0,0.0109
3862.0,0.0109
3861.0,0.0108
3860.0,0.0106
3859.0,0.0104
3858.0,0.0102
3857.0,0.0101
3856.0,0.0102
3855.0,0.0103
3854.0,0.0105
3853.0,0.0107
3852.0,0.0108
3851.0,0.0109
3850.0,0.0109
3849.0,0.0109
3848.0,0.0109
3847.0,0.0109
3846.0,0.011
3845.0,0.011
3844.0,0.011
3843.0,0.011
3842.0,0.0111
3841.0,0.0111
3840.0,0.0111
3839.0,0.011
3838.0,0.0109
3837.0,0.0109
3836.0,0.0108
3835.0,0.0108
3834.0,0.0108
3833.0,0.0107
3832.0,0.0107
3831.0,0.0108
3830.0,0.0109
3829.0,0.0111
3828.0,0.0112
3827.0,0.0111
3826.0,0.0109
3825.0,0.0108
3824.0,0.0109
3823.0,0.011
3822.0,0.0108
3821.0,0.0107
3820.0,0.0107
3819.0,0.011
3818.0,0.0112
3817.0,0.0112
3816.0,0.011
3815.0,0.0109
3814.0,0.0109
3813.0,0.0109
3812.0,0.0109
3811.0,0.0107
3810.0,0.0107
3809.0,0.0107
3808.0,0.0106
3807.0,0.0105
3806.0,0.0106
3805.0,0.0108
3804.0,0.0111
3803.0,0.0112
3802.0,0.0111
3801.0,0.011
3800.0,0.0111
3799.0,0.0112
3798.0,0.0112
3797.0,0.0112
3796.0,0.0111
3795.0,0.0111
3794.0,0.0112
3793.0,0.0112
3792.0,0.0113
3791.0,0.0114
3790.0,0.0114
3789.0,0.0114
3788.0,0.0114
3787.0,0.0113
3786.0,0.0112
3785.0,0.0111
3784.0,0.0111
3783.0,0.0112
3782.0,0.0113
3781.0,0.0113
3780.0,0.0112
3779.0,0.0112
3778.0,0.0112
3777.0,0.0112
3776.0,0.0112
3775.0,0.0111
3774.0,0.0111
3773.0,0.0111
3772.0,0.0112
3771.0,0.0112
3770.0,0.0111
3769.0,0.0111
3768.0,0.0112
3767.0,0.0113
3766.0,0.0113
3765.0,0.0113
3764.0,0.0113
3763.0,0.0114
3762.0,0.0114
3761.0,0.0114
3760.0,0.0113
3759.0,0.0112
3758.0,0.0112
3757.0,0.0111
3756.0,0.011
3755.0,0.0109
3754.0,0.0108
3753.0,0.0104
3752.0,0.0102
3751.0,0.0102
3750.0,0.0104
3749.0,0.0103
3748.0,0.0104
3747.0,0.0106
3746.0,0.0108
3745.0,0.0108
3744.0,0.0106
3743.0,0.0106
3742.0,0.0107
3741.0,0.0108
3740.0,0.0108
3739.0,0.0109
3738.0,0.011
3737.0,0.011
3736.0,0.011
3735.0,0.0112
3734.0,0.0114
3733.0,0.0114
3732.0,0.0113
3731.0,0.0111
3730.0,0.011
3729.0,0.0111
3728.0,0.0112
3727.0,0.0113
3726.0,0.0114
3725.0,0.0115
3724.0,0.0116
3723.0,0.0116
3722.0,0.0116
3721.0,0.0116
3720.0,0.0115
3719.0,0.0115
3718.0,0.0114
3717.0,0.0113
3716.0,0.0113
3715.0,0.0114
3714.0,0.0115
3713.0,0.0114
3712.0,0.0113
3711.0,0.0114
3710.0,0.0115
3709.0,0.0115
3708.0,0.0114
3707.0,0.0113
3706.0,0.0113
3705.0,0.0113
3704.0,0.0113
3703.0,0.0114
3702.0,0.0114
3701.0,0.0113
3700.0,0.0113
3699.0,0.0113
3698.0,0.0113
3697.0,0.0113
3696.0,0.0112
3695.0,0.0112
3694.0,0.0112
3693.0,0.0113
3692.0,0.0112
3691.0,0.0112
3690.0,0.0113
3689.0,0.0114
3688.0,0.0115
3687.0,0.0116
3686.0,0.0116
3685.0,0.0116
3684.0,0.0115
3683.0,0.0115
3682.0,0.0114
3681.0,0.0113
3680.0,0.0111
3679.0,0.011
3678.0,0.011
3677.0,0.011
3676.0,0.011
3675.0,0.011
3674.0,0.0111
3673.0,0.0113
3672.0,0.0115
3671.0,0.0115
3670.0,0.0115
3669.0,0.0115
3668.0,0.0116
3667.0,0.0116
3666.0,0.0116
3665.0,0.0116
3664.0,0.0116
3663.0,0.0116
3662.0,0.0116
3661.0,0.0116
3660.0,0.0115
3659.0,0.0116
3658.0,0.0117
3657.0,0.0118
3656.0,0.0118
3655.0,0.0117
3654.0,0.0118
3653.0,0.0119
3652.0,0.0121
3651.0,0.0123
3650.0,0.0126
3649.0,0.0128
3648.0,0.0128
3647.0,0.0126
3646.0,0.0124
3645.0,0.0123
3644.0,0.0123
3643.0,0.0124
3642.0,0.0125
3641.0,0.0126
3640.0,0.0127
3639.0,0.0128
3638.0,0.0127
3637.0,0.0127
3636.0,0.0127
3635.0,0.0126
3634.0,0.0124
3633.0,0.0123
3632.0,0.0124
3631.0,0.0125
3630.0,0.0127
3629.0,0.0129
3628.0,0.0131
3627.0,0.0132
3626.0,0.0133
3625.0,0.0133
3624.0,0.0133
3623.0,0.0134
3622.0,0.0136
3621.0,0.0137
3620.0,0.0139
3619.0,0.014
3618.0,0.014
3617.0,0.0141
3616.0,0.014
3615.0,0.0139
3614.0,0.0138
3613.0,0.0138
3612.0,0.0138
3611.0,0.0138
3610.0,0.0139
3609.0,0.0141
3608.0,0.0144
3607.0,0.0145
3606.0,0.0146
3605.0,0.0145
3604.0,0.0145
3603.0,0.0144
3602.0,0.0145
3601.0,0.0147
3600.0,0.0149
3599.0,0.015
3598.0,0.015
3597.0,0.015
3596.0,0.0149
3595.0,0.0148
3594.0,0.0149
3593.0,0.0149
3592.0,0.0149
3591.0,0.015
3590.0,0.0151
3589.0,0.0151
3588.0,0.0151
3587.0,0.0152
3586.0,0.0154
3585.0,0.0155
3584.0,0.0156
3583.0,0.0156
3582.0,0.0157
3581.0,0.0157
3580.0,0.0158
3579.0,0.0159
3578.0,0.016
3577.0,0.0161
3576.0,0.0162
3575.0,0.0162
3574.0,0.0162
3573.0,0.0162
3572.0,0.0161
3571.0,0.0162
3570.0,0.0163
3569.0,0.0166
3568.0,0.0168
3567.0,0.0171
3566.0,0.0172
3565.0,0.0171
3564.0,0.017
3563.0,0.017
3562.0,0.017
3561.0,0.017
3560.0,0.017
3559.0,0.017
3558.0,0.0171
3557.0,0.0172
3556.0,0.0173
3555.0,0.0174
3554.0,0.0175
3553.0,0.0176
3552.0,0.0177
3551.0,0.0179
3550.0,0.018
3549.0,0.018
3548.0,0.018
3547.0,0.0181
3546.0,0.0181
3545.0,0.0182
3544.0,0.0182
3543.0,0.0183
3542.0,0.0183
3541.0,0.0183
3540.0,0.0183
3539.0,0.0183
3538.0,0.0184
3537.0,0.0184
3536.0,0.0185
3535.0,0.0186
3534.0,0.0187
3533.0,0.0187
3532.0,0.0188
3531.0,0.0188
3530.0,0.0188
3529.0,0.019
3528.0,0.0192
3527.0,0.0194
3526.0,0.0195
3525.0,0.0195
3524.0,0.0195
3523.0,0.0195
3522.0,0.0195
3521.0,0.0196
3520.0,0.0197
3519.0,0.0197
3518.0,0.0198
3517.0,0.0199
3516.0,0.02
3515.0,0.0201
3514.0,0.0202
3513.0,0.0203
3512.0,0.0204
3511.0,0.0206
3510.0,0.0207
3509.0,0.0207
3508.0,0.0207
3507.0,0.0207
3506.0,0.0206
3505.0,0.0205
3504.0,0.0205
3503.0,0.0207
3502.0,0.0209
3501.0,0.021
3500.0,0.0212
3499.0,0.0213
3498.0,0.0214
3497.0,0.0215
3496.0,0.0217
3495.0,0.0218
3494.0,0.0218
3493.0,0.0218
3492.0,0.0219
3491.0,0.0219
3490.0,0.0219
3489.0,0.0219
3488.0,0.022
3487.0,0.0221
3486.0,0.0222
3485.0,0.0223
3484.0,0.0224
3483.0,0.0225
3482.0,0.0225
3481.0,0.0226
3480.0,0.0227
3479.0,0.0228
3478.0,0.0228
3477.0,0.0229
3476.0,0.023
3475.0,0.0231
3474.0,0.0232
3473.0,0.0233
3472.0,0.0234
3471.0,0.0234
3470.0,0.0235
3469.0,0.0237
3468.0,0.0238
3467.0,0.0239
3466.0,0.0239
3465.0,0.0238
3464.0,0.0238
3463.0,0.0239
3462.0,0.024
3461.0,0.0242
3460.0,0.0243
3459.0,0.0244
3458.0,0.0244
3457.0,0.0245
3456.0,0.0245
3455.0,0.0246
3454.0,0.0247
3453.0,0.0248
3452.0,0.0249
3451.0,0.0249
3450.0,0.025
3449.0,0.025
3448.0,0.0251
3447.0,0.0251
3446.0,0.0251
3445.0,0.0252
3444.0,0.0252
3443.0,0.0253
3442.0,0.0255
3441.0,0.0256
3440.0,0.0257
3439.0,0.0258
3438.0,0.0259
3437.0,0.0261
3436.0,0.0262
3435.0,0.0263
3434.0,0.0264
3433.0,0.0265
3432.0,0.0265
3431.0,0.0265
3430.0,0.0265
3429.0,0.0266
3428.0,0.0267
3427.0,0.0268
3426.0,0.027
3425.0,0.0271
3424.0,0.0271
3423.0,0.0272
3422.0,0.0272
3421.0,0.0274
3420.0,0.0275
3419.0,0.0276
3418.0,0.0276
3417.0,0.0277
3416.0,0.0278
3415.0,0.0279
3414.0,0.0279
3413.0,0.0279
3412.0,0.0279
3411.0,0.0279
3410.0,0.028
3409.0,0.0281
3408.0,0.0283
3407.0,0.0283
3406.0,0.0283
3405.0,0.0283
3404.0,0.0284
3403.0,0.0284
3402.0,0.0284
3401.0,0.0285
3400.0,0.0285
3399.0,0.0285
3398.0,0.0286
3397.0,0.0286
3396.0,0.0286
3395.0,0.0285
3394.0,0.0285
3393.0,0.0285
3392.0,0.0286
3391.0,0.0286
3390.0,0.0287
3389.0,0.0287
3388.0,0.0288
3387.0,0.0289
3386.0,0.0289
3385.0,0.029
3384.0,0.029
3383.0,0.0291
3382.0,0.0291
3381.0,0.0291
3380.0,0.0291
3379.0,0.0291
3378.0,0.029
3377.0,0.029
3376.0,0.029
3375.0,0.029
3374.0,0.029
3373.0,0.029
3372.0,0.029
3371.0,0.029
3370.0,0.029
3369.0,0.029
3368.0,0.0289
3367.0,0.0289
3366.0,0.0289
3365.0,0.0289
3364.0,0.0289
3363.0,0.0288
3362.0,0.0287
3361.0,0.0286
3360.0,0.0286
3359.0,0.0287
3358.0,0.0288
3357.0,0.0289
3356.0,0.0288
3355.0,0.0287
3354.0,0.0286
3353.0,0.0285
3352.0,0.0284
3351.0,0.0284
3350.0,0.0284
3349.0,0.0283
3348.0,0.0282
3347.0,0.0281
3346.0,0.0281
3345.0,0.0281
3344.0,0.0281
3343.0,0.0281
3342.0,0.028
3341.0,0.028
3340.0,0.0279
3339.0,0.0278
3338.0,0.0277
3337.0,0.0277
3336.0,0.0276
3335.0,0.0276
3334.0,0.0276
3333.0,0.0275
3332.0,0.0275
3331.0,0.0274
3330.0,0.0274
3329.0,0.0275
3328.0,0.0275
3327.0,0.0274
3326.0,0.0273
3325.0,0.0272
3324.0,0.0271
3323.0,0.0269
3322.0,0.0268
3321.0,0.0267
3320.0,0.0266
3319.0,0.0265
3318.0,0.0264
3317.0,0.0263
3316.0,0.0262
3315.0,0.0262
3314.0,0.0261
3313.0,0.0262
3312.0,0.0262
3311.0,0.0262
3310.0,0.0261
3309.0,0.026
3308.0,0.0258
3307.0,0.0257
3306.0,0.0256
3305.0,0.0256
3304.0,0.0255
3303.0,0.0254
3302.0,0.0254
3301.0,0.0254
3300.0,0.0254
3299.0,0.0254
3298.0,0.0254
3297.0,0.0254
3296.0,0.0253
3295.0,0.0253
3294.0,0.0252
3293.0,0.0251
3292.0,0.0249
3291.0,0.0248
3290.0,0.0248
3289.0,0.0248
3288.0,0.0247
3287.0,0.0247
3286.0,0.0247
3285.0,0.0247
3284.0,0.0247
3283.0,0.0246
3282.0,0.0245
3281.0,0.0244
3280.0,0.0244
3279.0,0.0244
3278.0,0.0244
3277.0,0.0244
3276.0,0.0243
3275.0,0.0243
3274.0,0.0242
3273.0,0.0241
3272.0,0.024
3271.0,0.0239
3270.0,0.0239
3269.0,0.0238
3268.0,0.0237
3267.0,0.0237
3266.0,0.0236
3265.0,0.0236
3264.0,0.0236
3263.0,0.0235
3262.0,0.0234
3261.0,0.0234
3260.0,0.0233
3259.0,0.0232
3258.0,0.0232
3257.0,0.0233
3256.0,0.0233
3255.0,0.0233
3254.0,0.0233
3253.0,0.0232
3252.0,0.0232
3251.0,0.0232
3250.0,0.0232
3249.0,0.0234
3248.0,0.0235
3247.0,0.0235
3246.0,0.0235
3245.0,0.0234
3244.0,0.0233
3243.0,0.0233
3242.0,0.0233
3241.0,0.0233
3240.0,0.0233
3239.0,0.0234
3238.0,0.0234
3237.0,0.0233
3236.0,0.0232
3235.0,0.0231
3234.0,0.023
3233.0,0.023
3232.0,0.0229
3231.0,0.0229
3230.0,0.0228
3229.0,0.0227
3228.0,0.0226
3227.0,0.0225
3226.0,0.0224
3225.0,0.0223
3224.0,0.0222
3223.0,0.0221
3222.0,0.022
3221.0,0.022
3220.0,0.0219
3219.0,0.0218
3218.0,0.0218
3217.0,0.0218
3216.0,0.0218
3215.0,0.0217
3214.0,0.0216
3213.0,0.0215
3212.0,0.0215
3211.0,0.0215
3210.0,0.0215
3209.0,0.0215
3208.0,0.0214
3207.0,0.0212
3206.0,0.0211
3205.0,0.021
3204.0,0.0209
3203.0,0.0209
3202.0,0.0208
3201.0,0.0208
3200.0,0.0207
3199.0,0.0207
3198.0,0.0206
3197.0,0.0206
3196.0,0.0206
3195.0,0.0205
3194.0,0.0204
3193.0,0.0203
3192.0,0.0202
3191.0,0.0201
3190.0,0.0201
3189.0,0.0201
3188.0,0.0201
3187.0,0.02
3186.0,0.0199
3185.0,0.0197
3184.0,0.0196
3183.0,0.0195
3182.0,0.0195
3181.0,0.0195
3180.0,0.0194
3179.0,0.0194
3178.0,0.0194
3177.0,0.0193
3176.0,0.0193
3175.0,0.0193
3174.0,0.0192
3173.0,0.0191
3172.0,0.019
3171.0,0.0189
3170.0,0.0188
3169.0,0.0186
3168.0,0.0184
3167.0,0.0183
3166.0,0.0182
3165.0,0.0183
3164.0,0.0183
3163.0,0.0183
3162.0,0.0182
3161.0,0.0181
3160.0,0.018
3159.0,0.0179
3158.0,0.0178
3157.0,0.0178
3156.0,0.0177
3155.0,0.0177
3154.0,0.0176
3153.0,0.0175
3152.0,0.0175
3151.0,0.0174
3150.0,0.0174
3149.0,0.0174
3148.0,0.0174
3147.0,0.0174
3146.0,0.0174
3145.0,0.0174
3144.0,0.0174
3143.0,0.0173
3142.0,0.0172
3141.0,0.0171
3140.0,0.0171
3139.0,0.017
3138.0,0.0169
3137.0,0.0168
3136.0,0.0167
3135.0,0.0167
3134.0,0.0166
3133.0,0.0165
3132.0,0.0164
3131.0,0.0163
3130.0,0.0162
3129.0,0.0162
3128.0,0.0161
3127.0,0.0161
3126.0,0.016
3125.0,0.0159
3124.0,0.0159
3123.0,0.0158
3122.0,0.0158
3121.0,0.0157
3120.0,0.0157
3119.0,0.0156
3118.0,0.0156
3117.0,0.0156
3116.0,0.0156
3115.0,0.0156
3114.0,0.0156
3113.0,0.0155
3112.0,0.0153
3111.0,0.0152
3110.0,0.0151
3109.0,0.015
3108.0,0.0149
3107.0,0.0149
3106.0,0.0149
3105.0,0.0148
3104.0,0.0148
3103.0,0.0147
3102.0,0.0147
3101.0,0.0146
3100.0,0.0146
3099.0,0.0145
3098.0,0.0145
3097.0,0.0144
3096.0,0.0143
3095.0,0.0143
3094.0,0.0142
3093.0,0.0142
3092.0,0.0141
3091.0,0.014
3090.0,0.014
3089.0,0.0139
3088.0,0.0138
3087.0,0.0138
3086.0,0.0138
3085.0,0.0138
3084.0,0.0137
3083.0,0.0135
3082.0,0.0134
3081.0,0.0133
3080.0,0.0132
3079.0,0.0131
3078.0,0.0131
3077.0,0.0131
3076.0,0.0131
3075.0,0.0131
3074.0,0.013
3073.0,0.0129
3072.0,0.0129
3071.0,0.0128
3070.0,0.0127
3069.0,0.0126
3068.0,0.0126
3067.0,0.0126
3066.0,0.0125
3065.0,0.0125
3064.0,0.0124
3063.0,0.0123
3062.0,0.0122
3061.0,0.0121
3060.0,0.0121
3059.0,0.0119
3058.0,0.0118
3057.0,0.0117
3056.0,0.0116
3055.0,0.0115
3054.0,0.0115
3053.0,0.0115
3052.0,0.0115
3051.0,0.0115
3050.0,0.0114
3049.0,0.0113
3048.0,0.0113
3047.0,0.0112
3046.0,0.0112
3045.0,0.0111
3044.0,0.011
3043.0,0.0109
3042.0,0.0107
3041.0,0.0106
3040.0,0.0105
3039.0,0.0105
3038.0,0.0104
3037.0,0.0103
3036.0,0.0102
3035.0,0.0101
3034.0,0.01
3033.0,0.01
3032.0,0.01
3031.0,0.0099
3030.0,0.0098
3029.0,0.0097
3028.0,0.0096
3027.0,0.0094
3026.0,0.0093
3025.0,0.0092
3024.0,0.009
3023.0,0.0089
3022.0,0.0089
3021.0,0.0088
3020.0,0.0088
3019.0,0.0087
3018.0,0.0086
3017.0,0.0085
3016.0,0.0084
3015.0,0.0083
3014.0,0.0082
3013.0,0.0081
3012.0,0.0079
3011.0,0.0079
3010.0,0.0078
3009.0,0.0078
3008.0,0.0077
3007.0,0.0076
3006.0,0.0074
3005.0,0.0072
3004.0,0.0071
3003.0,0.007
3002.0,0.0069
3001.0,0.0069
3000.0,0.0068
2999.0,0.0068
2998.0,0.0068
2997.0,0.0068
2996.0,0.0069
2995.0,0.007
2994.0,0.007
2993.0,0.0071
2992.0,0.0071
2991.0,0.0071
2990.0,0.0072
2989.0,0.0073
2988.0,0.0075
2987.0,0.0077
2986.0,0.008
2985.0,0.0083
2984.0,0.0087
2983.0,0.0093
2982.0,0.01
2981.0,0.0108
2980.0,0.0117
2979.0,0.0128
2978.0,0.0139
2977.0,0.0153
2976.0,0.0169
2975.0,0.0188
2974.0,0.0209
2973.0,0.0234
2972.0,0.0262
2971.0,0.0293
2970.0,0.0328
2969.0,0.0366
2968.0,0.0407
2967.0,0.0451
2966.0,0.0498
2965.0,0.0545
2964.0,0.0592
2963.0,0.0635
2962.0,0.0671
2961.0,0.0701
2960.0,0.0723
2959.0,0.0739
2958.0,0.0752
2957.0,0.0765
2956.0,0.0779
2955.0,0.0796
2954.0,0.0816
2953.0,0.0836
2952.0,0.0852
2951.0,0.0861
2950.0,0.0859
2949.0,0.0844
2948.0,0.0815
2947.0,0.0776
2946.0,0.0729
2945.0,0.0678
2944.0,0.0628
2943.0,0.0584
2942.0,0.0547
2941.0,0.0518
2940.0,0.0497
2939.0,0.0485
2938.0,0.048
2937.0,0.0484
2936.0,0.0494
2935.0,0.0511
2934.0,0.0533
2933.0,0.0561
2932.0,0.0594
2931.0,0.063
2930.0,0.0668
2929.0,0.0707
2928.0,0.0746
2927.0,0.0784
2926.0,0.082
2925.0,0.0854
2924.0,0.0887
2923.0,0.0921
2922.0,0.0954
2921.0,0.0984
2920.0,0.101
2919.0,0.1028
2918.0,0.1037
2917.0,0.1036
2916.0,0.1024
2915.0,0.1005
2914.0,0.0981
2913.0,0.0956
2912.0,0.0933
2911.0,0.0913
2910.0,0.0896
2909.0,0.0881
2908.0,0.0866
2907.0,0.0851
2906.0,0.0835
2905.0,0.0817
2904.0,0.0798
2903.0,0.0778
2902.0,0.0757
2901.0,0.0737
2900.0,0.0716
2899.0,0.0695
2898.0,0.0675
2897.0,0.0656
2896.0,0.0638
2895.0,0.0623
2894.0,0.061
2893.0,0.06
2892.0,0.0592
2891.0,0.0586
2890.0,0.0581
2889.0,0.0578
2888.0,0.0577
2887.0,0.0577
2886.0,0.058
2885.0,0.0583
2884.0,0.0588
2883.0,0.0593
2882.0,0.06
2881.0,0.0608
2880.0,0.0616
2879.0,0.0622
2878.0,0.0626
2877.0,0.0627
2876.0,0.0626
2875.0,0.0625
2874.0,0.0624
2873.0,0.0625
2872.0,0.0628
2871.0,0.0634
2870.0,0.0642
2869.0,0.065
2868.0,0.0655
2867.0,0.0656
2866.0,0.0649
2865.0,0.0633
2864.0,0.0608
2863.0,0.0578
2862.0,0.0546
2861.0,0.0516
2860.0,0.049
2859.0,0.0468
2858.0,0.045
2857.0,0.0437
2856.0,0.0428
2855.0,0.0423
2854.0,0.0422
2853.0,0.0423
2852.0,0.0426
2851.0,0.043
2850.0,0.0436
2849.0,0.0444
2848.0,0.0456
2847.0,0.0471
2846.0,0.0491
2845.0,0.0514
2844.0,0.0541
2843.0,0.057
2842.0,0.06
2841.0,0.0628
2840.0,0.0652
2839.0,0.0669
2838.0,0.0676
2837.0,0.0671
2836.0,0.0656
2835.0,0.0631
2834.0,0.06
2833.0,0.0566
2832.0,0.0533
2831.0,0.0503
2830.0,0.0477
2829.0,0.0455
2828.0,0.0437
2827.0,0.0421
2826.0,0.0407
2825.0,0.0395
2824.0,0.0385
2823.0,0.0377
2822.0,0.0369
2821.0,0.0362
2820.0,0.0356
2819.0,0.035
2818.0,0.0345
2817.0,0.034
2816.0,0.0335
2815.0,0.033
2814.0,0.0327
2813.0,0.0324
2812.0,0.0321
2811.0,0.0319
2810.0,0.0316
2809.0,0.0313
2808.0,0.031
2807.0,0.0307
2806.0,0.0304
2805.0,0.0301
2804.0,0.0298
2803.0,0.0294
2802.0,0.029
2801.0,0.0287
2800.0,0.0284
2799.0,0.0281
2798.0,0.028
2797.0,0.0278
2796.0,0.0277
2795.0,0.0276
2794.0,0.0275
2793.0,0.0273
2792.0,0.0271
2791.0,0.0269
2790.0,0.0266
2789.0,0.0264
2788.0,0.0262
2787.0,0.0259
2786.0,0.0257
2785.0,0.0255
2784.0,0.0252
2783.0,0.025
2782.0,0.0249
2781.0,0.0248
2780.0,0.0247
2779.0,0.0247
2778.0,0.0245
2777.0,0.0244
2776.0,0.0242
2775.0,0.0241
2774.0,0.0239
2773.0,0.0239
2772.0,0.0238
2771.0,0.0237
2770.0,0.0236
2769.0,0.0235
2768.0,0.0233
2767.0,0.0232
2766.0,0.0232
2765.0,0.0232
2764.0,0.0231
2763.0,0.0231
2762.0,0.023
2761.0,0.0229
2760.0,0.0227
2759.0,0.0226
2758.0,0.0226
2757.0,0.0225
2756.0,0.0225
2755.0,0.0225
2754.0,0.0224
2753.0,0.0224
2752.0,0.0223
2751.0,0.0223
2750.0,0.0223
2749.0,0.0222
2748.0,0.0221
2747.0,0.022
2746.0,0.0219
2745.0,0.0219
2744.0,0.0218
2743.0,0.0218
2742.0,0.0218
2741.0,0.0219
2740.0,0.0219
2739.0,0.0219
2738.0,0.0219
2737.0,0.022
2736.0,0.0221
2735.0,0.0221
2734.0,0.0221
2733.0,0.022
2732.0,0.022
2731.0,0.022
2730.0,0.0221
2729.0,0.0221
2728.0,0.0222
2727.0,0.0224
2726.0,0.0226
2725.0,0.0228
2724.0,0.0229
2723.0,0.0229
2722.0,0.0228
2721.0,0.0227
2720.0,0.0226
2719.0,0.0225
2718.0,0.0224
2717.0,0.0222
2716.0,0.0222
2715.0,0.022
2714.0,0.0219
2713.0,0.0218
2712.0,0.0216
2711.0,0.0215
2710.0,0.0215
2709.0,0.0214
2708.0,0.0213
2707.0,0.0213
2706.0,0.0212
2705.0,0.0211
2704.0,0.021
2703.0,0.0209
2702.0,0.0208
2701.0,0.0207
2700.0,0.0206
2699.0,0.0206
2698.0,0.0205
2697.0,0.0205
2696.0,0.0205
2695.0,0.0206
2694.0,0.0205
2693.0,0.0205
2692.0,0.0204
2691.0,0.0203
2690.0,0.0203
2689.0,0.0203
2688.0,0.0203
2687.0,0.0203
2686.0,0.0202
2685.0,0.0202
2684.0,0.0202
2683.0,0.0202
2682.0,0.0202
2681.0,0.0202
2680.0,0.0202
2679.0,0.0202
2678.0,0.0202
2677.0,0.0202
2676.0,0.0201
2675.0,0.02
2674.0,0.0199
2673.0,0.0198
2672.0,0.0199
2671.0,0.0199
2670.0,0.02
2669.0,0.02
2668.0,0.02
2667.0,0.0199
2666.0,0.0198
2665.0,0.0198
2664.0,0.0198
2663.0,0.0198
2662.0,0.0198
2661.0,0.0197
2660.0,0.0197
2659.0,0.0196
2658.0,0.0196
2657.0,0.0196
2656.0,0.0196
2655.0,0.0196
2654.0,0.0195
2653.0,0.0195
2652.0,0.0195
2651.0,0.0194
2650.0,0.0193
2649.0,0.0193
2648.0,0.0192
2647.0,0.0192
2646.0,0.0192
2645.0,0.0192
2644.0,0.0191
2643.0,0.019
2642.0,0.019
2641.0,0.019
2640.0,0.0191
2639.0,0.0191
2638.0,0.0191
2637.0,0.019
2636.0,0.019
2635.0,0.0189
2634.0,0.0189
2633.0,0.0189
2632.0,0.0189
2631.0,0.0189
2630.0,0.0189
2629.0,0.0188
2628.0,0.0188
2627.0,0.0188
2626.0,0.0188
2625.0,0.0187
2624.0,0.0187
2623.0,0.0188
2622.0,0.0188
2621.0,0.0188
2620.0,0.0187
2619.0,0.0187
2618.0,0.0187
2617.0,0.0187
2616.0,0.0187
2615.0,0.0187
2614.0,0.0187
2613.0,0.0188
2612.0,0.0188
2611.0,0.0188
2610.0,0.0187
2609.0,0.0187
2608.0,0.0186
2607.0,0.0185
2606.0,0.0184
2605.0,0.0183
2604.0,0.0182
2603.0,0.0181
2602.0,0.0182
2601.0,0.0182
2600.0,0.0183
2599.0,0.0183
2598.0,0.0183
2597.0,0.0182
2596.0,0.0182
2595.0,0.0182
2594.0,0.0182
2593.0,0.0182
2592.0,0.0182
2591.0,0.0182
2590.0,0.0183
2589.0,0.0183
2588.0,0.0184
2587.0,0.0184
2586.0,0.0184
2585.0,0.0184
2584.0,0.0185
2583.0,0.0184
2582.0,0.0184
2581.0,0.0184
2580.0,0.0184
2579.0,0.0184
2578.0,0.0184
2577.0,0.0183
2576.0,0.0182
2575.0,0.0181
2574.0,0.018
2573.0,0.018
2572.0,0.018
2571.0,0.0179
2570.0,0.0179
2569.0,0.0178
2568.0,0.0178
2567.0,0.0179
2566.0,0.0179
2565.0,0.0178
2564.0,0.0178
2563.0,0.0177
2562.0,0.0177
2561.0,0.0177
2560.0,0.0178
2559.0,0.0178
2558.0,0.0178
2557.0,0.0178
2556.0,0.0177
2555.0,0.0176
2554.0,0.0176
2553.0,0.0176
2552.0,0.0175
2551.0,0.0174
2550.0,0.0174
2549.0,0.0173
2548.0,0.0174
2547.0,0.0174
2546.0,0.0174
2545.0,0.0174
2544.0,0.0174
2543.0,0.0173
2542.0,0.0173
2541.0,0.0173
2540.0,0.0173
2539.0,0.0173
2538.0,0.0173
2537.0,0.0172
2536.0,0.0172
2535.0,0.0172
2534.0,0.0172
2533.0,0.0172
2532.0,0.0171
2531.0,0.0171
2530.0,0.0171
2529.0,0.0171
2528.0,0.0171
2527.0,0.0171
2526.0,0.0171
2525.0,0.0171
2524.0,0.0171
2523.0,0.0171
2522.0,0.0171
2521.0,0.017
2520.0,0.017
2519.0,0.017
2518.0,0.017
2517.0,0.0168
2516.0,0.0167
2515.0,0.0166
2514.0,0.0166
2513.0,0.0166
2512.0,0.0166
2511.0,0.0167
2510.0,0.0168
2509.0,0.0168
2508.0,0.0168
2507.0,0.0168
2506.0,0.0168
2505.0,0.0168
2504.0,0.0167
2503.0,0.0166
2502.0,0.0166
2501.0,0.0166
2500.0,0.0166
2499.0,0.0166
2498.0,0.0166
2497.0,0.0166
2496.0,0.0166
2495.0,0.0167
2494.0,0.0168
2493.0,0.0168
2492.0,0.0168
2491.0,0.0167
2490.0,0.0167
2489.0,0.0166
2488.0,0.0166
2487.0,0.0166
2486.0,0.0166
2485.0,0.0166
2484.0,0.0166
2483.0,0.0166
2482.0,0.0166
2481.0,0.0166
2480.0,0.0167
2479.0,0.0166
2478.0,0.0166
2477.0,0.0165
2476.0,0.0165
2475.0,0.0164
2474.0,0.0164
2473.0,0.0165
2472.0,0.0165
2471.0,0.0165
2470.0,0.0165
2469.0,0.0165
2468.0,0.0165
2467.0,0.0165
2466.0,0.0164
2465.0,0.0164
2464.0,0.0163
2463.0,0.0163
2462.0,0.0163
2461.0,0.0163
2460.0,0.0163
2459.0,0.0163
2458.0,0.0163
2457.0,0.0163
2456.0,0.0164
2455.0,0.0164
2454.0,0.0165
2453.0,0.0165
2452.0,0.0165
2451.0,0.0164
2450.0,0.0164
2449.0,0.0164
2448.0,0.0164
2447.0,0.0164
2446.0,0.0163
2445.0,0.0163
2444.0,0.0163
2443.0,0.0163
2442.0,0.0163
2441.0,0.0163
2440.0,0.0163
2439.0,0.0164
2438.0,0.0163
2437.0,0.0163
2436.0,0.0163
2435.0,0.0164
2434.0,0.0165
2433.0,0.0165
2432.0,0.0165
2431.0,0.0166
2430.0,0.0165
2429.0,0.0165
2428.0,0.0165
2427.0,0.0164
2426.0,0.0164
2425.0,0.0164
2424.0,0.0164
2423.0,0.0164
2422.0,0.0163
2421.0,0.0163
2420.0,0.0162
2419.0,0.0162
2418.0,0.0162
2417.0,0.0163
2416.0,0.0163
2415.0,0.0163
2414.0,0.0163
2413.0,0.0163
2412.0,0.0162
2411.0,0.0162
2410.0,0.0163
2409.0,0.0163
2408.0,0.0164
2407.0,0.0163
2406.0,0.0163
2405.0,0.0163
2404.0,0.0163
2403.0,0.0163
2402.0,0.0163
2401.0,0.0163
2400.0,0.0163
2399.0,0.0163
2398.0,0.0162
2397.0,0.0162
2396.0,0.0162
2395.0,0.0162
2394.0,0.0162
2393.0,0.0163
2392.0,0.0163
2391.0,0.0163
2390.0,0.0162
2389.0,0.0161
2388.0,0.016
2387.0,0.016
2386.0,0.0159
2385.0,0.0158
2384.0,0.0158
2383.0,0.0158
2382.0,0.0158
2381.0,0.0158
2380.0,0.0159
2379.0,0.0159
2378.0,0.0157
2377.0,0.0155
2376.0,0.0153
2375.0,0.0151
2374.0,0.015
2373.0,0.0149
2372.0,0.015
2371.0,0.0156
2370.0,0.0167
2369.0,0.0179
2368.0,0.0184
2367.0,0.018
2366.0,0.0172
2365.0,0.0161
2364.0,0.0141
2363.0,0.011
2362.0,0.0079
2361.0,0.0064
2360.0,0.007
2359.0,0.0098
2358.0,0.0143
2357.0,0.0184
2356.0,0.0202
2355.0,0.0199
2354.0,0.0187
2353.0,0.0178
2352.0,0.017
2351.0,0.0163
2350.0,0.0155
2349.0,0.0151
2348.0,0.0148
2347.0,0.0145
2346.0,0.0142
2345.0,0.0144
2344.0,0.0152
2343.0,0.0162
2342.0,0.0171
2341.0,0.0175
2340.0,0.0168
2339.0,0.0154
2338.0,0.0145
2337.0,0.0148
2336.0,0.0157
2335.0,0.0166
2334.0,0.017
2333.0,0.0168
2332.0,0.0161
2331.0,0.0152
2330.0,0.0145
2329.0,0.0145
2328.0,0.0148
2327.0,0.0151
2326.0,0.0153
2325.0,0.0155
2324.0,0.016
2323.0,0.0167
2322.0,0.0172
2321.0,0.0172
2320.0,0.0166
2319.0,0.0159
2318.0,0.0153
2317.0,0.0151
2316.0,0.0152
2315.0,0.0154
2314.0,0.0155
2313.0,0.0156
2312.0,0.0156
2311.0,0.0156
2310.0,0.0156
2309.0,0.0156
2308.0,0.0158
2307.0,0.0159
2306.0,0.016
2305.0,0.016
2304.0,0.0159
2303.0,0.0158
2302.0,0.0157
2301.0,0.0156
2300.0,0.0155
2299.0,0.0154
2298.0,0.0154
2297.0,0.0154
2296.0,0.0155
2295.0,0.0156
2294.0,0.0156
2293.0,0.0156
2292.0,0.0157
2291.0,0.0157
2290.0,0.0157
2289.0,0.0157
2288.0,0.0158
2287.0,0.0158
2286.0,0.0159
2285.0,0.0159
2284.0,0.0159
2283.0,0.0159
2282.0,0.0159
2281.0,0.0158
2280.0,0.0158
2279.0,0.0158
2278.0,0.0158
2277.0,0.0158
2276.0,0.0158
2275.0,0.0159
2274.0,0.0159
2273.0,0.0159
2272.0,0.0159
2271.0,0.0159
2270.0,0.0159
2269.0,0.0159
2268.0,0.016
2267.0,0.016
2266.0,0.016
2265.0,0.016
2264.0,0.016
2263.0,0.016
2262.0,0.016
2261.0,0.016
2260.0,0.016
2259.0,0.016
2258.0,0.016
2257.0,0.016
2256.0,0.016
2255.0,0.0159
2254.0,0.0159
2253.0,0.0159
2252.0,0.0159
2251.0,0.016
2250.0,0.016
2249.0,0.016
2248.0,0.0159
2247.0,0.0159
2246.0,0.0159
2245.0,0.0158
2244.0,0.0158
2243.0,0.0158
2242.0,0.0158
2241.0,0.0158
2240.0,0.0159
2239.0,0.0159
2238.0,0.0159
2237.0,0.016
2236.0,0.016
2235.0,0.0159
2234.0,0.0159
2233.0,0.0159
2232.0,0.0159
2231.0,0.0159
2230.0,0.0159
2229.0,0.0159
2228.0,0.0158
2227.0,0.0158
2226.0,0.0158
2225.0,0.0157
2224.0,0.0157
2223.0,0.0158
2222.0,0.0158
2221.0,0.0158
2220.0,0.0158
2219.0,0.0158
2218.0,0.0158
2217.0,0.0159
2216.0,0.0159
2215.0,0.0159
2214.0,0.0159
2213.0,0.0158
2212.0,0.0158
2211.0,0.0158
2210.0,0.0158
2209.0,0.0157
2208.0,0.0157
2207.0,0.0157
2206.0,0.0157
2205.0,0.0157
2204.0,0.0158
2203.0,0.0158
2202.0,0.0158
2201.0,0.0158
2200.0,0.0157
2199.0,0.0157
2198.0,0.0157
2197.0,0.0158
2196.0,0.0158
2195.0,0.0159
2194.0,0.0159
2193.0,0.0159
2192.0,0.016
2191.0,0.016
2190.0,0.0159
2189.0,0.0159
2188.0,0.0159
2187.0,0.0158
2186.0,0.0158
2185.0,0.0158
2184.0,0.0159
2183.0,0.0159
2182.0,0.0159
2181.0,0.0159
2180.0,0.0159
2179.0,0.0159
2178.0,0.0158
2177.0,0.0158
2176.0,0.0158
2175.0,0.0158
2174.0,0.0158
2173.0,0.0158
2172.0,0.0158
2171.0,0.0158
2170.0,0.0159
2169.0,0.0159
2168.0,0.0159
2167.0,0.0158
2166.0,0.0157
2165.0,0.0157
2164.0,0.0157
2163.0,0.0157
2162.0,0.0157
2161.0,0.0157
2160.0,0.0157
2159.0,0.0157
2158.0,0.0157
2157.0,0.0157
2156.0,0.0157
2155.0,0.0157
2154.0,0.0157
2153.0,0.0156
2152.0,0.0156
2151.0,0.0156
2150.0,0.0157
2149.0,0.0157
2148.0,0.0157
2147.0,0.0157
2146.0,0.0156
2145.0,0.0156
2144.0,0.0156
2143.0,0.0156
2142.0,0.0155
2141.0,0.0155
2140.0,0.0155
2139.0,0.0156
2138.0,0.0156
2137.0,0.0156
2136.0,0.0156
2135.0,0.0157
2134.0,0.0157
2133.0,0.0157
2132.0,0.0157
2131.0,0.0157
2130.0,0.0157
2129.0,0.0156
2128.0,0.0156
2127.0,0.0157
2126.0,0.0157
2125.0,0.0157
2124.0,0.0157
2123.0,0.0157
2122.0,0.0157
2121.0,0.0156
2120.0,0.0155
2119.0,0.0154
2118.0,0.0154
2117.0,0.0155
2116.0,0.0155
2115.0,0.0155
2114.0,0.0154
2113.0,0.0154
2112.0,0.0154
2111.0,0.0154
2110.0,0.0155
2109.0,0.0155
2108.0,0.0156
2107.0,0.0155
2106.0,0.0155
2105.0,0.0155
2104.0,0.0154
2103.0,0.0154
2102.0,0.0154
2101.0,0.0154
2100.0,0.0154
2099.0,0.0154
2098.0,0.0154
2097.0,0.0154
2096.0,0.0154
2095.0,0.0154
2094.0,0.0154
2093.0,0.0154
2092.0,0.0154
2091.0,0.0154
2090.0,0.0154
2089.0,0.0154
2088.0,0.0154
2087.0,0.0153
2086.0,0.0153
2085.0,0.0153
2084.0,0.0154
2083.0,0.0154
2082.0,0.0155
2081.0,0.0155
2080.0,0.0155
2079.0,0.0155
2078.0,0.0154
2077.0,0.0154
2076.0,0.0154
2075.0,0.0154
2074.0,0.0153
2073.0,0.0153
2072.0,0.0153
2071.0,0.0153
2070.0,0.0153
2069.0,0.0153
2068.0,0.0153
2067.0,0.0153
2066.0,0.0153
2065.0,0.0153
2064.0,0.0153
2063.0,0.0153
2062.0,0.0154
2061.0,0.0154
2060.0,0.0154
2059.0,0.0154
2058.0,0.0153
2057.0,0.0153
2056.0,0.0153
2055.0,0.0153
2054.0,0.0153
2053.0,0.0153
2052.0,0.0153
2051.0,0.0153
2050.0,0.0152
2049.0,0.0152
2048.0,0.0152
2047.0,0.0152
2046.0,0.0152
2045.0,0.0152
2044.0,0.0153
2043.0,0.0152
2042.0,0.0153
2041.0,0.0153
2040.0,0.0153
2039.0,0.0153
2038.0,0.0153
2037.0,0.0153
2036.0,0.0153
2035.0,0.0153
2034.0,0.0153
2033.0,0.0152
2032.0,0.0153
2031.0,0.0153
2030.0,0.0153
2029.0,0.0153
2028.0,0.0153
2027.0,0.0153
2026.0,0.0152
2025.0,0.0152
2024.0,0.0153
2023.0,0.0153
2022.0,0.0153
2021.0,0.0153
2020.0,0.0153
2019.0,0.0153
2018.0,0.0152
2017.0,0.0152
2016.0,0.0152
2015.0,0.0152
2014.0,0.0152
2013.0,0.0152
2012.0,0.0152
2011.0,0.0152
2010.0,0.0152
2009.0,0.0152
2008.0,0.0152
2007.0,0.0152
2006.0,0.0151
2005.0,0.0152
2004.0,0.0152
2003.0,0.0152
2002.0,0.0151
2001.0,0.0151
2000.0,0.0151
1999.0,0.0151
1998.0,0.0151
1997.0,0.0151
1996.0,0.0151
1995.0,0.0151
1994.0,0.0151
1993.0,0.0152
1992.0,0.0153
1991.0,0.0153
1990.0,0.0153
1989.0,0.0152
1988.0,0.0151
1987.0,0.0151
1986.0,0.0151
1985.0,0.0152
1984.0,0.0152
1983.0,0.0152
1982.0,0.0153
1981.0,0.0153
1980.0,0.0153
1979.0,0.0153
1978.0,0.0152
1977.0,0.0152
1976.0,0.0152
1975.0,0.0152
1974.0,0.0152
1973.0,0.0151
1972.0,0.0152
1971.0,0.0152
1970.0,0.0152
1969.0,0.0152
1968.0,0.0152
1967.0,0.0152
1966.0,0.0152
1965.0,0.0151
1964.0,0.0151
1963.0,0.0151
1962.0,0.0151
1961.0,0.0151
1960.0,0.0151
1959.0,0.0151
1958.0,0.0151
1957.0,0.0151
1956.0,0.0151
1955.0,0.0151
1954.0,0.0151
1953.0,0.0151
1952.0,0.0151
1951.0,0.0151
1950.0,0.0151
1949.0,0.0151
1948.0,0.0151
1947.0,0.0151
1946.0,0.0151
1945.0,0.0151
1944.0,0.0152
1943.0,0.0152
1942.0,0.0152
1941.0,0.0151
1940.0,0.0151
1939.0,0.0151
1938.0,0.0151
1937.0,0.0152
1936.0,0.0152
1935.0,0.0152
1934.0,0.0152
1933.0,0.0152
1932.0,0.0152
1931.0,0.0152
1930.0,0.0152
1929.0,0.0152
1928.0,0.0152
1927.0,0.0152
1926.0,0.0152
1925.0,0.0153
1924.0,0.0153
1923.0,0.0152
1922.0,0.0152
1921.0,0.0151
1920.0,0.0151
1919.0,0.0151
1918.0,0.0151
1917.0,0.0151
1916.0,0.0151
1915.0,0.0151
1914.0,0.0151
1913.0,0.0151
1912.0,0.0151
1911.0,0.0152
1910.0,0.0152
1909.0,0.0153
1908.0,0.0153
1907.0,0.0152
1906.0,0.0151
1905.0,0.0151
1904.0,0.0151
1903.0,0.0152
1902.0,0.0152
1901.0,0.0152
1900.0,0.0153
1899.0,0.0153
1898.0,0.0153
1897.0,0.0153
1896.0,0.0152
1895.0,0.0151
1894.0,0.0151
1893.0,0.0151
1892.0,0.0152
1891.0,0.0153
1890.0,0.0153
1889.0,0.0154
1888.0,0.0153
1887.0,0.0153
1886.0,0.0152
1885.0,0.0152
1884.0,0.0152
1883.0,0.0152
1882.0,0.0152
1881.0,0.0152
1880.0,0.0152
1879.0,0.0152
1878.0,0.0152
1877.0,0.0152
1876.0,0.0152
1875.0,0.0152
1874.0,0.0152
1873.0,0.0153
1872.0,0.0153
1871.0,0.0153
1870.0,0.0153
1869.0,0.0153
1868.0,0.0153
1867.0,0.0153
1866.0,0.0153
1865.0,0.0153
1864.0,0.0153
1863.0,0.0152
1862.0,0.0152
1861.0,0.0152
1860.0,0.0152
1859.0,0.0152
1858.0,0.0152
1857.0,0.0152
1856.0,0.0153
1855.0,0.0153
1854.0,0.0152
1853.0,0.0152
1852.0,0.0152
1851.0,0.0153
1850.0,0.0153
1849.0,0.0154
1848.0,0.0154
1847.0,0.0154
1846.0,0.0153
1845.0,0.0152
1844.0,0.0152
1843.0,0.0152
1842.0,0.0153
1841.0,0.0153
1840.0,0.0153
1839.0,0.0154
1838.0,0.0154
1837.0,0.0154
1836.0,0.0154
1835.0,0.0154
1834.0,0.0153
1833.0,0.0153
1832.0,0.0154
1831.0,0.0154
1830.0,0.0154
1829.0,0.0155
1828.0,0.0155
1827.0,0.0155
1826.0,0.0154
1825.0,0.0154
1824.0,0.0153
1823.0,0.0153
1822.0,0.0152
1821.0,0.0153
1820.0,0.0153
1819.0,0.0153
1818.0,0.0153
1817.0,0.0153
1816.0,0.0153
1815.0,0.0153
1814.0,0.0153
1813.0,0.0154
1812.0,0.0154
1811.0,0.0154
1810.0,0.0154
1809.0,0.0154
1808.0,0.0154
1807.0,0.0153
1806.0,0.0153
1805.0,0.0153
1804.0,0.0153
1803.0,0.0153
1802.0,0.0153
1801.0,0.0152
1800.0,0.0152
1799.0,0.0153
1798.0,0.0153
1797.0,0.0153
1796.0,0.0153
1795.0,0.0153
1794.0,0.0152
1793.0,0.0152
1792.0,0.0152
1791.0,0.0152
1790.0,0.0153
1789.0,0.0153
1788.0,0.0153
1787.0,0.0153
1786.0,0.0153
1785.0,0.0153
1784.0,0.0153
1783.0,0.0153
1782.0,0.0153
1781.0,0.0153
1780.0,0.0153
1779.0,0.0152
1778.0,0.0153
1777.0,0.0153
1776.0,0.0154
1775.0,0.0154
1774.0,0.0154
1773.0,0.0153
1772.0,0.0153
1771.0,0.0154
1770.0,0.0154
1769.0,0.0154
1768.0,0.0154
1767.0,0.0154
1766.0,0.0154
1765.0,0.0155
1764.0,0.0155
1763.0,0.0155
1762.0,0.0154
1761.0,0.0154
1760.0,0.0154
1759.0,0.0154
1758.0,0.0154
1757.0,0.0155
1756.0,0.0155
1755.0,0.0156
1754.0,0.0157
1753.0,0.0158
1752.0,0.0158
1751.0,0.0159
1750.0,0.0159
1749.0,0.0159
1748.0,0.0159
1747.0,0.016
1746.0,0.016
1745.0,0.0161
1744.0,0.0162
1743.0,0.0162
1742.0,0.0162
1741.0,0.0161
1740.0,0.0161
1739.0,0.0161
1738.0,0.016
1737.0,0.016
1736.0,0.016
1735.0,0.016
1734.0,0.016
1733.0,0.0161
1732.0,0.0162
1731.0,0.0163
1730.0,0.0163
1729.0,0.0163
1728.0,0.0163
1727.0,0.0163
1726.0,0.0163
1725.0,0.0164
1724.0,0.0164
1723.0,0.0163
1722.0,0.0163
1721.0,0.0163
1720.0,0.0164
1719.0,0.0165
1718.0,0.0164
1717.0,0.0164
1716.0,0.0165
1715.0,0.0166
1714.0,0.0167
1713.0,0.0168
1712.0,0.0168
1711.0,0.0168
1710.0,0.0168
1709.0,0.0168
1708.0,0.0169
1707.0,0.0169
1706.0,0.017
1705.0,0.0171
1704.0,0.0171
1703.0,0.0172
1702.0,0.0172
1701.0,0.0172
1700.0,0.0172
1699.0,0.0172
1698.0,0.0173
1697.0,0.0176
1696.0,0.0178
1695.0,0.0179
1694.0,0.0179
1693.0,0.0179
1692.0,0.0181
1691.0,0.0181
1690.0,0.0182
1689.0,0.0183
1688.0,0.0185
1687.0,0.0188
1686.0,0.0191
1685.0,0.0193
1684.0,0.0194
1683.0,0.0193
1682.0,0.0193
1681.0,0.0194
1680.0,0.0195
1679.0,0.0196
1678.0,0.0195
1677.0,0.0194
1676.0,0.0194
1675.0,0.0195
1674.0,0.0197
1673.0,0.0199
1672.0,0.02
1671.0,0.0201
1670.0,0.0203
1669.0,0.0206
1668.0,0.0208
1667.0,0.0208
1666.0,0.0208
1665.0,0.0208
1664.0,0.0208
1663.0,0.021
1662.0,0.0212
1661.0,0.0214
1660.0,0.0215
1659.0,0.0216
1658.0,0.0217
1657.0,0.0217
1656.0,0.0218
1655.0,0.0219
1654.0,0.0222
1653.0,0.0229
1652.0,0.0231
1651.0,0.0231
1650.0,0.0232
1649.0,0.0234
1648.0,0.0237
1647.0,0.0242
1646.0,0.0246
1645.0,0.0248
1644.0,0.025
1643.0,0.0251
1642.0,0.0254
1641.0,0.0256
1640.0,0.0257
1639.0,0.0258
1638.0,0.0257
1637.0,0.0257
1636.0,0.0259
1635.0,0.026
1634.0,0.0259
1633.0,0.0257
1632.0,0.0254
1631.0,0.0252
1630.0,0.0249
1629.0,0.0246
1628.0,0.0244
1627.0,0.0242
1626.0,0.024
1625.0,0.0238
1624.0,0.0235
1623.0,0.0232
1622.0,0.023
1621.0,0.0227
1620.0,0.0225
1619.0,0.0224
1618.0,0.0221
1617.0,0.0219
1616.0,0.0218
1615.0,0.0218
1614.0,0.0217
1613.0,0.0216
1612.0,0.0216
1611.0,0.0215
1610.0,0.0214
1609.0,0.0214
1608.0,0.0214
1607.0,0.0214
1606.0,0.0213
1605.0,0.0212
1604.0,0.0211
1603.0,0.021
1602.0,0.021
1601.0,0.0209
1600.0,0.0209
1599.0,0.0209
1598.0,0.0208
1597.0,0.0208
1596.0,0.0207
1595.0,0.0206
1594.0,0.0205
1593.0,0.0205
1592.0,0.0205
1591.0,0.0204
1590.0,0.0204
1589.0,0.0204
1588.0,0.0203
1587.0,0.0203
1586.0,0.0203
1585.0,0.0202
1584.0,0.0202
1583.0,0.0202
1582.0,0.0201
1581.0,0.0201
1580.0,0.0201
1579.0,0.0201
1578.0,0.02
1577.0,0.0198
1576.0,0.0197
1575.0,0.0197
1574.0,0.0196
1573.0,0.0196
1572.0,0.0195
1571.0,0.0194
1570.0,0.0192
1569.0,0.0191
1568.0,0.0191
1567.0,0.019
1566.0,0.0189
1565.0,0.0188
1564.0,0.0187
1563.0,0.0187
1562.0,0.0188
1561.0,0.019
1560.0,0.0191
1559.0,0.0188
1558.0,0.0183
1557.0,0.018
1556.0,0.0178
1555.0,0.0179
1554.0,0.018
1553.0,0.0181
1552.0,0.0182
1551.0,0.0182
1550.0,0.0181
1549.0,0.018
1548.0,0.0178
1547.0,0.0177
1546.0,0.0177
1545.0,0.0176
1544.0,0.0175
1543.0,0.0173
1542.0,0.0172
1541.0,0.0173
1540.0,0.0177
1539.0,0.0177
1538.0,0.0174
1537.0,0.0172
1536.0,0.0171
1535.0,0.017
1534.0,0.017
1533.0,0.017
1532.0,0.0171
1531.0,0.017
1530.0,0.0169
1529.0,0.0168
1528.0,0.0167
1527.0,0.0166
1526.0,0.0164
1525.0,0.0163
1524.0,0.0162
1523.0,0.0161
1522.0,0.0161
1521.0,0.0162
1520.0,0.0163
1519.0,0.0163
1518.0,0.0163
1517.0,0.0163
1516.0,0.0163
1515.0,0.0161
1514.0,0.0159
1513.0,0.0159
1512.0,0.0159
1511.0,0.0159
1510.0,0.016
1509.0,0.0161
1508.0,0.0163
1507.0,0.0164
1506.0,0.0162
1505.0,0.0158
1504.0,0.0157
1503.0,0.0156
1502.0,0.0156
1501.0,0.0155
1500.0,0.0155
1499.0,0.0155
1498.0,0.0155
1497.0,0.0155
1496.0,0.0156
1495.0,0.0155
1494.0,0.0155
1493.0,0.0156
1492.0,0.0159
1491.0,0.016
1490.0,0.016
1489.0,0.016
1488.0,0.0161
1487.0,0.0161
1486.0,0.016
1485.0,0.0161
1484.0,0.0163
1483.0,0.0165
1482.0,0.0167
1481.0,0.0171
1480.0,0.0175
1479.0,0.018
1478.0,0.0185
1477.0,0.0193
1476.0,0.0202
1475.0,0.0211
1474.0,0.0227
1473.0,0.0257
1472.0,0.0295
1471.0,0.0327
1470.0,0.0355
1469.0,0.0385
1468.0,0.0418
1467.0,0.0456
1466.0,0.0503
1465.0,0.0558
1464.0,0.0606
1463.0,0.0638
1462.0,0.0658
1461.0,0.0674
1460.0,0.0687
1459.0,0.0696
1458.0,0.0711
1457.0,0.0734
1456.0,0.075
1455.0,0.0755
1454.0,0.0758
1453.0,0.0759
1452.0,0.0756
1451.0,0.0747
1450.0,0.0732
1449.0,0.0706
1448.0,0.0669
1447.0,0.0627
1446.0,0.0589
1445.0,0.0554
1444.0,0.0521
1443.0,0.0492
1442.0,0.0469
1441.0,0.0452
1440.0,0.0439
1439.0,0.0431
1438.0,0.0429
1437.0,0.043
1436.0,0.0428
1435.0,0.0418
1434.0,0.0402
1433.0,0.0382
1432.0,0.0359
1431.0,0.0337
1430.0,0.0319
1429.0,0.0305
1428.0,0.0295
1427.0,0.0288
1426.0,0.0283
1425.0,0.0277
1424.0,0.0271
1423.0,0.0266
1422.0,0.0263
1421.0,0.0259
1420.0,0.0255
1419.0,0.0252
1418.0,0.025
1417.0,0.0247
1416.0,0.0243
1415.0,0.024
1414.0,0.0238
1413.0,0.0234
1412.0,0.0231
1411.0,0.0229
1410.0,0.0227
1409.0,0.0225
1408.0,0.0222
1407.0,0.022
1406.0,0.0219
1405.0,0.0216
1404.0,0.0213
1403.0,0.0212
1402.0,0.021
1401.0,0.0209
1400.0,0.0207
1399.0,0.0205
1398.0,0.0205
1397.0,0.0202
1396.0,0.0199
1395.0,0.0197
1394.0,0.0196
1393.0,0.0194
1392.0,0.0193
1391.0,0.0193
1390.0,0.0195
1389.0,0.0198
1388.0,0.0203
1387.0,0.0216
1386.0,0.0235
1385.0,0.0262
1384.0,0.0301
1383.0,0.036
1382.0,0.044
1381.0,0.054
1380.0,0.0663
1379.0,0.08
1378.0,0.0929
1377.0,0.1024
1376.0,0.1065
1375.0,0.1037
1374.0,0.0951
1373.0,0.0845
1372.0,0.0748
1371.0,0.0663
1370.0,0.0589
1369.0,0.0526
1368.0,0.0479
1367.0,0.0448
1366.0,0.0428
1365.0,0.0418
1364.0,0.0414
1363.0,0.0417
1362.0,0.0426
1361.0,0.0436
1360.0,0.0444
1359.0,0.0447
1358.0,0.0443
1357.0,0.0432
1356.0,0.0416
1355.0,0.0397
1354.0,0.0378
1353.0,0.0361
1352.0,0.0347
1351.0,0.0335
1350.0,0.0324
1349.0,0.0315
1348.0,0.0307
1347.0,0.0301
1346.0,0.0294
1345.0,0.0289
1344.0,0.0284
1343.0,0.0281
1342.0,0.0278
1341.0,0.0276
1340.0,0.0274
1339.0,0.0271
1338.0,0.0269
1337.0,0.0267
1336.0,0.0266
1335.0,0.0266
1334.0,0.0266
1333.0,0.0268
1332.0,0.027
1331.0,0.0271
1330.0,0.0272
1329.0,0.0271
1328.0,0.027
1327.0,0.0268
1326.0,0.0266
1325.0,0.0263
1324.0,0.026
1323.0,0.0257
1322.0,0.0255
1321.0,0.0253
1320.0,0.0251
1319.0,0.0249
1318.0,0.0246
1317.0,0.0244
1316.0,0.0243
1315.0,0.0241
1314.0,0.024
1313.0,0.024
1312.0,0.0239
1311.0,0.024
1310.0,0.0241
1309.0,0.0244
1308.0,0.0249
1307.0,0.0256
1306.0,0.0262
1305.0,0.0268
1304.0,0.027
1303.0,0.0269
1302.0,0.0266
1301.0,0.0263
1300.0,0.0261
1299.0,0.026
1298.0,0.026
1297.0,0.026
1296.0,0.0259
1295.0,0.0258
1294.0,0.0256
1293.0,0.0253
1292.0,0.0251
1291.0,0.0248
1290.0,0.0246
1289.0,0.0244
1288.0,0.0242
1287.0,0.024
1286.0,0.0239
1285.0,0.0238
1284.0,0.0237
1283.0,0.0236
1282.0,0.0235
1281.0,0.0233
1280.0,0.0232
1279.0,0.0232
1278.0,0.0231
1277.0,0.0231
1276.0,0.0231
1275.0,0.023
1274.0,0.0229
1273.0,0.0229
1272.0,0.0228
1271.0,0.0228
1270.0,0.0228
1269.0,0.0228
1268.0,0.0229
1267.0,0.0229
1266.0,0.0229
1265.0,0.023
1264.0,0.0231
1263.0,0.0232
1262.0,0.0233
1261.0,0.0236
1260.0,0.0239
1259.0,0.0244
1258.0,0.025
1257.0,0.0255
1256.0,0.0259
1255.0,0.0259
1254.0,0.0257
1253.0,0.0252
1252.0,0.0247
1251.0,0.0242
1250.0,0.0239
1249.0,0.0236
1248.0,0.0234
1247.0,0.0233
1246.0,0.0232
1245.0,0.0231
1244.0,0.0231
1243.0,0.023
1242.0,0.0229
1241.0,0.0228
1240.0,0.0227
1239.0,0.0227
1238.0,0.0227
1237.0,0.0227
1236.0,0.0227
1235.0,0.0226
1234.0,0.0226
1233.0,0.0226
1232.0,0.0226
1231.0,0.0226
1230.0,0.0226
1229.0,0.0226
1228.0,0.0227
1227.0,0.0227
1226.0,0.0228
1225.0,0.023
1224.0,0.0232
1223.0,0.0233
1222.0,0.0235
1221.0,0.0237
1220.0,0.0238
1219.0,0.0238
1218.0,0.0238
1217.0,0.0238
1216.0,0.0237
1215.0,0.0237
1214.0,0.0236
1213.0,0.0234
1212.0,0.0233
1211.0,0.0232
1210.0,0.0231
1209.0,0.023
1208.0,0.023
1207.0,0.0231
1206.0,0.0231
1205.0,0.0231
1204.0,0.023
1203.0,0.023
1202.0,0.023
1201.0,0.023
1200.0,0.023
1199.0,0.023
1198.0,0.0231
1197.0,0.0231
1196.0,0.0232
1195.0,0.0233
1194.0,0.0233
1193.0,0.0232
1192.0,0.0232
1191.0,0.0232
1190.0,0.0233
1189.0,0.0234
1188.0,0.0234
1187.0,0.0235
1186.0,0.0235
1185.0,0.0236
1184.0,0.0236
1183.0,0.0237
1182.0,0.0238
1181.0,0.024
1180.0,0.0243
1179.0,0.0247
1178.0,0.0251
1177.0,0.0257
1176.0,0.0264
1175.0,0.0274
1174.0,0.0287
1173.0,0.0304
1172.0,0.0325
1171.0,0.0349
1170.0,0.0371
1169.0,0.039
1168.0,0.0402
1167.0,0.0406
1166.0,0.0404
1165.0,0.0398
1164.0,0.0389
1163.0,0.038
1162.0,0.0372
1161.0,0.0366
1160.0,0.036
1159.0,0.0356
1158.0,0.0353
1157.0,0.0351
1156.0,0.0351
1155.0,0.035
1154.0,0.035
1153.0,0.0349
1152.0,0.0348
1151.0,0.0345
1150.0,0.034
1149.0,0.0334
1148.0,0.0329
1147.0,0.0324
1146.0,0.0319
1145.0,0.0315
1144.0,0.0311
1143.0,0.0307
1142.0,0.0304
1141.0,0.03
1140.0,0.0297
1139.0,0.0294
1138.0,0.0292
1137.0,0.029
1136.0,0.0288
1135.0,0.0287
1134.0,0.0285
1133.0,0.0284
1132.0,0.0283
1131.0,0.0282
1130.0,0.0281
1129.0,0.028
1128.0,0.0279
1127.0,0.0279
1126.0,0.0278
1125.0,0.0278
1124.0,0.0278
1123.0,0.0279
1122.0,0.0278
1121.0,0.0277
1120.0,0.0277
1119.0,0.0276
1118.0,0.0276
1117.0,0.0275
1116.0,0.0275
1115.0,0.0275
1114.0,0.0275
1113.0,0.0275
1112.0,0.0275
1111.0,0.0276
1110.0,0.0277
1109.0,0.0279
1108.0,0.0281
1107.0,0.0283
1106.0,0.0286
1105.0,0.0288
1104.0,0.029
1103.0,0.0292
1102.0,0.0293
1101.0,0.0292
1100.0,0.029
1099.0,0.0286
1098.0,0.0282
1097.0,0.0278
1096.0,0.0275
1095.0,0.0273
1094.0,0.027
1093.0,0.0268
1092.0,0.0265
1091.0,0.0263
1090.0,0.026
1089.0,0.0259
1088.0,0.0257
1087.0,0.0256
1086.0,0.0255
1085.0,0.0254
1084.0,0.0253
1083.0,0.0251
1082.0,0.025
1081.0,0.0249
1080.0,0.0247
1079.0,0.0245
1078.0,0.0243
1077.0,0.0241
1076.0,0.0241
1075.0,0.024
1074.0,0.024
1073.0,0.024
1072.0,0.024
1071.0,0.0239
1070.0,0.0238
1069.0,0.0237
1068.0,0.0236
1067.0,0.0235
1066.0,0.0234
1065.0,0.0234
1064.0,0.0234
1063.0,0.0232
1062.0,0.0231
1061.0,0.023
1060.0,0.0229
1059.0,0.0228
1058.0,0.0229
1057.0,0.0229
1056.0,0.023
1055.0,0.0231
1054.0,0.0231
1053.0,0.0231
1052.0,0.023
1051.0,0.023
1050.0,0.023
1049.0,0.0232
1048.0,0.0234
1047.0,0.0236
1046.0,0.0238
1045.0,0.024
1044.0,0.0241
1043.0,0.024
1042.0,0.0239
1041.0,0.0236
1040.0,0.0235
1039.0,0.0233
1038.0,0.0233
1037.0,0.0233
1036.0,0.0233
1035.0,0.0234
1034.0,0.0234
1033.0,0.0233
1032.0,0.0232
1031.0,0.0231
1030.0,0.023
1029.0,0.023
1028.0,0.023
1027.0,0.0231
1026.0,0.0231
1025.0,0.0231
1024.0,0.0231
1023.0,0.0231
1022.0,0.0231
1021.0,0.0231
1020.0,0.0231
1019.0,0.023
1018.0,0.023
1017.0,0.023
1016.0,0.023
1015.0,0.0231
1014.0,0.0232
1013.0,0.0233
1012.0,0.0235
1011.0,0.0236
1010.0,0.0237
1009.0,0.0239
1008.0,0.0242
1007.0,0.0245
1006.0,0.025
1005.0,0.0258
1004.0,0.0268
1003.0,0.0284
1002.0,0.0305
1001.0,0.0332
1000.0,0.0362
999.0,0.0389
998.0,0.0406
997.0,0.0408
996.0,0.0395
995.0,0.0374
994.0,0.035
993.0,0.0327
992.0,0.0309
991.0,0.0294
990.0,0.0283
989.0,0.0275
988.0,0.0268
987.0,0.0263
986.0,0.026
985.0,0.0259
984.0,0.026
983.0,0.0263
982.0,0.0269
981.0,0.0278
980.0,0.0292
979.0,0.0312
978.0,0.0337
977.0,0.0367
976.0,0.04
975.0,0.0431
974.0,0.0457
973.0,0.047
972.0,0.0466
971.0,0.0446
970.0,0.0418
969.0,0.0388
968.0,0.0361
967.0,0.034
966.0,0.0324
965.0,0.0312
964.0,0.0302
963.0,0.0294
962.0,0.0288
961.0,0.0283
960.0,0.0278
959.0,0.0275
958.0,0.0272
957.0,0.0268
956.0,0.0265
955.0,0.0262
954.0,0.026
953.0,0.0258
952.0,0.0257
951.0,0.0255
950.0,0.0255
949.0,0.0254
948.0,0.0254
947.0,0.0254
946.0,0.0255
945.0,0.0256
944.0,0.0258
943.0,0.026
942.0,0.0262
941.0,0.0263
940.0,0.0263
939.0,0.0262
938.0,0.026
937.0,0.0257
936.0,0.0254
935.0,0.0251
934.0,0.0249
933.0,0.0248
932.0,0.0247
931.0,0.0246
930.0,0.0245
929.0,0.0245
928.0,0.0244
927.0,0.0244
926.0,0.0244
925.0,0.0244
924.0,0.0243
923.0,0.0241
922.0,0.024
921.0,0.024
920.0,0.024
919.0,0.0241
918.0,0.0241
917.0,0.0242
916.0,0.0242
915.0,0.0242
914.0,0.0242
913.0,0.0242
912.0,0.0242
911.0,0.0242
910.0,0.0243
909.0,0.0244
908.0,0.0246
907.0,0.0248
906.0,0.0251
905.0,0.0256
904.0,0.0264
903.0,0.0276
902.0,0.029
901.0,0.0304
900.0,0.0314
899.0,0.0318
898.0,0.0317
897.0,0.031
896.0,0.0301
895.0,0.0291
894.0,0.0282
893.0,0.0275
892.0,0.0271
891.0,0.0267
890.0,0.0265
889.0,0.0262
888.0,0.0261
887.0,0.026
886.0,0.026
885.0,0.026
884.0,0.0259
883.0,0.0258
882.0,0.0257
881.0,0.0256
880.0,0.0256
879.0,0.0256
878.0,0.0256
877.0,0.0256
876.0,0.0257
875.0,0.0257
874.0,0.0257
873.0,0.0257
872.0,0.0257
871.0,0.0258
870.0,0.0259
869.0,0.026
868.0,0.0261
867.0,0.0261
866.0,0.0261
865.0,0.0261
864.0,0.0262
863.0,0.0262
862.0,0.0262
861.0,0.0262
860.0,0.0262
859.0,0.0263
858.0,0.0263
857.0,0.0264
856.0,0.0265
855.0,0.0266
854.0,0.0268
853.0,0.0269
852.0,0.0271
851.0,0.0272
850.0,0.0275
849.0,0.0278
848.0,0.0283
847.0,0.029
846.0,0.0302
845.0,0.0322
844.0,0.0351
843.0,0.0388
842.0,0.0421
841.0,0.0437
840.0,0.0431
839.0,0.0406
838.0,0.0376
837.0,0.035
836.0,0.0332
835.0,0.0319
834.0,0.031
833.0,0.0303
832.0,0.0299
831.0,0.0296
830.0,0.0294
829.0,0.0293
828.0,0.0292
827.0,0.029
826.0,0.0288
825.0,0.0285
824.0,0.0283
823.0,0.0282
822.0,0.0282
821.0,0.0283
820.0,0.0285
819.0,0.0287
818.0,0.029
817.0,0.0293
816.0,0.0297
815.0,0.0303
814.0,0.0312
813.0,0.0323
812.0,0.0337
811.0,0.0349
810.0,0.0358
809.0,0.0364
808.0,0.0365
807.0,0.036
806.0,0.0352
805.0,0.0342
804.0,0.0333
803.0,0.0325
802.0,0.0319
801.0,0.0315
800.0,0.0311
799.0,0.0308
798.0,0.0305
797.0,0.0304
796.0,0.0304
795.0,0.0304
794.0,0.0302
793.0,0.03
792.0,0.0298
791.0,0.0296
790.0,0.0294
789.0,0.0293
788.0,0.0291
787.0,0.029
786.0,0.029
785.0,0.029
784.0,0.0289
783.0,0.0288
782.0,0.0287
781.0,0.0285
780.0,0.0284
779.0,0.0284
778.0,0.0283
777.0,0.0283
776.0,0.0283
775.0,0.0282
774.0,0.0281
773.0,0.0281
772.0,0.0282
771.0,0.0282
770.0,0.0283
769.0,0.0284
768.0,0.0286
767.0,0.0287
766.0,0.0287
765.0,0.0286
764.0,0.0285
763.0,0.0282
762.0,0.028
761.0,0.028
760.0,0.0281
759.0,0.0283
758.0,0.0284
757.0,0.0285
756.0,0.0286
755.0,0.0286
754.0,0.0287
753.0,0.0287
752.0,0.0286
751.0,0.0284
750.0,0.0282
749.0,0.0283
748.0,0.0284
747.0,0.0286
746.0,0.0288
745.0,0.0288
744.0,0.0287
743.0,0.0286
742.0,0.0286
741.0,0.0287
740.0,0.0288
739.0,0.0289
738.0,0.029
737.0,0.0289
736.0,0.0289
735.0,0.0289
734.0,0.0291
733.0,0.0295
732.0,0.0297
731.0,0.0298
730.0,0.0298
729.0,0.0297
728.0,0.0297
727.0,0.0297
726.0,0.0296
725.0,0.0296
724.0,0.0296
723.0,0.0298
722.0,0.03
721.0,0.0302
720.0,0.0301
719.0,0.03
718.0,0.0299
717.0,0.0298
716.0,0.0299
715.0,0.0299
714.0,0.0299
713.0,0.03
712.0,0.03
711.0,0.03
710.0,0.03
709.0,0.03
708.0,0.0298
707.0,0.0296
706.0,0.0297
705.0,0.0301
704.0,0.0306
703.0,0.0308
702.0,0.0308
701.0,0.0306
700.0,0.0305
699.0,0.0305
698.0,0.0303
697.0,0.03
696.0,0.0297
695.0,0.0296
694.0,0.0298
693.0,0.0301
692.0,0.0303
691.0,0.0302
690.0,0.0296
689.0,0.0292
688.0,0.0292
687.0,0.0296
686.0,0.03
685.0,0.03
684.0,0.0296
683.0,0.029
682.0,0.0289
681.0,0.0293
680.0,0.0304
679.0,0.0316
678.0,0.0325
677.0,0.0327
676.0,0.0323
675.0,0.0316
674.0,0.0311
673.0,0.0309
672.0,0.0309
671.0,0.0313
670.0,0.0325
669.0,0.0344
668.0,0.0349
667.0,0.0332
666.0,0.0317
665.0,0.0311
664.0,0.0309
663.0,0.0307
662.0,0.0306
661.0,0.0307
660.0,0.0309
659.0,0.0313
658.0,0.0321
657.0,0.0331
656.0,0.0341
655.0,0.0346
654.0,0.0346
653.0,0.034
652.0,0.0327
651.0,0.0312
650.0,0.0304
649.0,0.0305
648.0,0.0311
647.0,0.0316
646.0,0.0319
645.0,0.0321
644.0,0.0322
643.0,0.0322
642.0,0.0322
641.0,0.0321
640.0,0.032
639.0,0.0322
638.0,0.0332
637.0,0.0348
636.0,0.0362
635.0,0.0369
634.0,0.037
633.0,0.0371
632.0,0.037
631.0,0.0365
630.0,0.0359
629.0,0.0353
628.0,0.0347
627.0,0.034
626.0,0.0335
625.0,0.0337
624.0,0.0342
623.0,0.0346
622.0,0.0348
621.0,0.035
620.0,0.0353
619.0,0.0356
618.0,0.0356
617.0,0.0355
616.0,0.0353
615.0,0.0352
614.0,0.0356
613.0,0.0366
612.0,0.0376
611.0,0.0382
610.0,0.0383
609.0,0.0381
608.0,0.0375
607.0,0.0365
606.0,0.0353
605.0,0.0344
604.0,0.0338
603.0,0.0333
602.0,0.0331
601.0,0.0334
600.0,0.0341
