cm-1,A
4000.0,-0.0008677215312267172
3999.0,-0.0008677215312267172
3998.0,-0.0008243766056055257
3997.0,-0.0007810273534953893
3996.0,-0.0007810273534953893
3995.0,-0.0008243766056055257
3994.0,-0.0009543984064577238
3993.0,-0.001041057986093552
3992.0,-0.0011277002770349043
3991.0,-0.0011277002770349043
3990.0,-0.0010843812922201046
3989.0,-0.001041057986093552
3988.0,-0.001041057986093552
3987.0,-0.001041057986093552
3986.0,-0.001041057986093552
3985.0,-0.001041057986093552
3984.0,-0.0009977303577937136
3983.0,-0.0009977303577937136
3982.0,-0.0009543984064577238
3981.0,-0.0009110621312231615
3980.0,-0.0008677215312267172
3979.0,-0.0008243766056055257
3978.0,-0.0007810273534953893
3977.0,-0.0007810273534953893
3976.0,-0.0007376737740329986
3975.0,-0.0006943158663546001
3974.0,-0.0006075870628903246
3973.0,-0.0006075870628903246
3972.0,-0.0006075870628903246
3971.0,-0.0006509536295951079
3970.0,-0.0006943158663546001
3969.0,-0.0007810273534953893
3968.0,-0.0008677215312267172
3967.0,-0.0009543984064577238
3966.0,-0.0010843812922201046
3965.0,-0.0011277002770349043
3964.0,-0.0011277002770349043
3963.0,-0.0010843812922201046
3962.0,-0.0009543984064577238
3961.0,-0.0008243766056055257
3960.0,-0.0007376737740329986
3959.0,-0.0006509536295951079
3958.0,-0.0006509536295951079
3957.0,-0.0006509536295951079
3956.0,-0.0006943158663546001
3955.0,-0.0006943158663546001
3954.0,-0.0007376737740329986
3953.0,-0.0007810273534953893
3952.0,-0.0008243766056055257
3951.0,-0.0009543984064577238
3950.0,-0.0009977303577937136
3949.0,-0.001041057986093552
3948.0,-0.001041057986093552
3947.0,-0.0009977303577937136
3946.0,-0.0009543984064577238
3945.0,-0.0009543984064577238
3944.0,-0.0009110621312231615
3943.0,-0.0008677215312267172
3942.0,-0.0008677215312267172
3941.0,-0.0008677215312267172
3940.0,-0.0008677215312267172
3939.0,-0.0008243766056055257
3938.0,-0.0008243766056055257
3937.0,-0.0007810273534953893
3936.0,-0.0007810273534953893
3935.0,-0.0007810273534953893
3934.0,-0.0008243766056055257
3933.0,-0.0008677215312267172
3932.0,-0.0008677215312267172
3931.0,-0.0008677215312267172
3930.0,-0.0009110621312231615
3929.0,-0.0009977303577937136
3928.0,-0.001041057986093552
3927.0,-0.0009977303577937136
3926.0,-0.0008677215312267172
3925.0,-0.0007376737740329986
3924.0,-0.0006943158663546001
3923.0,-0.0006943158663546001
3922.0,-0.0007376737740329986
3921.0,-0.0007376737740329986
3920.0,-0.0006943158663546001
3919.0,-0.0006075870628903246
3918.0,-0.0005642161653756084
3917.0,-0.0005642161653756084
3916.0,-0.0006075870628903246
3915.0,-0.0006509536295951079
3914.0,-0.0006509536295951079
3913.0,-0.0006509536295951079
3912.0,-0.0006075870628903246
3911.0,-0.0005642161653756084
3910.0,-0.0005208409361854294
3909.0,-0.0005208409361854294
3908.0,-0.0005208409361854294
3907.0,-0.0005642161653756084
3906.0,-0.0006075870628903246
3905.0,-0.0007810273534953893
3904.0,-0.0009543984064577238
3903.0,-0.001041057986093552
3902.0,-0.001041057986093552
3901.0,-0.0009543984064577238
3900.0,-0.0009110621312231615
3899.0,-0.0009110621312231615
3898.0,-0.0009110621312231615
3897.0,-0.0008677215312267172
3896.0,-0.0008243766056055257
3895.0,-0.0008243766056055257
3894.0,-0.0008243766056055257
3893.0,-0.0008677215312267172
3892.0,-0.0008677215312267172
3891.0,-0.0009110621312231615
3890.0,-0.0009543984064577238
3889.0,-0.0009110621312231615
3888.0,-0.0009110621312231615
3887.0,-0.0009543984064577238
3886.0,-0.001041057986093552
3885.0,-0.001041057986093552
3884.0,-0.0009977303577937136
3883.0,-0.0008677215312267172
3882.0,-0.0007810273534953893
3881.0,-0.0007810273534953893
3880.0,-0.0008243766056055257
3879.0,-0.0008677215312267172
3878.0,-0.0008243766056055257
3877.0,-0.0008243766056055257
3876.0,-0.0008677215312267172
3875.0,-0.0009543984064577238
3874.0,-0.001041057986093552
3873.0,-0.0010843812922201046
3872.0,-0.0009977303577937136
3871.0,-0.0008677215312267172
3870.0,-0.0007376737740329986
3869.0,-0.0007376737740329986
3868.0,-0.0007376737740329986
3867.0,-0.0007810273534953893
3866.0,-0.0008677215312267172
3865.0,-0.0009543984064577238
3864.0,-0.0009110621312231615
3863.0,-0.0008243766056055257
3862.0,-0.0007376737740329986
3861.0,-0.0007376737740329986
3860.0,-0.0008243766056055257
3859.0,-0.0008677215312267172
3858.0,-0.0009110621312231615
3857.0,-0.0009110621312231615
3856.0,-0.0008677215312267172
3855.0,-0.0007810273534953893
3854.0,-0.0007810273534953893
3853.0,-0.0008243766056055257
3852.0,-0.0007810273534953893
3851.0,-0.0006075870628903246
3850.0,-0.0004774613744551459
3849.0,-0.0004774613744551459
3848.0,-0.0004774613744551459
3847.0,-0.0004774613744551459
3846.0,-0.00043407747931878404
3845.0,-0.00043407747931878404
3844.0,-0.00043407747931878404
3843.0,-0.00043407747931878404
3842.0,-0.0004774613744551459
3841.0,-0.0005208409361854294
3840.0,-0.0005642161653756084
3839.0,-0.0005642161653756084
3838.0,-0.0005642161653756084
3837.0,-0.0006075870628903246
3836.0,-0.0006075870628903246
3835.0,-0.0006075870628903246
3834.0,-0.0006943158663546001
3833.0,-0.0008243766056055257
3832.0,-0.0009543984064577238
3831.0,-0.0009977303577937136
3830.0,-0.0009543984064577238
3829.0,-0.0008243766056055257
3828.0,-0.0007376737740329986
3827.0,-0.0007376737740329986
3826.0,-0.0008677215312267172
3825.0,-0.001041057986093552
3824.0,-0.0011277002770349043
3823.0,-0.001041057986093552
3822.0,-0.0008243766056055257
3821.0,-0.0006509536295951079
3820.0,-0.0005208409361854294
3819.0,-0.0004774613744551459
3818.0,-0.00043407747931878404
3817.0,-0.0004774613744551459
3816.0,-0.0005642161653756084
3815.0,-0.0006509536295951079
3814.0,-0.0006509536295951079
3813.0,-0.0006075870628903246
3812.0,-0.0006075870628903246
3811.0,-0.0006943158663546001
3810.0,-0.0007376737740329986
3809.0,-0.0007376737740329986
3808.0,-0.0006943158663546001
3807.0,-0.0006509536295951079
3806.0,-0.0006075870628903246
3805.0,-0.0005208409361854294
3804.0,-0.00043407747931878404
3803.0,-0.00043407747931878404
3802.0,-0.00043407747931878404
3801.0,-0.0005208409361854294
3800.0,-0.0005208409361854294
3799.0,-0.0004774613744551459
3798.0,-0.0003906892499099257
3797.0,-0.0003472966853634851
3796.0,-0.0003472966853634851
3795.0,-0.0003472966853634851
3794.0,-0.0003906892499099257
3793.0,-0.0003906892499099257
3792.0,-0.00043407747931878404
3791.0,-0.0005642161653756084
3790.0,-0.0006509536295951079
3789.0,-0.0007376737740329986
3788.0,-0.0007810273534953893
3787.0,-0.0007810273534953893
3786.0,-0.0007810273534953893
3785.0,-0.0007810273534953893
3784.0,-0.0008243766056055257
3783.0,-0.0008243766056055257
3782.0,-0.0007376737740329986
3781.0,-0.0006075870628903246
3780.0,-0.0006075870628903246
3779.0,-0.0006943158663546001
3778.0,-0.0008243766056055257
3777.0,-0.0008677215312267172
3776.0,-0.0008243766056055257
3775.0,-0.0007376737740329986
3774.0,-0.0006509536295951079
3773.0,-0.0006509536295951079
3772.0,-0.0006509536295951079
3771.0,-0.0006943158663546001
3770.0,-0.0007376737740329986
3769.0,-0.0007376737740329986
3768.0,-0.0006943158663546001
3767.0,-0.0006509536295951079
3766.0,-0.0006509536295951079
3765.0,-0.0007376737740329986
3764.0,-0.0008243766056055257
3763.0,-0.0008243766056055257
3762.0,-0.0008243766056055257
3761.0,-0.0008243766056055257
3760.0,-0.0008243766056055257
3759.0,-0.0008243766056055257
3758.0,-0.0007810273534953893
3757.0,-0.0007376737740329986
3756.0,-0.0006509536295951079
3755.0,-0.0005642161653756084
3754.0,-0.0004774613744551459
3753.0,-0.00043407747931878404
3752.0,-0.0003472966853634851
3751.0,-0.0003472966853634851
3750.0,-0.0003906892499099257
3749.0,-0.00043407747931878404
3748.0,-0.0004774613744551459
3747.0,-0.0004774613744551459
3746.0,-0.0004774613744551459
3745.0,-0.00043407747931878404
3744.0,-0.00043407747931878404
3743.0,-0.0003906892499099257
3742.0,-0.00030389978481260016
3741.0,-0.00017368305846510168
3740.0,-0.00017368305846510168
3739.0,-0.00021709297223004853
3738.0,-0.00021709297223004853
3737.0,-0.00017368305846510168
3736.0,-0.00021709297223004853
3735.0,-0.00030389978481260016
3734.0,-0.00043407747931878404
3733.0,-0.0005642161653756084
3732.0,-0.0006509536295951079
3731.0,-0.0006509536295951079
3730.0,-0.0005208409361854294
3729.0,-0.0003472966853634851
3728.0,-0.00021709297223004853
3727.0,-0.00017368305846510168
3726.0,-0.00017368305846510168
3725.0,-0.00017368305846510168
3724.0,-0.00013026880522692963
3723.0,-8.685021164911433e-05
3722.0,-0.00013026880522692963
3721.0,-0.00017368305846510168
3720.0,-0.0002604985473904087
3719.0,-0.0003906892499099257
3718.0,-0.0005208409361854294
3717.0,-0.0006509536295951079
3716.0,-0.0007810273534953893
3715.0,-0.0008677215312267172
3714.0,-0.0009977303577937136
3713.0,-0.0010843812922201046
3712.0,-0.0010843812922201046
3711.0,-0.0009543984064577238
3710.0,-0.0006943158663546001
3709.0,-0.0004774613744551459
3708.0,-0.0003906892499099257
3707.0,-0.00043407747931878404
3706.0,-0.0005642161653756084
3705.0,-0.0008243766056055257
3704.0,-0.0009977303577937136
3703.0,-0.0011710149414008164
3702.0,-0.00121432528617893
3701.0,-0.00121432528617893
3700.0,-0.0011710149414008164
3699.0,-0.0011710149414008164
3698.0,-0.00121432528617893
3697.0,-0.0013009330204178937
3696.0,-0.0014308122463981832
3695.0,-0.0015606526425728795
3694.0,-0.0016471913460383014
3693.0,-0.0016904542321527494
3692.0,-0.001776967077439462
3691.0,-0.001776967077439462
3690.0,-0.001733712809000476
3689.0,-0.001733712809000476
3688.0,-0.001733712809000476
3687.0,-0.001733712809000476
3686.0,-0.001733712809000476
3685.0,-0.001733712809000476
3684.0,-0.0018202170383281313
3683.0,-0.0018634626925240205
3682.0,-0.0018634626925240205
3681.0,-0.0018202170383281313
3680.0,-0.001733712809000476
3679.0,-0.0016904542321527494
3678.0,-0.0016904542321527494
3677.0,-0.001733712809000476
3676.0,-0.001776967077439462
3675.0,-0.0018634626925240205
3674.0,-0.0018202170383281313
3673.0,-0.0016904542321527494
3672.0,-0.0015606526425728795
3671.0,-0.0015173768235041685
3670.0,-0.0015173768235041685
3669.0,-0.0016039241497978196
3668.0,-0.0016904542321527494
3667.0,-0.0016904542321527494
3666.0,-0.001776967077439462
3665.0,-0.0019067040408846658
3664.0,-0.0020796263931210923
3663.0,-0.0022956825549340643
3662.0,-0.0023820749327607693
3661.0,-0.0024252646779014952
3660.0,-0.002338880892056583
3659.0,-0.0021660617565077978
3658.0,-0.0019931738235303698
3657.0,-0.0019067040408846658
3656.0,-0.0018634626925240205
3655.0,-0.0018634626925240205
3654.0,-0.0018634626925240205
3653.0,-0.0018634626925240205
3652.0,-0.0018634626925240205
3651.0,-0.0018202170383281313
3650.0,-0.0016904542321527494
3649.0,-0.0016039241497978196
3648.0,-0.0016039241497978196
3647.0,-0.0016039241497978196
3646.0,-0.001474096691732818
3645.0,-0.001344230411601366
3644.0,-0.0011710149414008164
3643.0,-0.001041057986093552
3642.0,-0.0009543984064577238
3641.0,-0.0009543984064577238
3640.0,-0.0009543984064577238
3639.0,-0.0010843812922201046
3638.0,-0.00121432528617893
3637.0,-0.001344230411601366
3636.0,-0.0013009330204178937
3635.0,-0.00121432528617893
3634.0,-0.0010843812922201046
3633.0,-0.0009977303577937136
3632.0,-0.0009977303577937136
3631.0,-0.001041057986093552
3630.0,-0.001041057986093552
3629.0,-0.0009977303577937136
3628.0,-0.0009110621312231615
3627.0,-0.0007810273534953893
3626.0,-0.0006509536295951079
3625.0,-0.0005208409361854294
3624.0,-0.0004774613744551459
3623.0,-0.0003906892499099257
3622.0,-0.00030389978481260016
3621.0,-0.0002604985473904087
3620.0,-0.0003472966853634851
3619.0,-0.0005642161653756084
3618.0,-0.0007810273534953893
3617.0,-0.0008243766056055257
3616.0,-0.0008677215312267172
3615.0,-0.0008677215312267172
3614.0,-0.0009110621312231615
3613.0,-0.0009543984064577238
3612.0,-0.0009543984064577238
3611.0,-0.0008677215312267172
3610.0,-0.0006943158663546001
3609.0,-0.0005208409361854294
3608.0,-0.0003906892499099257
3607.0,-0.00030389978481260016
3606.0,-0.00030389978481260016
3605.0,-0.00030389978481260016
3604.0,-0.0002604985473904087
3603.0,-0.00017368305846510168
3602.0,-4.3427276862573194e-05
3601.0,-4.3427276862573194e-05
3600.0,-8.685021164911433e-05
3599.0,-0.00021709297223004853
3598.0,-0.00030389978481260016
3597.0,-0.0003472966853634851
3596.0,-0.0003472966853634851
3595.0,-0.0003472966853634851
3594.0,-0.0003472966853634851
3593.0,-0.0003472966853634851
3592.0,-0.0003472966853634851
3591.0,-0.0003906892499099257
3590.0,-0.0003906892499099257
3589.0,-0.0003472966853634851
3588.0,-0.0003472966853634851
3587.0,-0.0003472966853634851
3586.0,-0.0003906892499099257
3585.0,-0.0003472966853634851
3584.0,-0.0002604985473904087
3583.0,-0.00021709297223004853
3582.0,-0.00030389978481260016
3581.0,-0.0003906892499099257
3580.0,-0.0005208409361854294
3579.0,-0.0006075870628903246
3578.0,-0.0005642161653756084
3577.0,-0.00043407747931878404
3576.0,-0.0003472966853634851
3575.0,-0.00030389978481260016
3574.0,-0.0003472966853634851
3573.0,-0.00043407747931878404
3572.0,-0.0005208409361854294
3571.0,-0.0006075870628903246
3570.0,-0.0006509536295951079
3569.0,-0.0006075870628903246
3568.0,-0.0004774613744551459
3567.0,-0.00043407747931878404
3566.0,-0.0004774613744551459
3565.0,-0.0005642161653756084
3564.0,-0.0006075870628903246
3563.0,-0.0006509536295951079
3562.0,-0.0006509536295951079
3561.0,-0.0006509536295951079
3560.0,-0.0006509536295951079
3559.0,-0.0006075870628903246
3558.0,-0.0004774613744551459
3557.0,-0.0003906892499099257
3556.0,-0.00030389978481260016
3555.0,-0.0003472966853634851
3554.0,-0.0005208409361854294
3553.0,-0.0007376737740329986
3552.0,-0.0007810273534953893
3551.0,-0.0007376737740329986
3550.0,-0.0006075870628903246
3549.0,-0.0004774613744551459
3548.0,-0.0003472966853634851
3547.0,-0.00021709297223004853
3546.0,-0.00013026880522692963
3545.0,-8.685021164911433e-05
3544.0,-8.685021164911433e-05
3543.0,-0.00017368305846510168
3542.0,-0.00030389978481260016
3541.0,-0.0003472966853634851
3540.0,-0.00030389978481260016
3539.0,-0.0002604985473904087
3538.0,-0.0002604985473904087
3537.0,-0.0003472966853634851
3536.0,-0.0004774613744551459
3535.0,-0.0006075870628903246
3534.0,-0.0006509536295951079
3533.0,-0.0006075870628903246
3532.0,-0.0005208409361854294
3531.0,-0.00043407747931878404
3530.0,-0.00043407747931878404
3529.0,-0.00043407747931878404
3528.0,-0.0003906892499099257
3527.0,-0.0003472966853634851
3526.0,-0.00030389978481260016
3525.0,-0.00030389978481260016
3524.0,-0.00030389978481260016
3523.0,-0.00030389978481260016
3522.0,-0.0002604985473904087
3521.0,-0.0002604985473904087
3520.0,-0.00030389978481260016
3519.0,-0.0003472966853634851
3518.0,-0.0003906892499099257
3517.0,-0.0004774613744551459
3516.0,-0.0005208409361854294
3515.0,-0.0006075870628903246
3514.0,-0.0006075870628903246
3513.0,-0.0006509536295951079
3512.0,-0.0006075870628903246
3511.0,-0.0005208409361854294
3510.0,-0.0003906892499099257
3509.0,-0.0003472966853634851
3508.0,-0.00030389978481260016
3507.0,-0.0003906892499099257
3506.0,-0.00043407747931878404
3505.0,-0.0005208409361854294
3504.0,-0.0005208409361854294
3503.0,-0.0004774613744551459
3502.0,-0.0003906892499099257
3501.0,-0.0003906892499099257
3500.0,-0.0003906892499099257
3499.0,-0.00043407747931878404
3498.0,-0.0004774613744551459
3497.0,-0.00043407747931878404
3496.0,-0.0003906892499099257
3495.0,-0.0003472966853634851
3494.0,-0.00030389978481260016
3493.0,-0.00030389978481260016
3492.0,-0.00030389978481260016
3491.0,-0.0003472966853634851
3490.0,-0.00043407747931878404
3489.0,-0.0005208409361854294
3488.0,-0.0006509536295951079
3487.0,-0.0007810273534953893
3486.0,-0.0007810273534953893
3485.0,-0.0006943158663546001
3484.0,-0.0005642161653756084
3483.0,-0.0003906892499099257
3482.0,-0.0003472966853634851
3481.0,-0.00043407747931878404
3480.0,-0.0005642161653756084
3479.0,-0.0006943158663546001
3478.0,-0.0009110621312231615
3477.0,-0.001041057986093552
3476.0,-0.0010843812922201046
3475.0,-0.001041057986093552
3474.0,-0.0009110621312231615
3473.0,-0.0007810273534953893
3472.0,-0.0006943158663546001
3471.0,-0.0006943158663546001
3470.0,-0.0006943158663546001
3469.0,-0.0007376737740329986
3468.0,-0.0007376737740329986
3467.0,-0.0006509536295951079
3466.0,-0.0005208409361854294
3465.0,-0.00043407747931878404
3464.0,-0.00043407747931878404
3463.0,-0.0004774613744551459
3462.0,-0.0005642161653756084
3461.0,-0.0005208409361854294
3460.0,-0.0003906892499099257
3459.0,-0.00021709297223004853
3458.0,-0.00017368305846510168
3457.0,-0.00017368305846510168
3456.0,-0.00030389978481260016
3455.0,-0.0003906892499099257
3454.0,-0.0004774613744551459
3453.0,-0.0004774613744551459
3452.0,-0.0003906892499099257
3451.0,-0.00030389978481260016
3450.0,-0.00021709297223004853
3449.0,-0.00021709297223004853
3448.0,-0.0002604985473904087
3447.0,-0.0003472966853634851
3446.0,-0.00043407747931878404
3445.0,-0.0005208409361854294
3444.0,-0.0006075870628903246
3443.0,-0.0006943158663546001
3442.0,-0.0007376737740329986
3441.0,-0.0007376737740329986
3440.0,-0.0007810273534953893
3439.0,-0.0007810273534953893
3438.0,-0.0007376737740329986
3437.0,-0.0006509536295951079
3436.0,-0.0005208409361854294
3435.0,-0.0004774613744551459
3434.0,-0.0004774613744551459
3433.0,-0.0005208409361854294
3432.0,-0.0004774613744551459
3431.0,-0.00043407747931878404
3430.0,-0.0003472966853634851
3429.0,-0.00030389978481260016
3428.0,-0.00030389978481260016
3427.0,-0.00030389978481260016
3426.0,-0.0003472966853634851
3425.0,-0.0003906892499099257
3424.0,-0.00043407747931878404
3423.0,-0.0004774613744551459
3422.0,-0.0004774613744551459
3421.0,-0.00043407747931878404
3420.0,-0.00043407747931878404
3419.0,-0.0005208409361854294
3418.0,-0.0006075870628903246
3417.0,-0.0006509536295951079
3416.0,-0.0006075870628903246
3415.0,-0.0005208409361854294
3414.0,-0.0005208409361854294
3413.0,-0.0005642161653756084
3412.0,-0.0006509536295951079
3411.0,-0.0007376737740329986
3410.0,-0.0007810273534953893
3409.0,-0.0007376737740329986
3408.0,-0.0006075870628903246
3407.0,-0.0003906892499099257
3406.0,-0.00021709297223004853
3405.0,-0.00013026880522692963
3404.0,-0.00017368305846510168
3403.0,-0.0003472966853634851
3402.0,-0.0004774613744551459
3401.0,-0.0005208409361854294
3400.0,-0.00043407747931878404
3399.0,-0.0003472966853634851
3398.0,-0.0003472966853634851
3397.0,-0.00043407747931878404
3396.0,-0.0006075870628903246
3395.0,-0.0007376737740329986
3394.0,-0.0007810273534953893
3393.0,-0.0007376737740329986
3392.0,-0.0006509536295951079
3391.0,-0.0005642161653756084
3390.0,-0.0005208409361854294
3389.0,-0.0004774613744551459
3388.0,-0.0003472966853634851
3387.0,-0.0002604985473904087
3386.0,-0.00021709297223004853
3385.0,-0.0002604985473904087
3384.0,-0.0003472966853634851
3383.0,-0.00030389978481260016
3382.0,-0.0002604985473904087
3381.0,-0.00017368305846510168
3380.0,-0.00017368305846510168
3379.0,-0.0002604985473904087
3378.0,-0.0003906892499099257
3377.0,-0.0005208409361854294
3376.0,-0.0006075870628903246
3375.0,-0.0006509536295951079
3374.0,-0.0006075870628903246
3373.0,-0.0006075870628903246
3372.0,-0.0005642161653756084
3371.0,-0.0005642161653756084
3370.0,-0.0005208409361854294
3369.0,-0.00043407747931878404
3368.0,-0.0003472966853634851
3367.0,-0.00030389978481260016
3366.0,-0.00030389978481260016
3365.0,-0.0003472966853634851
3364.0,-0.0003472966853634851
3363.0,-0.0003906892499099257
3362.0,-0.0003906892499099257
3361.0,-0.0004774613744551459
3360.0,-0.0005208409361854294
3359.0,-0.0005642161653756084
3358.0,-0.0004774613744551459
3357.0,-0.00043407747931878404
3356.0,-0.0003906892499099257
3355.0,-0.0004774613744551459
3354.0,-0.0006075870628903246
3353.0,-0.0006509536295951079
3352.0,-0.0006075870628903246
3351.0,-0.0004774613744551459
3350.0,-0.0003472966853634851
3349.0,-0.00021709297223004853
3348.0,-0.00013026880522692963
3347.0,-8.685021164911433e-05
3346.0,-0.00021709297223004853
3345.0,-0.0003472966853634851
3344.0,-0.0004774613744551459
3343.0,-0.0005208409361854294
3342.0,-0.0004774613744551459
3341.0,-0.0003906892499099257
3340.0,-0.0003472966853634851
3339.0,-0.00030389978481260016
3338.0,-0.0002604985473904087
3337.0,-0.00021709297223004853
3336.0,-0.00013026880522692963
3335.0,-4.3427276862573194e-05
3334.0,4.343161980746579e-05
3333.0,4.343161980746579e-05
3332.0,-4.3427276862573194e-05
3331.0,-0.00013026880522692963
3330.0,-0.00021709297223004853
3329.0,-0.0002604985473904087
3328.0,-0.00021709297223004853
3327.0,-0.00017368305846510168
3326.0,-0.00017368305846510168
3325.0,-0.00021709297223004853
3324.0,-0.0002604985473904087
3323.0,-0.0003472966853634851
3322.0,-0.00043407747931878404
3321.0,-0.0004774613744551459
3320.0,-0.00043407747931878404
3319.0,-0.0003472966853634851
3318.0,-0.00021709297223004853
3317.0,-0.00017368305846510168
3316.0,-0.00013026880522692963
3315.0,-0.00013026880522692963
3314.0,-0.00017368305846510168
3313.0,-0.00017368305846510168
3312.0,-0.00017368305846510168
3311.0,-0.00017368305846510168
3310.0,-0.00017368305846510168
3309.0,-0.00021709297223004853
3308.0,-0.0002604985473904087
3307.0,-0.0002604985473904087
3306.0,-0.00021709297223004853
3305.0,-0.00017368305846510168
3304.0,-0.00017368305846510168
3303.0,-0.0002604985473904087
3302.0,-0.0003472966853634851
3301.0,-0.0003906892499099257
3300.0,-0.00043407747931878404
3299.0,-0.00043407747931878404
3298.0,-0.00043407747931878404
3297.0,-0.00043407747931878404
3296.0,-0.0004774613744551459
3295.0,-0.0005208409361854294
3294.0,-0.0006075870628903246
3293.0,-0.0006509536295951079
3292.0,-0.0006943158663546001
3291.0,-0.0006509536295951079
3290.0,-0.0005642161653756084
3289.0,-0.0004774613744551459
3288.0,-0.0003906892499099257
3287.0,-0.0003472966853634851
3286.0,-0.0003906892499099257
3285.0,-0.00043407747931878404
3284.0,-0.0004774613744551459
3283.0,-0.0005208409361854294
3282.0,-0.0005208409361854294
3281.0,-0.0005208409361854294
3280.0,-0.0004774613744551459
3279.0,-0.0003906892499099257
3278.0,-0.00030389978481260016
3277.0,-0.00021709297223004853
3276.0,-0.00017368305846510168
3275.0,-0.00013026880522692963
3274.0,-0.00013026880522692963
3273.0,-0.00013026880522692963
3272.0,-8.685021164911433e-05
3271.0,-8.685021164911433e-05
3270.0,-0.00017368305846510168
3269.0,-0.00030389978481260016
3268.0,-0.0004774613744551459
3267.0,-0.0006509536295951079
3266.0,-0.0007376737740329986
3265.0,-0.0007376737740329986
3264.0,-0.0006943158663546001
3263.0,-0.0005642161653756084
3262.0,-0.0003906892499099257
3261.0,-0.0003472966853634851
3260.0,-0.0003472966853634851
3259.0,-0.0003472966853634851
3258.0,-0.0003906892499099257
3257.0,-0.0003472966853634851
3256.0,-0.00030389978481260016
3255.0,-0.00030389978481260016
3254.0,-0.0003472966853634851
3253.0,-0.0003472966853634851
3252.0,-0.0003472966853634851
3251.0,-0.00030389978481260016
3250.0,-0.00030389978481260016
3249.0,-0.0003472966853634851
3248.0,-0.0003906892499099257
3247.0,-0.00043407747931878404
3246.0,-0.0003906892499099257
3245.0,-0.0002604985473904087
3244.0,-0.00017368305846510168
3243.0,-8.685021164911433e-05
3242.0,-4.3427276862573194e-05
3241.0,-8.685021164911433e-05
3240.0,-0.00013026880522692963
3239.0,-0.0002604985473904087
3238.0,-0.00043407747931878404
3237.0,-0.0005642161653756084
3236.0,-0.0006075870628903246
3235.0,-0.0006075870628903246
3234.0,-0.0006075870628903246
3233.0,-0.0006075870628903246
3232.0,-0.0006075870628903246
3231.0,-0.0006075870628903246
3230.0,-0.0006509536295951079
3229.0,-0.0007376737740329986
3228.0,-0.0007810273534953893
3227.0,-0.0007810273534953893
3226.0,-0.0006943158663546001
3225.0,-0.0005642161653756084
3224.0,-0.00043407747931878404
3223.0,-0.0002604985473904087
3222.0,-0.00017368305846510168
3221.0,-8.685021164911433e-05
3220.0,-4.3427276862573194e-05
3219.0,-4.3427276862573194e-05
3218.0,-8.685021164911433e-05
3217.0,-0.00013026880522692963
3216.0,-0.00017368305846510168
3215.0,-0.00017368305846510168
3214.0,-0.0002604985473904087
3213.0,-0.0003472966853634851
3212.0,-0.0003906892499099257
3211.0,-0.0003472966853634851
3210.0,-0.0002604985473904087
3209.0,-0.00017368305846510168
3208.0,-0.00013026880522692963
3207.0,-0.00013026880522692963
3206.0,-0.00013026880522692963
3205.0,-0.00013026880522692963
3204.0,-0.00013026880522692963
3203.0,-0.00021709297223004853
3202.0,-0.00030389978481260016
3201.0,-0.0003472966853634851
3200.0,-0.00030389978481260016
3199.0,-0.00021709297223004853
3198.0,-0.00021709297223004853
3197.0,-0.00030389978481260016
3196.0,-0.00043407747931878404
3195.0,-0.0005208409361854294
3194.0,-0.0005642161653756084
3193.0,-0.0005208409361854294
3192.0,-0.00043407747931878404
3191.0,-0.0003906892499099257
3190.0,-0.0003472966853634851
3189.0,-0.00030389978481260016
3188.0,-0.0002604985473904087
3187.0,-0.00030389978481260016
3186.0,-0.0003906892499099257
3185.0,-0.0004774613744551459
3184.0,-0.0005208409361854294
3183.0,-0.00043407747931878404
3182.0,-0.00030389978481260016
3181.0,-0.0002604985473904087
3180.0,-0.00030389978481260016
3179.0,-0.00043407747931878404
3178.0,-0.0005642161653756084
3177.0,-0.0005642161653756084
3176.0,-0.0005208409361854294
3175.0,-0.0003906892499099257
3174.0,-0.0003472966853634851
3173.0,-0.0003906892499099257
3172.0,-0.00043407747931878404
3171.0,-0.0004774613744551459
3170.0,-0.0004774613744551459
3169.0,-0.00043407747931878404
3168.0,-0.0003906892499099257
3167.0,-0.0003906892499099257
3166.0,-0.0003472966853634851
3165.0,-0.00030389978481260016
3164.0,-0.00030389978481260016
3163.0,-0.0003906892499099257
3162.0,-0.00043407747931878404
3161.0,-0.0004774613744551459
3160.0,-0.00043407747931878404
3159.0,-0.0003472966853634851
3158.0,-0.0003472966853634851
3157.0,-0.0003906892499099257
3156.0,-0.00043407747931878404
3155.0,-0.0004774613744551459
3154.0,-0.0005208409361854294
3153.0,-0.0004774613744551459
3152.0,-0.0003906892499099257
3151.0,-0.00030389978481260016
3150.0,-0.0002604985473904087
3149.0,-0.00030389978481260016
3148.0,-0.0003472966853634851
3147.0,-0.0003472966853634851
3146.0,-0.00030389978481260016
3145.0,-0.0002604985473904087
3144.0,-0.00030389978481260016
3143.0,-0.0003906892499099257
3142.0,-0.0004774613744551459
3141.0,-0.0005208409361854294
3140.0,-0.0004774613744551459
3139.0,-0.00043407747931878404
3138.0,-0.0003472966853634851
3137.0,-0.0003472966853634851
3136.0,-0.0003906892499099257
3135.0,-0.0003906892499099257
3134.0,-0.0003472966853634851
3133.0,-0.0002604985473904087
3132.0,-0.0002604985473904087
3131.0,-0.00030389978481260016
3130.0,-0.0003472966853634851
3129.0,-0.0003472966853634851
3128.0,-0.0003472966853634851
3127.0,-0.0003472966853634851
3126.0,-0.0003906892499099257
3125.0,-0.0003906892499099257
3124.0,-0.0003906892499099257
3123.0,-0.0003906892499099257
3122.0,-0.00043407747931878404
3121.0,-0.0004774613744551459
3120.0,-0.0004774613744551459
3119.0,-0.0005208409361854294
3118.0,-0.0005208409361854294
3117.0,-0.0005208409361854294
3116.0,-0.00043407747931878404
3115.0,-0.0003472966853634851
3114.0,-0.00030389978481260016
3113.0,-0.00030389978481260016
3112.0,-0.0003472966853634851
3111.0,-0.0003906892499099257
3110.0,-0.0003906892499099257
3109.0,-0.0003472966853634851
3108.0,-0.00030389978481260016
3107.0,-0.00030389978481260016
3106.0,-0.00030389978481260016
3105.0,-0.0003472966853634851
3104.0,-0.00030389978481260016
3103.0,-0.00030389978481260016
3102.0,-0.0002604985473904087
3101.0,-0.0002604985473904087
3100.0,-0.00021709297223004853
3099.0,-0.00017368305846510168
3098.0,-0.00017368305846510168
3097.0,-0.00017368305846510168
3096.0,-0.00021709297223004853
3095.0,-0.0002604985473904087
3094.0,-0.00030389978481260016
3093.0,-0.00030389978481260016
3092.0,-0.0003472966853634851
3091.0,-0.00043407747931878404
3090.0,-0.00043407747931878404
3089.0,-0.00043407747931878404
3088.0,-0.0003906892499099257
3087.0,-0.0003906892499099257
3086.0,-0.00030389978481260016
3085.0,-0.0002604985473904087
3084.0,-0.00021709297223004853
3083.0,-0.00021709297223004853
3082.0,-0.00021709297223004853
3081.0,-0.0002604985473904087
3080.0,-0.0003472966853634851
3079.0,-0.0003906892499099257
3078.0,-0.00043407747931878404
3077.0,-0.00043407747931878404
3076.0,-0.0003472966853634851
3075.0,-0.00030389978481260016
3074.0,-0.0002604985473904087
3073.0,-0.00030389978481260016
3072.0,-0.0003472966853634851
3071.0,-0.0003906892499099257
3070.0,-0.0003906892499099257
3069.0,-0.0003906892499099257
3068.0,-0.0003472966853634851
3067.0,-0.0003472966853634851
3066.0,-0.00030389978481260016
3065.0,-0.00030389978481260016
3064.0,-0.00030389978481260016
3063.0,-0.00030389978481260016
3062.0,-0.0003472966853634851
3061.0,-0.0003472966853634851
3060.0,-0.0003472966853634851
3059.0,-0.0003472966853634851
3058.0,-0.0003472966853634851
3057.0,-0.0003472966853634851
3056.0,-0.0003472966853634851
3055.0,-0.0003472966853634851
3054.0,-0.0003906892499099257
3053.0,-0.0004774613744551459
3052.0,-0.0005642161653756084
3051.0,-0.0006075870628903246
3050.0,-0.0005208409361854294
3049.0,-0.00043407747931878404
3048.0,-0.0003472966853634851
3047.0,-0.0003472966853634851
3046.0,-0.0003906892499099257
3045.0,-0.0004774613744551459
3044.0,-0.0005208409361854294
3043.0,-0.0006075870628903246
3042.0,-0.0006075870628903246
3041.0,-0.0006075870628903246
3040.0,-0.0006075870628903246
3039.0,-0.0006943158663546001
3038.0,-0.0008243766056055257
3037.0,-0.0009543984064577238
3036.0,-0.0010843812922201046
3035.0,-0.0011277002770349043
3034.0,-0.0010843812922201046
3033.0,-0.0009977303577937136
3032.0,-0.0009110621312231615
3031.0,-0.0009110621312231615
3030.0,-0.0009977303577937136
3029.0,-0.0011277002770349043
3028.0,-0.001257631312230778
3027.0,-0.001344230411601366
3026.0,-0.0013875234866409514
3025.0,-0.0013875234866409514
3024.0,-0.001474096691732818
3023.0,-0.0016039241497978196
3022.0,-0.001776967077439462
3021.0,-0.0019067040408846658
3020.0,-0.0019931738235303698
3019.0,-0.0020364022595291686
3018.0,-0.0020796263931210923
3017.0,-0.0021660617565077978
3016.0,-0.0022524799205383417
3015.0,-0.002338880892056583
3014.0,-0.0024684501283323
3013.0,-0.002597980719908577
3012.0,-0.0027274726898296464
3011.0,-0.002856926061120646
3010.0,-0.003029470553618019
3009.0,-0.0032450548131470747
3008.0,-0.0034605321095062536
3007.0,-0.003675902548784027
3006.0,-0.0038481220342978517
3005.0,-0.0039772418455368275
3004.0,-0.004106323279658319
3003.0,-0.0042353663594676405
3002.0,-0.004407364176330919
3001.0,-0.004622265700782613
3000.0,-0.004837060938309712
2999.0,-0.005051749993995713
2998.0,-0.005180512503780488
2997.0,-0.005266332972768684
2996.0,-0.005309236848516363
2995.0,-0.005395031886706203
2994.0,-0.005480809979401258
2993.0,-0.005695181118510195
2992.0,-0.006037954997317296
2991.0,-0.006380458549692936
2990.0,-0.00659438618413688
2989.0,-0.00659438618413688
2988.0,-0.006423252507643085
2987.0,-0.0062948579813855154
2986.0,-0.006252051369364686
2985.0,-0.006252051369364686
2984.0,-0.006252051369364686
2983.0,-0.006209240537657479
2982.0,-0.006209240537657479
2981.0,-0.006252051369364686
2980.0,-0.006252051369364686
2979.0,-0.006209240537657479
2978.0,-0.006123606211854593
2977.0,-0.006037954997317296
2976.0,-0.006037954997317296
2975.0,-0.006080782716094024
2974.0,-0.006252051369364686
2973.0,-0.0063376603745508575
2972.0,-0.0062948579813855154
2971.0,-0.006166425485431226
2970.0,-0.005952286887382918
2969.0,-0.00582375302902749
2968.0,-0.005780899954652252
2967.0,-0.005780899954652252
2966.0,-0.00582375302902749
2965.0,-0.00582375302902749
2964.0,-0.005738042651424635
2963.0,-0.005566571133294396
2962.0,-0.005395031886706203
2961.0,-0.005180512503780488
2960.0,-0.005051749993995713
2959.0,-0.004965887106823441
2958.0,-0.004922949296525481
2957.0,-0.004837060938309712
2956.0,-0.004751155591001144
2955.0,-0.004708196544336296
2954.0,-0.004665233247877154
2953.0,-0.004708196544336296
2952.0,-0.004708196544336296
2951.0,-0.004708196544336296
2950.0,-0.004622265700782613
2949.0,-0.004536317851322913
2948.0,-0.00445035298922436
2947.0,-0.004407364176330919
2946.0,-0.00445035298922436
2945.0,-0.00445035298922436
2944.0,-0.004407364176330919
2943.0,-0.0042783722001624724
2942.0,-0.004149341900058889
2941.0,-0.004063300397667113
2940.0,-0.004020273253241502
2939.0,-0.004063300397667113
2938.0,-0.004106323279658319
2937.0,-0.004106323279658319
2936.0,-0.004063300397667113
2935.0,-0.004020273253241502
2934.0,-0.004020273253241502
2933.0,-0.0039772418455368275
2932.0,-0.0039772418455368275
2931.0,-0.003934206173708432
2930.0,-0.003934206173708432
2929.0,-0.003934206173708432
2928.0,-0.0039772418455368275
2927.0,-0.004020273253241502
2926.0,-0.004020273253241502
2925.0,-0.0039772418455368275
2924.0,-0.0039772418455368275
2923.0,-0.003934206173708432
2922.0,-0.0039772418455368275
2921.0,-0.004020273253241502
2920.0,-0.004063300397667113
2919.0,-0.004106323279658319
2918.0,-0.004106323279658319
2917.0,-0.004106323279658319
2916.0,-0.004063300397667113
2915.0,-0.004106323279658319
2914.0,-0.004192356259714369
2913.0,-0.004407364176330919
2912.0,-0.0045792939022115675
2911.0,-0.004665233247877154
2910.0,-0.004622265700782613
2909.0,-0.004536317851322913
2908.0,-0.00445035298922436
2907.0,-0.00445035298922436
2906.0,-0.0045792939022115675
2905.0,-0.004794110388711914
2904.0,-0.005008820672367076
2903.0,-0.005223424858135761
2902.0,-0.005352136486216796
2901.0,-0.005266332972768684
2900.0,-0.004922949296525481
2899.0,-0.0045792939022115675
2898.0,-0.004364371107751008
2897.0,-0.004364371107751008
2896.0,-0.00445035298922436
2895.0,-0.004536317851322913
2894.0,-0.004536317851322913
2893.0,-0.004493337547274212
2892.0,-0.004407364176330919
2891.0,-0.0042783722001624724
2890.0,-0.004192356259714369
2889.0,-0.004192356259714369
2888.0,-0.0042353663594676405
2887.0,-0.0042783722001624724
2886.0,-0.004364371107751008
2885.0,-0.004364371107751008
2884.0,-0.004321373782642635
2883.0,-0.0042353663594676405
2882.0,-0.004063300397667113
2881.0,-0.0038481220342978517
2880.0,-0.0037189638231147626
2879.0,-0.0035897671891400584
2878.0,-0.0034605321095062536
2877.0,-0.0032881588260753603
2876.0,-0.003158833950862139
2875.0,-0.003029470553618019
2874.0,-0.003029470553618019
2873.0,-0.0030725959676747294
2872.0,-0.003158833950862139
2871.0,-0.003158833950862139
2870.0,-0.003115717099805959
2869.0,-0.0029863408567849525
2868.0,-0.002856926061120646
2867.0,-0.0027274726898296464
2866.0,-0.0026411490000399773
2865.0,-0.002597980719908577
2864.0,-0.0025548081484823015
2863.0,-0.0025116312849080558
2862.0,-0.0024252646779014952
2861.0,-0.0022524799205383417
2860.0,-0.0020796263931210923
2859.0,-0.0019067040408846658
2858.0,-0.001776967077439462
2857.0,-0.001733712809000476
2856.0,-0.001733712809000476
2855.0,-0.0016904542321527494
2854.0,-0.0016039241497978196
2853.0,-0.0015173768235041685
2852.0,-0.0014308122463981832
2851.0,-0.001344230411601366
2850.0,-0.001257631312230778
2849.0,-0.00121432528617893
2848.0,-0.0011710149414008164
2847.0,-0.0011710149414008164
2846.0,-0.0011710149414008164
2845.0,-0.00121432528617893
2844.0,-0.001257631312230778
2843.0,-0.0013009330204178937
2842.0,-0.001257631312230778
2841.0,-0.00121432528617893
2840.0,-0.0011277002770349043
2839.0,-0.001041057986093552
2838.0,-0.0009543984064577238
2837.0,-0.0008677215312267172
2836.0,-0.0008677215312267172
2835.0,-0.0009110621312231615
2834.0,-0.0009110621312231615
2833.0,-0.0009110621312231615
2832.0,-0.0008677215312267172
2831.0,-0.0007810273534953893
2830.0,-0.0007810273534953893
2829.0,-0.0007810273534953893
2828.0,-0.0008243766056055257
2827.0,-0.0007810273534953893
2826.0,-0.0007376737740329986
2825.0,-0.0006509536295951079
2824.0,-0.0006509536295951079
2823.0,-0.0006943158663546001
2822.0,-0.0007376737740329986
2821.0,-0.0007810273534953893
2820.0,-0.0008243766056055257
2819.0,-0.0008243766056055257
2818.0,-0.0007810273534953893
2817.0,-0.0006943158663546001
2816.0,-0.0006075870628903246
2815.0,-0.0005642161653756084
2814.0,-0.0005208409361854294
2813.0,-0.0005208409361854294
2812.0,-0.0005642161653756084
2811.0,-0.0005642161653756084
2810.0,-0.0005208409361854294
2809.0,-0.00043407747931878404
2808.0,-0.00043407747931878404
2807.0,-0.0004774613744551459
2806.0,-0.0005208409361854294
2805.0,-0.0005642161653756084
2804.0,-0.0005208409361854294
2803.0,-0.0005208409361854294
2802.0,-0.0004774613744551459
2801.0,-0.0004774613744551459
2800.0,-0.0005208409361854294
2799.0,-0.0005642161653756084
2798.0,-0.0006075870628903246
2797.0,-0.0006943158663546001
2796.0,-0.0006943158663546001
2795.0,-0.0006509536295951079
2794.0,-0.0006075870628903246
2793.0,-0.0006075870628903246
2792.0,-0.0006075870628903246
2791.0,-0.0006509536295951079
2790.0,-0.0006509536295951079
2789.0,-0.0006943158663546001
2788.0,-0.0006509536295951079
2787.0,-0.0006509536295951079
2786.0,-0.0006075870628903246
2785.0,-0.0006075870628903246
2784.0,-0.0005642161653756084
2783.0,-0.0005208409361854294
2782.0,-0.0004774613744551459
2781.0,-0.00043407747931878404
2780.0,-0.00043407747931878404
2779.0,-0.0003906892499099257
2778.0,-0.0003472966853634851
2777.0,-0.00030389978481260016
2776.0,-0.0003472966853634851
2775.0,-0.00043407747931878404
2774.0,-0.0004774613744551459
2773.0,-0.0005642161653756084
2772.0,-0.0006075870628903246
2771.0,-0.0006075870628903246
2770.0,-0.0006075870628903246
2769.0,-0.0005208409361854294
2768.0,-0.0004774613744551459
2767.0,-0.00043407747931878404
2766.0,-0.00043407747931878404
2765.0,-0.00043407747931878404
2764.0,-0.0004774613744551459
2763.0,-0.00043407747931878404
2762.0,-0.00043407747931878404
2761.0,-0.0005208409361854294
2760.0,-0.0006075870628903246
2759.0,-0.0006509536295951079
2758.0,-0.0006509536295951079
2757.0,-0.0005208409361854294
2756.0,-0.00043407747931878404
2755.0,-0.0003472966853634851
2754.0,-0.00030389978481260016
2753.0,-0.0003472966853634851
2752.0,-0.00043407747931878404
2751.0,-0.0005208409361854294
2750.0,-0.0005642161653756084
2749.0,-0.0005208409361854294
2748.0,-0.00043407747931878404
2747.0,-0.0003906892499099257
2746.0,-0.0003906892499099257
2745.0,-0.0004774613744551459
2744.0,-0.0005208409361854294
2743.0,-0.0005208409361854294
2742.0,-0.0005208409361854294
2741.0,-0.0005642161653756084
2740.0,-0.0005208409361854294
2739.0,-0.0004774613744551459
2738.0,-0.0003906892499099257
2737.0,-0.0003906892499099257
2736.0,-0.00043407747931878404
2735.0,-0.0004774613744551459
2734.0,-0.0004774613744551459
2733.0,-0.00043407747931878404
2732.0,-0.00043407747931878404
2731.0,-0.0003906892499099257
2730.0,-0.0003472966853634851
2729.0,-0.0002604985473904087
2728.0,-0.00021709297223004853
2727.0,-0.00021709297223004853
2726.0,-0.00021709297223004853
2725.0,-0.00021709297223004853
2724.0,-0.0002604985473904087
2723.0,-0.0002604985473904087
2722.0,-0.0002604985473904087
2721.0,-0.00030389978481260016
2720.0,-0.0003906892499099257
2719.0,-0.0004774613744551459
2718.0,-0.0005208409361854294
2717.0,-0.0005208409361854294
2716.0,-0.0004774613744551459
2715.0,-0.00043407747931878404
2714.0,-0.0003472966853634851
2713.0,-0.0003472966853634851
2712.0,-0.0003472966853634851
2711.0,-0.0003906892499099257
2710.0,-0.0003472966853634851
2709.0,-0.00030389978481260016
2708.0,-0.00021709297223004853
2707.0,-0.00021709297223004853
2706.0,-0.0002604985473904087
2705.0,-0.00030389978481260016
2704.0,-0.0003472966853634851
2703.0,-0.00030389978481260016
2702.0,-0.0002604985473904087
2701.0,-0.00017368305846510168
2700.0,-0.00017368305846510168
2699.0,-0.00021709297223004853
2698.0,-0.00021709297223004853
2697.0,-0.0002604985473904087
2696.0,-0.0002604985473904087
2695.0,-0.00021709297223004853
2694.0,-0.00021709297223004853
2693.0,-0.00021709297223004853
2692.0,-0.00017368305846510168
2691.0,-0.00017368305846510168
2690.0,-0.00021709297223004853
2689.0,-0.0002604985473904087
2688.0,-0.0002604985473904087
2687.0,-0.0002604985473904087
2686.0,-0.00021709297223004853
2685.0,-0.00021709297223004853
2684.0,-0.00021709297223004853
2683.0,-0.00021709297223004853
2682.0,-0.00017368305846510168
2681.0,-0.00017368305846510168
2680.0,-0.00013026880522692963
2679.0,-0.00013026880522692963
2678.0,-0.00013026880522692963
2677.0,-0.00017368305846510168
2676.0,-0.00021709297223004853
2675.0,-0.0002604985473904087
2674.0,-0.0002604985473904087
2673.0,-0.0002604985473904087
2672.0,-0.0002604985473904087
2671.0,-0.00030389978481260016
2670.0,-0.00030389978481260016
2669.0,-0.0002604985473904087
2668.0,-0.00017368305846510168
2667.0,-8.685021164911433e-05
2666.0,-8.685021164911433e-05
2665.0,-0.00013026880522692963
2664.0,-0.00013026880522692963
2663.0,-0.00013026880522692963
2662.0,-8.685021164911433e-05
2661.0,-0.00013026880522692963
2660.0,-0.00017368305846510168
2659.0,-0.0002604985473904087
2658.0,-0.0002604985473904087
2657.0,-0.00021709297223004853
2656.0,-0.00013026880522692963
2655.0,-4.3427276862573194e-05
2654.0,8.686758342868472e-05
2653.0,8.686758342868472e-05
2652.0,0.0
2651.0,-8.685021164911433e-05
2650.0,-0.00013026880522692963
2649.0,-8.685021164911433e-05
2648.0,-8.685021164911433e-05
2647.0,-8.685021164911433e-05
2646.0,-8.685021164911433e-05
2645.0,-8.685021164911433e-05
2644.0,-4.3427276862573194e-05
2643.0,-4.3427276862573194e-05
2642.0,-8.685021164911433e-05
2641.0,-0.00013026880522692963
2640.0,-0.00017368305846510168
2639.0,-0.00017368305846510168
2638.0,-0.00017368305846510168
2637.0,-0.00017368305846510168
2636.0,-0.00021709297223004853
2635.0,-0.00021709297223004853
2634.0,-0.00017368305846510168
2633.0,-8.685021164911433e-05
2632.0,-8.685021164911433e-05
2631.0,-8.685021164911433e-05
2630.0,-0.00017368305846510168
2629.0,-0.00021709297223004853
2628.0,-0.0002604985473904087
2627.0,-0.00030389978481260016
2626.0,-0.00030389978481260016
2625.0,-0.00030389978481260016
2624.0,-0.00030389978481260016
2623.0,-0.00030389978481260016
2622.0,-0.0002604985473904087
2621.0,-0.00017368305846510168
2620.0,-0.00013026880522692963
2619.0,-0.00013026880522692963
2618.0,-0.00017368305846510168
2617.0,-0.00021709297223004853
2616.0,-0.00021709297223004853
2615.0,-0.00021709297223004853
2614.0,-0.00017368305846510168
2613.0,-0.00021709297223004853
2612.0,-0.00021709297223004853
2611.0,-0.00017368305846510168
2610.0,-0.00013026880522692963
2609.0,-8.685021164911433e-05
2608.0,-4.3427276862573194e-05
2607.0,4.343161980746579e-05
2606.0,8.686758342868472e-05
2605.0,8.686758342868472e-05
2604.0,4.343161980746579e-05
2603.0,0.0
2602.0,0.0
2601.0,0.0
2600.0,4.343161980746579e-05
2599.0,4.343161980746579e-05
2598.0,4.343161980746579e-05
2597.0,0.0
2596.0,-8.685021164911433e-05
2595.0,-0.00013026880522692963
2594.0,-0.00013026880522692963
2593.0,-0.00013026880522692963
2592.0,-0.00017368305846510168
2591.0,-0.00017368305846510168
2590.0,-0.00017368305846510168
2589.0,-0.00017368305846510168
2588.0,-0.00021709297223004853
2587.0,-0.0002604985473904087
2586.0,-0.00030389978481260016
2585.0,-0.0002604985473904087
2584.0,-0.00021709297223004853
2583.0,-8.685021164911433e-05
2582.0,0.0
2581.0,4.343161980746579e-05
2580.0,8.686758342868472e-05
2579.0,8.686758342868472e-05
2578.0,0.0
2577.0,-8.685021164911433e-05
2576.0,-0.00021709297223004853
2575.0,-0.0002604985473904087
2574.0,-0.00030389978481260016
2573.0,-0.00030389978481260016
2572.0,-0.00030389978481260016
2571.0,-0.00021709297223004853
2570.0,-0.00013026880522692963
2569.0,-8.685021164911433e-05
2568.0,-4.3427276862573194e-05
2567.0,0.0
2566.0,0.0
2565.0,0.0
2564.0,-4.3427276862573194e-05
2563.0,-8.685021164911433e-05
2562.0,-0.00013026880522692963
2561.0,-0.00017368305846510168
2560.0,-0.00021709297223004853
2559.0,-0.00021709297223004853
2558.0,-0.00021709297223004853
2557.0,-0.00021709297223004853
2556.0,-0.00030389978481260016
2555.0,-0.0003472966853634851
2554.0,-0.0003472966853634851
2553.0,-0.0002604985473904087
2552.0,-0.00021709297223004853
2551.0,-0.00013026880522692963
2550.0,-0.00013026880522692963
2549.0,-0.00013026880522692963
2548.0,-8.685021164911433e-05
2547.0,-4.3427276862573194e-05
2546.0,0.0
2545.0,4.343161980746579e-05
2544.0,4.343161980746579e-05
2543.0,4.343161980746579e-05
2542.0,4.343161980746579e-05
2541.0,4.343161980746579e-05
2540.0,0.0
2539.0,-0.00013026880522692963
2538.0,-0.0002604985473904087
2537.0,-0.00030389978481260016
2536.0,-0.00030389978481260016
2535.0,-0.0002604985473904087
2534.0,-0.00017368305846510168
2533.0,-8.685021164911433e-05
2532.0,0.0
2531.0,0.0
2530.0,0.0
2529.0,0.0
2528.0,-4.3427276862573194e-05
2527.0,-0.00017368305846510168
2526.0,-0.0002604985473904087
2525.0,-0.00030389978481260016
2524.0,-0.0002604985473904087
2523.0,-0.0002604985473904087
2522.0,-0.0002604985473904087
2521.0,-0.0002604985473904087
2520.0,-0.0002604985473904087
2519.0,-0.0002604985473904087
2518.0,-0.00021709297223004853
2517.0,-0.00017368305846510168
2516.0,-0.00013026880522692963
2515.0,-8.685021164911433e-05
2514.0,-0.00013026880522692963
2513.0,-0.00013026880522692963
2512.0,-0.00021709297223004853
2511.0,-0.0002604985473904087
2510.0,-0.0002604985473904087
2509.0,-0.00021709297223004853
2508.0,-0.00017368305846510168
2507.0,-0.00013026880522692963
2506.0,-0.00017368305846510168
2505.0,-0.00017368305846510168
2504.0,-0.00017368305846510168
2503.0,-0.00013026880522692963
2502.0,-4.3427276862573194e-05
2501.0,4.343161980746579e-05
2500.0,8.686758342868472e-05
2499.0,4.343161980746579e-05
2498.0,0.0
2497.0,0.0
2496.0,4.343161980746579e-05
2495.0,8.686758342868472e-05
2494.0,4.343161980746579e-05
2493.0,0.0
2492.0,-4.3427276862573194e-05
2491.0,-8.685021164911433e-05
2490.0,-8.685021164911433e-05
2489.0,-8.685021164911433e-05
2488.0,0.0
2487.0,0.0
2486.0,4.343161980746579e-05
2485.0,4.343161980746579e-05
2484.0,4.343161980746579e-05
2483.0,4.343161980746579e-05
2482.0,-4.3427276862573194e-05
2481.0,-8.685021164911433e-05
2480.0,-8.685021164911433e-05
2479.0,-8.685021164911433e-05
2478.0,-8.685021164911433e-05
2477.0,-0.00013026880522692963
2476.0,-0.00017368305846510168
2475.0,-0.00017368305846510168
2474.0,-0.00021709297223004853
2473.0,-0.00021709297223004853
2472.0,-0.00017368305846510168
2471.0,-0.00013026880522692963
2470.0,-4.3427276862573194e-05
2469.0,-4.3427276862573194e-05
2468.0,-0.00013026880522692963
2467.0,-0.00017368305846510168
2466.0,-0.00021709297223004853
2465.0,-0.00017368305846510168
2464.0,-0.00013026880522692963
2463.0,-4.3427276862573194e-05
2462.0,4.343161980746579e-05
2461.0,4.343161980746579e-05
2460.0,4.343161980746579e-05
2459.0,4.343161980746579e-05
2458.0,-4.3427276862573194e-05
2457.0,-8.685021164911433e-05
2456.0,-8.685021164911433e-05
2455.0,-8.685021164911433e-05
2454.0,-8.685021164911433e-05
2453.0,-8.685021164911433e-05
2452.0,-8.685021164911433e-05
2451.0,-0.00013026880522692963
2450.0,-0.00013026880522692963
2449.0,-0.00013026880522692963
2448.0,-4.3427276862573194e-05
2447.0,0.0
2446.0,4.343161980746579e-05
2445.0,0.0
2444.0,-8.685021164911433e-05
2443.0,-0.00013026880522692963
2442.0,-0.00013026880522692963
2441.0,-8.685021164911433e-05
2440.0,-8.685021164911433e-05
2439.0,-8.685021164911433e-05
2438.0,-4.3427276862573194e-05
2437.0,0.0
2436.0,0.0
2435.0,-8.685021164911433e-05
2434.0,-0.00021709297223004853
2433.0,-0.00030389978481260016
2432.0,-0.0003472966853634851
2431.0,-0.00030389978481260016
2430.0,-0.00021709297223004853
2429.0,-8.685021164911433e-05
2428.0,0.0
2427.0,4.343161980746579e-05
2426.0,0.0
2425.0,-4.3427276862573194e-05
2424.0,-4.3427276862573194e-05
2423.0,0.0
2422.0,4.343161980746579e-05
2421.0,0.0
2420.0,-8.685021164911433e-05
2419.0,-0.00017368305846510168
2418.0,-0.00021709297223004853
2417.0,-0.00017368305846510168
2416.0,-0.00021709297223004853
2415.0,-0.0002604985473904087
2414.0,-0.0002604985473904087
2413.0,-0.0002604985473904087
2412.0,-0.00017368305846510168
2411.0,-8.685021164911433e-05
2410.0,-4.3427276862573194e-05
2409.0,0.0
2408.0,-4.3427276862573194e-05
2407.0,-8.685021164911433e-05
2406.0,-0.00017368305846510168
2405.0,-0.00017368305846510168
2404.0,-0.00017368305846510168
2403.0,-8.685021164911433e-05
2402.0,-8.685021164911433e-05
2401.0,-4.3427276862573194e-05
2400.0,-4.3427276862573194e-05
2399.0,0.0
2398.0,4.343161980746579e-05
2397.0,8.686758342868472e-05
2396.0,0.0001303078917322953
2395.0,0.0001303078917322953
2394.0,0.0001303078917322953
2393.0,0.0001303078917322953
2392.0,0.0001303078917322953
2391.0,8.686758342868472e-05
2390.0,4.343161980746579e-05
2389.0,-4.3427276862573194e-05
2388.0,-4.3427276862573194e-05
2387.0,-4.3427276862573194e-05
2386.0,4.343161980746579e-05
2385.0,0.0001303078917322953
2384.0,0.00021720154586435392
2383.0,0.00030411258916074324
2382.0,0.0003475746339209884
2381.0,0.0003475746339209884
2380.0,0.00030411258916074324
2379.0,0.00026065489343207737
2378.0,0.00026065489343207737
2377.0,0.00026065489343207737
2376.0,0.00030411258916074324
2375.0,0.00030411258916074324
2374.0,0.00030411258916074324
2373.0,0.00030411258916074324
2372.0,0.0003910410285830057
2371.0,0.0004779868710962365
2370.0,0.00043451177401765406
2369.0,0.0003910410285830057
2368.0,0.0004779868710962365
2367.0,0.0006954276616513155
2366.0,0.0006954276616513155
2365.0,0.0003475746339209884
2364.0,8.686758342868472e-05
2363.0,0.00026065489343207737
2362.0,0.0006954276616513155
2361.0,0.0007389288868995258
2360.0,0.00030411258916074324
2359.0,0.0001303078917322953
2358.0,0.0004779868710962365
2357.0,0.0008259444115150671
2356.0,0.0006954276616513155
2355.0,0.00021720154586435392
2354.0,-0.00013026880522692963
2353.0,-8.685021164911433e-05
2352.0,0.00021720154586435392
2351.0,0.0004779868710962365
2350.0,0.0006084382809090627
2349.0,0.0005649501236701937
2348.0,0.000521466320689834
2347.0,0.0005649501236701937
2346.0,0.0007389288868995258
2345.0,0.0009129773741116676
2344.0,0.0008259444115150671
2343.0,0.000521466320689834
2342.0,0.00030411258916074324
2341.0,0.0003475746339209884
2340.0,0.0007389288868995258
2339.0,0.001304841688344327
2338.0,0.0016970599014589638
2337.0,0.0017406615763013722
2336.0,0.0014355417390583547
2335.0,0.0010000277816797354
2334.0,0.0005649501236701937
2333.0,0.00021720154586435392
2332.0,-4.3427276862573194e-05
2331.0,-0.00017368305846510168
2330.0,-8.685021164911433e-05
2329.0,8.686758342868472e-05
2328.0,0.00021720154586435392
2327.0,0.00026065489343207737
2326.0,0.00021720154586435392
2325.0,0.00017375254558760211
2324.0,0.00021720154586435392
2323.0,0.00026065489343207737
2322.0,0.00021720154586435392
2321.0,0.0
2320.0,-0.00017368305846510168
2319.0,-0.00021709297223004853
2318.0,-0.00017368305846510168
2317.0,-0.00013026880522692963
2316.0,-8.685021164911433e-05
2315.0,0.0
2314.0,0.00017375254558760211
2313.0,0.0003910410285830057
2312.0,0.0005649501236701937
2311.0,0.0006519307932786322
2310.0,0.0007389288868995258
2309.0,0.0008259444115150671
2308.0,0.0008259444115150671
2307.0,0.0008259444115150671
2306.0,0.0007824344698965646
2305.0,0.0007824344698965646
2304.0,0.0008259444115150671
2303.0,0.0008259444115150671
2302.0,0.0007824344698965646
2301.0,0.0006954276616513155
2300.0,0.0006084382809090627
2299.0,0.000521466320689834
2298.0,0.000521466320689834
2297.0,0.0004779868710962365
2296.0,0.0003910410285830057
2295.0,0.0003910410285830057
2294.0,0.0003910410285830057
2293.0,0.00043451177401765406
2292.0,0.000521466320689834
2291.0,0.0005649501236701937
2290.0,0.0006084382809090627
2289.0,0.0006084382809090627
2288.0,0.000521466320689834
2287.0,0.0003910410285830057
2286.0,0.00030411258916074324
2285.0,0.00021720154586435392
2284.0,0.00021720154586435392
2283.0,0.00030411258916074324
2282.0,0.0003910410285830057
2281.0,0.00043451177401765406
2280.0,0.00043451177401765406
2279.0,0.0003910410285830057
2278.0,0.00030411258916074324
2277.0,0.00030411258916074324
2276.0,0.00030411258916074324
2275.0,0.00030411258916074324
2274.0,0.0003475746339209884
2273.0,0.0003475746339209884
2272.0,0.00030411258916074324
2271.0,0.00030411258916074324
2270.0,0.00030411258916074324
2269.0,0.00030411258916074324
2268.0,0.00030411258916074324
2267.0,0.0003475746339209884
2266.0,0.0003910410285830057
2265.0,0.0003910410285830057
2264.0,0.0003910410285830057
2263.0,0.0003910410285830057
2262.0,0.0003475746339209884
2261.0,0.00030411258916074324
2260.0,0.00026065489343207737
2259.0,0.00021720154586435392
2258.0,0.00021720154586435392
2257.0,0.00021720154586435392
2256.0,0.00021720154586435392
2255.0,0.00026065489343207737
2254.0,0.00026065489343207737
2253.0,0.00030411258916074324
2252.0,0.00026065489343207737
2251.0,0.00017375254558760211
2250.0,8.686758342868472e-05
2249.0,4.343161980746579e-05
2248.0,4.343161980746579e-05
2247.0,8.686758342868472e-05
2246.0,0.0001303078917322953
2245.0,0.00021720154586435392
2244.0,0.00030411258916074324
2243.0,0.00030411258916074324
2242.0,0.00026065489343207737
2241.0,0.00026065489343207737
2240.0,0.00021720154586435392
2239.0,0.00021720154586435392
2238.0,0.00021720154586435392
2237.0,0.00021720154586435392
2236.0,0.00017375254558760211
2235.0,0.00017375254558760211
2234.0,0.00017375254558760211
2233.0,0.00017375254558760211
2232.0,0.0001303078917322953
2231.0,0.0001303078917322953
2230.0,0.00017375254558760211
2229.0,0.00021720154586435392
2228.0,0.00030411258916074324
2227.0,0.0003475746339209884
2226.0,0.0003475746339209884
2225.0,0.00030411258916074324
2224.0,0.00021720154586435392
2223.0,0.00017375254558760211
2222.0,0.00017375254558760211
2221.0,0.00017375254558760211
2220.0,0.00021720154586435392
2219.0,0.00026065489343207737
2218.0,0.00030411258916074324
2217.0,0.00030411258916074324
2216.0,0.00030411258916074324
2215.0,0.00030411258916074324
2214.0,0.00030411258916074324
2213.0,0.00026065489343207737
2212.0,0.00017375254558760211
2211.0,8.686758342868472e-05
2210.0,4.343161980746579e-05
2209.0,4.343161980746579e-05
2208.0,0.0001303078917322953
2207.0,0.00021720154586435392
2206.0,0.00030411258916074324
2205.0,0.00030411258916074324
2204.0,0.00026065489343207737
2203.0,0.00021720154586435392
2202.0,0.00017375254558760211
2201.0,0.00021720154586435392
2200.0,0.00026065489343207737
2199.0,0.00030411258916074324
2198.0,0.00030411258916074324
2197.0,0.0003475746339209884
2196.0,0.0003910410285830057
2195.0,0.00043451177401765406
2194.0,0.0003910410285830057
2193.0,0.0003475746339209884
2192.0,0.00026065489343207737
2191.0,0.00026065489343207737
2190.0,0.00026065489343207737
2189.0,0.00026065489343207737
2188.0,0.00021720154586435392
2187.0,0.00017375254558760211
2186.0,0.00017375254558760211
2185.0,0.00017375254558760211
2184.0,0.00017375254558760211
2183.0,0.00017375254558760211
2182.0,0.00021720154586435392
2181.0,0.00026065489343207737
2180.0,0.00030411258916074324
2179.0,0.00026065489343207737
2178.0,0.00017375254558760211
2177.0,8.686758342868472e-05
2176.0,4.343161980746579e-05
2175.0,4.343161980746579e-05
2174.0,8.686758342868472e-05
2173.0,0.00017375254558760211
2172.0,0.00021720154586435392
2171.0,0.00026065489343207737
2170.0,0.00026065489343207737
2169.0,0.00021720154586435392
2168.0,0.00021720154586435392
2167.0,0.00017375254558760211
2166.0,0.00021720154586435392
2165.0,0.00030411258916074324
2164.0,0.0003910410285830057
2163.0,0.0003910410285830057
2162.0,0.00030411258916074324
2161.0,0.00021720154586435392
2160.0,0.00017375254558760211
2159.0,0.00017375254558760211
2158.0,0.00017375254558760211
2157.0,0.00017375254558760211
2156.0,0.00021720154586435392
2155.0,0.00017375254558760211
2154.0,0.00021720154586435392
2153.0,0.00021720154586435392
2152.0,0.00026065489343207737
2151.0,0.00030411258916074324
2150.0,0.00026065489343207737
2149.0,0.00021720154586435392
2148.0,0.00021720154586435392
2147.0,0.00021720154586435392
2146.0,0.00021720154586435392
2145.0,0.00026065489343207737
2144.0,0.00030411258916074324
2143.0,0.00030411258916074324
2142.0,0.00030411258916074324
2141.0,0.00030411258916074324
2140.0,0.0003475746339209884
2139.0,0.0003475746339209884
2138.0,0.0003910410285830057
2137.0,0.0003910410285830057
2136.0,0.0003910410285830057
2135.0,0.0003910410285830057
2134.0,0.00043451177401765406
2133.0,0.0004779868710962365
2132.0,0.000521466320689834
2131.0,0.000521466320689834
2130.0,0.0004779868710962365
2129.0,0.0003910410285830057
2128.0,0.00030411258916074324
2127.0,0.00026065489343207737
2126.0,0.00026065489343207737
2125.0,0.00030411258916074324
2124.0,0.0003475746339209884
2123.0,0.00043451177401765406
2122.0,0.0004779868710962365
2121.0,0.0004779868710962365
2120.0,0.00043451177401765406
2119.0,0.0003910410285830057
2118.0,0.0003910410285830057
2117.0,0.0003475746339209884
2116.0,0.00030411258916074324
2115.0,0.00026065489343207737
2114.0,0.00021720154586435392
2113.0,0.00021720154586435392
2112.0,0.00030411258916074324
2111.0,0.0003475746339209884
2110.0,0.0003475746339209884
2109.0,0.0003475746339209884
2108.0,0.00030411258916074324
2107.0,0.00030411258916074324
2106.0,0.00030411258916074324
2105.0,0.00030411258916074324
2104.0,0.0003910410285830057
2103.0,0.00043451177401765406
2102.0,0.000521466320689834
2101.0,0.0005649501236701937
2100.0,0.0006084382809090627
2099.0,0.0005649501236701937
2098.0,0.0005649501236701937
2097.0,0.0005649501236701937
2096.0,0.0005649501236701937
2095.0,0.0005649501236701937
2094.0,0.0005649501236701937
2093.0,0.000521466320689834
2092.0,0.0004779868710962365
2091.0,0.00043451177401765406
2090.0,0.0003910410285830057
2089.0,0.0003475746339209884
2088.0,0.0003475746339209884
2087.0,0.0003475746339209884
2086.0,0.0003475746339209884
2085.0,0.0003910410285830057
2084.0,0.00043451177401765406
2083.0,0.000521466320689834
2082.0,0.000521466320689834
2081.0,0.000521466320689834
2080.0,0.0004779868710962365
2079.0,0.000521466320689834
2078.0,0.0005649501236701937
2077.0,0.0006084382809090627
2076.0,0.0006519307932786322
2075.0,0.0006954276616513155
2074.0,0.0006954276616513155
2073.0,0.0006519307932786322
2072.0,0.0005649501236701937
2071.0,0.00043451177401765406
2070.0,0.0003475746339209884
2069.0,0.0003475746339209884
2068.0,0.0003910410285830057
2067.0,0.00043451177401765406
2066.0,0.000521466320689834
2065.0,0.000521466320689834
2064.0,0.0004779868710962365
2063.0,0.0004779868710962365
2062.0,0.0004779868710962365
2061.0,0.000521466320689834
2060.0,0.0006084382809090627
2059.0,0.0006084382809090627
2058.0,0.0006519307932786322
2057.0,0.0006084382809090627
2056.0,0.0006084382809090627
2055.0,0.0005649501236701937
2054.0,0.0005649501236701937
2053.0,0.0005649501236701937
2052.0,0.0006084382809090627
2051.0,0.0006084382809090627
2050.0,0.0006519307932786322
2049.0,0.0006954276616513155
2048.0,0.0007389288868995258
2047.0,0.0007824344698965646
2046.0,0.0007824344698965646
2045.0,0.0007389288868995258
2044.0,0.0006954276616513155
2043.0,0.0006519307932786322
2042.0,0.0006954276616513155
2041.0,0.0006954276616513155
2040.0,0.0006519307932786322
2039.0,0.0006519307932786322
2038.0,0.0006519307932786322
2037.0,0.0006519307932786322
2036.0,0.0006519307932786322
2035.0,0.0006084382809090627
2034.0,0.0005649501236701937
2033.0,0.0005649501236701937
2032.0,0.0005649501236701937
2031.0,0.0006084382809090627
2030.0,0.0006084382809090627
2029.0,0.0006084382809090627
2028.0,0.0006084382809090627
2027.0,0.0006519307932786322
2026.0,0.0007389288868995258
2025.0,0.0007824344698965646
2024.0,0.0007824344698965646
2023.0,0.0007389288868995258
2022.0,0.0006954276616513155
2021.0,0.0006519307932786322
2020.0,0.0006954276616513155
2019.0,0.0007389288868995258
2018.0,0.0007824344698965646
2017.0,0.0007824344698965646
2016.0,0.0008259444115150671
2015.0,0.0008259444115150671
2014.0,0.0008259444115150671
2013.0,0.0007824344698965646
2012.0,0.0007389288868995258
2011.0,0.0006519307932786322
2010.0,0.0006084382809090627
2009.0,0.0005649501236701937
2008.0,0.0005649501236701937
2007.0,0.0005649501236701937
2006.0,0.0005649501236701937
2005.0,0.0006084382809090627
2004.0,0.0006519307932786322
2003.0,0.0006519307932786322
2002.0,0.0006954276616513155
2001.0,0.0006954276616513155
2000.0,0.0007389288868995258
1999.0,0.0006954276616513155
1998.0,0.0006519307932786322
1997.0,0.0006519307932786322
1996.0,0.0006954276616513155
1995.0,0.0007824344698965646
1994.0,0.000869458712629001
1993.0,0.000869458712629001
1992.0,0.0008259444115150671
1991.0,0.0008259444115150671
1990.0,0.0008259444115150671
1989.0,0.0008259444115150671
1988.0,0.0007824344698965646
1987.0,0.0006954276616513155
1986.0,0.0006519307932786322
1985.0,0.0006954276616513155
1984.0,0.0007824344698965646
1983.0,0.000869458712629001
1982.0,0.0009129773741116676
1981.0,0.0009565003968372565
1980.0,0.0009565003968372565
1979.0,0.0009129773741116676
1978.0,0.000869458712629001
1977.0,0.0008259444115150671
1976.0,0.0008259444115150671
1975.0,0.0008259444115150671
1974.0,0.0008259444115150671
1973.0,0.0008259444115150671
1972.0,0.0008259444115150671
1971.0,0.0008259444115150671
1970.0,0.0007824344698965646
1969.0,0.0007389288868995258
1968.0,0.0007389288868995258
1967.0,0.0007824344698965646
1966.0,0.0008259444115150671
1965.0,0.0008259444115150671
1964.0,0.0007824344698965646
1963.0,0.0007824344698965646
1962.0,0.0007824344698965646
1961.0,0.0007824344698965646
1960.0,0.0007824344698965646
1959.0,0.0008259444115150671
1958.0,0.000869458712629001
1957.0,0.000869458712629001
1956.0,0.0009129773741116676
1955.0,0.0009129773741116676
1954.0,0.0009129773741116676
1953.0,0.0009129773741116676
1952.0,0.0009129773741116676
1951.0,0.0009565003968372565
1950.0,0.0009565003968372565
1949.0,0.0009565003968372565
1948.0,0.0010000277816797354
1947.0,0.0010000277816797354
1946.0,0.0010000277816797354
1945.0,0.0010000277816797354
1944.0,0.0010000277816797354
1943.0,0.0010000277816797354
1942.0,0.0010000277816797354
1941.0,0.0010435595295137379
1940.0,0.0010435595295137379
1939.0,0.0010435595295137379
1938.0,0.0010000277816797354
1937.0,0.0009565003968372565
1936.0,0.0009129773741116676
1935.0,0.0008259444115150671
1934.0,0.0008259444115150671
1933.0,0.0008259444115150671
1932.0,0.000869458712629001
1931.0,0.0009129773741116676
1930.0,0.0009565003968372565
1929.0,0.0009565003968372565
1928.0,0.0009565003968372565
1927.0,0.0009565003968372565
1926.0,0.0009565003968372565
1925.0,0.0009565003968372565
1924.0,0.0009565003968372565
1923.0,0.0009565003968372565
1922.0,0.0009129773741116676
1921.0,0.0009129773741116676
1920.0,0.0009129773741116676
1919.0,0.0008259444115150671
1918.0,0.0007389288868995258
1917.0,0.0006954276616513155
1916.0,0.0008259444115150671
1915.0,0.0009565003968372565
1914.0,0.0010000277816797354
1913.0,0.0010000277816797354
1912.0,0.0009565003968372565
1911.0,0.0009565003968372565
1910.0,0.0009565003968372565
1909.0,0.0009565003968372565
1908.0,0.0010000277816797354
1907.0,0.0010000277816797354
1906.0,0.0010000277816797354
1905.0,0.0010000277816797354
1904.0,0.0010000277816797354
1903.0,0.0010435595295137379
1902.0,0.0010870956412141197
1901.0,0.0010870956412141197
1900.0,0.0010435595295137379
1899.0,0.0010000277816797354
1898.0,0.0009129773741116676
1897.0,0.0009129773741116676
1896.0,0.0009129773741116676
1895.0,0.0009565003968372565
1894.0,0.0010000277816797354
1893.0,0.0010870956412141197
1892.0,0.0011306361176557367
1891.0,0.0012177301682640973
1890.0,0.001304841688344327
1889.0,0.0012612837441823288
1888.0,0.0012177301682640973
1887.0,0.0010870956412141197
1886.0,0.0010435595295137379
1885.0,0.0010435595295137379
1884.0,0.0011306361176557367
1883.0,0.0011741809597138886
1882.0,0.0012177301682640973
1881.0,0.0012177301682640973
1880.0,0.0012177301682640973
1879.0,0.0011306361176557367
1878.0,0.0010870956412141197
1877.0,0.0010435595295137379
1876.0,0.0010870956412141197
1875.0,0.0011741809597138886
1874.0,0.0012612837441823288
1873.0,0.001348404001626502
1872.0,0.0014355417390583547
1871.0,0.0014355417390583547
1870.0,0.0014355417390583547
1869.0,0.0014355417390583547
1868.0,0.0014355417390583547
1867.0,0.0014355417390583547
1866.0,0.0013919706849057079
1865.0,0.0013919706849057079
1864.0,0.0013919706849057079
1863.0,0.0013919706849057079
1862.0,0.0014355417390583547
1861.0,0.0014355417390583547
1860.0,0.0014355417390583547
1859.0,0.0014355417390583547
1858.0,0.0014355417390583547
1857.0,0.0014355417390583547
1856.0,0.0013919706849057079
1855.0,0.001348404001626502
1854.0,0.001348404001626502
1853.0,0.001348404001626502
1852.0,0.0014355417390583547
1851.0,0.0014791171649619628
1850.0,0.0014791171649619628
1849.0,0.0014791171649619628
1848.0,0.0014791171649619628
1847.0,0.0015226969634936083
1846.0,0.001609869681952425
1845.0,0.001609869681952425
1844.0,0.0015662811355310335
1843.0,0.0014791171649619628
1842.0,0.0014355417390583547
1841.0,0.0014791171649619628
1840.0,0.0015226969634936083
1839.0,0.0015226969634936083
1838.0,0.0015226969634936083
1837.0,0.0015226969634936083
1836.0,0.0015226969634936083
1835.0,0.0015226969634936083
1834.0,0.0015662811355310335
1833.0,0.0015662811355310335
1832.0,0.0015226969634936083
1831.0,0.0014791171649619628
1830.0,0.0014355417390583547
1829.0,0.0013919706849057079
1828.0,0.0013919706849057079
1827.0,0.0013919706849057079
1826.0,0.0014355417390583547
1825.0,0.0014355417390583547
1824.0,0.0014355417390583547
1823.0,0.0014355417390583547
1822.0,0.0014355417390583547
1821.0,0.0014791171649619628
1820.0,0.0014791171649619628
1819.0,0.0014791171649619628
1818.0,0.0014355417390583547
1817.0,0.0014355417390583547
1816.0,0.0014355417390583547
1815.0,0.0014355417390583547
1814.0,0.0014791171649619628
1813.0,0.0015226969634936083
1812.0,0.0015226969634936083
1811.0,0.0015662811355310335
1810.0,0.001609869681952425
1809.0,0.0016534626036355249
1808.0,0.0016970599014589638
1807.0,0.0016970599014589638
1806.0,0.0016970599014589638
1805.0,0.0017406615763013722
1804.0,0.0017406615763013722
1803.0,0.0017842676290416026
1802.0,0.0018278780605593958
1801.0,0.0018278780605593958
1800.0,0.0018278780605593958
1799.0,0.0018278780605593958
1798.0,0.0018278780605593958
1797.0,0.0017842676290416026
1796.0,0.0016970599014589638
1795.0,0.0015662811355310335
1794.0,0.0014791171649619628
1793.0,0.0015662811355310335
1792.0,0.0016970599014589638
1791.0,0.0018278780605593958
1790.0,0.0018278780605593958
1789.0,0.0017842676290416026
1788.0,0.0017406615763013722
1787.0,0.0016534626036355249
1786.0,0.0015662811355310335
1785.0,0.0015226969634936083
1784.0,0.0015226969634936083
1783.0,0.0015226969634936083
1782.0,0.0015226969634936083
1781.0,0.0015226969634936083
1780.0,0.0015226969634936083
1779.0,0.0014791171649619628
1778.0,0.0014791171649619628
1777.0,0.0014355417390583547
1776.0,0.0014355417390583547
1775.0,0.0014791171649619628
1774.0,0.0015662811355310335
1773.0,0.0016534626036355249
1772.0,0.0016970599014589638
1771.0,0.0016970599014589638
1770.0,0.0017406615763013722
1769.0,0.0017842676290416026
1768.0,0.0017406615763013722
1767.0,0.0016534626036355249
1766.0,0.0015662811355310335
1765.0,0.0015662811355310335
1764.0,0.0015662811355310335
1763.0,0.001609869681952425
1762.0,0.001609869681952425
1761.0,0.0015662811355310335
1760.0,0.001609869681952425
1759.0,0.001609869681952425
1758.0,0.0016534626036355249
1757.0,0.0016534626036355249
1756.0,0.0017406615763013722
1755.0,0.0018278780605593958
1754.0,0.0018714928717336043
1753.0,0.001915112063444413
1752.0,0.0019587356365717845
1751.0,0.0020023635919956817
1750.0,0.0020459959305969555
1749.0,0.0021332737608552588
1748.0,0.0021332737608552588
1747.0,0.002089632653256679
1746.0,0.0020459959305969555
1745.0,0.0019587356365717845
1744.0,0.001915112063444413
1743.0,0.0018714928717336043
1742.0,0.0018278780605593958
1741.0,0.0018714928717336043
1740.0,0.0018714928717336043
1739.0,0.0018714928717336043
1738.0,0.001915112063444413
1737.0,0.001915112063444413
1736.0,0.0019587356365717845
1735.0,0.0019587356365717845
1734.0,0.0019587356365717845
1733.0,0.0018714928717336043
1732.0,0.0018278780605593958
1731.0,0.0018714928717336043
1730.0,0.001915112063444413
1729.0,0.0019587356365717845
1728.0,0.0020023635919956817
1727.0,0.0020023635919956817
1726.0,0.0020023635919956817
1725.0,0.0020023635919956817
1724.0,0.0019587356365717845
1723.0,0.001915112063444413
1722.0,0.0018714928717336043
1721.0,0.0018278780605593958
1720.0,0.0017842676290416026
1719.0,0.0017406615763013722
1718.0,0.0017406615763013722
1717.0,0.0018278780605593958
1716.0,0.001915112063444413
1715.0,0.0019587356365717845
1714.0,0.0020023635919956817
1713.0,0.0020459959305969555
1712.0,0.002089632653256679
1711.0,0.0021332737608552588
1710.0,0.002089632653256679
1709.0,0.0020023635919956817
1708.0,0.001915112063444413
1707.0,0.0018714928717336043
1706.0,0.0018714928717336043
1705.0,0.001915112063444413
1704.0,0.0019587356365717845
1703.0,0.0020023635919956817
1702.0,0.0020023635919956817
1701.0,0.0020023635919956817
1700.0,0.0020023635919956817
1699.0,0.0020459959305969555
1698.0,0.002089632653256679
1697.0,0.0021332737608552588
1696.0,0.0021332737608552588
1695.0,0.0021332737608552588
1694.0,0.0021332737608552588
1693.0,0.0022205691343961664
1692.0,0.0022642234021015284
1691.0,0.0022642234021015284
1690.0,0.0022205691343961664
1689.0,0.0021332737608552588
1688.0,0.0020023635919956817
1687.0,0.001915112063444413
1686.0,0.0018278780605593958
1685.0,0.0018278780605593958
1684.0,0.0018714928717336043
1683.0,0.0019587356365717845
1682.0,0.0020459959305969555
1681.0,0.0021332737608552588
1680.0,0.002089632653256679
1679.0,0.0020459959305969555
1678.0,0.0020459959305969555
1677.0,0.002089632653256679
1676.0,0.0022205691343961664
1675.0,0.0023078820582733695
1674.0,0.0022642234021015284
1673.0,0.0021769192542746563
1672.0,0.0021332737608552588
1671.0,0.0021332737608552588
1670.0,0.0022642234021015284
1669.0,0.002351545103793873
1668.0,0.002395212539545666
1667.0,0.0024388843664115978
1666.0,0.0024388843664115978
1665.0,0.002482560585275184
1664.0,0.002395212539545666
1663.0,0.0022642234021015284
1662.0,0.0021332737608552588
1661.0,0.002089632653256679
1660.0,0.0021332737608552588
1659.0,0.0021769192542746563
1658.0,0.0022205691343961664
1657.0,0.0022205691343961664
1656.0,0.0022205691343961664
1655.0,0.0021769192542746563
1654.0,0.0021769192542746563
1653.0,0.0022205691343961664
1652.0,0.0021769192542746563
1651.0,0.0021332737608552588
1650.0,0.0021332737608552588
1649.0,0.0021332737608552588
1648.0,0.002089632653256679
1647.0,0.0021332737608552588
1646.0,0.0022205691343961664
1645.0,0.002351545103793873
1644.0,0.0024388843664115978
1643.0,0.0025262411970197185
1642.0,0.002569926202528716
1641.0,0.002569926202528716
1640.0,0.002613615602686581
1639.0,0.002613615602686581
1638.0,0.0026573093983774942
1637.0,0.0026573093983774942
1636.0,0.002613615602686581
1635.0,0.0024388843664115978
1634.0,0.0023078820582733695
1633.0,0.0023078820582733695
1632.0,0.0023078820582733695
1631.0,0.0023078820582733695
1630.0,0.0023078820582733695
1629.0,0.0023078820582733695
1628.0,0.0023078820582733695
1627.0,0.0023078820582733695
1626.0,0.0022205691343961664
1625.0,0.0021332737608552588
1624.0,0.002089632653256679
1623.0,0.0020023635919956817
1622.0,0.0019587356365717845
1621.0,0.0020023635919956817
1620.0,0.0020459959305969555
1619.0,0.002089632653256679
1618.0,0.0021332737608552588
1617.0,0.0021332737608552588
1616.0,0.0021332737608552588
1615.0,0.0021332737608552588
1614.0,0.0021332737608552588
1613.0,0.0021769192542746563
1612.0,0.0021332737608552588
1611.0,0.0021332737608552588
1610.0,0.002089632653256679
1609.0,0.0021332737608552588
1608.0,0.0021769192542746563
1607.0,0.0023078820582733695
1606.0,0.0024388843664115978
1605.0,0.002569926202528716
1604.0,0.0027884171674950053
1603.0,0.0029632891174733444
1602.0,0.0030944893043338695
1601.0,0.0031819781204844855
1600.0,0.0032694845648473247
1599.0,0.0032694845648473247
1598.0,0.0032694845648473247
1597.0,0.0031819781204844855
1596.0,0.0030944893043338695
1595.0,0.0030070181092942683
1594.0,0.0030070181092942683
1593.0,0.0029632891174733444
1592.0,0.0028758443407954637
1591.0,0.0028321285541661467
1590.0,0.0027884171674950053
1589.0,0.0028321285541661467
1588.0,0.0028758443407954637
1587.0,0.0029632891174733444
1586.0,0.0030070181092942683
1585.0,0.0030070181092942683
1584.0,0.0030070181092942683
1583.0,0.0030070181092942683
1582.0,0.0030944893043338695
1581.0,0.0031382315093266833
1580.0,0.0031819781204844855
1579.0,0.0031819781204844855
1578.0,0.0031382315093266833
1577.0,0.003050751504618754
1576.0,0.0029632891174733444
1575.0,0.0029195645282691363
1574.0,0.0028758443407954637
1573.0,0.0028758443407954637
1572.0,0.0028758443407954637
1571.0,0.0028758443407954637
1570.0,0.0029195645282691363
1569.0,0.0029632891174733444
1568.0,0.0029632891174733444
1567.0,0.0029195645282691363
1566.0,0.0028758443407954637
1565.0,0.0027884171674950053
1564.0,0.0027884171674950053
1563.0,0.0027884171674950053
1562.0,0.0028321285541661467
1561.0,0.0027884171674950053
1560.0,0.0027447101798967477
1559.0,0.0027884171674950053
1558.0,0.0027884171674950053
1557.0,0.0028758443407954637
1556.0,0.0029632891174733444
1555.0,0.0030070181092942683
1554.0,0.0029632891174733444
1553.0,0.0029195645282691363
1552.0,0.0028321285541661467
1551.0,0.0027884171674950053
1550.0,0.002701007590486082
1549.0,0.0026573093983774942
1548.0,0.0026573093983774942
1547.0,0.002613615602686581
1546.0,0.002569926202528716
1545.0,0.0025262411970197185
1544.0,0.002569926202528716
1543.0,0.0026573093983774942
1542.0,0.0028758443407954637
1541.0,0.003050751504618754
1540.0,0.0029632891174733444
1539.0,0.002701007590486082
1538.0,0.002569926202528716
1537.0,0.002569926202528716
1536.0,0.002613615602686581
1535.0,0.002701007590486082
1534.0,0.0026573093983774942
1533.0,0.002613615602686581
1532.0,0.002569926202528716
1531.0,0.002613615602686581
1530.0,0.002701007590486082
1529.0,0.0027447101798967477
1528.0,0.0027447101798967477
1527.0,0.002701007590486082
1526.0,0.0026573093983774942
1525.0,0.0026573093983774942
1524.0,0.0026573093983774942
1523.0,0.0026573093983774942
1522.0,0.002613615602686581
1521.0,0.0025262411970197185
1520.0,0.0024388843664115978
1519.0,0.0024388843664115978
1518.0,0.0024388843664115978
1517.0,0.002395212539545666
1516.0,0.002351545103793873
1515.0,0.002351545103793873
1514.0,0.002351545103793873
1513.0,0.002395212539545666
1512.0,0.002395212539545666
1511.0,0.002395212539545666
1510.0,0.002351545103793873
1509.0,0.0023078820582733695
1508.0,0.0023078820582733695
1507.0,0.0022205691343961664
1506.0,0.002089632653256679
1505.0,0.0020459959305969555
1504.0,0.002089632653256679
1503.0,0.002089632653256679
1502.0,0.0020459959305969555
1501.0,0.0020023635919956817
1500.0,0.0020023635919956817
1499.0,0.002089632653256679
1498.0,0.0023078820582733695
1497.0,0.0027447101798967477
1496.0,0.0033570086445275926
1495.0,0.0040578370074493275
1494.0,0.004715892310740433
1493.0,0.005243055412371911
1492.0,0.005638848091999105
1491.0,0.005814871797682919
1490.0,0.005682847330363394
1489.0,0.0052870145684298375
1488.0,0.004803708402820517
1487.0,0.004408675747646695
1486.0,0.004101676353562844
1485.0,0.003926345514724705
1484.0,0.0037510854308679953
1483.0,0.0035758960449088217
1482.0,0.0034007772998332353
1481.0,0.0032694845648473247
1480.0,0.0031819781204844855
1479.0,0.003050751504618754
1478.0,0.0029632891174733444
1477.0,0.0028321285541661467
1476.0,0.0027884171674950053
1475.0,0.0027884171674950053
1474.0,0.0028321285541661467
1473.0,0.0028321285541661467
1472.0,0.0028321285541661467
1471.0,0.002701007590486082
1470.0,0.002613615602686581
1469.0,0.0025262411970197185
1468.0,0.0025262411970197185
1467.0,0.0025262411970197185
1466.0,0.002569926202528716
1465.0,0.0025262411970197185
1464.0,0.0024388843664115978
1463.0,0.002351545103793873
1462.0,0.0023078820582733695
1461.0,0.0023078820582733695
1460.0,0.002395212539545666
1459.0,0.0024388843664115978
1458.0,0.002482560585275184
1457.0,0.0026573093983774942
1456.0,0.003050751504618754
1455.0,0.003619686766589858
1454.0,0.004233220950025984
1453.0,0.00489154225525934
1452.0,0.00537494623139545
1451.0,0.005682847330363394
1450.0,0.00577085918230158
1449.0,0.005726851026829571
1448.0,0.005638848091999105
1447.0,0.005550862985963967
1446.0,0.005462895701502157
1445.0,0.00541891874010525
1444.0,0.005330978174470591
1443.0,0.005243055412371911
1442.0,0.005155150446602086
1441.0,0.005067263269958211
1440.0,0.005023326350308999
1439.0,0.004935465843858511
1438.0,0.00484762310854614
1437.0,0.004671990922590297
1436.0,0.004540313378935901
1435.0,0.004452550524862486
1434.0,0.0043648054024501
1433.0,0.004320939488377862
1432.0,0.004233220950025984
1431.0,0.004101676353562844
1430.0,0.003970171588923321
1429.0,0.0038387066319929275
1428.0,0.0037510854308679953
1427.0,0.0036634819042162814
1426.0,0.0036634819042162814
1425.0,0.0035758960449088217
1424.0,0.003488327845821315
1423.0,0.0034007772998332353
1422.0,0.0032694845648473247
1421.0,0.0031382315093266833
1420.0,0.0029632891174733444
1419.0,0.0027884171674950053
1418.0,0.0026573093983774942
1417.0,0.002569926202528716
1416.0,0.0025262411970197185
1415.0,0.0024388843664115978
1414.0,0.002351545103793873
1413.0,0.0022642234021015284
1412.0,0.002089632653256679
1411.0,0.0018714928717336043
1410.0,0.0017406615763013722
1409.0,0.0016534626036355249
1408.0,0.001609869681952425
1407.0,0.001609869681952425
1406.0,0.001609869681952425
1405.0,0.001609869681952425
1404.0,0.0016970599014589638
1403.0,0.0017406615763013722
1402.0,0.0018278780605593958
1401.0,0.0019587356365717845
1400.0,0.002089632653256679
1399.0,0.0022205691343961664
1398.0,0.0022642234021015284
1397.0,0.0021332737608552588
1396.0,0.0018714928717336043
1395.0,0.0015662811355310335
1394.0,0.0013919706849057079
1393.0,0.0014791171649619628
1392.0,0.0016970599014589638
1391.0,0.001915112063444413
1390.0,0.0020459959305969555
1389.0,0.0021332737608552588
1388.0,0.0021769192542746563
1387.0,0.0021769192542746563
1386.0,0.0021769192542746563
1385.0,0.0021332737608552588
1384.0,0.0021332737608552588
1383.0,0.0021769192542746563
1382.0,0.0022205691343961664
1381.0,0.0022642234021015284
1380.0,0.002351545103793873
1379.0,0.002395212539545666
1378.0,0.002482560585275184
1377.0,0.002569926202528716
1376.0,0.002701007590486082
1375.0,0.0028758443407954637
1374.0,0.0030070181092942683
1373.0,0.0030944893043338695
1372.0,0.0032257291386954545
1371.0,0.0033570086445275926
1370.0,0.003488327845821315
1369.0,0.0035758960449088217
1368.0,0.003619686766589858
1367.0,0.003619686766589858
1366.0,0.003619686766589858
1365.0,0.003619686766589858
1364.0,0.0036634819042162814
1363.0,0.003794893821675638
1362.0,0.003970171588923321
1361.0,0.004145520125434121
1360.0,0.004233220950025984
1359.0,0.004277078004534696
1358.0,0.004233220950025984
1357.0,0.004233220950025984
1356.0,0.004189368323957332
1355.0,0.004277078004534696
1354.0,0.0043648054024501
1353.0,0.004452550524862486
1352.0,0.004540313378935901
1351.0,0.004540313378935901
1350.0,0.004540313378935901
1349.0,0.0044964297349936455
1348.0,0.0044964297349936455
1347.0,0.004540313378935901
1346.0,0.00458420145758498
1345.0,0.00458420145758498
1344.0,0.00458420145758498
1343.0,0.00458420145758498
1342.0,0.004540313378935901
1341.0,0.004540313378935901
1340.0,0.004540313378935901
1339.0,0.00458420145758498
1338.0,0.004540313378935901
1337.0,0.004540313378935901
1336.0,0.0044964297349936455
1335.0,0.004540313378935901
1334.0,0.00458420145758498
1333.0,0.004628093971837721
1332.0,0.004671990922590297
1331.0,0.004715892310740433
1330.0,0.004803708402820517
1329.0,0.00489154225525934
1328.0,0.004935465843858511
1327.0,0.004935465843858511
1326.0,0.004935465843858511
1325.0,0.004979393875242044
1324.0,0.004979393875242044
1323.0,0.004979393875242044
1322.0,0.004979393875242044
1321.0,0.004979393875242044
1320.0,0.005023326350308999
1319.0,0.005023326350308999
1318.0,0.005023326350308999
1317.0,0.005067263269958211
1316.0,0.005067263269958211
1315.0,0.005111204635089406
1314.0,0.005111204635089406
1313.0,0.005155150446602086
1312.0,0.005199100705396198
1311.0,0.005199100705396198
1310.0,0.005155150446602086
1309.0,0.005111204635089406
1308.0,0.005111204635089406
1307.0,0.005155150446602086
1306.0,0.005199100705396198
1305.0,0.005243055412371911
1304.0,0.0052870145684298375
1303.0,0.0052870145684298375
1302.0,0.0052870145684298375
1301.0,0.005199100705396198
1300.0,0.005111204635089406
1299.0,0.005023326350308999
1298.0,0.004935465843858511
1297.0,0.004935465843858511
1296.0,0.004979393875242044
1295.0,0.005067263269958211
1294.0,0.005067263269958211
1293.0,0.005023326350308999
1292.0,0.004979393875242044
1291.0,0.004935465843858511
1290.0,0.00489154225525934
1289.0,0.00484762310854614
1288.0,0.00484762310854614
1287.0,0.00484762310854614
1286.0,0.00489154225525934
1285.0,0.004935465843858511
1284.0,0.004979393875242044
1283.0,0.004979393875242044
1282.0,0.004979393875242044
1281.0,0.005023326350308999
1280.0,0.005023326350308999
1279.0,0.005023326350308999
1278.0,0.004935465843858511
1277.0,0.004803708402820517
1276.0,0.004715892310740433
1275.0,0.004715892310740433
1274.0,0.004671990922590297
1273.0,0.004671990922590297
1272.0,0.004628093971837721
1271.0,0.00458420145758498
1270.0,0.004540313378935901
1269.0,0.0044964297349936455
1268.0,0.004408675747646695
1267.0,0.004320939488377862
1266.0,0.004233220950025984
1265.0,0.004145520125434121
1264.0,0.004101676353562844
1263.0,0.004101676353562844
1262.0,0.004101676353562844
1261.0,0.00401400208620073
1260.0,0.003926345514724705
1259.0,0.0038387066319929275
1258.0,0.003794893821675638
1257.0,0.003707281458678491
1256.0,0.003619686766589858
1255.0,0.0035321097382827737
1254.0,0.003488327845821315
1253.0,0.003488327845821315
1252.0,0.003488327845821315
1251.0,0.0035321097382827737
1250.0,0.0035758960449088217
1249.0,0.0036634819042162814
1248.0,0.003794893821675638
1247.0,0.003926345514724705
1246.0,0.003970171588923321
1245.0,0.003970171588923321
1244.0,0.003926345514724705
1243.0,0.0038387066319929275
1242.0,0.003794893821675638
1241.0,0.003794893821675638
1240.0,0.0038825238627120395
1239.0,0.00401400208620073
1238.0,0.004101676353562844
1237.0,0.004101676353562844
1236.0,0.00401400208620073
1235.0,0.003926345514724705
1234.0,0.0038825238627120395
1233.0,0.0038387066319929275
1232.0,0.003794893821675638
1231.0,0.003794893821675638
1230.0,0.003794893821675638
1229.0,0.0037510854308679953
1228.0,0.0037510854308679953
1227.0,0.003794893821675638
1226.0,0.0038825238627120395
1225.0,0.003970171588923321
1224.0,0.0040578370074493275
1223.0,0.004101676353562844
1222.0,0.004101676353562844
1221.0,0.004101676353562844
1220.0,0.004145520125434121
1219.0,0.004189368323957332
1218.0,0.004233220950025984
1217.0,0.004320939488377862
1216.0,0.004452550524862486
1215.0,0.004540313378935901
1214.0,0.00458420145758498
1213.0,0.004628093971837721
1212.0,0.004715892310740433
1211.0,0.004803708402820517
1210.0,0.00489154225525934
1209.0,0.00489154225525934
1208.0,0.00489154225525934
1207.0,0.004935465843858511
1206.0,0.004979393875242044
1205.0,0.005023326350308999
1204.0,0.005111204635089406
1203.0,0.005243055412371911
1202.0,0.0052870145684298375
1201.0,0.005330978174470591
1200.0,0.005330978174470591
1199.0,0.00537494623139545
1198.0,0.005462895701502157
1197.0,0.005550862985963967
1196.0,0.005594853310833647
1195.0,0.005638848091999105
1194.0,0.005638848091999105
1193.0,0.005638848091999105
1192.0,0.005594853310833647
1191.0,0.005594853310833647
1190.0,0.005594853310833647
1189.0,0.005638848091999105
1188.0,0.005726851026829571
1187.0,0.00590291041179003
1186.0,0.006035001804881146
1185.0,0.00621118618129457
1184.0,0.006299305179649828
1183.0,0.006343371384537999
1182.0,0.006387442061109638
1181.0,0.006431517210272464
1180.0,0.006519680930003435
1179.0,0.00656376950238835
1178.0,0.00656376950238835
1177.0,0.006519680930003435
1176.0,0.006475596832934416
1175.0,0.006387442061109638
1174.0,0.006299305179649828
1173.0,0.00621118618129457
1172.0,0.00612308505878878
1171.0,0.006079041198713275
1170.0,0.006079041198713275
1169.0,0.00612308505878878
1168.0,0.00612308505878878
1167.0,0.00612308505878878
1166.0,0.00612308505878878
1165.0,0.00612308505878878
1164.0,0.00612308505878878
1163.0,0.006167133386013823
1162.0,0.006167133386013823
1161.0,0.006167133386013823
1160.0,0.00621118618129457
1159.0,0.006343371384537999
1158.0,0.006431517210272464
1157.0,0.006607862550997545
1156.0,0.006740168563263094
1155.0,0.006872514894289861
1154.0,0.007004901568658406
1153.0,0.007049039429553483
1152.0,0.007004901568658406
1151.0,0.006872514894289861
1150.0,0.006696062080525422
1149.0,0.006519680930003435
1148.0,0.006431517210272464
1147.0,0.006387442061109638
1146.0,0.006431517210272464
1145.0,0.006431517210272464
1144.0,0.006343371384537999
1143.0,0.00625524344553785
1142.0,0.00621118618129457
1141.0,0.006167133386013823
1140.0,0.006167133386013823
1139.0,0.00621118618129457
1138.0,0.00625524344553785
1137.0,0.00621118618129457
1136.0,0.006167133386013823
1135.0,0.00612308505878878
1134.0,0.006079041198713275
1133.0,0.006079041198713275
1132.0,0.006079041198713275
1131.0,0.006035001804881146
1130.0,0.005990966876386672
1129.0,0.005946936412324799
1128.0,0.005946936412324799
1127.0,0.005990966876386672
1126.0,0.006035001804881146
1125.0,0.006035001804881146
1124.0,0.006035001804881146
1123.0,0.005990966876386672
1122.0,0.00590291041179003
1121.0,0.005858888873877532
1120.0,0.00577085918230158
1119.0,0.005682847330363394
1118.0,0.005550862985963967
1117.0,0.005462895701502157
1116.0,0.00541891874010525
1115.0,0.00537494623139545
1114.0,0.005330978174470591
1113.0,0.005330978174470591
1112.0,0.005243055412371911
1111.0,0.005111204635089406
1110.0,0.004979393875242044
1109.0,0.00484762310854614
1108.0,0.004803708402820517
1107.0,0.004759798137184523
1106.0,0.004715892310740433
1105.0,0.004671990922590297
1104.0,0.004671990922590297
1103.0,0.004671990922590297
1102.0,0.004671990922590297
1101.0,0.00458420145758498
1100.0,0.0044964297349936455
1099.0,0.0043648054024501
1098.0,0.004233220950025984
1097.0,0.004101676353562844
1096.0,0.003970171588923321
1095.0,0.0038825238627120395
1094.0,0.0037510854308679953
1093.0,0.0035758960449088217
1092.0,0.0033132443998284966
1091.0,0.0030070181092942683
1090.0,0.002701007590486082
1089.0,0.002482560585275184
1088.0,0.002351545103793873
1087.0,0.0022205691343961664
1086.0,0.0020023635919956817
1085.0,0.0016534626036355249
1084.0,0.0012612837441823288
1083.0,0.000869458712629001
1082.0,0.000521466320689834
1081.0,0.00030411258916074324
1080.0,0.00017375254558760211
1079.0,4.343161980746579e-05
1078.0,-4.3427276862573194e-05
1077.0,-8.685021164911433e-05
1076.0,-4.3427276862573194e-05
1075.0,0.0001303078917322953
1074.0,0.00030411258916074324
1073.0,0.000521466320689834
1072.0,0.0007389288868995258
1071.0,0.0009565003968372565
1070.0,0.0010000277816797354
1069.0,0.000869458712629001
1068.0,0.0005649501236701937
1067.0,0.0003475746339209884
1066.0,0.0003910410285830057
1065.0,0.0007389288868995258
1064.0,0.0012177301682640973
1063.0,0.001609869681952425
1062.0,0.0016970599014589638
1061.0,0.0015662811355310335
1060.0,0.0011741809597138886
1059.0,0.0007824344698965646
1058.0,0.0004779868710962365
1057.0,0.0004779868710962365
1056.0,0.0006084382809090627
1055.0,0.0007824344698965646
1054.0,0.0007389288868995258
1053.0,0.0006084382809090627
1052.0,0.00043451177401765406
1051.0,0.0003475746339209884
1050.0,0.00026065489343207737
1049.0,0.00026065489343207737
1048.0,0.0003475746339209884
1047.0,0.0004779868710962365
1046.0,0.0006519307932786322
1045.0,0.0007824344698965646
1044.0,0.0009129773741116676
1043.0,0.0010435595295137379
1042.0,0.0011306361176557367
1041.0,0.0011741809597138886
1040.0,0.0011741809597138886
1039.0,0.0012177301682640973
1038.0,0.001348404001626502
1037.0,0.0016534626036355249
1036.0,0.0021332737608552588
1035.0,0.0027447101798967477
1034.0,0.0034007772998332353
1033.0,0.004189368323957332
1032.0,0.004979393875242044
1031.0,0.005594853310833647
1030.0,0.005946936412324799
1029.0,0.006079041198713275
1028.0,0.006167133386013823
1027.0,0.006343371384537999
1026.0,0.006607862550997545
1025.0,0.006872514894289861
1024.0,0.00696076819309055
1023.0,0.006916639301937977
1022.0,0.006872514894289861
1021.0,0.006828394969235152
1020.0,0.006828394969235152
1019.0,0.006916639301937977
1018.0,0.006916639301937977
1017.0,0.006872514894289861
1016.0,0.006740168563263094
1015.0,0.006607862550997545
1014.0,0.00656376950238835
1013.0,0.00656376950238835
1012.0,0.006696062080525422
1011.0,0.006784279525863024
1010.0,0.006872514894289861
1009.0,0.00696076819309055
1008.0,0.007004901568658406
1007.0,0.007137328610972382
1006.0,0.007358130121602358
1005.0,0.0075790439479759275
1004.0,0.007800070204414977
1003.0,0.007976972236149349
1002.0,0.008109696063975047
1001.0,0.008242460465651913
1000.0,0.008330992620051436
999.0,0.008419542825660153
998.0,0.008463824699968647
997.0,0.00850811108984062
996.0,0.00850811108984062
995.0,0.00850811108984062
994.0,0.008463824699968647
993.0,0.008419542825660153
992.0,0.008375265465994541
991.0,0.008375265465994541
990.0,0.008375265465994541
989.0,0.008419542825660153
988.0,0.00850811108984062
987.0,0.008552401996197112
986.0,0.00850811108984062
985.0,0.008463824699968647
984.0,0.008463824699968647
983.0,0.008552401996197112
982.0,0.008640997362049818
981.0,0.0087296108049002
980.0,0.0087296108049002
979.0,0.008773924307505121
978.0,0.008862564879688284
977.0,0.008862564879688284
976.0,0.008773924307505121
975.0,0.008640997362049818
974.0,0.00850811108984062
973.0,0.008463824699968647
972.0,0.00850811108984062
971.0,0.008552401996197112
970.0,0.008596697419959609
969.0,0.008596697419959609
968.0,0.008596697419959609
967.0,0.008640997362049818
966.0,0.008685301823389224
965.0,0.008685301823389224
964.0,0.008685301823389224
963.0,0.0087296108049002
962.0,0.008773924307505121
961.0,0.008862564879688284
960.0,0.008951223547323472
959.0,0.008906891951112605
958.0,0.008862564879688284
957.0,0.008773924307505121
956.0,0.0087296108049002
955.0,0.008640997362049818
954.0,0.00850811108984062
953.0,0.008463824699968647
952.0,0.008463824699968647
951.0,0.008552401996197112
950.0,0.008685301823389224
949.0,0.008773924307505121
948.0,0.008818242332126802
947.0,0.008862564879688284
946.0,0.008862564879688284
945.0,0.008818242332126802
944.0,0.008818242332126802
943.0,0.008862564879688284
942.0,0.008951223547323472
941.0,0.008995559669244813
940.0,0.009039900317800775
939.0,0.00908424549391551
938.0,0.009128595198514056
937.0,0.009128595198514056
936.0,0.009128595198514056
935.0,0.009172949432521227
934.0,0.009172949432521227
933.0,0.009172949432521227
932.0,0.009128595198514056
931.0,0.008995559669244813
930.0,0.008906891951112605
929.0,0.008818242332126802
928.0,0.0087296108049002
927.0,0.008685301823389224
926.0,0.008640997362049818
925.0,0.008640997362049818
924.0,0.008640997362049818
923.0,0.008685301823389224
922.0,0.008685301823389224
921.0,0.008640997362049818
920.0,0.008596697419959609
919.0,0.008552401996197112
918.0,0.008463824699968647
917.0,0.008463824699968647
916.0,0.008463824699968647
915.0,0.008552401996197112
914.0,0.0087296108049002
913.0,0.008951223547323472
912.0,0.009217308196862062
911.0,0.009439170005980158
910.0,0.009572341514736404
909.0,0.009705553871561357
908.0,0.009883233932095559
907.0,0.010060986715464404
906.0,0.01023881228122181
905.0,0.01037222925484893
904.0,0.01037222925484893
903.0,0.01023881228122181
902.0,0.01001654169860089
901.0,0.009705553871561357
900.0,0.009439170005980158
899.0,0.009306039320248427
898.0,0.009261671492462709
897.0,0.009172949432521227
896.0,0.008951223547323472
895.0,0.0087296108049002
894.0,0.00850811108984062
893.0,0.008375265465994541
892.0,0.008375265465994541
891.0,0.008419542825660153
890.0,0.008552401996197112
889.0,0.008685301823389224
888.0,0.008818242332126802
887.0,0.008862564879688284
886.0,0.008818242332126802
885.0,0.0087296108049002
884.0,0.008596697419959609
883.0,0.008419542825660153
882.0,0.008286724286910463
881.0,0.008242460465651913
880.0,0.008286724286910463
879.0,0.008419542825660153
878.0,0.008596697419959609
877.0,0.0087296108049002
876.0,0.008773924307505121
875.0,0.0087296108049002
874.0,0.008685301823389224
873.0,0.008640997362049818
872.0,0.008596697419959609
871.0,0.008552401996197112
870.0,0.008463824699968647
869.0,0.008375265465994541
868.0,0.008242460465651913
867.0,0.008198201155356077
866.0,0.008198201155356077
865.0,0.008198201155356077
864.0,0.008330992620051436
863.0,0.00850811108984062
862.0,0.008773924307505121
861.0,0.008951223547323472
860.0,0.009039900317800775
859.0,0.009039900317800775
858.0,0.009039900317800775
857.0,0.008951223547323472
856.0,0.008906891951112605
855.0,0.008906891951112605
854.0,0.008906891951112605
853.0,0.008906891951112605
852.0,0.008906891951112605
851.0,0.008862564879688284
850.0,0.008862564879688284
849.0,0.008951223547323472
848.0,0.009128595198514056
847.0,0.00939478857608056
846.0,0.00966114521239847
845.0,0.009883233932095559
844.0,0.01001654169860089
843.0,0.010105436281226954
842.0,0.010194349063173958
841.0,0.010194349063173958
840.0,0.010105436281226954
839.0,0.009972101229705377
838.0,0.009883233932095559
837.0,0.009838807101520963
836.0,0.009838807101520963
835.0,0.009794384815193347
834.0,0.009527946474380489
833.0,0.009128595198514056
832.0,0.008773924307505121
831.0,0.008685301823389224
830.0,0.008862564879688284
829.0,0.00908424549391551
828.0,0.009172949432521227
827.0,0.009172949432521227
826.0,0.009172949432521227
825.0,0.009306039320248427
824.0,0.00939478857608056
823.0,0.009350411681145587
822.0,0.009128595198514056
821.0,0.008862564879688284
820.0,0.0087296108049002
819.0,0.008818242332126802
818.0,0.009039900317800775
817.0,0.009128595198514056
816.0,0.00908424549391551
815.0,0.008995559669244813
814.0,0.008995559669244813
813.0,0.009039900317800775
812.0,0.009128595198514056
811.0,0.009128595198514056
810.0,0.008995559669244813
809.0,0.008818242332126802
808.0,0.008685301823389224
807.0,0.0087296108049002
806.0,0.008906891951112605
805.0,0.00908424549391551
804.0,0.009039900317800775
803.0,0.008818242332126802
802.0,0.008596697419959609
801.0,0.008463824699968647
800.0,0.00850811108984062
799.0,0.008552401996197112
798.0,0.008552401996197112
797.0,0.008330992620051436
796.0,0.008021209005416363
795.0,0.007755855953228474
794.0,0.007667440952535687
793.0,0.007800070204414977
792.0,0.008021209005416363
791.0,0.008375265465994541
790.0,0.008640997362049818
789.0,0.008818242332126802
788.0,0.008773924307505121
787.0,0.008552401996197112
786.0,0.008330992620051436
785.0,0.008198201155356077
784.0,0.008198201155356077
783.0,0.008242460465651913
782.0,0.008286724286910463
781.0,0.008419542825660153
780.0,0.008773924307505121
779.0,0.009306039320248427
778.0,0.009883233932095559
777.0,0.010505687227290839
776.0,0.011084479487313281
775.0,0.011664044143949504
774.0,0.012244383261476699
773.0,0.012736045877764557
772.0,0.01322826573375524
771.0,0.01385553528947936
770.0,0.014708281407112
769.0,0.015832872853011715
768.0,0.017141057687924732
767.0,0.01845319495476394
766.0,0.01949668180660491
765.0,0.020087589665283012
764.0,0.020497151212598652
763.0,0.021043834782408455
762.0,0.02204787879853809
761.0,0.02342078135989012
760.0,0.02498200236711723
759.0,0.026271941311972746
758.0,0.027195677663422346
757.0,0.027797161620935595
756.0,0.028167720075074953
755.0,0.02839947976994095
754.0,0.028538594975413334
753.0,0.02858497661500481
752.0,0.028816959143838528
751.0,0.029374223311705583
750.0,0.030164906924202484
749.0,0.030863766403287585
748.0,0.031236951802751545
747.0,0.031236951802751545
746.0,0.030910397045078586
745.0,0.030351159519274695
744.0,0.02942069428514915
743.0,0.028214062120885508
742.0,0.027010773144651168
741.0,0.026087429580295085
740.0,0.02539620791296726
739.0,0.024660115394541604
738.0,0.02365002099672653
737.0,0.022322112326006227
736.0,0.020724852408976924
735.0,0.0190880622231564
734.0,0.017638298366853045
733.0,0.016418813294209356
732.0,0.015427684378367834
731.0,0.0144837121472845
730.0,0.013631406429727155
729.0,0.013004460275618523
728.0,0.012512493866907004
727.0,0.012065734767841452
726.0,0.011530229790124524
725.0,0.010906307389674463
724.0,0.01023881228122181
723.0,0.00966114521239847
722.0,0.009217308196862062
721.0,0.008862564879688284
720.0,0.008463824699968647
719.0,0.007976972236149349
718.0,0.007534852191956709
717.0,0.007402303897961815
716.0,0.0075790439479759275
715.0,0.007800070204414977
714.0,0.007976972236149349
713.0,0.008109696063975047
712.0,0.008330992620051436
711.0,0.008818242332126802
710.0,0.009883233932095559
709.0,0.011664044143949504
708.0,0.014349026309051105
707.0,0.017909760704207134
706.0,0.022230681908425698
705.0,0.027288159452933503
704.0,0.0332483359486222
703.0,0.04014804520039483
702.0,0.047691990337874746
701.0,0.05531996611868961
700.0,0.06253226035662252
699.0,0.06925467168888666
698.0,0.07566901529132153
697.0,0.08170748724464438
696.0,0.08639805027084257
695.0,0.08862929288386212
694.0,0.08788427092114603
693.0,0.08486409337798806
692.0,0.08055578953476306
691.0,0.07546228222451012
690.0,0.06986635415888243
689.0,0.06429125215733666
688.0,0.05948351506743288
687.0,0.05561604235915585
686.0,0.052468254304406825
685.0,0.04953778109440221
684.0,0.046143701775014145
683.0,0.04224908912272074
682.0,0.03857890593355173
681.0,0.03616496929785207
680.0,0.035363296211498474
679.0,0.035693217696063595
678.0,0.03616496929785207
677.0,0.03616496929785207
676.0,0.035646070707806565
675.0,0.03484535401307465
674.0,0.03409308450480819
673.0,0.03362357691107709
672.0,0.033154576345083564
671.0,0.03226486821611996
670.0,0.03067729388779794
669.0,0.02904906565457588
668.0,0.027889771597169544
667.0,0.02710321556345563
666.0,0.02677975314776626
665.0,0.026595025589939425
664.0,0.026225806029419818
663.0,0.025810808881832736
662.0,0.025764722556973707
661.0,0.026271941311972746
660.0,0.02710321556345563
659.0,0.027612000892527133
658.0,0.02724191609646076
657.0,0.02617967564731627
656.0,0.025074013910237447
655.0,0.024338466818941473
654.0,0.023879381700184332
653.0,0.02355831062115543
652.0,0.023283295636617574
651.0,0.023100049017062307
650.0,0.023054249440757957
649.0,0.02282532397981263
648.0,0.022367834754000393
647.0,0.021636852916117055
646.0,0.02081596632558158
645.0,0.02026956933771462
644.0,0.02013307743509718
643.0,0.020542681902151694
642.0,0.02122621566987748
641.0,0.021819483062586187
640.0,0.022139270735302752
639.0,0.022139270735302752
638.0,0.021910826943857264
637.0,0.021545566634771474
636.0,0.021317434843055594
635.0,0.021636852916117055
634.0,0.02282532397981263
633.0,0.024798037742147727
632.0,0.026733563891471412
631.0,0.027750864037404455
630.0,0.027797161620935595
629.0,0.027565723042634938
628.0,0.027334407733889066
627.0,0.026733563891471412
626.0,0.025488307262671706
625.0,0.023741750742954926
624.0,0.0221849739168134
623.0,0.021499930688540836
622.0,0.021819483062586187
621.0,0.02291687968414724
620.0,0.024154774532432866
619.0,0.02516604495145991
618.0,0.025764722556973707
617.0,0.025902996205869
616.0,0.02562649291857677
615.0,0.02498200236711723
614.0,0.02438440203310499
613.0,0.024200690320592466
612.0,0.024430342106337877
611.0,0.024568191490736968
610.0,0.024154774532432866
609.0,0.02314585342378117
608.0,0.021910826943857264
607.0,0.0209982515252789
606.0,0.02067930261797568
605.0,0.02081596632558158
604.0,0.021043834782408455
603.0,0.021089422824428272
602.0,0.021135015652343103
601.0,0.021499930688540836
600.0,0.021956506090037076
