cm-1,A
4000.0,0.0025262411970197185
3999.0,0.002569926202528716
3998.0,0.002613615602686581
3997.0,0.0026573093983774942
3996.0,0.002701007590486082
3995.0,0.0027447101798967477
3994.0,0.0028321285541661467
3993.0,0.0029195645282691363
3992.0,0.0029632891174733444
3991.0,0.0029195645282691363
3990.0,0.0028321285541661467
3989.0,0.0027884171674950053
3988.0,0.0028321285541661467
3987.0,0.0029195645282691363
3986.0,0.0029195645282691363
3985.0,0.0028758443407954637
3984.0,0.0027884171674950053
3983.0,0.0026573093983774942
3982.0,0.002569926202528716
3981.0,0.0025262411970197185
3980.0,0.0025262411970197185
3979.0,0.0025262411970197185
3978.0,0.002482560585275184
3977.0,0.002395212539545666
3976.0,0.0023078820582733695
3975.0,0.0022205691343961664
3974.0,0.0021769192542746563
3973.0,0.0021769192542746563
3972.0,0.0022205691343961664
3971.0,0.0022642234021015284
3970.0,0.002351545103793873
3969.0,0.002351545103793873
3968.0,0.002395212539545666
3967.0,0.002395212539545666
3966.0,0.002482560585275184
3965.0,0.0025262411970197185
3964.0,0.002613615602686581
3963.0,0.002613615602686581
3962.0,0.002569926202528716
3961.0,0.002482560585275184
3960.0,0.0024388843664115978
3959.0,0.002482560585275184
3958.0,0.0025262411970197185
3957.0,0.002569926202528716
3956.0,0.0025262411970197185
3955.0,0.0024388843664115978
3954.0,0.0022642234021015284
3953.0,0.002089632653256679
3952.0,0.0020023635919956817
3951.0,0.0020023635919956817
3950.0,0.0021769192542746563
3949.0,0.002395212539545666
3948.0,0.002701007590486082
3947.0,0.0029195645282691363
3946.0,0.0030070181092942683
3945.0,0.0029195645282691363
3944.0,0.0027447101798967477
3943.0,0.002569926202528716
3942.0,0.0024388843664115978
3941.0,0.002351545103793873
3940.0,0.0023078820582733695
3939.0,0.0023078820582733695
3938.0,0.0023078820582733695
3937.0,0.002351545103793873
3936.0,0.002395212539545666
3935.0,0.002482560585275184
3934.0,0.002569926202528716
3933.0,0.0026573093983774942
3932.0,0.0027447101798967477
3931.0,0.0028321285541661467
3930.0,0.0028321285541661467
3929.0,0.0028758443407954637
3928.0,0.0028758443407954637
3927.0,0.0028321285541661467
3926.0,0.0027447101798967477
3925.0,0.002613615602686581
3924.0,0.002482560585275184
3923.0,0.002395212539545666
3922.0,0.0023078820582733695
3921.0,0.0023078820582733695
3920.0,0.002351545103793873
3919.0,0.0024388843664115978
3918.0,0.002569926202528716
3917.0,0.002613615602686581
3916.0,0.0026573093983774942
3915.0,0.002701007590486082
3914.0,0.0027447101798967477
3913.0,0.0027884171674950053
3912.0,0.0027884171674950053
3911.0,0.0028321285541661467
3910.0,0.0028321285541661467
3909.0,0.0027447101798967477
3908.0,0.002482560585275184
3907.0,0.0022642234021015284
3906.0,0.002089632653256679
3905.0,0.002089632653256679
3904.0,0.0021332737608552588
3903.0,0.002089632653256679
3902.0,0.0019587356365717845
3901.0,0.0018278780605593958
3900.0,0.0018714928717336043
3899.0,0.0020459959305969555
3898.0,0.0023078820582733695
3897.0,0.002482560585275184
3896.0,0.002613615602686581
3895.0,0.002701007590486082
3894.0,0.002701007590486082
3893.0,0.0026573093983774942
3892.0,0.002569926202528716
3891.0,0.002482560585275184
3890.0,0.002482560585275184
3889.0,0.0025262411970197185
3888.0,0.002569926202528716
3887.0,0.002569926202528716
3886.0,0.002569926202528716
3885.0,0.002701007590486082
3884.0,0.0028321285541661467
3883.0,0.0029195645282691363
3882.0,0.0029195645282691363
3881.0,0.0028758443407954637
3880.0,0.0028321285541661467
3879.0,0.0027884171674950053
3878.0,0.002701007590486082
3877.0,0.002569926202528716
3876.0,0.002395212539545666
3875.0,0.0022205691343961664
3874.0,0.0021332737608552588
3873.0,0.0021332737608552588
3872.0,0.0021332737608552588
3871.0,0.002089632653256679
3870.0,0.002089632653256679
3869.0,0.0021769192542746563
3868.0,0.002351545103793873
3867.0,0.0024388843664115978
3866.0,0.0024388843664115978
3865.0,0.002482560585275184
3864.0,0.002613615602686581
3863.0,0.002701007590486082
3862.0,0.0026573093983774942
3861.0,0.0026573093983774942
3860.0,0.0026573093983774942
3859.0,0.002701007590486082
3858.0,0.0027884171674950053
3857.0,0.0028321285541661467
3856.0,0.002701007590486082
3855.0,0.002395212539545666
3854.0,0.0022642234021015284
3853.0,0.002482560585275184
3852.0,0.0027884171674950053
3851.0,0.0029632891174733444
3850.0,0.0030070181092942683
3849.0,0.0029632891174733444
3848.0,0.0028321285541661467
3847.0,0.002701007590486082
3846.0,0.0025262411970197185
3845.0,0.002395212539545666
3844.0,0.0023078820582733695
3843.0,0.0022642234021015284
3842.0,0.0023078820582733695
3841.0,0.002351545103793873
3840.0,0.0023078820582733695
3839.0,0.0022642234021015284
3838.0,0.0022205691343961664
3837.0,0.0022642234021015284
3836.0,0.002395212539545666
3835.0,0.0025262411970197185
3834.0,0.002569926202528716
3833.0,0.002482560585275184
3832.0,0.002351545103793873
3831.0,0.0023078820582733695
3830.0,0.0023078820582733695
3829.0,0.002395212539545666
3828.0,0.0024388843664115978
3827.0,0.002395212539545666
3826.0,0.002351545103793873
3825.0,0.002351545103793873
3824.0,0.0024388843664115978
3823.0,0.002569926202528716
3822.0,0.0027884171674950053
3821.0,0.003050751504618754
3820.0,0.0031819781204844855
3819.0,0.0031382315093266833
3818.0,0.003050751504618754
3817.0,0.0028321285541661467
3816.0,0.0026573093983774942
3815.0,0.002613615602686581
3814.0,0.002613615602686581
3813.0,0.002613615602686581
3812.0,0.002569926202528716
3811.0,0.0025262411970197185
3810.0,0.002613615602686581
3809.0,0.0026573093983774942
3808.0,0.002701007590486082
3807.0,0.0026573093983774942
3806.0,0.0026573093983774942
3805.0,0.0026573093983774942
3804.0,0.002613615602686581
3803.0,0.002569926202528716
3802.0,0.0025262411970197185
3801.0,0.002482560585275184
3800.0,0.002482560585275184
3799.0,0.002482560585275184
3798.0,0.0025262411970197185
3797.0,0.002613615602686581
3796.0,0.0027447101798967477
3795.0,0.0027884171674950053
3794.0,0.0027884171674950053
3793.0,0.0027884171674950053
3792.0,0.0027884171674950053
3791.0,0.0028758443407954637
3790.0,0.0029195645282691363
3789.0,0.0029195645282691363
3788.0,0.0028758443407954637
3787.0,0.0028321285541661467
3786.0,0.0028321285541661467
3785.0,0.0028758443407954637
3784.0,0.0028758443407954637
3783.0,0.0028758443407954637
3782.0,0.0027884171674950053
3781.0,0.0027447101798967477
3780.0,0.002701007590486082
3779.0,0.0027884171674950053
3778.0,0.0029195645282691363
3777.0,0.0030070181092942683
3776.0,0.0030070181092942683
3775.0,0.0029195645282691363
3774.0,0.0028321285541661467
3773.0,0.0026573093983774942
3772.0,0.0024388843664115978
3771.0,0.0022205691343961664
3770.0,0.002089632653256679
3769.0,0.002089632653256679
3768.0,0.0022205691343961664
3767.0,0.002351545103793873
3766.0,0.002569926202528716
3765.0,0.0027884171674950053
3764.0,0.0030070181092942683
3763.0,0.0031819781204844855
3762.0,0.0032257291386954545
3761.0,0.003050751504618754
3760.0,0.0028321285541661467
3759.0,0.002613615602686581
3758.0,0.0024388843664115978
3757.0,0.002351545103793873
3756.0,0.002351545103793873
3755.0,0.002351545103793873
3754.0,0.002351545103793873
3753.0,0.0023078820582733695
3752.0,0.0023078820582733695
3751.0,0.002395212539545666
3750.0,0.0024388843664115978
3749.0,0.002482560585275184
3748.0,0.002569926202528716
3747.0,0.0027447101798967477
3746.0,0.0029195645282691363
3745.0,0.0029632891174733444
3744.0,0.0029632891174733444
3743.0,0.0028321285541661467
3742.0,0.0026573093983774942
3741.0,0.002482560585275184
3740.0,0.002351545103793873
3739.0,0.0022642234021015284
3738.0,0.0021769192542746563
3737.0,0.0021332737608552588
3736.0,0.0022205691343961664
3735.0,0.0023078820582733695
3734.0,0.0023078820582733695
3733.0,0.0022205691343961664
3732.0,0.0021332737608552588
3731.0,0.0021332737608552588
3730.0,0.0021769192542746563
3729.0,0.0022642234021015284
3728.0,0.0023078820582733695
3727.0,0.002351545103793873
3726.0,0.0024388843664115978
3725.0,0.0025262411970197185
3724.0,0.002613615602686581
3723.0,0.0026573093983774942
3722.0,0.0027884171674950053
3721.0,0.0028758443407954637
3720.0,0.0029632891174733444
3719.0,0.0029195645282691363
3718.0,0.0027884171674950053
3717.0,0.002613615602686581
3716.0,0.002395212539545666
3715.0,0.0022205691343961664
3714.0,0.0020459959305969555
3713.0,0.002089632653256679
3712.0,0.002351545103793873
3711.0,0.0027884171674950053
3710.0,0.0030070181092942683
3709.0,0.0030070181092942683
3708.0,0.0028321285541661467
3707.0,0.0026573093983774942
3706.0,0.0025262411970197185
3705.0,0.002482560585275184
3704.0,0.002482560585275184
3703.0,0.0025262411970197185
3702.0,0.002613615602686581
3701.0,0.0026573093983774942
3700.0,0.0026573093983774942
3699.0,0.002569926202528716
3698.0,0.0024388843664115978
3697.0,0.002351545103793873
3696.0,0.0022642234021015284
3695.0,0.0021769192542746563
3694.0,0.002089632653256679
3693.0,0.0020023635919956817
3692.0,0.0019587356365717845
3691.0,0.0020459959305969555
3690.0,0.0021769192542746563
3689.0,0.0022205691343961664
3688.0,0.0021769192542746563
3687.0,0.0022205691343961664
3686.0,0.002351545103793873
3685.0,0.0025262411970197185
3684.0,0.002613615602686581
3683.0,0.002613615602686581
3682.0,0.002613615602686581
3681.0,0.0026573093983774942
3680.0,0.0027447101798967477
3679.0,0.0028321285541661467
3678.0,0.0027884171674950053
3677.0,0.0026573093983774942
3676.0,0.0024388843664115978
3675.0,0.0023078820582733695
3674.0,0.0022642234021015284
3673.0,0.0022642234021015284
3672.0,0.0022642234021015284
3671.0,0.002351545103793873
3670.0,0.002569926202528716
3669.0,0.0028321285541661467
3668.0,0.0029632891174733444
3667.0,0.0029195645282691363
3666.0,0.0028321285541661467
3665.0,0.002701007590486082
3664.0,0.002701007590486082
3663.0,0.0027884171674950053
3662.0,0.0029632891174733444
3661.0,0.003050751504618754
3660.0,0.0031382315093266833
3659.0,0.0032694845648473247
3658.0,0.0033570086445275926
3657.0,0.0034445503666347133
3656.0,0.003488327845821315
3655.0,0.003488327845821315
3654.0,0.0034445503666347133
3653.0,0.0034007772998332353
3652.0,0.0033132443998284966
3651.0,0.0033132443998284966
3650.0,0.0035758960449088217
3649.0,0.003970171588923321
3648.0,0.004145520125434121
3647.0,0.00401400208620073
3646.0,0.0037510854308679953
3645.0,0.0035321097382827737
3644.0,0.0033570086445275926
3643.0,0.0032694845648473247
3642.0,0.0033132443998284966
3641.0,0.0034007772998332353
3640.0,0.0034445503666347133
3639.0,0.003488327845821315
3638.0,0.0035321097382827737
3637.0,0.0035321097382827737
3636.0,0.0035758960449088217
3635.0,0.0035321097382827737
3634.0,0.0035321097382827737
3633.0,0.0035758960449088217
3632.0,0.0036634819042162814
3631.0,0.003619686766589858
3630.0,0.0036634819042162814
3629.0,0.0038387066319929275
3628.0,0.00401400208620073
3627.0,0.0040578370074493275
3626.0,0.00401400208620073
3625.0,0.0038825238627120395
3624.0,0.003794893821675638
3623.0,0.0038387066319929275
3622.0,0.0038825238627120395
3621.0,0.0038825238627120395
3620.0,0.003794893821675638
3619.0,0.003707281458678491
3618.0,0.0036634819042162814
3617.0,0.0036634819042162814
3616.0,0.0036634819042162814
3615.0,0.003619686766589858
3614.0,0.003619686766589858
3613.0,0.0037510854308679953
3612.0,0.003926345514724705
3611.0,0.0040578370074493275
3610.0,0.004189368323957332
3609.0,0.004233220950025984
3608.0,0.004320939488377862
3607.0,0.0043648054024501
3606.0,0.0043648054024501
3605.0,0.004320939488377862
3604.0,0.004233220950025984
3603.0,0.004101676353562844
3602.0,0.0040578370074493275
3601.0,0.0040578370074493275
3600.0,0.0040578370074493275
3599.0,0.003970171588923321
3598.0,0.0038387066319929275
3597.0,0.003707281458678491
3596.0,0.003619686766589858
3595.0,0.003707281458678491
3594.0,0.0038387066319929275
3593.0,0.00401400208620073
3592.0,0.004145520125434121
3591.0,0.004189368323957332
3590.0,0.004101676353562844
3589.0,0.00401400208620073
3588.0,0.003926345514724705
3587.0,0.003970171588923321
3586.0,0.0040578370074493275
3585.0,0.004189368323957332
3584.0,0.004277078004534696
3583.0,0.0043648054024501
3582.0,0.004408675747646695
3581.0,0.0043648054024501
3580.0,0.004320939488377862
3579.0,0.004320939488377862
3578.0,0.0043648054024501
3577.0,0.004452550524862486
3576.0,0.004540313378935901
3575.0,0.00458420145758498
3574.0,0.004540313378935901
3573.0,0.004452550524862486
3572.0,0.004320939488377862
3571.0,0.004189368323957332
3570.0,0.0040578370074493275
3569.0,0.003926345514724705
3568.0,0.0038825238627120395
3567.0,0.00401400208620073
3566.0,0.004233220950025984
3565.0,0.004408675747646695
3564.0,0.004452550524862486
3563.0,0.0044964297349936455
3562.0,0.004540313378935901
3561.0,0.004628093971837721
3560.0,0.004671990922590297
3559.0,0.004671990922590297
3558.0,0.00458420145758498
3557.0,0.004540313378935901
3556.0,0.004540313378935901
3555.0,0.004671990922590297
3554.0,0.00489154225525934
3553.0,0.005067263269958211
3552.0,0.005155150446602086
3551.0,0.005067263269958211
3550.0,0.004935465843858511
3549.0,0.00484762310854614
3548.0,0.004803708402820517
3547.0,0.00489154225525934
3546.0,0.005023326350308999
3545.0,0.005155150446602086
3544.0,0.0052870145684298375
3543.0,0.00537494623139545
3542.0,0.00537494623139545
3541.0,0.0052870145684298375
3540.0,0.005155150446602086
3539.0,0.005067263269958211
3538.0,0.005023326350308999
3537.0,0.005023326350308999
3536.0,0.005067263269958211
3535.0,0.005111204635089406
3534.0,0.005111204635089406
3533.0,0.005111204635089406
3532.0,0.005067263269958211
3531.0,0.004935465843858511
3530.0,0.00489154225525934
3529.0,0.004979393875242044
3528.0,0.005111204635089406
3527.0,0.0052870145684298375
3526.0,0.005506877116487674
3525.0,0.005638848091999105
3524.0,0.005726851026829571
3523.0,0.005726851026829571
3522.0,0.005726851026829571
3521.0,0.005726851026829571
3520.0,0.005726851026829571
3519.0,0.005638848091999105
3518.0,0.005550862985963967
3517.0,0.00541891874010525
3516.0,0.005330978174470591
3515.0,0.0052870145684298375
3514.0,0.005155150446602086
3513.0,0.005023326350308999
3512.0,0.00489154225525934
3511.0,0.00484762310854614
3510.0,0.00484762310854614
3509.0,0.004935465843858511
3508.0,0.004935465843858511
3507.0,0.004935465843858511
3506.0,0.004935465843858511
3505.0,0.004979393875242044
3504.0,0.005111204635089406
3503.0,0.005243055412371911
3502.0,0.0052870145684298375
3501.0,0.0052870145684298375
3500.0,0.005155150446602086
3499.0,0.004935465843858511
3498.0,0.004803708402820517
3497.0,0.004759798137184523
3496.0,0.00489154225525934
3495.0,0.005067263269958211
3494.0,0.005199100705396198
3493.0,0.005199100705396198
3492.0,0.005155150446602086
3491.0,0.005111204635089406
3490.0,0.005111204635089406
3489.0,0.005199100705396198
3488.0,0.005243055412371911
3487.0,0.005243055412371911
3486.0,0.005199100705396198
3485.0,0.005199100705396198
3484.0,0.0052870145684298375
3483.0,0.00537494623139545
3482.0,0.005462895701502157
3481.0,0.005462895701502157
3480.0,0.00537494623139545
3479.0,0.005243055412371911
3478.0,0.005111204635089406
3477.0,0.005067263269958211
3476.0,0.005111204635089406
3475.0,0.005199100705396198
3474.0,0.0052870145684298375
3473.0,0.005330978174470591
3472.0,0.0052870145684298375
3471.0,0.005243055412371911
3470.0,0.0052870145684298375
3469.0,0.00537494623139545
3468.0,0.005550862985963967
3467.0,0.005726851026829571
3466.0,0.00577085918230158
3465.0,0.005726851026829571
3464.0,0.005550862985963967
3463.0,0.00541891874010525
3462.0,0.00541891874010525
3461.0,0.005506877116487674
3460.0,0.005594853310833647
3459.0,0.005638848091999105
3458.0,0.005594853310833647
3457.0,0.005594853310833647
3456.0,0.005638848091999105
3455.0,0.005726851026829571
3454.0,0.00577085918230158
3453.0,0.00577085918230158
3452.0,0.005726851026829571
3451.0,0.005682847330363394
3450.0,0.005682847330363394
3449.0,0.005682847330363394
3448.0,0.005726851026829571
3447.0,0.005814871797682919
3446.0,0.005946936412324799
3445.0,0.006035001804881146
3444.0,0.006079041198713275
3443.0,0.00612308505878878
3442.0,0.00612308505878878
3441.0,0.00612308505878878
3440.0,0.006079041198713275
3439.0,0.005990966876386672
3438.0,0.005990966876386672
3437.0,0.006079041198713275
3436.0,0.006167133386013823
3435.0,0.00625524344553785
3434.0,0.006299305179649828
3433.0,0.006299305179649828
3432.0,0.00625524344553785
3431.0,0.006167133386013823
3430.0,0.006079041198713275
3429.0,0.005990966876386672
3428.0,0.005990966876386672
3427.0,0.006035001804881146
3426.0,0.00612308505878878
3425.0,0.00612308505878878
3424.0,0.00621118618129457
3423.0,0.006299305179649828
3422.0,0.006475596832934416
3421.0,0.006607862550997545
3420.0,0.006651960076740071
3419.0,0.006651960076740071
3418.0,0.006607862550997545
3417.0,0.00656376950238835
3416.0,0.006431517210272464
3415.0,0.00625524344553785
3414.0,0.005990966876386672
3413.0,0.005814871797682919
3412.0,0.00577085918230158
3411.0,0.005858888873877532
3410.0,0.006035001804881146
3409.0,0.006079041198713275
3408.0,0.006035001804881146
3407.0,0.00590291041179003
3406.0,0.00577085918230158
3405.0,0.005726851026829571
3404.0,0.005814871797682919
3403.0,0.005858888873877532
3402.0,0.005858888873877532
3401.0,0.005814871797682919
3400.0,0.00577085918230158
3399.0,0.00577085918230158
3398.0,0.005814871797682919
3397.0,0.00577085918230158
3396.0,0.005726851026829571
3395.0,0.005682847330363394
3394.0,0.005682847330363394
3393.0,0.005726851026829571
3392.0,0.005726851026829571
3391.0,0.005682847330363394
3390.0,0.005506877116487674
3389.0,0.005330978174470591
3388.0,0.005243055412371911
3387.0,0.005330978174470591
3386.0,0.005506877116487674
3385.0,0.005638848091999105
3384.0,0.005682847330363394
3383.0,0.005638848091999105
3382.0,0.005550862985963967
3381.0,0.005506877116487674
3380.0,0.005462895701502157
3379.0,0.005462895701502157
3378.0,0.005506877116487674
3377.0,0.005506877116487674
3376.0,0.005506877116487674
3375.0,0.005506877116487674
3374.0,0.005506877116487674
3373.0,0.005550862985963967
3372.0,0.005594853310833647
3371.0,0.005550862985963967
3370.0,0.005462895701502157
3369.0,0.00537494623139545
3368.0,0.005330978174470591
3367.0,0.005330978174470591
3366.0,0.00541891874010525
3365.0,0.005506877116487674
3364.0,0.005594853310833647
3363.0,0.005726851026829571
3362.0,0.005726851026829571
3361.0,0.005682847330363394
3360.0,0.005550862985963967
3359.0,0.005506877116487674
3358.0,0.005638848091999105
3357.0,0.005858888873877532
3356.0,0.006079041198713275
3355.0,0.00612308505878878
3354.0,0.006079041198713275
3353.0,0.005990966876386672
3352.0,0.005990966876386672
3351.0,0.006079041198713275
3350.0,0.006035001804881146
3349.0,0.00590291041179003
3348.0,0.005638848091999105
3347.0,0.005462895701502157
3346.0,0.005330978174470591
3345.0,0.00537494623139545
3344.0,0.005462895701502157
3343.0,0.005594853310833647
3342.0,0.00577085918230158
3341.0,0.005858888873877532
3340.0,0.005946936412324799
3339.0,0.005858888873877532
3338.0,0.005726851026829571
3337.0,0.005594853310833647
3336.0,0.005550862985963967
3335.0,0.005682847330363394
3334.0,0.00590291041179003
3333.0,0.006079041198713275
3332.0,0.00612308505878878
3331.0,0.006035001804881146
3330.0,0.005814871797682919
3329.0,0.005638848091999105
3328.0,0.005550862985963967
3327.0,0.005550862985963967
3326.0,0.005550862985963967
3325.0,0.005506877116487674
3324.0,0.005506877116487674
3323.0,0.005506877116487674
3322.0,0.005638848091999105
3321.0,0.005814871797682919
3320.0,0.005946936412324799
3319.0,0.005946936412324799
3318.0,0.005858888873877532
3317.0,0.00577085918230158
3316.0,0.005726851026829571
3315.0,0.005726851026829571
3314.0,0.005726851026829571
3313.0,0.005682847330363394
3312.0,0.005594853310833647
3311.0,0.005506877116487674
3310.0,0.00541891874010525
3309.0,0.00537494623139545
3308.0,0.00537494623139545
3307.0,0.00537494623139545
3306.0,0.00541891874010525
3305.0,0.005462895701502157
3304.0,0.005550862985963967
3303.0,0.005594853310833647
3302.0,0.005594853310833647
3301.0,0.005594853310833647
3300.0,0.005682847330363394
3299.0,0.005858888873877532
3298.0,0.006035001804881146
3297.0,0.00612308505878878
3296.0,0.00612308505878878
3295.0,0.005946936412324799
3294.0,0.005814871797682919
3293.0,0.005682847330363394
3292.0,0.005682847330363394
3291.0,0.005638848091999105
3290.0,0.005594853310833647
3289.0,0.005594853310833647
3288.0,0.005594853310833647
3287.0,0.005638848091999105
3286.0,0.005726851026829571
3285.0,0.005814871797682919
3284.0,0.005814871797682919
3283.0,0.005726851026829571
3282.0,0.005594853310833647
3281.0,0.005462895701502157
3280.0,0.005506877116487674
3279.0,0.005594853310833647
3278.0,0.005682847330363394
3277.0,0.005726851026829571
3276.0,0.005814871797682919
3275.0,0.00590291041179003
3274.0,0.006035001804881146
3273.0,0.005990966876386672
3272.0,0.005858888873877532
3271.0,0.005726851026829571
3270.0,0.005638848091999105
3269.0,0.005682847330363394
3268.0,0.00577085918230158
3267.0,0.005814871797682919
3266.0,0.005814871797682919
3265.0,0.00577085918230158
3264.0,0.00577085918230158
3263.0,0.005858888873877532
3262.0,0.005946936412324799
3261.0,0.006079041198713275
3260.0,0.00612308505878878
3259.0,0.00612308505878878
3258.0,0.006035001804881146
3257.0,0.005946936412324799
3256.0,0.005814871797682919
3255.0,0.005682847330363394
3254.0,0.005594853310833647
3253.0,0.005638848091999105
3252.0,0.005726851026829571
3251.0,0.00577085918230158
3250.0,0.00577085918230158
3249.0,0.00577085918230158
3248.0,0.00577085918230158
3247.0,0.005814871797682919
3246.0,0.005858888873877532
3245.0,0.00590291041179003
3244.0,0.005858888873877532
3243.0,0.005726851026829571
3242.0,0.005550862985963967
3241.0,0.00541891874010525
3240.0,0.00537494623139545
3239.0,0.005462895701502157
3238.0,0.005682847330363394
3237.0,0.005858888873877532
3236.0,0.005946936412324799
3235.0,0.005858888873877532
3234.0,0.005638848091999105
3233.0,0.005462895701502157
3232.0,0.0052870145684298375
3231.0,0.005243055412371911
3230.0,0.005243055412371911
3229.0,0.0052870145684298375
3228.0,0.005330978174470591
3227.0,0.00541891874010525
3226.0,0.005462895701502157
3225.0,0.005462895701502157
3224.0,0.00541891874010525
3223.0,0.005462895701502157
3222.0,0.005594853310833647
3221.0,0.00577085918230158
3220.0,0.005946936412324799
3219.0,0.006035001804881146
3218.0,0.005990966876386672
3217.0,0.005858888873877532
3216.0,0.005726851026829571
3215.0,0.005638848091999105
3214.0,0.005594853310833647
3213.0,0.005550862985963967
3212.0,0.005506877116487674
3211.0,0.005462895701502157
3210.0,0.00541891874010525
3209.0,0.005462895701502157
3208.0,0.005506877116487674
3207.0,0.005506877116487674
3206.0,0.005462895701502157
3205.0,0.005462895701502157
3204.0,0.005462895701502157
3203.0,0.005506877116487674
3202.0,0.005550862985963967
3201.0,0.005594853310833647
3200.0,0.005638848091999105
3199.0,0.005638848091999105
3198.0,0.005550862985963967
3197.0,0.005462895701502157
3196.0,0.00541891874010525
3195.0,0.00537494623139545
3194.0,0.00537494623139545
3193.0,0.005330978174470591
3192.0,0.0052870145684298375
3191.0,0.005330978174470591
3190.0,0.005462895701502157
3189.0,0.005594853310833647
3188.0,0.005682847330363394
3187.0,0.005682847330363394
3186.0,0.005594853310833647
3185.0,0.005594853310833647
3184.0,0.005682847330363394
3183.0,0.00577085918230158
3182.0,0.005726851026829571
3181.0,0.005594853310833647
3180.0,0.00541891874010525
3179.0,0.005330978174470591
3178.0,0.00537494623139545
3177.0,0.005462895701502157
3176.0,0.005594853310833647
3175.0,0.005638848091999105
3174.0,0.005682847330363394
3173.0,0.005638848091999105
3172.0,0.005506877116487674
3171.0,0.00537494623139545
3170.0,0.0052870145684298375
3169.0,0.005243055412371911
3168.0,0.005243055412371911
3167.0,0.005243055412371911
3166.0,0.0052870145684298375
3165.0,0.005330978174470591
3164.0,0.00541891874010525
3163.0,0.005506877116487674
3162.0,0.005550862985963967
3161.0,0.005594853310833647
3160.0,0.005638848091999105
3159.0,0.005594853310833647
3158.0,0.005550862985963967
3157.0,0.005506877116487674
3156.0,0.005462895701502157
3155.0,0.00537494623139545
3154.0,0.0052870145684298375
3153.0,0.005243055412371911
3152.0,0.005199100705396198
3151.0,0.0052870145684298375
3150.0,0.00541891874010525
3149.0,0.005506877116487674
3148.0,0.005550862985963967
3147.0,0.005550862985963967
3146.0,0.005462895701502157
3145.0,0.00541891874010525
3144.0,0.00541891874010525
3143.0,0.005506877116487674
3142.0,0.005594853310833647
3141.0,0.005682847330363394
3140.0,0.005726851026829571
3139.0,0.005726851026829571
3138.0,0.00577085918230158
3137.0,0.005814871797682919
3136.0,0.005858888873877532
3135.0,0.005858888873877532
3134.0,0.005858888873877532
3133.0,0.00577085918230158
3132.0,0.005638848091999105
3131.0,0.005550862985963967
3130.0,0.005550862985963967
3129.0,0.005594853310833647
3128.0,0.005638848091999105
3127.0,0.005682847330363394
3126.0,0.005638848091999105
3125.0,0.005550862985963967
3124.0,0.005506877116487674
3123.0,0.005462895701502157
3122.0,0.00541891874010525
3121.0,0.00537494623139545
3120.0,0.005330978174470591
3119.0,0.00537494623139545
3118.0,0.005462895701502157
3117.0,0.005638848091999105
3116.0,0.00577085918230158
3115.0,0.005814871797682919
3114.0,0.005814871797682919
3113.0,0.00577085918230158
3112.0,0.00577085918230158
3111.0,0.005726851026829571
3110.0,0.005726851026829571
3109.0,0.005682847330363394
3108.0,0.005726851026829571
3107.0,0.005858888873877532
3106.0,0.005990966876386672
3105.0,0.00612308505878878
3104.0,0.00625524344553785
3103.0,0.006343371384537999
3102.0,0.006387442061109638
3101.0,0.006343371384537999
3100.0,0.00621118618129457
3099.0,0.006035001804881146
3098.0,0.00590291041179003
3097.0,0.005814871797682919
3096.0,0.005726851026829571
3095.0,0.005726851026829571
3094.0,0.005726851026829571
3093.0,0.005814871797682919
3092.0,0.00590291041179003
3091.0,0.005946936412324799
3090.0,0.005990966876386672
3089.0,0.006079041198713275
3088.0,0.006167133386013823
3087.0,0.006299305179649828
3086.0,0.006343371384537999
3085.0,0.006343371384537999
3084.0,0.006299305179649828
3083.0,0.006299305179649828
3082.0,0.006343371384537999
3081.0,0.006431517210272464
3080.0,0.006519680930003435
3079.0,0.006475596832934416
3078.0,0.006475596832934416
3077.0,0.006431517210272464
3076.0,0.006475596832934416
3075.0,0.006475596832934416
3074.0,0.006475596832934416
3073.0,0.00656376950238835
3072.0,0.006607862550997545
3071.0,0.00656376950238835
3070.0,0.006475596832934416
3069.0,0.006431517210272464
3068.0,0.006519680930003435
3067.0,0.006651960076740071
3066.0,0.006784279525863024
3065.0,0.006784279525863024
3064.0,0.006651960076740071
3063.0,0.006519680930003435
3062.0,0.006387442061109638
3061.0,0.006387442061109638
3060.0,0.006431517210272464
3059.0,0.006519680930003435
3058.0,0.00656376950238835
3057.0,0.00656376950238835
3056.0,0.006519680930003435
3055.0,0.00656376950238835
3054.0,0.006607862550997545
3053.0,0.006651960076740071
3052.0,0.006696062080525422
3051.0,0.006607862550997545
3050.0,0.006431517210272464
3049.0,0.00621118618129457
3048.0,0.005946936412324799
3047.0,0.005814871797682919
3046.0,0.005726851026829571
3045.0,0.005682847330363394
3044.0,0.005638848091999105
3043.0,0.005550862985963967
3042.0,0.005462895701502157
3041.0,0.005330978174470591
3040.0,0.005243055412371911
3039.0,0.005155150446602086
3038.0,0.005067263269958211
3037.0,0.005067263269958211
3036.0,0.005067263269958211
3035.0,0.005155150446602086
3034.0,0.005243055412371911
3033.0,0.005330978174470591
3032.0,0.005330978174470591
3031.0,0.005330978174470591
3030.0,0.005243055412371911
3029.0,0.005155150446602086
3028.0,0.005111204635089406
3027.0,0.005155150446602086
3026.0,0.0052870145684298375
3025.0,0.00537494623139545
3024.0,0.00541891874010525
3023.0,0.00541891874010525
3022.0,0.0052870145684298375
3021.0,0.005067263269958211
3020.0,0.00489154225525934
3019.0,0.004803708402820517
3018.0,0.00484762310854614
3017.0,0.004979393875242044
3016.0,0.005067263269958211
3015.0,0.005067263269958211
3014.0,0.005023326350308999
3013.0,0.004935465843858511
3012.0,0.00489154225525934
3011.0,0.00489154225525934
3010.0,0.00484762310854614
3009.0,0.00484762310854614
3008.0,0.004803708402820517
3007.0,0.004759798137184523
3006.0,0.004759798137184523
3005.0,0.004715892310740433
3004.0,0.004715892310740433
3003.0,0.004628093971837721
3002.0,0.00458420145758498
3001.0,0.00458420145758498
3000.0,0.004628093971837721
2999.0,0.004628093971837721
2998.0,0.00458420145758498
2997.0,0.0044964297349936455
2996.0,0.004408675747646695
2995.0,0.0043648054024501
2994.0,0.004408675747646695
2993.0,0.004408675747646695
2992.0,0.0043648054024501
2991.0,0.004233220950025984
2990.0,0.004145520125434121
2989.0,0.004101676353562844
2988.0,0.004189368323957332
2987.0,0.0043648054024501
2986.0,0.00458420145758498
2985.0,0.004803708402820517
2984.0,0.004935465843858511
2983.0,0.005023326350308999
2982.0,0.005067263269958211
2981.0,0.005155150446602086
2980.0,0.005243055412371911
2979.0,0.005330978174470591
2978.0,0.005462895701502157
2977.0,0.005594853310833647
2976.0,0.005682847330363394
2975.0,0.00577085918230158
2974.0,0.00590291041179003
2973.0,0.006035001804881146
2972.0,0.00625524344553785
2971.0,0.006475596832934416
2970.0,0.006828394969235152
2969.0,0.007225635744644521
2968.0,0.0075790439479759275
2967.0,0.007844288957383316
2966.0,0.008021209005416363
2965.0,0.008198201155356077
2964.0,0.008375265465994541
2963.0,0.008552401996197112
2962.0,0.0087296108049002
2961.0,0.008862564879688284
2960.0,0.008951223547323472
2959.0,0.008995559669244813
2958.0,0.009039900317800775
2957.0,0.008995559669244813
2956.0,0.008995559669244813
2955.0,0.008995559669244813
2954.0,0.008995559669244813
2953.0,0.008995559669244813
2952.0,0.008951223547323472
2951.0,0.008862564879688284
2950.0,0.008685301823389224
2949.0,0.008552401996197112
2948.0,0.008330992620051436
2947.0,0.008109696063975047
2946.0,0.007844288957383316
2945.0,0.0075790439479759275
2944.0,0.007358130121602358
2943.0,0.007093181776687496
2942.0,0.006916639301937977
2941.0,0.006696062080525422
2940.0,0.00656376950238835
2939.0,0.006431517210272464
2938.0,0.006299305179649828
2937.0,0.006167133386013823
2936.0,0.006079041198713275
2935.0,0.005946936412324799
2934.0,0.005814871797682919
2933.0,0.005682847330363394
2932.0,0.005638848091999105
2931.0,0.005638848091999105
2930.0,0.005682847330363394
2929.0,0.005682847330363394
2928.0,0.005638848091999105
2927.0,0.005550862985963967
2926.0,0.005506877116487674
2925.0,0.005550862985963967
2924.0,0.005594853310833647
2923.0,0.005594853310833647
2922.0,0.005506877116487674
2921.0,0.0052870145684298375
2920.0,0.005111204635089406
2919.0,0.005023326350308999
2918.0,0.005067263269958211
2917.0,0.005155150446602086
2916.0,0.005243055412371911
2915.0,0.0052870145684298375
2914.0,0.005243055412371911
2913.0,0.005155150446602086
2912.0,0.005155150446602086
2911.0,0.005199100705396198
2910.0,0.005243055412371911
2909.0,0.005199100705396198
2908.0,0.005111204635089406
2907.0,0.005023326350308999
2906.0,0.004935465843858511
2905.0,0.00489154225525934
2904.0,0.00489154225525934
2903.0,0.00484762310854614
2902.0,0.004803708402820517
2901.0,0.00484762310854614
2900.0,0.005067263269958211
2899.0,0.0052870145684298375
2898.0,0.005506877116487674
2897.0,0.005682847330363394
2896.0,0.00577085918230158
2895.0,0.005814871797682919
2894.0,0.00577085918230158
2893.0,0.005726851026829571
2892.0,0.005638848091999105
2891.0,0.005594853310833647
2890.0,0.005594853310833647
2889.0,0.005638848091999105
2888.0,0.005682847330363394
2887.0,0.005682847330363394
2886.0,0.005726851026829571
2885.0,0.005726851026829571
2884.0,0.00577085918230158
2883.0,0.005858888873877532
2882.0,0.005858888873877532
2881.0,0.005814871797682919
2880.0,0.005682847330363394
2879.0,0.005550862985963967
2878.0,0.005506877116487674
2877.0,0.005594853310833647
2876.0,0.00577085918230158
2875.0,0.005946936412324799
2874.0,0.005990966876386672
2873.0,0.005946936412324799
2872.0,0.005814871797682919
2871.0,0.005682847330363394
2870.0,0.005638848091999105
2869.0,0.005638848091999105
2868.0,0.005682847330363394
2867.0,0.005726851026829571
2866.0,0.00577085918230158
2865.0,0.005814871797682919
2864.0,0.005858888873877532
2863.0,0.005946936412324799
2862.0,0.006035001804881146
2861.0,0.00621118618129457
2860.0,0.006343371384537999
2859.0,0.006431517210272464
2858.0,0.006431517210272464
2857.0,0.006343371384537999
2856.0,0.006299305179649828
2855.0,0.00625524344553785
2854.0,0.00625524344553785
2853.0,0.00621118618129457
2852.0,0.006167133386013823
2851.0,0.00612308505878878
2850.0,0.00612308505878878
2849.0,0.00612308505878878
2848.0,0.006167133386013823
2847.0,0.006167133386013823
2846.0,0.00612308505878878
2845.0,0.006035001804881146
2844.0,0.005990966876386672
2843.0,0.005990966876386672
2842.0,0.006035001804881146
2841.0,0.006035001804881146
2840.0,0.005990966876386672
2839.0,0.005946936412324799
2838.0,0.00590291041179003
2837.0,0.005814871797682919
2836.0,0.005726851026829571
2835.0,0.005638848091999105
2834.0,0.005638848091999105
2833.0,0.005726851026829571
2832.0,0.005814871797682919
2831.0,0.00590291041179003
2830.0,0.005946936412324799
2829.0,0.005946936412324799
2828.0,0.005946936412324799
2827.0,0.005990966876386672
2826.0,0.005990966876386672
2825.0,0.005946936412324799
2824.0,0.005814871797682919
2823.0,0.005726851026829571
2822.0,0.005638848091999105
2821.0,0.005638848091999105
2820.0,0.005682847330363394
2819.0,0.00577085918230158
2818.0,0.00590291041179003
2817.0,0.005990966876386672
2816.0,0.006035001804881146
2815.0,0.006035001804881146
2814.0,0.005990966876386672
2813.0,0.00590291041179003
2812.0,0.005858888873877532
2811.0,0.005814871797682919
2810.0,0.00577085918230158
2809.0,0.005726851026829571
2808.0,0.00577085918230158
2807.0,0.00577085918230158
2806.0,0.00577085918230158
2805.0,0.005726851026829571
2804.0,0.005594853310833647
2803.0,0.005506877116487674
2802.0,0.005462895701502157
2801.0,0.005506877116487674
2800.0,0.005594853310833647
2799.0,0.005726851026829571
2798.0,0.00577085918230158
2797.0,0.005682847330363394
2796.0,0.005550862985963967
2795.0,0.005462895701502157
2794.0,0.00541891874010525
2793.0,0.00541891874010525
2792.0,0.005462895701502157
2791.0,0.005462895701502157
2790.0,0.005462895701502157
2789.0,0.005506877116487674
2788.0,0.005550862985963967
2787.0,0.005550862985963967
2786.0,0.005550862985963967
2785.0,0.005462895701502157
2784.0,0.00537494623139545
2783.0,0.005330978174470591
2782.0,0.005330978174470591
2781.0,0.00541891874010525
2780.0,0.005506877116487674
2779.0,0.005594853310833647
2778.0,0.005638848091999105
2777.0,0.005638848091999105
2776.0,0.005638848091999105
2775.0,0.005594853310833647
2774.0,0.005594853310833647
2773.0,0.005550862985963967
2772.0,0.005550862985963967
2771.0,0.005594853310833647
2770.0,0.005682847330363394
2769.0,0.005682847330363394
2768.0,0.005682847330363394
2767.0,0.005638848091999105
2766.0,0.005594853310833647
2765.0,0.005550862985963967
2764.0,0.005506877116487674
2763.0,0.005550862985963967
2762.0,0.005594853310833647
2761.0,0.005682847330363394
2760.0,0.005726851026829571
2759.0,0.005726851026829571
2758.0,0.005726851026829571
2757.0,0.005726851026829571
2756.0,0.005682847330363394
2755.0,0.005682847330363394
2754.0,0.005638848091999105
2753.0,0.005594853310833647
2752.0,0.005594853310833647
2751.0,0.005594853310833647
2750.0,0.005638848091999105
2749.0,0.005638848091999105
2748.0,0.005594853310833647
2747.0,0.005506877116487674
2746.0,0.00541891874010525
2745.0,0.00537494623139545
2744.0,0.00537494623139545
2743.0,0.005462895701502157
2742.0,0.005462895701502157
2741.0,0.00541891874010525
2740.0,0.005330978174470591
2739.0,0.0052870145684298375
2738.0,0.005330978174470591
2737.0,0.00537494623139545
2736.0,0.005462895701502157
2735.0,0.005506877116487674
2734.0,0.005506877116487674
2733.0,0.005550862985963967
2732.0,0.005506877116487674
2731.0,0.005506877116487674
2730.0,0.00541891874010525
2729.0,0.00541891874010525
2728.0,0.00541891874010525
2727.0,0.00541891874010525
2726.0,0.005462895701502157
2725.0,0.005462895701502157
2724.0,0.005506877116487674
2723.0,0.005550862985963967
2722.0,0.005550862985963967
2721.0,0.005506877116487674
2720.0,0.005462895701502157
2719.0,0.00541891874010525
2718.0,0.00541891874010525
2717.0,0.00537494623139545
2716.0,0.00541891874010525
2715.0,0.00541891874010525
2714.0,0.005462895701502157
2713.0,0.005462895701502157
2712.0,0.005462895701502157
2711.0,0.005462895701502157
2710.0,0.005462895701502157
2709.0,0.005462895701502157
2708.0,0.00541891874010525
2707.0,0.00537494623139545
2706.0,0.005330978174470591
2705.0,0.00537494623139545
2704.0,0.00541891874010525
2703.0,0.005462895701502157
2702.0,0.005550862985963967
2701.0,0.005550862985963967
2700.0,0.005506877116487674
2699.0,0.00541891874010525
2698.0,0.005330978174470591
2697.0,0.005243055412371911
2696.0,0.005243055412371911
2695.0,0.0052870145684298375
2694.0,0.005330978174470591
2693.0,0.005330978174470591
2692.0,0.005330978174470591
2691.0,0.0052870145684298375
2690.0,0.005243055412371911
2689.0,0.005199100705396198
2688.0,0.005155150446602086
2687.0,0.005155150446602086
2686.0,0.005199100705396198
2685.0,0.005243055412371911
2684.0,0.005243055412371911
2683.0,0.0052870145684298375
2682.0,0.00537494623139545
2681.0,0.00541891874010525
2680.0,0.005506877116487674
2679.0,0.005462895701502157
2678.0,0.00541891874010525
2677.0,0.005330978174470591
2676.0,0.005330978174470591
2675.0,0.00537494623139545
2674.0,0.00541891874010525
2673.0,0.00537494623139545
2672.0,0.00537494623139545
2671.0,0.00537494623139545
2670.0,0.00541891874010525
2669.0,0.00541891874010525
2668.0,0.00541891874010525
2667.0,0.00541891874010525
2666.0,0.00537494623139545
2665.0,0.005330978174470591
2664.0,0.0052870145684298375
2663.0,0.005330978174470591
2662.0,0.00541891874010525
2661.0,0.00541891874010525
2660.0,0.005330978174470591
2659.0,0.005199100705396198
2658.0,0.005067263269958211
2657.0,0.005023326350308999
2656.0,0.005067263269958211
2655.0,0.005111204635089406
2654.0,0.005155150446602086
2653.0,0.005243055412371911
2652.0,0.005243055412371911
2651.0,0.0052870145684298375
2650.0,0.005243055412371911
2649.0,0.005243055412371911
2648.0,0.005199100705396198
2647.0,0.005199100705396198
2646.0,0.005243055412371911
2645.0,0.0052870145684298375
2644.0,0.0052870145684298375
2643.0,0.0052870145684298375
2642.0,0.005243055412371911
2641.0,0.005199100705396198
2640.0,0.005199100705396198
2639.0,0.005243055412371911
2638.0,0.005243055412371911
2637.0,0.005243055412371911
2636.0,0.005243055412371911
2635.0,0.0052870145684298375
2634.0,0.00537494623139545
2633.0,0.005506877116487674
2632.0,0.005550862985963967
2631.0,0.005550862985963967
2630.0,0.005462895701502157
2629.0,0.005330978174470591
2628.0,0.005199100705396198
2627.0,0.005111204635089406
2626.0,0.005155150446602086
2625.0,0.005199100705396198
2624.0,0.0052870145684298375
2623.0,0.00537494623139545
2622.0,0.005462895701502157
2621.0,0.005550862985963967
2620.0,0.005550862985963967
2619.0,0.005506877116487674
2618.0,0.00541891874010525
2617.0,0.00537494623139545
2616.0,0.005330978174470591
2615.0,0.00537494623139545
2614.0,0.00541891874010525
2613.0,0.00541891874010525
2612.0,0.00541891874010525
2611.0,0.00541891874010525
2610.0,0.00541891874010525
2609.0,0.005462895701502157
2608.0,0.005462895701502157
2607.0,0.005462895701502157
2606.0,0.00541891874010525
2605.0,0.005330978174470591
2604.0,0.005330978174470591
2603.0,0.005330978174470591
2602.0,0.00537494623139545
2601.0,0.00537494623139545
2600.0,0.005330978174470591
2599.0,0.005330978174470591
2598.0,0.00537494623139545
2597.0,0.00537494623139545
2596.0,0.00541891874010525
2595.0,0.00541891874010525
2594.0,0.00537494623139545
2593.0,0.005330978174470591
2592.0,0.0052870145684298375
2591.0,0.0052870145684298375
2590.0,0.005330978174470591
2589.0,0.00537494623139545
2588.0,0.00541891874010525
2587.0,0.005462895701502157
2586.0,0.005550862985963967
2585.0,0.005550862985963967
2584.0,0.005550862985963967
2583.0,0.005462895701502157
2582.0,0.00537494623139545
2581.0,0.00537494623139545
2580.0,0.00537494623139545
2579.0,0.00541891874010525
2578.0,0.00537494623139545
2577.0,0.005330978174470591
2576.0,0.0052870145684298375
2575.0,0.00537494623139545
2574.0,0.005462895701502157
2573.0,0.005550862985963967
2572.0,0.005594853310833647
2571.0,0.005594853310833647
2570.0,0.005594853310833647
2569.0,0.005550862985963967
2568.0,0.005550862985963967
2567.0,0.005506877116487674
2566.0,0.00541891874010525
2565.0,0.005330978174470591
2564.0,0.005330978174470591
2563.0,0.00541891874010525
2562.0,0.005550862985963967
2561.0,0.005638848091999105
2560.0,0.005594853310833647
2559.0,0.005550862985963967
2558.0,0.005506877116487674
2557.0,0.005506877116487674
2556.0,0.005462895701502157
2555.0,0.005462895701502157
2554.0,0.005462895701502157
2553.0,0.00541891874010525
2552.0,0.00537494623139545
2551.0,0.005330978174470591
2550.0,0.0052870145684298375
2549.0,0.005243055412371911
2548.0,0.005243055412371911
2547.0,0.005243055412371911
2546.0,0.0052870145684298375
2545.0,0.00537494623139545
2544.0,0.00541891874010525
2543.0,0.005462895701502157
2542.0,0.005506877116487674
2541.0,0.005594853310833647
2540.0,0.005638848091999105
2539.0,0.005726851026829571
2538.0,0.00577085918230158
2537.0,0.00577085918230158
2536.0,0.00577085918230158
2535.0,0.005726851026829571
2534.0,0.005682847330363394
2533.0,0.005594853310833647
2532.0,0.005506877116487674
2531.0,0.005462895701502157
2530.0,0.005462895701502157
2529.0,0.005462895701502157
2528.0,0.005506877116487674
2527.0,0.005550862985963967
2526.0,0.005594853310833647
2525.0,0.005594853310833647
2524.0,0.005550862985963967
2523.0,0.005550862985963967
2522.0,0.005550862985963967
2521.0,0.005550862985963967
2520.0,0.005550862985963967
2519.0,0.005550862985963967
2518.0,0.005550862985963967
2517.0,0.005550862985963967
2516.0,0.005462895701502157
2515.0,0.00541891874010525
2514.0,0.00537494623139545
2513.0,0.00537494623139545
2512.0,0.00541891874010525
2511.0,0.005462895701502157
2510.0,0.005594853310833647
2509.0,0.005682847330363394
2508.0,0.005726851026829571
2507.0,0.005726851026829571
2506.0,0.005682847330363394
2505.0,0.005594853310833647
2504.0,0.005462895701502157
2503.0,0.00537494623139545
2502.0,0.005330978174470591
2501.0,0.005330978174470591
2500.0,0.00537494623139545
2499.0,0.005330978174470591
2498.0,0.0052870145684298375
2497.0,0.0052870145684298375
2496.0,0.005330978174470591
2495.0,0.00537494623139545
2494.0,0.00541891874010525
2493.0,0.005462895701502157
2492.0,0.005462895701502157
2491.0,0.00541891874010525
2490.0,0.00537494623139545
2489.0,0.0052870145684298375
2488.0,0.005199100705396198
2487.0,0.005199100705396198
2486.0,0.005199100705396198
2485.0,0.005243055412371911
2484.0,0.005330978174470591
2483.0,0.00537494623139545
2482.0,0.005462895701502157
2481.0,0.005462895701502157
2480.0,0.00541891874010525
2479.0,0.00537494623139545
2478.0,0.0052870145684298375
2477.0,0.005243055412371911
2476.0,0.005243055412371911
2475.0,0.0052870145684298375
2474.0,0.0052870145684298375
2473.0,0.005243055412371911
2472.0,0.005155150446602086
2471.0,0.005067263269958211
2470.0,0.004935465843858511
2469.0,0.004935465843858511
2468.0,0.004979393875242044
2467.0,0.005067263269958211
2466.0,0.005155150446602086
2465.0,0.005243055412371911
2464.0,0.0052870145684298375
2463.0,0.0052870145684298375
2462.0,0.005199100705396198
2461.0,0.005067263269958211
2460.0,0.004979393875242044
2459.0,0.004979393875242044
2458.0,0.005067263269958211
2457.0,0.005155150446602086
2456.0,0.0052870145684298375
2455.0,0.005330978174470591
2454.0,0.0052870145684298375
2453.0,0.005243055412371911
2452.0,0.005155150446602086
2451.0,0.005111204635089406
2450.0,0.005111204635089406
2449.0,0.005111204635089406
2448.0,0.005111204635089406
2447.0,0.005111204635089406
2446.0,0.005067263269958211
2445.0,0.005067263269958211
2444.0,0.005067263269958211
2443.0,0.005111204635089406
2442.0,0.005155150446602086
2441.0,0.005155150446602086
2440.0,0.005111204635089406
2439.0,0.005111204635089406
2438.0,0.005111204635089406
2437.0,0.005155150446602086
2436.0,0.005243055412371911
2435.0,0.005330978174470591
2434.0,0.00537494623139545
2433.0,0.0052870145684298375
2432.0,0.005111204635089406
2431.0,0.005023326350308999
2430.0,0.004979393875242044
2429.0,0.004979393875242044
2428.0,0.005023326350308999
2427.0,0.005111204635089406
2426.0,0.005155150446602086
2425.0,0.005155150446602086
2424.0,0.005111204635089406
2423.0,0.005155150446602086
2422.0,0.005155150446602086
2421.0,0.005199100705396198
2420.0,0.005199100705396198
2419.0,0.005199100705396198
2418.0,0.005199100705396198
2417.0,0.005243055412371911
2416.0,0.0052870145684298375
2415.0,0.005243055412371911
2414.0,0.005155150446602086
2413.0,0.005067263269958211
2412.0,0.005111204635089406
2411.0,0.005199100705396198
2410.0,0.005330978174470591
2409.0,0.00541891874010525
2408.0,0.00541891874010525
2407.0,0.00537494623139545
2406.0,0.005330978174470591
2405.0,0.005330978174470591
2404.0,0.0052870145684298375
2403.0,0.0052870145684298375
2402.0,0.005243055412371911
2401.0,0.005243055412371911
2400.0,0.0052870145684298375
2399.0,0.005330978174470591
2398.0,0.00537494623139545
2397.0,0.005462895701502157
2396.0,0.005506877116487674
2395.0,0.005550862985963967
2394.0,0.005506877116487674
2393.0,0.005462895701502157
2392.0,0.00541891874010525
2391.0,0.00541891874010525
2390.0,0.00541891874010525
2389.0,0.00537494623139545
2388.0,0.0052870145684298375
2387.0,0.005111204635089406
2386.0,0.004979393875242044
2385.0,0.004803708402820517
2384.0,0.004715892310740433
2383.0,0.004715892310740433
2382.0,0.004671990922590297
2381.0,0.004671990922590297
2380.0,0.004671990922590297
2379.0,0.004671990922590297
2378.0,0.004628093971837721
2377.0,0.004540313378935901
2376.0,0.004452550524862486
2375.0,0.0043648054024501
2374.0,0.004277078004534696
2373.0,0.004233220950025984
2372.0,0.004189368323957332
2371.0,0.004277078004534696
2370.0,0.0044964297349936455
2369.0,0.004715892310740433
2368.0,0.004803708402820517
2367.0,0.00484762310854614
2366.0,0.005067263269958211
2365.0,0.005506877116487674
2364.0,0.005726851026829571
2363.0,0.005199100705396198
2362.0,0.0036634819042162814
2361.0,0.0016970599014589638
2360.0,0.00021720154586435392
2359.0,-0.00021709297223004853
2358.0,0.00030411258916074324
2357.0,0.001348404001626502
2356.0,0.0025262411970197185
2355.0,0.003619686766589858
2354.0,0.004452550524862486
2353.0,0.00489154225525934
2352.0,0.004759798137184523
2351.0,0.004277078004534696
2350.0,0.0038387066319929275
2349.0,0.003794893821675638
2348.0,0.00401400208620073
2347.0,0.004277078004534696
2346.0,0.0043648054024501
2345.0,0.004145520125434121
2344.0,0.0038825238627120395
2343.0,0.0036634819042162814
2342.0,0.003794893821675638
2341.0,0.0040578370074493275
2340.0,0.004277078004534696
2339.0,0.004277078004534696
2338.0,0.003970171588923321
2337.0,0.003619686766589858
2336.0,0.003488327845821315
2335.0,0.003707281458678491
2334.0,0.004101676353562844
2333.0,0.004452550524862486
2332.0,0.004671990922590297
2331.0,0.004715892310740433
2330.0,0.004540313378935901
2329.0,0.0040578370074493275
2328.0,0.0034445503666347133
2327.0,0.0030070181092942683
2326.0,0.0030070181092942683
2325.0,0.0033570086445275926
2324.0,0.003794893821675638
2323.0,0.0040578370074493275
2322.0,0.004189368323957332
2321.0,0.004189368323957332
2320.0,0.004189368323957332
2319.0,0.004189368323957332
2318.0,0.004145520125434121
2317.0,0.004145520125434121
2316.0,0.004189368323957332
2315.0,0.004277078004534696
2314.0,0.004408675747646695
2313.0,0.004452550524862486
2312.0,0.004408675747646695
2311.0,0.004277078004534696
2310.0,0.004189368323957332
2309.0,0.004145520125434121
2308.0,0.004145520125434121
2307.0,0.004145520125434121
2306.0,0.004189368323957332
2305.0,0.004233220950025984
2304.0,0.004233220950025984
2303.0,0.004233220950025984
2302.0,0.004277078004534696
2301.0,0.004408675747646695
2300.0,0.0044964297349936455
2299.0,0.00458420145758498
2298.0,0.00458420145758498
2297.0,0.004540313378935901
2296.0,0.0044964297349936455
2295.0,0.004540313378935901
2294.0,0.00458420145758498
2293.0,0.004671990922590297
2292.0,0.004803708402820517
2291.0,0.00489154225525934
2290.0,0.00489154225525934
2289.0,0.00484762310854614
2288.0,0.004803708402820517
2287.0,0.004715892310740433
2286.0,0.004671990922590297
2285.0,0.004671990922590297
2284.0,0.004715892310740433
2283.0,0.004759798137184523
2282.0,0.004715892310740433
2281.0,0.004671990922590297
2280.0,0.004628093971837721
2279.0,0.004628093971837721
2278.0,0.004671990922590297
2277.0,0.004671990922590297
2276.0,0.004715892310740433
2275.0,0.004759798137184523
2274.0,0.004759798137184523
2273.0,0.004715892310740433
2272.0,0.004671990922590297
2271.0,0.00458420145758498
2270.0,0.004540313378935901
2269.0,0.004540313378935901
2268.0,0.004540313378935901
2267.0,0.004540313378935901
2266.0,0.00458420145758498
2265.0,0.00458420145758498
2264.0,0.00458420145758498
2263.0,0.004628093971837721
2262.0,0.004671990922590297
2261.0,0.004759798137184523
2260.0,0.00484762310854614
2259.0,0.00489154225525934
2258.0,0.00484762310854614
2257.0,0.004715892310740433
2256.0,0.00458420145758498
2255.0,0.004540313378935901
2254.0,0.004540313378935901
2253.0,0.00458420145758498
2252.0,0.004715892310740433
2251.0,0.00484762310854614
2250.0,0.004935465843858511
2249.0,0.004935465843858511
2248.0,0.00484762310854614
2247.0,0.00484762310854614
2246.0,0.004803708402820517
2245.0,0.004803708402820517
2244.0,0.004803708402820517
2243.0,0.004803708402820517
2242.0,0.00484762310854614
2241.0,0.004803708402820517
2240.0,0.004803708402820517
2239.0,0.004759798137184523
2238.0,0.004715892310740433
2237.0,0.004628093971837721
2236.0,0.004540313378935901
2235.0,0.004452550524862486
2234.0,0.004408675747646695
2233.0,0.004452550524862486
2232.0,0.0044964297349936455
2231.0,0.0044964297349936455
2230.0,0.0044964297349936455
2229.0,0.0044964297349936455
2228.0,0.0044964297349936455
2227.0,0.0044964297349936455
2226.0,0.004452550524862486
2225.0,0.004452550524862486
2224.0,0.004408675747646695
2223.0,0.004408675747646695
2222.0,0.004408675747646695
2221.0,0.004408675747646695
2220.0,0.004452550524862486
2219.0,0.0044964297349936455
2218.0,0.00458420145758498
2217.0,0.004671990922590297
2216.0,0.004759798137184523
2215.0,0.004759798137184523
2214.0,0.004759798137184523
2213.0,0.004671990922590297
2212.0,0.00458420145758498
2211.0,0.004540313378935901
2210.0,0.004540313378935901
2209.0,0.00458420145758498
2208.0,0.004628093971837721
2207.0,0.004628093971837721
2206.0,0.004628093971837721
2205.0,0.00458420145758498
2204.0,0.0044964297349936455
2203.0,0.004452550524862486
2202.0,0.004408675747646695
2201.0,0.0043648054024501
2200.0,0.004408675747646695
2199.0,0.004408675747646695
2198.0,0.0043648054024501
2197.0,0.0043648054024501
2196.0,0.004320939488377862
2195.0,0.0043648054024501
2194.0,0.004408675747646695
2193.0,0.004408675747646695
2192.0,0.004408675747646695
2191.0,0.004320939488377862
2190.0,0.004277078004534696
2189.0,0.004320939488377862
2188.0,0.0043648054024501
2187.0,0.0043648054024501
2186.0,0.0043648054024501
2185.0,0.004320939488377862
2184.0,0.004277078004534696
2183.0,0.004277078004534696
2182.0,0.004277078004534696
2181.0,0.004277078004534696
2180.0,0.004320939488377862
2179.0,0.004408675747646695
2178.0,0.0044964297349936455
2177.0,0.004540313378935901
2176.0,0.004540313378935901
2175.0,0.004540313378935901
2174.0,0.004540313378935901
2173.0,0.004540313378935901
2172.0,0.00458420145758498
2171.0,0.004540313378935901
2170.0,0.0044964297349936455
2169.0,0.004452550524862486
2168.0,0.004452550524862486
2167.0,0.004452550524862486
2166.0,0.004452550524862486
2165.0,0.004408675747646695
2164.0,0.004408675747646695
2163.0,0.004408675747646695
2162.0,0.004408675747646695
2161.0,0.004408675747646695
2160.0,0.004408675747646695
2159.0,0.004452550524862486
2158.0,0.0044964297349936455
2157.0,0.0044964297349936455
2156.0,0.004452550524862486
2155.0,0.004408675747646695
2154.0,0.004408675747646695
2153.0,0.0043648054024501
2152.0,0.0043648054024501
2151.0,0.0043648054024501
2150.0,0.0043648054024501
2149.0,0.004408675747646695
2148.0,0.004408675747646695
2147.0,0.004408675747646695
2146.0,0.0043648054024501
2145.0,0.004320939488377862
2144.0,0.004320939488377862
2143.0,0.004320939488377862
2142.0,0.0043648054024501
2141.0,0.0043648054024501
2140.0,0.004452550524862486
2139.0,0.0044964297349936455
2138.0,0.004540313378935901
2137.0,0.0044964297349936455
2136.0,0.0044964297349936455
2135.0,0.004452550524862486
2134.0,0.0044964297349936455
2133.0,0.004540313378935901
2132.0,0.00458420145758498
2131.0,0.004540313378935901
2130.0,0.004452550524862486
2129.0,0.0043648054024501
2128.0,0.004277078004534696
2127.0,0.004277078004534696
2126.0,0.004320939488377862
2125.0,0.004320939488377862
2124.0,0.0043648054024501
2123.0,0.004452550524862486
2122.0,0.0044964297349936455
2121.0,0.004540313378935901
2120.0,0.0044964297349936455
2119.0,0.004452550524862486
2118.0,0.004408675747646695
2117.0,0.0043648054024501
2116.0,0.004320939488377862
2115.0,0.0043648054024501
2114.0,0.004408675747646695
2113.0,0.004408675747646695
2112.0,0.0043648054024501
2111.0,0.004320939488377862
2110.0,0.004233220950025984
2109.0,0.004145520125434121
2108.0,0.004101676353562844
2107.0,0.004145520125434121
2106.0,0.004145520125434121
2105.0,0.004189368323957332
2104.0,0.004233220950025984
2103.0,0.004320939488377862
2102.0,0.004408675747646695
2101.0,0.0043648054024501
2100.0,0.004320939488377862
2099.0,0.004233220950025984
2098.0,0.004145520125434121
2097.0,0.004145520125434121
2096.0,0.004145520125434121
2095.0,0.004101676353562844
2094.0,0.0040578370074493275
2093.0,0.0040578370074493275
2092.0,0.004101676353562844
2091.0,0.004101676353562844
2090.0,0.004101676353562844
2089.0,0.00401400208620073
2088.0,0.003970171588923321
2087.0,0.003970171588923321
2086.0,0.003926345514724705
2085.0,0.0038825238627120395
2084.0,0.0038387066319929275
2083.0,0.003794893821675638
2082.0,0.0037510854308679953
2081.0,0.003707281458678491
2080.0,0.0037510854308679953
2079.0,0.003794893821675638
2078.0,0.0038387066319929275
2077.0,0.0038387066319929275
2076.0,0.0038825238627120395
2075.0,0.0038387066319929275
2074.0,0.0038387066319929275
2073.0,0.0037510854308679953
2072.0,0.003707281458678491
2071.0,0.003707281458678491
2070.0,0.0036634819042162814
2069.0,0.003707281458678491
2068.0,0.003707281458678491
2067.0,0.003707281458678491
2066.0,0.003707281458678491
2065.0,0.0036634819042162814
2064.0,0.0035758960449088217
2063.0,0.0035321097382827737
2062.0,0.0035758960449088217
2061.0,0.0035758960449088217
2060.0,0.003619686766589858
2059.0,0.003619686766589858
2058.0,0.0035758960449088217
2057.0,0.0035758960449088217
2056.0,0.0035321097382827737
2055.0,0.0035321097382827737
2054.0,0.0035321097382827737
2053.0,0.0034445503666347133
2052.0,0.0033570086445275926
2051.0,0.0033132443998284966
2050.0,0.0032694845648473247
2049.0,0.0032257291386954545
2048.0,0.0031819781204844855
2047.0,0.0031819781204844855
2046.0,0.0032257291386954545
2045.0,0.0032694845648473247
2044.0,0.0033132443998284966
2043.0,0.0033132443998284966
2042.0,0.0032694845648473247
2041.0,0.0031819781204844855
2040.0,0.0031382315093266833
2039.0,0.0031382315093266833
2038.0,0.0030944893043338695
2037.0,0.003050751504618754
2036.0,0.0030070181092942683
2035.0,0.0029195645282691363
2034.0,0.0029195645282691363
2033.0,0.0029632891174733444
2032.0,0.0030070181092942683
2031.0,0.0030944893043338695
2030.0,0.003050751504618754
2029.0,0.003050751504618754
2028.0,0.0030070181092942683
2027.0,0.0030070181092942683
2026.0,0.0030070181092942683
2025.0,0.0030944893043338695
2024.0,0.0031382315093266833
2023.0,0.0032257291386954545
2022.0,0.0032257291386954545
2021.0,0.0031819781204844855
2020.0,0.0031382315093266833
2019.0,0.0031382315093266833
2018.0,0.0031382315093266833
2017.0,0.0030944893043338695
2016.0,0.0030944893043338695
2015.0,0.0030944893043338695
2014.0,0.0030944893043338695
2013.0,0.0030944893043338695
2012.0,0.0030944893043338695
2011.0,0.0031382315093266833
2010.0,0.0031382315093266833
2009.0,0.0030944893043338695
2008.0,0.0030070181092942683
2007.0,0.0029195645282691363
2006.0,0.0029195645282691363
2005.0,0.0029632891174733444
2004.0,0.003050751504618754
2003.0,0.0031382315093266833
2002.0,0.0031819781204844855
2001.0,0.0030944893043338695
2000.0,0.0030070181092942683
1999.0,0.0029632891174733444
1998.0,0.0029632891174733444
1997.0,0.0029632891174733444
1996.0,0.0029632891174733444
1995.0,0.003050751504618754
1994.0,0.0031819781204844855
1993.0,0.0032694845648473247
1992.0,0.0033132443998284966
1991.0,0.0033570086445275926
1990.0,0.0033570086445275926
1989.0,0.0033570086445275926
1988.0,0.0034007772998332353
1987.0,0.0034007772998332353
1986.0,0.0034007772998332353
1985.0,0.0033570086445275926
1984.0,0.0033570086445275926
1983.0,0.0033570086445275926
1982.0,0.0034007772998332353
1981.0,0.0034007772998332353
1980.0,0.0033570086445275926
1979.0,0.0033132443998284966
1978.0,0.0032694845648473247
1977.0,0.0032257291386954545
1976.0,0.0032257291386954545
1975.0,0.0032694845648473247
1974.0,0.0033570086445275926
1973.0,0.0033570086445275926
1972.0,0.0033570086445275926
1971.0,0.0034007772998332353
1970.0,0.003488327845821315
1969.0,0.003619686766589858
1968.0,0.0037510854308679953
1967.0,0.003794893821675638
1966.0,0.0037510854308679953
1965.0,0.0036634819042162814
1964.0,0.0035758960449088217
1963.0,0.0035321097382827737
1962.0,0.0035758960449088217
1961.0,0.003619686766589858
1960.0,0.003707281458678491
1959.0,0.0038387066319929275
1958.0,0.003926345514724705
1957.0,0.00401400208620073
1956.0,0.004101676353562844
1955.0,0.004189368323957332
1954.0,0.004189368323957332
1953.0,0.004145520125434121
1952.0,0.004101676353562844
1951.0,0.0040578370074493275
1950.0,0.0040578370074493275
1949.0,0.0040578370074493275
1948.0,0.0040578370074493275
1947.0,0.00401400208620073
1946.0,0.003970171588923321
1945.0,0.0038387066319929275
1944.0,0.0037510854308679953
1943.0,0.003707281458678491
1942.0,0.003707281458678491
1941.0,0.0036634819042162814
1940.0,0.0036634819042162814
1939.0,0.0036634819042162814
1938.0,0.0036634819042162814
1937.0,0.0035758960449088217
1936.0,0.0034445503666347133
1935.0,0.0033132443998284966
1934.0,0.0032257291386954545
1933.0,0.0031382315093266833
1932.0,0.0030070181092942683
1931.0,0.0029195645282691363
1930.0,0.0027884171674950053
1929.0,0.002701007590486082
1928.0,0.0026573093983774942
1927.0,0.002613615602686581
1926.0,0.002613615602686581
1925.0,0.002613615602686581
1924.0,0.0026573093983774942
1923.0,0.002701007590486082
1922.0,0.0026573093983774942
1921.0,0.002613615602686581
1920.0,0.0025262411970197185
1919.0,0.0024388843664115978
1918.0,0.0023078820582733695
1917.0,0.0022205691343961664
1916.0,0.0021769192542746563
1915.0,0.0021769192542746563
1914.0,0.0021769192542746563
1913.0,0.0021769192542746563
1912.0,0.002089632653256679
1911.0,0.0020459959305969555
1910.0,0.0020023635919956817
1909.0,0.001915112063444413
1908.0,0.0018278780605593958
1907.0,0.0017842676290416026
1906.0,0.0017406615763013722
1905.0,0.0016970599014589638
1904.0,0.0016534626036355249
1903.0,0.001609869681952425
1902.0,0.0015226969634936083
1901.0,0.0015226969634936083
1900.0,0.0015226969634936083
1899.0,0.0015226969634936083
1898.0,0.0015226969634936083
1897.0,0.0014355417390583547
1896.0,0.001304841688344327
1895.0,0.0011306361176557367
1894.0,0.0010435595295137379
1893.0,0.0010000277816797354
1892.0,0.0010435595295137379
1891.0,0.0010000277816797354
1890.0,0.0009565003968372565
1889.0,0.0008259444115150671
1888.0,0.0007824344698965646
1887.0,0.0007389288868995258
1886.0,0.0007389288868995258
1885.0,0.0007389288868995258
1884.0,0.0007824344698965646
1883.0,0.0008259444115150671
1882.0,0.000869458712629001
1881.0,0.0008259444115150671
1880.0,0.0007389288868995258
1879.0,0.0006519307932786322
1878.0,0.0005649501236701937
1877.0,0.0004779868710962365
1876.0,0.00043451177401765406
1875.0,0.0003910410285830057
1874.0,0.0003910410285830057
1873.0,0.0003910410285830057
1872.0,0.00043451177401765406
1871.0,0.0004779868710962365
1870.0,0.0004779868710962365
1869.0,0.000521466320689834
1868.0,0.0004779868710962365
1867.0,0.00043451177401765406
1866.0,0.0003475746339209884
1865.0,0.00026065489343207737
1864.0,0.00021720154586435392
1863.0,0.00021720154586435392
1862.0,0.00017375254558760211
1861.0,0.0001303078917322953
1860.0,8.686758342868472e-05
1859.0,0.0
1858.0,-4.3427276862573194e-05
1857.0,-8.685021164911433e-05
1856.0,-8.685021164911433e-05
1855.0,-4.3427276862573194e-05
1854.0,4.343161980746579e-05
1853.0,8.686758342868472e-05
1852.0,0.00017375254558760211
1851.0,0.00026065489343207737
1850.0,0.0003475746339209884
1849.0,0.0003475746339209884
1848.0,0.0003475746339209884
1847.0,0.00030411258916074324
1846.0,0.00026065489343207737
1845.0,0.0001303078917322953
1844.0,4.343161980746579e-05
1843.0,4.343161980746579e-05
1842.0,8.686758342868472e-05
1841.0,0.00021720154586435392
1840.0,0.00026065489343207737
1839.0,0.00030411258916074324
1838.0,0.00026065489343207737
1837.0,0.00021720154586435392
1836.0,0.00021720154586435392
1835.0,0.00026065489343207737
1834.0,0.0003475746339209884
1833.0,0.0004779868710962365
1832.0,0.0006519307932786322
1831.0,0.0007824344698965646
1830.0,0.0007824344698965646
1829.0,0.0006519307932786322
1828.0,0.000521466320689834
1827.0,0.000521466320689834
1826.0,0.000521466320689834
1825.0,0.0004779868710962365
1824.0,0.0003475746339209884
1823.0,0.0003475746339209884
1822.0,0.0003475746339209884
1821.0,0.0003910410285830057
1820.0,0.0003475746339209884
1819.0,0.00030411258916074324
1818.0,0.00026065489343207737
1817.0,0.00017375254558760211
1816.0,0.00017375254558760211
1815.0,0.00017375254558760211
1814.0,0.00017375254558760211
1813.0,0.00017375254558760211
1812.0,0.00021720154586435392
1811.0,0.00017375254558760211
1810.0,0.0001303078917322953
1809.0,0.0
1808.0,-8.685021164911433e-05
1807.0,-8.685021164911433e-05
1806.0,-8.685021164911433e-05
1805.0,-0.00013026880522692963
1804.0,-0.00021709297223004853
1803.0,-0.00021709297223004853
1802.0,-0.0002604985473904087
1801.0,-0.00030389978481260016
1800.0,-0.0003906892499099257
1799.0,-0.00043407747931878404
1798.0,-0.0004774613744551459
1797.0,-0.0005208409361854294
1796.0,-0.0005208409361854294
1795.0,-0.0004774613744551459
1794.0,-0.0003472966853634851
1793.0,-0.0003472966853634851
1792.0,-0.0003472966853634851
1791.0,-0.0003906892499099257
1790.0,-0.0004774613744551459
1789.0,-0.0005642161653756084
1788.0,-0.0006509536295951079
1787.0,-0.0006943158663546001
1786.0,-0.0006943158663546001
1785.0,-0.0006943158663546001
1784.0,-0.0006509536295951079
1783.0,-0.0005642161653756084
1782.0,-0.0004774613744551459
1781.0,-0.0004774613744551459
1780.0,-0.0004774613744551459
1779.0,-0.0004774613744551459
1778.0,-0.00043407747931878404
1777.0,-0.0003906892499099257
1776.0,-0.00030389978481260016
1775.0,-0.00021709297223004853
1774.0,-0.00013026880522692963
1773.0,-0.00021709297223004853
1772.0,-0.0003472966853634851
1771.0,-0.00030389978481260016
1770.0,-0.00021709297223004853
1769.0,-0.00013026880522692963
1768.0,0.0
1767.0,0.00021720154586435392
1766.0,0.0003910410285830057
1765.0,0.000521466320689834
1764.0,0.0006954276616513155
1763.0,0.0009565003968372565
1762.0,0.001304841688344327
1761.0,0.001609869681952425
1760.0,0.0018714928717336043
1759.0,0.0023078820582733695
1758.0,0.0028321285541661467
1757.0,0.0032694845648473247
1756.0,0.0037510854308679953
1755.0,0.004320939488377862
1754.0,0.00484762310854614
1753.0,0.005462895701502157
1752.0,0.006387442061109638
1751.0,0.007844288957383316
1750.0,0.00966114521239847
1749.0,0.011574829993696856
1748.0,0.013586594534531482
1747.0,0.01578783323856614
1746.0,0.018271974638383703
1745.0,0.021043834782408455
1744.0,0.02438440203310499
1743.0,0.02812138297373412
1742.0,0.03207779326948268
1741.0,0.03668448861388862
1740.0,0.04248848854552012
1739.0,0.048468209457651845
1738.0,0.05286048235717078
1737.0,0.055764156206519866
1736.0,0.05918479134919874
1735.0,0.06620911585658007
1734.0,0.07675598136972361
1733.0,0.08528671302637614
1732.0,0.0905509530187334
1731.0,0.09517630019905599
1730.0,0.1005625457138224
1729.0,0.1061827760325369
1728.0,0.11114683301706374
1727.0,0.11560117444331386
1726.0,0.12004441487725082
1725.0,0.1249387366082999
1724.0,0.1302990263261221
1723.0,0.13531096586314884
1722.0,0.13900356324280416
1721.0,0.1409217752530305
1720.0,0.14218522202899342
1719.0,0.14520830594601453
1718.0,0.1515029819096334
1717.0,0.15832774992636556
1716.0,0.16203298163134527
1715.0,0.16329620091026875
1714.0,0.16323295260579473
1713.0,0.16171775008531153
1712.0,0.158765704493959
1711.0,0.15496400648658493
1710.0,0.15076490868527737
1709.0,0.1459369881335788
1708.0,0.1402014525194344
1707.0,0.1337717526203528
1706.0,0.12702836926155658
1705.0,0.12056003400478299
1704.0,0.11458223488906394
1703.0,0.10874138309586101
1702.0,0.10264786565568684
1701.0,0.09631326826349751
1700.0,0.0905509530187334
1699.0,0.086239113587677
1698.0,0.08259953204474924
1697.0,0.0788860261633193
1696.0,0.07520400420208784
1695.0,0.0720140529005715
1694.0,0.06930561233546473
1693.0,0.06686717627326577
1692.0,0.06434161389936577
1691.0,0.061880730805688344
1690.0,0.05973260855398799
1689.0,0.05799194697768684
1688.0,0.05635711724787096
1687.0,0.054679159207724926
1686.0,0.05300765925162776
1685.0,0.05192951848105887
1684.0,0.05148923116234294
1683.0,0.05085404758005607
1682.0,0.04973253198641148
1681.0,0.048468209457651845
1680.0,0.04715914332429838
1679.0,0.04580574818413763
1678.0,0.04440844959427559
1677.0,0.043063586155803746
1676.0,0.04196198390166317
1675.0,0.04105406750606355
1674.0,0.04019568349166214
1673.0,0.03924390909822728
1672.0,0.03824678581321739
1671.0,0.037251946641359446
1670.0,0.03644826642590382
1669.0,0.03578752703018084
1668.0,0.03503362516890207
1667.0,0.034187046963396917
1666.0,0.033295223342125535
1665.0,0.03240522732811035
1664.0,0.031563752288295444
1663.0,0.030863766403287585
1662.0,0.030164906924202484
1661.0,0.029467170231675777
1660.0,0.028677754757187035
1659.0,0.027889771597169544
1658.0,0.027149444152769986
1657.0,0.02636422658259252
1656.0,0.02558042614771394
1655.0,0.024890010313838973
1654.0,0.024660115394541604
1653.0,0.024706084643793647
1652.0,0.024430342106337877
1651.0,0.023925268380126097
1650.0,0.023466619608062178
1649.0,0.02296266477531872
1648.0,0.02255077261765881
1647.0,0.02245929405346514
1646.0,0.022505030926963654
1645.0,0.02227639471115217
1644.0,0.021865152601710403
1643.0,0.02140867317992523
1642.0,0.021043834782408455
1641.0,0.020724852408976924
1640.0,0.020406104151069693
1639.0,0.019996628416253603
1638.0,0.01958753839310856
1637.0,0.019360432556262852
1636.0,0.01940584422377989
1635.0,0.01940584422377989
1634.0,0.0192242260373785
1633.0,0.01899731005860028
1632.0,0.018725167293411005
1631.0,0.01845319495476394
1630.0,0.018181392829336396
1629.0,0.01809082990920774
1628.0,0.01800028587012159
1627.0,0.017774008325325275
1626.0,0.017457417697056554
1625.0,0.017141057687924732
1624.0,0.016870075265299933
1623.0,0.01677978535189717
1622.0,0.01677978535189717
1621.0,0.01677978535189717
1620.0,0.016689514205884493
1619.0,0.016644385668211692
1618.0,0.016915227262211507
1617.0,0.017638298366853045
1616.0,0.01840788278591865
1615.0,0.018679826740892747
1614.0,0.018679826740892747
1613.0,0.018498511851753108
1612.0,0.018226681372252695
1611.0,0.017864505196230507
1610.0,0.017457417697056554
1609.0,0.017005545341335804
1608.0,0.016509028184833463
1607.0,0.016058141016111804
1606.0,0.015652742414136167
1605.0,0.015292705517326866
1604.0,0.014888020460646079
1603.0,0.0144837121472845
1602.0,0.01403492169512921
1601.0,0.013676222949234651
1600.0,0.013362604389846044
1599.0,0.013093968619278806
1598.0,0.012870232340102872
1597.0,0.01264661126420652
1596.0,0.012467797270160563
1595.0,0.012333735073725371
1594.0,0.012244383261476699
1593.0,0.012244383261476699
1592.0,0.012199714248127602
1591.0,0.01215504982870197
1590.0,0.012065734767841452
1589.0,0.012065734767841452
1588.0,0.012110390002254778
1587.0,0.012333735073725371
1586.0,0.012736045877764557
1585.0,0.013407393177789162
1584.0,0.014438812226654996
1583.0,0.01578783323856614
1582.0,0.017321806616515723
1581.0,0.018679826740892747
1580.0,0.019723858922159776
1579.0,0.020315076172974234
1578.0,0.020406104151069693
1577.0,0.020087589665283012
1576.0,0.019269623464054586
1575.0,0.018271974638383703
1574.0,0.01727661233145472
1573.0,0.01632861713980338
1572.0,0.01547268665620738
1571.0,0.014618439768003144
1570.0,0.013900374944870508
1569.0,0.013317820220494436
1568.0,0.012914970375878188
1567.0,0.01260190086298274
1566.0,0.012333735073725371
1565.0,0.012065734767841452
1564.0,0.011753276624621556
1563.0,0.011307297450183107
1562.0,0.010906307389674463
1561.0,0.010639186223752484
1560.0,0.010550182333308289
1559.0,0.01046119667949763
1558.0,0.010194349063173958
1557.0,0.009927665307847056
1556.0,0.00974996707218323
1555.0,0.00966114521239847
1554.0,0.009572341514736404
1553.0,0.009483555971770974
1552.0,0.009350411681145587
1551.0,0.009172949432521227
1550.0,0.008951223547323472
1549.0,0.008773924307505121
1548.0,0.008640997362049818
1547.0,0.008552401996197112
1546.0,0.008463824699968647
1545.0,0.008419542825660153
1544.0,0.008375265465994541
1543.0,0.008286724286910463
1542.0,0.008242460465651913
1541.0,0.008153946355103248
1540.0,0.008109696063975047
1539.0,0.008021209005416363
1538.0,0.007932739972333236
1537.0,0.007888512213050314
1536.0,0.007888512213050314
1535.0,0.007888512213050314
1534.0,0.007976972236149349
1533.0,0.008153946355103248
1532.0,0.008242460465651913
1531.0,0.008198201155356077
1530.0,0.008198201155356077
1529.0,0.008242460465651913
1528.0,0.008286724286910463
1527.0,0.008286724286910463
1526.0,0.008242460465651913
1525.0,0.008109696063975047
1524.0,0.007888512213050314
1523.0,0.007667440952535687
1522.0,0.0074464821678643656
1521.0,0.007402303897961815
1520.0,0.007358130121602358
1519.0,0.007313960837872058
1518.0,0.007313960837872058
1517.0,0.007269796045857202
1516.0,0.007137328610972382
1515.0,0.007049039429553483
1514.0,0.007004901568658406
1513.0,0.007225635744644521
1512.0,0.00762324020119709
1511.0,0.008198201155356077
1510.0,0.008906891951112605
1509.0,0.009972101229705377
1508.0,0.012423105273012602
1507.0,0.016689514205884493
1506.0,0.01995115493504329
1505.0,0.020633757603838898
1504.0,0.019860222254245663
1503.0,0.018362575344230914
1502.0,0.016418813294209356
1501.0,0.014259258949925524
1500.0,0.01215504982870197
1499.0,0.010283280051895272
1498.0,0.0087296108049002
1497.0,0.007534852191956709
1496.0,0.006696062080525422
1495.0,0.006079041198713275
1494.0,0.005638848091999105
1493.0,0.005330978174470591
1492.0,0.005155150446602086
1491.0,0.005067263269958211
1490.0,0.004935465843858511
1489.0,0.004935465843858511
1488.0,0.00489154225525934
1487.0,0.004803708402820517
1486.0,0.004759798137184523
1485.0,0.004803708402820517
1484.0,0.00489154225525934
1483.0,0.004979393875242044
1482.0,0.005067263269958211
1481.0,0.005199100705396198
1480.0,0.005330978174470591
1479.0,0.005462895701502157
1478.0,0.005638848091999105
1477.0,0.005858888873877532
1476.0,0.006079041198713275
1475.0,0.00621118618129457
1474.0,0.006343371384537999
1473.0,0.00656376950238835
1472.0,0.006916639301937977
1471.0,0.007181479933320523
1470.0,0.0074464821678643656
1469.0,0.007800070204414977
1468.0,0.008330992620051436
1467.0,0.008951223547323472
1466.0,0.009838807101520963
1465.0,0.011084479487313281
1464.0,0.012378417874516323
1463.0,0.013496984613259544
1462.0,0.014438812226654996
1461.0,0.015247721884586563
1460.0,0.016013078034810446
1459.0,0.016960383953898095
1458.0,0.018543833477873584
1457.0,0.020724852408976924
1456.0,0.0221849739168134
1455.0,0.022733787572707387
1454.0,0.022871099419317753
1453.0,0.02291687968414724
1452.0,0.02282532397981263
1451.0,0.02259651912656535
1450.0,0.022367834754000393
1449.0,0.0221849739168134
1448.0,0.022093572362881675
1447.0,0.02204787879853809
1446.0,0.021956506090037076
1445.0,0.021865152601710403
1444.0,0.021728158389364705
1443.0,0.021545566634771474
1442.0,0.021271822861508305
1441.0,0.0209982515252789
1440.0,0.020542681902151694
1439.0,0.01995115493504329
1438.0,0.019178833355664393
1437.0,0.018181392829336396
1436.0,0.017050711425501408
1435.0,0.015922966097169144
1434.0,0.014798141635428141
1433.0,0.013631406429727155
1432.0,0.012378417874516323
1431.0,0.01117359295472431
1430.0,0.01001654169860089
1429.0,0.008995559669244813
1428.0,0.008153946355103248
1427.0,0.00762324020119709
1426.0,0.007225635744644521
1425.0,0.006916639301937977
1424.0,0.006740168563263094
1423.0,0.006651960076740071
1422.0,0.006696062080525422
1421.0,0.007093181776687496
1420.0,0.008109696063975047
1419.0,0.010060986715464404
1418.0,0.01264661126420652
1417.0,0.015697768020096703
1416.0,0.019315025636685412
1415.0,0.023787622882622816
1414.0,0.029188389127482228
1413.0,0.03559892883726867
1412.0,0.04253638427006878
1411.0,0.048905443158337114
1410.0,0.053449489430144714
1409.0,0.05571477931124735
1408.0,0.05561604235915585
1407.0,0.05340037498486727
1406.0,0.04963514562387683
1405.0,0.04527520902093718
1404.0,0.041101805289228244
1403.0,0.037583306554248797
1402.0,0.03465716443937783
1401.0,0.03217132066984485
1400.0,0.029885677714903025
1399.0,0.027797161620935595
1398.0,0.026087429580295085
1397.0,0.024568191490736968
1396.0,0.023100049017062307
1395.0,0.02159120737696063
1394.0,0.020178569969774962
1393.0,0.0190880622231564
1392.0,0.018181392829336396
1391.0,0.017321806616515723
1390.0,0.01646391839700767
1389.0,0.015652742414136167
1388.0,0.014977917890464765
1387.0,0.014573525916998342
1386.0,0.014259258949925524
1385.0,0.014124642691606404
1384.0,0.014169510141607944
1383.0,0.014393916947563534
1382.0,0.014888020460646079
1381.0,0.015607721475734415
1380.0,0.016599261819461697
1379.0,0.01768353030793479
1378.0,0.018815862601645694
1377.0,0.019996628416253603
1376.0,0.021317434843055594
1375.0,0.02282532397981263
1374.0,0.024338466818941473
1373.0,0.025488307262671706
1372.0,0.026225806029419818
1371.0,0.026595025589939425
1370.0,0.026595025589939425
1369.0,0.026041313893296225
1368.0,0.024890010313838973
1367.0,0.023283295636617574
1366.0,0.021271822861508305
1365.0,0.0190880622231564
1364.0,0.016734647433454652
1363.0,0.014259258949925524
1362.0,0.01215504982870197
1361.0,0.010550182333308289
1360.0,0.00939478857608056
1359.0,0.008552401996197112
1358.0,0.007888512213050314
1357.0,0.007358130121602358
1356.0,0.007004901568658406
1355.0,0.006784279525863024
1354.0,0.006740168563263094
1353.0,0.006828394969235152
1352.0,0.007137328610972382
1351.0,0.007534852191956709
1350.0,0.008065450281052211
1349.0,0.008685301823389224
1348.0,0.009439170005980158
1347.0,0.01037222925484893
1346.0,0.011441043121384498
1345.0,0.01264661126420652
1344.0,0.01381070026317599
1343.0,0.014843078722943437
1342.0,0.015652742414136167
1341.0,0.016238439713835096
1340.0,0.016509028184833463
1339.0,0.016238439713835096
1338.0,0.01547268665620738
1337.0,0.014304140310157809
1336.0,0.013049212141483357
1335.0,0.011797899741219142
1334.0,0.010728208358306901
1333.0,0.009883233932095559
1332.0,0.009306039320248427
1331.0,0.008995559669244813
1330.0,0.008951223547323472
1329.0,0.009128595198514056
1328.0,0.009483555971770974
1327.0,0.009972101229705377
1326.0,0.010639186223752484
1325.0,0.011530229790124524
1324.0,0.012467797270160563
1323.0,0.013496984613259544
1322.0,0.01452861671041239
1321.0,0.015562705203923999
1320.0,0.016644385668211692
1319.0,0.017728766960431575
1318.0,0.018815862601645694
1317.0,0.019860222254245663
1316.0,0.020907099361673565
1315.0,0.02204787879853809
1314.0,0.023237476732539397
1313.0,0.024568191490736968
1312.0,0.025995203102585407
1311.0,0.02751945012352408
1310.0,0.029095501846216454
1309.0,0.0307239045110681
1308.0,0.03240522732811035
1307.0,0.03409308450480819
1306.0,0.035646070707806565
1305.0,0.037251946641359446
1304.0,0.03905380426616856
1303.0,0.041101805289228244
1302.0,0.04344740808260106
1301.0,0.04624030826677128
1300.0,0.04944043838819989
1299.0,0.05290953578037816
1298.0,0.05660442349104544
1297.0,0.06048074738138154
1296.0,0.06449273417528723
1295.0,0.06844043290919477
1294.0,0.07232173586200852
1293.0,0.07608277688689435
1292.0,0.07972010536705154
1291.0,0.0832303157168639
1290.0,0.08650404038287651
1289.0,0.08964244272712252
1288.0,0.09264239186882706
1287.0,0.09528445472131919
1286.0,0.09761631556752848
1285.0,0.09974214156222239
1284.0,0.10165883427249067
1283.0,0.1033635694704158
1282.0,0.10479852522110678
1281.0,0.10601643278815298
1280.0,0.1071265931112344
1279.0,0.10801676914803293
1278.0,0.10879717273970457
1277.0,0.10969078310005154
1276.0,0.11092250734993603
1275.0,0.11243895906999102
1274.0,0.11441264381034388
1273.0,0.11702034596270106
1272.0,0.1203880929341492
1271.0,0.12430223801979201
1270.0,0.1286022185125162
1269.0,0.13329924395750092
1268.0,0.13816700234205515
1267.0,0.14302956651750764
1266.0,0.1477030341730745
1265.0,0.15224231160766877
1264.0,0.1565180569600424
1263.0,0.1602706247936121
1262.0,0.163359458427226
1261.0,0.16596098184053343
1260.0,0.16800232276410365
1259.0,0.1693471862025755
1258.0,0.1701175535565067
1257.0,0.1706318920111798
1256.0,0.1711468403233598
1255.0,0.17159792150840691
1254.0,0.17224313702138327
1253.0,0.173212761183708
1252.0,0.17463880404736676
1251.0,0.17639537164484187
1250.0,0.17835548245778288
1249.0,0.180587688790675
1248.0,0.18309616062433975
1247.0,0.18575240426807982
1246.0,0.188357978546849
1245.0,0.1910467008440888
1244.0,0.19368433019188647
1243.0,0.1960651501361581
1242.0,0.1981162928747604
1241.0,0.19997064075586568
1240.0,0.20155653964981246
1239.0,0.20252471246266568
1238.0,0.20259395032361804
1237.0,0.20176382363206424
1236.0,0.20017716900668026
1235.0,0.1977052886025361
1234.0,0.19436323369406505
1233.0,0.19044028536473223
1232.0,0.1859522790044006
1231.0,0.18085105719286587
1230.0,0.17528855653526554
1229.0,0.16966800654803826
1228.0,0.16399254087446846
1227.0,0.1583902878315646
1226.0,0.15267416921457633
1225.0,0.14697138528701026
1224.0,0.1413425159091921
1223.0,0.13572630319562085
1222.0,0.13012318673323353
1221.0,0.12482294018529605
1220.0,0.11975822410451964
1219.0,0.114865033936566
1218.0,0.11030620855581463
1217.0,0.10601643278815298
1216.0,0.10204318999304807
1215.0,0.09821485469640057
1214.0,0.09458193129745807
1213.0,0.09108625997902897
1212.0,0.08788427092114603
1211.0,0.08481129482684358
1210.0,0.08186477383364066
1209.0,0.079094395835976
1208.0,0.07654873036034848
1207.0,0.07417242537525759
1206.0,0.0718090519612431
1205.0,0.06956040523329987
1204.0,0.06742477650170953
1203.0,0.0654005617819271
1202.0,0.06348625752110681
1201.0,0.061680456657844385
1200.0,0.05993198626064755
1199.0,0.05814087347462649
1198.0,0.05625823416868636
1197.0,0.05443294655761144
1196.0,0.05266432405126009
1195.0,0.05095170768433621
1194.0,0.04939177521576932
1193.0,0.047934409814949674
1192.0,0.04653025674659861
1191.0,0.04522701031028298
1190.0,0.04397571771932274
1189.0,0.04282386959515394
1188.0,0.04186632432376469
1187.0,0.041006334969674096
1186.0,0.040338629726504704
1185.0,0.039909932095080425
1184.0,0.039719535563357944
1183.0,0.03986232513620536
1182.0,0.0402909757535701
1181.0,0.04091088563260792
1180.0,0.04167506835594681
1179.0,0.042584285277331047
1178.0,0.04344740808260106
1177.0,0.04421607108308856
1176.0,0.04474531717982
1175.0,0.04503426894157925
1174.0,0.044937930324967956
1173.0,0.04440844959427559
1172.0,0.04344740808260106
1171.0,0.042057664554595586
1170.0,0.0402909757535701
1169.0,0.038341651362284734
1168.0,0.03635381351515665
1167.0,0.034469056377139484
1166.0,0.03273290844021437
1165.0,0.031190286087141805
1164.0,0.029932203450862893
1163.0,0.028863370523193765
1162.0,0.02798240132598462
1161.0,0.027288159452933503
1160.0,0.02682594731702781
1159.0,0.026595025589939425
1158.0,0.02664120011360227
1157.0,0.026872146400301444
1156.0,0.027334407733889066
1155.0,0.02798240132598462
1154.0,0.02890978686288448
1153.0,0.030164906924202484
1152.0,0.03170388495374454
1151.0,0.03357665405630694
1150.0,0.035740369803151095
1149.0,0.038199360808321536
1148.0,0.040958607678906356
1147.0,0.0439276630048171
1146.0,0.047062332249019345
1145.0,0.050317309204795935
1144.0,0.053646002773725554
1143.0,0.05690137699451481
1142.0,0.06003170944866376
1141.0,0.06313454102437754
1140.0,0.06605739725873905
1139.0,0.06884736147670667
1138.0,0.07145053299833615
1137.0,0.07386342893255127
1136.0,0.07608277688689435
1135.0,0.07810552907089763
1134.0,0.08008551934056851
1133.0,0.08202211740709164
1132.0,0.08407278830288423
1131.0,0.08618614761628329
1130.0,0.0885227828938977
1129.0,0.09124698081546634
1128.0,0.09441997176475758
1127.0,0.09799710864927058
1126.0,0.10187842445889239
1125.0,0.10612732120491852
1124.0,0.1106422631110684
1123.0,0.11526126223036814
1122.0,0.11958660012208333
1121.0,0.12349349573411894
1120.0,0.1267375405612734
1119.0,0.12924505510985984
1118.0,0.1308269726783169
1117.0,0.13153190097901324
1116.0,0.13135556160517425
1115.0,0.13018179202067182
1114.0,0.12836869546244634
1113.0,0.12644690648638135
1112.0,0.1248808345374317
1111.0,0.12424442074194553
1110.0,0.12476505354983503
1109.0,0.1267375405612734
1108.0,0.13006458935314003
1107.0,0.13448148092522594
1106.0,0.13978181533124334
1105.0,0.14575470293388149
1104.0,0.15224231160766877
1103.0,0.1588909155318461
1102.0,0.16545214231905137
1101.0,0.17198493577602325
1100.0,0.17835548245778288
1099.0,0.18435585086803474
1098.0,0.18970025895983111
1097.0,0.19429529556613567
1096.0,0.1981848314185628
1095.0,0.20107326142279858
1094.0,0.20300960945431368
1093.0,0.2041199826559248
1092.0,0.20446755728984556
1091.0,0.2041199826559248
1090.0,0.20307892466983124
1089.0,0.20169471797802352
1088.0,0.20003947259401644
1087.0,0.19784224681303852
1086.0,0.19524739784953948
1085.0,0.19239733008350535
1084.0,0.18943147078358713
1083.0,0.18601892436352818
1082.0,0.1821703002543944
1081.0,0.1778973313530796
1080.0,0.17327747983100794
1079.0,0.16813022571949832
1078.0,0.1626009756579776
1077.0,0.15682953548010214
1076.0,0.15107228677292173
1075.0,0.14514763758216587
1074.0,0.13924287691845794
1073.0,0.13353543402825974
1072.0,0.1281352979118051
1071.0,0.12291674334934943
1070.0,0.11781711236973003
1069.0,0.112945621949043
1068.0,0.10835105612944096
1067.0,0.10408045468998406
1066.0,0.10034361969436434
1065.0,0.09718153191774648
1064.0,0.09447395156495153
1063.0,0.0917831469106074
1062.0,0.08905559425002108
1061.0,0.08655704514060414
1060.0,0.08444188458847957
1059.0,0.08265206237222844
1058.0,0.0812883346176787
1057.0,0.08045124103115198
1056.0,0.08029446545087904
1055.0,0.08060807322614072
1054.0,0.08134070657817682
1053.0,0.08238947425013277
1052.0,0.08380934001946239
1051.0,0.08539243222891946
1050.0,0.08708744882390307
1049.0,0.08900228368935714
1048.0,0.0910326995816122
1047.0,0.09296504751658308
1046.0,0.09468993788391455
1045.0,0.096150661903319
1044.0,0.09734452478207412
1043.0,0.09821485469640057
1042.0,0.09875969792669093
1041.0,0.09903237608087578
1040.0,0.0989778267519208
1039.0,0.09848719087006019
1038.0,0.09772507952549825
1037.0,0.09685572959046151
1036.0,0.09604229147682952
1035.0,0.09523037409340485
1034.0,0.09431203228814788
1033.0,0.09334178232840018
1032.0,0.09226626300234453
1031.0,0.09108625997902897
1030.0,0.08980263003399913
1029.0,0.08857603462370545
1028.0,0.08740600224789441
1027.0,0.08650404038287651
1026.0,0.08592141461088798
1025.0,0.0861331881037608
1024.0,0.08767164203958999
1023.0,0.09113982698272349
1022.0,0.09718153191774648
1021.0,0.10579474085791629
1020.0,0.1165657063169907
1019.0,0.1281352979118051
1018.0,0.13864483980673992
1017.0,0.14624096692523136
1016.0,0.14953756723848333
1015.0,0.1479471913021495
1014.0,0.14206473528057106
1013.0,0.13371266091580503
1012.0,0.12459143992293642
1011.0,0.11594135290606156
1010.0,0.10835105612944096
1009.0,0.10193333935836524
1008.0,0.09653017149282994
1007.0,0.0919977988274463
1006.0,0.0881502035005799
1005.0,0.08491689834879956
1004.0,0.08228448344050654
1003.0,0.08003329851661278
1002.0,0.07794959783282618
1001.0,0.07608277688689435
1000.0,0.07443009045662374
999.0,0.0729891310243489
998.0,0.07170658776779781
997.0,0.07052998382251041
996.0,0.06940751155740177
995.0,0.068389593637038
994.0,0.06742477650170953
993.0,0.0666645899223488
992.0,0.06605739725873905
991.0,0.06545105233385295
990.0,0.06484555278383164
989.0,0.06429125215733666
988.0,0.06388856832514578
987.0,0.06353652599525317
986.0,0.06328524178879635
985.0,0.06298389253518577
984.0,0.0627329277885873
983.0,0.06253226035662252
982.0,0.06243196139961715
981.0,0.062331685600995
980.0,0.062281556382736136
979.0,0.06223143295006417
978.0,0.06218131530164395
977.0,0.062131203436140536
976.0,0.06208109735221967
975.0,0.06193081377661436
974.0,0.06173051653708872
973.0,0.06163040254819374
972.0,0.06153031163235467
971.0,0.06123017721688262
970.0,0.060730413661268745
969.0,0.060081579630943294
968.0,0.05938391766259232
967.0,0.05858795962645047
966.0,0.057743849580535134
965.0,0.05690137699451481
964.0,0.05606053552778367
963.0,0.055122694036304765
962.0,0.05423607688882637
961.0,0.05340037498486727
960.0,0.052762392129333646
959.0,0.05222329153526162
958.0,0.0515870342213991
957.0,0.050902874887084115
956.0,0.050171041064686284
955.0,0.04944043838819989
954.0,0.048905443158337114
953.0,0.04851676924770687
952.0,0.04827402457540786
951.0,0.04807992647970649
950.0,0.0478374257855374
949.0,0.04754660357696672
948.0,0.04720755695590784
947.0,0.04686877481655505
946.0,0.046481918555007384
945.0,0.04609540658654021
944.0,0.04575749056067524
943.0,0.04541983725624266
942.0,0.0451788169482068
941.0,0.044986096961949995
940.0,0.04488976902944808
939.0,0.04469717723830824
938.0,0.04450467081587295
937.0,0.044312249686494276
936.0,0.044167989767578186
935.0,0.04411991377462465
934.0,0.04402377775167454
933.0,0.04397571771932274
932.0,0.04387961360698034
931.0,0.04368746915880539
930.0,0.04339941178682327
929.0,0.04301563225723992
928.0,0.04268010314465909
927.0,0.042392712939904875
926.0,0.042057664554595586
925.0,0.04181850243505214
924.0,0.04153168163305643
923.0,0.041340572947066834
922.0,0.041149548320321694
921.0,0.04091088563260792
920.0,0.04072004986906119
919.0,0.040481623027001756
918.0,0.04019568349166214
917.0,0.040005161671583744
916.0,0.03995754427315856
915.0,0.04010041213405646
914.0,0.04038628892895613
913.0,0.04086316882962593
912.0,0.041483896576958834
911.0,0.042201225070002124
910.0,0.04315950984076644
909.0,0.04426415772233416
908.0,0.045612749855485024
907.0,0.04711073508906982
906.0,0.04875964967565971
905.0,0.0506099933550872
904.0,0.05256627811294923
903.0,0.05438372077326825
902.0,0.05601112492622806
901.0,0.05749589383191922
900.0,0.05868737463933793
899.0,0.0595831353183347
898.0,0.060081579630943294
897.0,0.060430831344098435
896.0,0.060730413661268745
895.0,0.06093025007657582
894.0,0.0611301784870133
893.0,0.06128018521761747
892.0,0.061380218497318895
891.0,0.06143024377893891
890.0,0.06153031163235467
889.0,0.06173051653708872
888.0,0.062281556382736136
887.0,0.06298389253518577
886.0,0.06388856832514578
885.0,0.06499684854634524
884.0,0.06641148980334699
883.0,0.0681862960408608
882.0,0.07032568205141221
881.0,0.07293775650699996
880.0,0.0760310351245288
879.0,0.07951143534170213
878.0,0.08328292240118751
877.0,0.08719360733870762
876.0,0.09113982698272349
875.0,0.09479797133768142
874.0,0.09777947172068524
873.0,0.09968750301627338
872.0,0.10028890542885538
871.0,0.09925064193892053
870.0,0.09685572959046151
869.0,0.09344948089854999
868.0,0.08964244272712252
867.0,0.0856568428805593
866.0,0.08165507103772507
865.0,0.07789763319239285
864.0,0.07458476291575367
863.0,0.0718090519612431
862.0,0.06961138175567827
861.0,0.06793230779927839
860.0,0.0665127121512945
859.0,0.0653500770992892
858.0,0.06444235490698613
857.0,0.06393888339001164
856.0,0.06378795567975115
855.0,0.06373765809652254
854.0,0.06373765809652254
853.0,0.06363708040225546
852.0,0.0636873663378068
851.0,0.0636873663378068
850.0,0.06363708040225546
849.0,0.06343599486473406
848.0,0.06323500239005853
847.0,0.0630843190547461
846.0,0.06313454102437754
845.0,0.06328524178879635
844.0,0.06353652599525317
843.0,0.06363708040225546
842.0,0.06348625752110681
841.0,0.06318476880236723
840.0,0.06293368798257193
839.0,0.06278310913729457
838.0,0.06258241852286206
837.0,0.062131203436140536
836.0,0.06143024377893891
835.0,0.06048074738138154
834.0,0.0595831353183347
833.0,0.0588862729628985
832.0,0.0582898510583536
831.0,0.0575950591438934
830.0,0.05690137699451481
829.0,0.05625823416868636
828.0,0.05571477931124735
827.0,0.055172003656783764
826.0,0.05462990550969615
825.0,0.05413767551038262
824.0,0.05369514500652506
823.0,0.05325306496641513
822.0,0.05271335532220167
821.0,0.05222329153526162
820.0,0.05192951848105887
819.0,0.05192951848105887
818.0,0.05207638016827354
817.0,0.05227227303668425
816.0,0.05237025261564554
815.0,0.05227227303668425
814.0,0.05207638016827354
813.0,0.05188057561946402
812.0,0.05178270644002936
811.0,0.05173378011970464
810.0,0.05163594401163074
809.0,0.05153812993871654
808.0,0.05144033789103841
807.0,0.05139145012356372
806.0,0.05139145012356372
805.0,0.05129369109514803
804.0,0.051049389754451946
803.0,0.05051241005349638
802.0,0.04987865248862655
801.0,0.04948910701400333
800.0,0.04973253198641148
799.0,0.05065879322950262
798.0,0.05212534510230182
797.0,0.05394093961487645
796.0,0.055912320584565744
795.0,0.05789269101064454
794.0,0.0595831353183347
793.0,0.060530669156469985
792.0,0.06048074738138154
791.0,0.05943371350990989
790.0,0.05754547365752294
789.0,0.05522131887649295
788.0,0.052762392129333646
787.0,0.050317309204795935
786.0,0.047982909952573705
785.0,0.045902279520810385
784.0,0.04411991377462465
783.0,0.04263219156847242
782.0,0.041483896576958834
781.0,0.04043395336207234
780.0,0.03929144831144349
779.0,0.038057116858612794
778.0,0.03692083935817303
777.0,0.036117771071222604
776.0,0.03550466044490741
775.0,0.03498654972775217
774.0,0.03432802877989327
773.0,0.03362357691107709
772.0,0.032873418923587305
771.0,0.032124554451966825
770.0,0.031236951802751545
769.0,0.03025802323714588
768.0,0.029281296279810798
767.0,0.02839947976994095
766.0,0.027658283674251827
765.0,0.027056991894431892
764.0,0.02654885597506529
763.0,0.025995203102585407
762.0,0.02539620791296726
761.0,0.02475205875931885
760.0,0.023925268380126097
759.0,0.02291687968414724
758.0,0.021956506090037076
757.0,0.021135015652343103
756.0,0.02058821736556471
755.0,0.02013307743509718
754.0,0.019723858922159776
753.0,0.0192242260373785
752.0,0.018815862601645694
751.0,0.018543833477873584
750.0,0.018543833477873584
749.0,0.018679826740892747
748.0,0.018770512579999288
747.0,0.018770512579999288
746.0,0.019042683770379876
745.0,0.02022406727031445
744.0,0.022642270454698687
743.0,0.026456531467510258
742.0,0.03179733185715028
741.0,0.039006291057664066
740.0,0.04817696468408794
739.0,0.05923456436878238
738.0,0.0718090519612431
737.0,0.08549817717268593
736.0,0.09979678698310646
735.0,0.11401718864502697
734.0,0.12819363554127072
733.0,0.1427881576831076
732.0,0.15826522102525642
731.0,0.17444406770964305
730.0,0.19111413264018795
729.0,0.2087305190897315
728.0,0.22716507276098175
727.0,0.24519314464557662
726.0,0.2609025538825249
725.0,0.27245874297144357
724.0,0.27827180142721186
723.0,0.27695500835655484
722.0,0.26841123481326123
721.0,0.25383303562271453
720.0,0.23582386760966934
719.0,0.21702600505595182
718.0,0.1994203784308699
717.0,0.1838250095711984
716.0,0.17056756638240134
715.0,0.15958022226351387
714.0,0.15076490868527737
713.0,0.1438755557576996
712.0,0.13828641242856565
711.0,0.13341732293645103
710.0,0.12889429901441463
709.0,0.1248808345374317
708.0,0.12153565465853111
707.0,0.11861534322942724
706.0,0.11582793047608719
705.0,0.11311464101399138
704.0,0.11047420332880886
703.0,0.10784972209863586
702.0,0.10501970907203151
701.0,0.10187842445889239
700.0,0.09854167860388774
699.0,0.09517630019905599
698.0,0.0919977988274463
697.0,0.08916223500731646
696.0,0.0867691288864394
695.0,0.08486409337798806
694.0,0.08333553545860273
693.0,0.08202211740709164
692.0,0.08066036321258663
691.0,0.07914650387874067
690.0,0.07768983678560404
689.0,0.07675598136972361
688.0,0.07634157820669385
687.0,0.07623803917129979
686.0,0.07592757008963713
685.0,0.07525564752005143
684.0,0.07432700607875953
683.0,0.07334892291111106
682.0,0.07247565912497134
681.0,0.07160414774328627
680.0,0.07052998382251041
679.0,0.0692037370166998
678.0,0.06788152797087754
677.0,0.06681652082538614
676.0,0.06610796423578891
675.0,0.06560255921901192
674.0,0.06514819703433927
673.0,0.06474471821595262
672.0,0.06424089625468832
671.0,0.0636873663378068
670.0,0.06288348923294618
669.0,0.061680456657844385
668.0,0.060530669156469985
667.0,0.05978244440026481
666.0,0.058936011780097886
665.0,0.0583395216116076
664.0,0.05794231615860479
663.0,0.05744631966579017
662.0,0.05665390164340933
661.0,0.055764156206519866
660.0,0.055172003656783764
659.0,0.054728418492290265
658.0,0.05428528594013993
657.0,0.053646002773725554
656.0,0.05300765925162776
655.0,0.052468254304406825
654.0,0.05197846685889629
653.0,0.05134256785867963
652.0,0.05075640943173498
651.0,0.05051241005349638
650.0,0.05075640943173498
649.0,0.05134256785867963
648.0,0.05188057561946402
647.0,0.05188057561946402
646.0,0.051049389754451946
645.0,0.04987865248862655
644.0,0.04919717703534143
643.0,0.04944043838819989
642.0,0.05021979163799939
641.0,0.05075640943173498
640.0,0.050902874887084115
639.0,0.05148923116234294
638.0,0.05305672930217464
637.0,0.055172003656783764
636.0,0.05685187064143715
635.0,0.05769424710410598
634.0,0.05804158346918653
633.0,0.0583395216116076
632.0,0.058190526991161784
631.0,0.057198533682059516
630.0,0.05536929814372171
629.0,0.053449489430144714
628.0,0.052027420754219955
627.0,0.05148923116234294
626.0,0.05153812993871654
625.0,0.05173378011970464
624.0,0.05163594401163074
623.0,0.05129369109514803
622.0,0.050805225762017736
621.0,0.05002482217034632
620.0,0.04866248120408234
619.0,0.04720755695590784
618.0,0.04667530361081473
617.0,0.04749815213697639
616.0,0.048905443158337114
615.0,0.05002482217034632
614.0,0.05065879322950262
613.0,0.05095170768433621
612.0,0.05075640943173498
611.0,0.04997609347667353
610.0,0.04885683989244738
609.0,0.04803141550708934
608.0,0.047691990337874746
607.0,0.04774046340917959
606.0,0.0478374257855374
605.0,0.047691990337874746
604.0,0.04701393480294458
603.0,0.046047116768076934
602.0,0.045323413081356456
601.0,0.0451788169482068
600.0,0.04580574818413763
