cm-1,A
4000.0,-0.0067226922016847546
3999.0,-0.0066799277408255975
3998.0,-0.0066799277408255975
3997.0,-0.0066799277408255975
3996.0,-0.006637159068586307
3995.0,-0.00659438618413688
3994.0,-0.006551609086648202
3993.0,-0.00659438618413688
3992.0,-0.006637159068586307
3991.0,-0.0066799277408255975
3990.0,-0.0067226922016847546
3989.0,-0.006765452451992449
3988.0,-0.006765452451992449
3987.0,-0.0067226922016847546
3986.0,-0.00659438618413688
3985.0,-0.006508827775289827
3984.0,-0.006423252507643085
3983.0,-0.006423252507643085
3982.0,-0.006380458549692936
3981.0,-0.006380458549692936
3980.0,-0.006380458549692936
3979.0,-0.006423252507643085
3978.0,-0.0064660422492317515
3977.0,-0.00659438618413688
3976.0,-0.0066799277408255975
3975.0,-0.006765452451992449
3974.0,-0.006808208492578682
3973.0,-0.006765452451992449
3972.0,-0.0066799277408255975
3971.0,-0.006551609086648202
3970.0,-0.006423252507643085
3969.0,-0.0063376603745508575
3968.0,-0.0062948579813855154
3967.0,-0.006380458549692936
3966.0,-0.0064660422492317515
3965.0,-0.006551609086648202
3964.0,-0.00659438618413688
3963.0,-0.006637159068586307
3962.0,-0.0066799277408255975
3961.0,-0.006765452451992449
3960.0,-0.006765452451992449
3959.0,-0.006765452451992449
3958.0,-0.006637159068586307
3957.0,-0.006508827775289827
3956.0,-0.006508827775289827
3955.0,-0.006551609086648202
3954.0,-0.006637159068586307
3953.0,-0.006637159068586307
3952.0,-0.006551609086648202
3951.0,-0.0064660422492317515
3950.0,-0.006423252507643085
3949.0,-0.006508827775289827
3948.0,-0.0066799277408255975
3947.0,-0.006765452451992449
3946.0,-0.0067226922016847546
3945.0,-0.00659438618413688
3944.0,-0.006508827775289827
3943.0,-0.006551609086648202
3942.0,-0.0066799277408255975
3941.0,-0.006808208492578682
3940.0,-0.006808208492578682
3939.0,-0.0066799277408255975
3938.0,-0.00659438618413688
3937.0,-0.006551609086648202
3936.0,-0.006551609086648202
3935.0,-0.006637159068586307
3934.0,-0.006637159068586307
3933.0,-0.0066799277408255975
3932.0,-0.0067226922016847546
3931.0,-0.0067226922016847546
3930.0,-0.006765452451992449
3929.0,-0.006765452451992449
3928.0,-0.006765452451992449
3927.0,-0.006808208492578682
3926.0,-0.0068937079479005625
3925.0,-0.00697919057427665
3924.0,-0.00697919057427665
3923.0,-0.00697919057427665
3922.0,-0.0068937079479005625
3921.0,-0.006765452451992449
3920.0,-0.0067226922016847546
3919.0,-0.006765452451992449
3918.0,-0.0068937079479005625
3917.0,-0.007064656378331868
3916.0,-0.007192823557040651
3915.0,-0.007192823557040651
3914.0,-0.007021925578680754
3913.0,-0.0067226922016847546
3912.0,-0.0064660422492317515
3911.0,-0.006252051369364686
3910.0,-0.006209240537657479
3909.0,-0.006252051369364686
3908.0,-0.0062948579813855154
3907.0,-0.006423252507643085
3906.0,-0.006637159068586307
3905.0,-0.0068937079479005625
3904.0,-0.007150105366684922
3903.0,-0.007320952922744706
3902.0,-0.0074063515036710825
3901.0,-0.0074063515036710825
3900.0,-0.007320952922744706
3899.0,-0.007278247334244092
3898.0,-0.007235537545951853
3897.0,-0.007150105366684922
3896.0,-0.00710738297405733
3895.0,-0.007064656378331868
3894.0,-0.007021925578680754
3893.0,-0.00697919057427665
3892.0,-0.0068937079479005625
3891.0,-0.006936451364292662
3890.0,-0.00710738297405733
3889.0,-0.007320952922744706
3888.0,-0.007491733295335923
3887.0,-0.007534417897257839
3886.0,-0.007577098304338836
3885.0,-0.007619774517403144
3884.0,-0.0077051143647803855
3883.0,-0.007747778000740002
3882.0,-0.007577098304338836
3881.0,-0.007363654312278367
3880.0,-0.007192823557040651
3879.0,-0.007150105366684922
3878.0,-0.007192823557040651
3877.0,-0.007150105366684922
3876.0,-0.007021925578680754
3875.0,-0.006936451364292662
3874.0,-0.007021925578680754
3873.0,-0.007235537545951853
3872.0,-0.007363654312278367
3871.0,-0.007235537545951853
3870.0,-0.00697919057427665
3869.0,-0.006850960324272126
3868.0,-0.0068937079479005625
3867.0,-0.006936451364292662
3866.0,-0.006936451364292662
3865.0,-0.0068937079479005625
3864.0,-0.006936451364292662
3863.0,-0.007021925578680754
3862.0,-0.00710738297405733
3861.0,-0.00710738297405733
3860.0,-0.007021925578680754
3859.0,-0.006936451364292662
3858.0,-0.006936451364292662
3857.0,-0.00710738297405733
3856.0,-0.007449044497748858
3855.0,-0.007833092701319266
3854.0,-0.008003671840159488
3853.0,-0.008046306158350447
3852.0,-0.008088936291577475
3851.0,-0.007961033336183032
3850.0,-0.007577098304338836
3849.0,-0.007150105366684922
3848.0,-0.006850960324272126
3847.0,-0.0066799277408255975
3846.0,-0.006637159068586307
3845.0,-0.006637159068586307
3844.0,-0.006637159068586307
3843.0,-0.0067226922016847546
3842.0,-0.006850960324272126
3841.0,-0.007064656378331868
3840.0,-0.007278247334244092
3839.0,-0.007363654312278367
3838.0,-0.007320952922744706
3837.0,-0.007235537545951853
3836.0,-0.007064656378331868
3835.0,-0.006850960324272126
3834.0,-0.0066799277408255975
3833.0,-0.00659438618413688
3832.0,-0.006551609086648202
3831.0,-0.006551609086648202
3830.0,-0.006637159068586307
3829.0,-0.0066799277408255975
3828.0,-0.0067226922016847546
3827.0,-0.0066799277408255975
3826.0,-0.0066799277408255975
3825.0,-0.0067226922016847546
3824.0,-0.006808208492578682
3823.0,-0.006808208492578682
3822.0,-0.0067226922016847546
3821.0,-0.0066799277408255975
3820.0,-0.006808208492578682
3819.0,-0.0068937079479005625
3818.0,-0.006850960324272126
3817.0,-0.006637159068586307
3816.0,-0.006508827775289827
3815.0,-0.00659438618413688
3814.0,-0.006765452451992449
3813.0,-0.006850960324272126
3812.0,-0.006765452451992449
3811.0,-0.0067226922016847546
3810.0,-0.0067226922016847546
3809.0,-0.006765452451992449
3808.0,-0.0067226922016847546
3807.0,-0.0067226922016847546
3806.0,-0.006850960324272126
3805.0,-0.007064656378331868
3804.0,-0.007150105366684922
3803.0,-0.007150105366684922
3802.0,-0.007064656378331868
3801.0,-0.007150105366684922
3800.0,-0.007363654312278367
3799.0,-0.0074063515036710825
3798.0,-0.007192823557040651
3797.0,-0.006808208492578682
3796.0,-0.006551609086648202
3795.0,-0.006508827775289827
3794.0,-0.006551609086648202
3793.0,-0.006551609086648202
3792.0,-0.006551609086648202
3791.0,-0.006508827775289827
3790.0,-0.006551609086648202
3789.0,-0.006637159068586307
3788.0,-0.0067226922016847546
3787.0,-0.006808208492578682
3786.0,-0.006808208492578682
3785.0,-0.0067226922016847546
3784.0,-0.0066799277408255975
3783.0,-0.0066799277408255975
3782.0,-0.0067226922016847546
3781.0,-0.006765452451992449
3780.0,-0.0067226922016847546
3779.0,-0.0067226922016847546
3778.0,-0.0067226922016847546
3777.0,-0.0067226922016847546
3776.0,-0.0066799277408255975
3775.0,-0.00659438618413688
3774.0,-0.006551609086648202
3773.0,-0.006551609086648202
3772.0,-0.006508827775289827
3771.0,-0.0064660422492317515
3770.0,-0.006380458549692936
3769.0,-0.006423252507643085
3768.0,-0.006551609086648202
3767.0,-0.0066799277408255975
3766.0,-0.0067226922016847546
3765.0,-0.006765452451992449
3764.0,-0.006850960324272126
3763.0,-0.00697919057427665
3762.0,-0.007021925578680754
3761.0,-0.007021925578680754
3760.0,-0.00697919057427665
3759.0,-0.006850960324272126
3758.0,-0.006808208492578682
3757.0,-0.006850960324272126
3756.0,-0.006936451364292662
3755.0,-0.007150105366684922
3754.0,-0.0074063515036710825
3753.0,-0.0077051143647803855
3752.0,-0.007875743767585153
3751.0,-0.007790437445978515
3750.0,-0.00766244653727588
3749.0,-0.007619774517403144
3748.0,-0.007747778000740002
3747.0,-0.007918390645599072
3746.0,-0.008003671840159488
3745.0,-0.007790437445978515
3744.0,-0.007577098304338836
3743.0,-0.007577098304338836
3742.0,-0.007534417897257839
3741.0,-0.0074063515036710825
3740.0,-0.007235537545951853
3739.0,-0.007192823557040651
3738.0,-0.007235537545951853
3737.0,-0.007192823557040651
3736.0,-0.007150105366684922
3735.0,-0.007235537545951853
3734.0,-0.007491733295335923
3733.0,-0.007619774517403144
3732.0,-0.007491733295335923
3731.0,-0.007235537545951853
3730.0,-0.006936451364292662
3729.0,-0.006637159068586307
3728.0,-0.0064660422492317515
3727.0,-0.006423252507643085
3726.0,-0.006508827775289827
3725.0,-0.006808208492578682
3724.0,-0.00710738297405733
3723.0,-0.007278247334244092
3722.0,-0.007235537545951853
3721.0,-0.00710738297405733
3720.0,-0.006936451364292662
3719.0,-0.006808208492578682
3718.0,-0.0067226922016847546
3717.0,-0.0067226922016847546
3716.0,-0.006765452451992449
3715.0,-0.006808208492578682
3714.0,-0.006850960324272126
3713.0,-0.006850960324272126
3712.0,-0.006850960324272126
3711.0,-0.006850960324272126
3710.0,-0.006765452451992449
3709.0,-0.006551609086648202
3708.0,-0.0063376603745508575
3707.0,-0.006123606211854593
3706.0,-0.006080782716094024
3705.0,-0.006166425485431226
3704.0,-0.006252051369364686
3703.0,-0.0062948579813855154
3702.0,-0.006209240537657479
3701.0,-0.006123606211854593
3700.0,-0.006080782716094024
3699.0,-0.006123606211854593
3698.0,-0.006123606211854593
3697.0,-0.006123606211854593
3696.0,-0.006123606211854593
3695.0,-0.006166425485431226
3694.0,-0.0062948579813855154
3693.0,-0.006423252507643085
3692.0,-0.006551609086648202
3691.0,-0.006551609086648202
3690.0,-0.006508827775289827
3689.0,-0.006508827775289827
3688.0,-0.00659438618413688
3687.0,-0.00659438618413688
3686.0,-0.006423252507643085
3685.0,-0.006166425485431226
3684.0,-0.005952286887382918
3683.0,-0.0058666018753847915
3682.0,-0.00582375302902749
3681.0,-0.00582375302902749
3680.0,-0.005780899954652252
3679.0,-0.00582375302902749
3678.0,-0.005952286887382918
3677.0,-0.006123606211854593
3676.0,-0.0062948579813855154
3675.0,-0.006551609086648202
3674.0,-0.006850960324272126
3673.0,-0.006936451364292662
3672.0,-0.006765452451992449
3671.0,-0.006423252507643085
3670.0,-0.006166425485431226
3669.0,-0.006123606211854593
3668.0,-0.006166425485431226
3667.0,-0.006080782716094024
3666.0,-0.00582375302902749
3665.0,-0.005609445360280407
3664.0,-0.005480809979401258
3663.0,-0.005395031886706203
3662.0,-0.005395031886706203
3661.0,-0.0054379230508221355
3660.0,-0.005480809979401258
3659.0,-0.00552369267327979
3658.0,-0.00552369267327979
3657.0,-0.00552369267327979
3656.0,-0.005566571133294396
3655.0,-0.005780899954652252
3654.0,-0.006037954997317296
3653.0,-0.006209240537657479
3652.0,-0.006252051369364686
3651.0,-0.006037954997317296
3650.0,-0.005566571133294396
3649.0,-0.005309236848516363
3648.0,-0.0054379230508221355
3647.0,-0.005652315355074045
3646.0,-0.005780899954652252
3645.0,-0.005738042651424635
3644.0,-0.005566571133294396
3643.0,-0.0054379230508221355
3642.0,-0.005266332972768684
3641.0,-0.005094675072548682
3640.0,-0.004922949296525481
3639.0,-0.004751155591001144
3638.0,-0.004622265700782613
3637.0,-0.0045792939022115675
3636.0,-0.0045792939022115675
3635.0,-0.004622265700782613
3634.0,-0.004708196544336296
3633.0,-0.004922949296525481
3632.0,-0.005223424858135761
3631.0,-0.005480809979401258
3630.0,-0.005395031886706203
3629.0,-0.005008820672367076
3628.0,-0.004751155591001144
3627.0,-0.004751155591001144
3626.0,-0.004665233247877154
3625.0,-0.004536317851322913
3624.0,-0.004407364176330919
3623.0,-0.004364371107751008
3622.0,-0.004364371107751008
3621.0,-0.004321373782642635
3620.0,-0.004149341900058889
3619.0,-0.004106323279658319
3618.0,-0.004149341900058889
3617.0,-0.004192356259714369
3616.0,-0.004149341900058889
3615.0,-0.003934206173708432
3614.0,-0.0037189638231147626
3613.0,-0.0035897671891400584
3612.0,-0.003546693102131737
3611.0,-0.003503614742536687
3610.0,-0.0033312585613267665
3609.0,-0.0030725959676747294
3608.0,-0.002856926061120646
3607.0,-0.0027706281011936618
3606.0,-0.0027274726898296464
3605.0,-0.0026411490000399773
3604.0,-0.0024684501283323
3603.0,-0.0022524799205383417
3602.0,-0.0019931738235303698
3601.0,-0.0018202170383281313
3600.0,-0.0016039241497978196
3599.0,-0.0015173768235041685
3598.0,-0.001474096691732818
3597.0,-0.0015173768235041685
3596.0,-0.0015606526425728795
3595.0,-0.0015173768235041685
3594.0,-0.0013875234866409514
3593.0,-0.00121432528617893
3592.0,-0.0011710149414008164
3591.0,-0.0011710149414008164
3590.0,-0.001257631312230778
3589.0,-0.0013009330204178937
3588.0,-0.00121432528617893
3587.0,-0.001041057986093552
3586.0,-0.0008677215312267172
3585.0,-0.0006509536295951079
3584.0,-0.0003906892499099257
3583.0,-8.685021164911433e-05
3582.0,8.686758342868472e-05
3581.0,0.00021720154586435392
3580.0,0.00030411258916074324
3579.0,0.00043451177401765406
3578.0,0.0006084382809090627
3577.0,0.0007824344698965646
3576.0,0.0009129773741116676
3575.0,0.0010435595295137379
3574.0,0.0010435595295137379
3573.0,0.0010000277816797354
3572.0,0.000869458712629001
3571.0,0.0006519307932786322
3570.0,0.00043451177401765406
3569.0,0.0003475746339209884
3568.0,0.000521466320689834
3567.0,0.0009129773741116676
3566.0,0.0012177301682640973
3565.0,0.0013919706849057079
3564.0,0.0015226969634936083
3563.0,0.0017406615763013722
3562.0,0.0020023635919956817
3561.0,0.002351545103793873
3560.0,0.002613615602686581
3559.0,0.0028321285541661467
3558.0,0.0028758443407954637
3557.0,0.0028758443407954637
3556.0,0.0028758443407954637
3555.0,0.0029632891174733444
3554.0,0.0031382315093266833
3553.0,0.0033570086445275926
3552.0,0.003488327845821315
3551.0,0.0034445503666347133
3550.0,0.0032257291386954545
3549.0,0.0029632891174733444
3548.0,0.0028758443407954637
3547.0,0.0030944893043338695
3546.0,0.0034445503666347133
3545.0,0.0038387066319929275
3544.0,0.004101676353562844
3543.0,0.004277078004534696
3542.0,0.004452550524862486
3541.0,0.004671990922590297
3540.0,0.004935465843858511
3539.0,0.005155150446602086
3538.0,0.005330978174470591
3537.0,0.00541891874010525
3536.0,0.005550862985963967
3535.0,0.005638848091999105
3534.0,0.005814871797682919
3533.0,0.005990966876386672
3532.0,0.00612308505878878
3531.0,0.006167133386013823
3530.0,0.00612308505878878
3529.0,0.006079041198713275
3528.0,0.006167133386013823
3527.0,0.00625524344553785
3526.0,0.006475596832934416
3525.0,0.006696062080525422
3524.0,0.007049039429553483
3523.0,0.007402303897961815
3522.0,0.007755855953228474
3521.0,0.007932739972333236
3520.0,0.008021209005416363
3519.0,0.008021209005416363
3518.0,0.007976972236149349
3517.0,0.007976972236149349
3516.0,0.007976972236149349
3515.0,0.008021209005416363
3514.0,0.008065450281052211
3513.0,0.008109696063975047
3512.0,0.008198201155356077
3511.0,0.008330992620051436
3510.0,0.00850811108984062
3509.0,0.008640997362049818
3508.0,0.008685301823389224
3507.0,0.008596697419959609
3506.0,0.00850811108984062
3505.0,0.008596697419959609
3504.0,0.008818242332126802
3503.0,0.009039900317800775
3502.0,0.00908424549391551
3501.0,0.009039900317800775
3500.0,0.008951223547323472
3499.0,0.008951223547323472
3498.0,0.008995559669244813
3497.0,0.009039900317800775
3496.0,0.008951223547323472
3495.0,0.008773924307505121
3494.0,0.008640997362049818
3493.0,0.008552401996197112
3492.0,0.008552401996197112
3491.0,0.008596697419959609
3490.0,0.008596697419959609
3489.0,0.008596697419959609
3488.0,0.008685301823389224
3487.0,0.0087296108049002
3486.0,0.008596697419959609
3485.0,0.008286724286910463
3484.0,0.007976972236149349
3483.0,0.007800070204414977
3482.0,0.007755855953228474
3481.0,0.007755855953228474
3480.0,0.00762324020119709
3479.0,0.007358130121602358
3478.0,0.007049039429553483
3477.0,0.006828394969235152
3476.0,0.006740168563263094
3475.0,0.006784279525863024
3474.0,0.006828394969235152
3473.0,0.006828394969235152
3472.0,0.006784279525863024
3471.0,0.006696062080525422
3470.0,0.00656376950238835
3469.0,0.00656376950238835
3468.0,0.006607862550997545
3467.0,0.006828394969235152
3466.0,0.007004901568658406
3465.0,0.007093181776687496
3464.0,0.007049039429553483
3463.0,0.006916639301937977
3462.0,0.006784279525863024
3461.0,0.006651960076740071
3460.0,0.006519680930003435
3459.0,0.006387442061109638
3458.0,0.00621118618129457
3457.0,0.006035001804881146
3456.0,0.005990966876386672
3455.0,0.006035001804881146
3454.0,0.00612308505878878
3453.0,0.006167133386013823
3452.0,0.006167133386013823
3451.0,0.00612308505878878
3450.0,0.005990966876386672
3449.0,0.00590291041179003
3448.0,0.005814871797682919
3447.0,0.005682847330363394
3446.0,0.005550862985963967
3445.0,0.00541891874010525
3444.0,0.00537494623139545
3443.0,0.005506877116487674
3442.0,0.005638848091999105
3441.0,0.005726851026829571
3440.0,0.005682847330363394
3439.0,0.005594853310833647
3438.0,0.005462895701502157
3437.0,0.00541891874010525
3436.0,0.00537494623139545
3435.0,0.00541891874010525
3434.0,0.005550862985963967
3433.0,0.005638848091999105
3432.0,0.00577085918230158
3431.0,0.005858888873877532
3430.0,0.005990966876386672
3429.0,0.006167133386013823
3428.0,0.006343371384537999
3427.0,0.006475596832934416
3426.0,0.006431517210272464
3425.0,0.006299305179649828
3424.0,0.00612308505878878
3423.0,0.006079041198713275
3422.0,0.006035001804881146
3421.0,0.006035001804881146
3420.0,0.005946936412324799
3419.0,0.005814871797682919
3418.0,0.005726851026829571
3417.0,0.005638848091999105
3416.0,0.005594853310833647
3415.0,0.005638848091999105
3414.0,0.00577085918230158
3413.0,0.005990966876386672
3412.0,0.00625524344553785
3411.0,0.006475596832934416
3410.0,0.006651960076740071
3409.0,0.006784279525863024
3408.0,0.007004901568658406
3407.0,0.007181479933320523
3406.0,0.007313960837872058
3405.0,0.007358130121602358
3404.0,0.007313960837872058
3403.0,0.007313960837872058
3402.0,0.007358130121602358
3401.0,0.007490664932224611
3400.0,0.007711646202907652
3399.0,0.007888512213050314
3398.0,0.007976972236149349
3397.0,0.007976972236149349
3396.0,0.007976972236149349
3395.0,0.008021209005416363
3394.0,0.008286724286910463
3393.0,0.008685301823389224
3392.0,0.00908424549391551
3391.0,0.009350411681145587
3390.0,0.009483555971770974
3389.0,0.009572341514736404
3388.0,0.009794384815193347
3387.0,0.010060986715464404
3386.0,0.010283280051895272
3385.0,0.01037222925484893
3384.0,0.010283280051895272
3383.0,0.01023881228122181
3382.0,0.01023881228122181
3381.0,0.01037222925484893
3380.0,0.010505687227290839
3379.0,0.010683695010048622
3378.0,0.01086177578421088
3377.0,0.011039929609661936
3376.0,0.011218156546359825
3375.0,0.011351874764248926
3374.0,0.011485634166333858
3373.0,0.011664044143949504
3372.0,0.011887159731648111
3371.0,0.012065734767841452
3370.0,0.012199714248127602
3369.0,0.012333735073725371
3368.0,0.012557195064198723
3367.0,0.012914970375878188
3366.0,0.01322826573375524
3365.0,0.013407393177789162
3364.0,0.013452186585275916
3363.0,0.013452186585275916
3362.0,0.013586594534531482
3361.0,0.013945219230304673
3360.0,0.014438812226654996
3359.0,0.014888020460646079
3358.0,0.015202742910707112
3357.0,0.015337693809893471
3356.0,0.01538268676325183
3355.0,0.01547268665620738
3354.0,0.015652742414136167
3353.0,0.01578783323856614
3352.0,0.015832872853011715
3351.0,0.015832872853011715
3350.0,0.015877917138889863
3349.0,0.015922966097169144
3348.0,0.016013078034810446
3347.0,0.016148281008528276
3346.0,0.01628352608625061
3345.0,0.016554142658660398
3344.0,0.016870075265299933
3343.0,0.017186237868137555
3342.0,0.01727661233145472
3341.0,0.01727661233145472
3340.0,0.017231422748988034
3339.0,0.017186237868137555
3338.0,0.01727661233145472
3337.0,0.017412209298337533
3336.0,0.01759307113620534
3335.0,0.017728766960431575
3334.0,0.01781925440359733
3333.0,0.01781925440359733
3332.0,0.017774008325325275
3331.0,0.017638298366853045
3330.0,0.017367005605150476
3329.0,0.017050711425501408
3328.0,0.016734647433454652
3327.0,0.016599261819461697
3326.0,0.016644385668211692
3325.0,0.016870075265299933
3324.0,0.017141057687924732
3323.0,0.017321806616515723
3322.0,0.01727661233145472
3321.0,0.017005545341335804
3320.0,0.016554142658660398
3319.0,0.016058141016111804
3318.0,0.015697768020096703
3317.0,0.015562705203923999
3316.0,0.015427684378367834
3315.0,0.015157768594724175
3314.0,0.014888020460646079
3313.0,0.014663358264387139
3312.0,0.014618439768003144
3311.0,0.014663358264387139
3310.0,0.014573525916998342
3309.0,0.014393916947563534
3308.0,0.014259258949925524
3307.0,0.014214382227394795
3306.0,0.014079779876432497
3305.0,0.013900374944870508
3304.0,0.01372104409400876
3303.0,0.013586594534531482
3302.0,0.013407393177789162
3301.0,0.01318349541446362
3300.0,0.012959713020733288
3299.0,0.012736045877764557
3298.0,0.01264661126420652
3297.0,0.012691326268817527
3296.0,0.01264661126420652
3295.0,0.012557195064198723
3294.0,0.012378417874516323
3293.0,0.012244383261476699
3292.0,0.012199714248127602
3291.0,0.01215504982870197
3290.0,0.01215504982870197
3289.0,0.012065734767841452
3288.0,0.012021084124518078
3287.0,0.0119764380713403
3286.0,0.011887159731648111
3285.0,0.011708658092512314
3284.0,0.011396456654336085
3283.0,0.011039929609661936
3282.0,0.010639186223752484
3281.0,0.010416710688994968
3280.0,0.010283280051895272
3279.0,0.010283280051895272
3278.0,0.010194349063173958
3277.0,0.010060986715464404
3276.0,0.009883233932095559
3275.0,0.009705553871561357
3274.0,0.009572341514736404
3273.0,0.009483555971770974
3272.0,0.00939478857608056
3271.0,0.00939478857608056
3270.0,0.009350411681145587
3269.0,0.00939478857608056
3268.0,0.00939478857608056
3267.0,0.00939478857608056
3266.0,0.009306039320248427
3265.0,0.009128595198514056
3264.0,0.008995559669244813
3263.0,0.008951223547323472
3262.0,0.008951223547323472
3261.0,0.008906891951112605
3260.0,0.008818242332126802
3259.0,0.008685301823389224
3258.0,0.008596697419959609
3257.0,0.008552401996197112
3256.0,0.00850811108984062
3255.0,0.008419542825660153
3254.0,0.008242460465651913
3253.0,0.008021209005416363
3252.0,0.007888512213050314
3251.0,0.007800070204414977
3250.0,0.007844288957383316
3249.0,0.007844288957383316
3248.0,0.007844288957383316
3247.0,0.007800070204414977
3246.0,0.007755855953228474
3245.0,0.007667440952535687
3244.0,0.007490664932224611
3243.0,0.007313960837872058
3242.0,0.007137328610972382
3241.0,0.007093181776687496
3240.0,0.007137328610972382
3239.0,0.007225635744644521
3238.0,0.007181479933320523
3237.0,0.007004901568658406
3236.0,0.006696062080525422
3235.0,0.006343371384537999
3234.0,0.00612308505878878
3233.0,0.006167133386013823
3232.0,0.006387442061109638
3231.0,0.006696062080525422
3230.0,0.006872514894289861
3229.0,0.006828394969235152
3228.0,0.006651960076740071
3227.0,0.006387442061109638
3226.0,0.006167133386013823
3225.0,0.005990966876386672
3224.0,0.005858888873877532
3223.0,0.005726851026829571
3222.0,0.005550862985963967
3221.0,0.0052870145684298375
3220.0,0.004979393875242044
3219.0,0.004759798137184523
3218.0,0.004628093971837721
3217.0,0.004671990922590297
3216.0,0.004803708402820517
3215.0,0.004935465843858511
3214.0,0.00489154225525934
3213.0,0.004671990922590297
3212.0,0.0044964297349936455
3211.0,0.004540313378935901
3210.0,0.004759798137184523
3209.0,0.004979393875242044
3208.0,0.005023326350308999
3207.0,0.00484762310854614
3206.0,0.004540313378935901
3205.0,0.004320939488377862
3204.0,0.004189368323957332
3203.0,0.004145520125434121
3202.0,0.0040578370074493275
3201.0,0.003970171588923321
3200.0,0.003926345514724705
3199.0,0.003926345514724705
3198.0,0.003926345514724705
3197.0,0.003970171588923321
3196.0,0.003926345514724705
3195.0,0.0038825238627120395
3194.0,0.003926345514724705
3193.0,0.00401400208620073
3192.0,0.0040578370074493275
3191.0,0.0040578370074493275
3190.0,0.00401400208620073
3189.0,0.003926345514724705
3188.0,0.003794893821675638
3187.0,0.003707281458678491
3186.0,0.003619686766589858
3185.0,0.0035758960449088217
3184.0,0.0035321097382827737
3183.0,0.003488327845821315
3182.0,0.0034007772998332353
3181.0,0.0034007772998332353
3180.0,0.003488327845821315
3179.0,0.0036634819042162814
3178.0,0.0038387066319929275
3177.0,0.0038825238627120395
3176.0,0.003794893821675638
3175.0,0.0036634819042162814
3174.0,0.003488327845821315
3173.0,0.0032694845648473247
3172.0,0.0030070181092942683
3171.0,0.0028321285541661467
3170.0,0.002701007590486082
3169.0,0.002701007590486082
3168.0,0.0027884171674950053
3167.0,0.0028758443407954637
3166.0,0.0029195645282691363
3165.0,0.0030070181092942683
3164.0,0.003050751504618754
3163.0,0.003050751504618754
3162.0,0.0029632891174733444
3161.0,0.0028758443407954637
3160.0,0.0027447101798967477
3159.0,0.002701007590486082
3158.0,0.002701007590486082
3157.0,0.0026573093983774942
3156.0,0.0025262411970197185
3155.0,0.002351545103793873
3154.0,0.0021769192542746563
3153.0,0.002089632653256679
3152.0,0.002089632653256679
3151.0,0.002089632653256679
3150.0,0.0021332737608552588
3149.0,0.002089632653256679
3148.0,0.0020023635919956817
3147.0,0.0018714928717336043
3146.0,0.0017842676290416026
3145.0,0.0016534626036355249
3144.0,0.0015226969634936083
3143.0,0.001304841688344327
3142.0,0.0011306361176557367
3141.0,0.0009565003968372565
3140.0,0.0008259444115150671
3139.0,0.0007824344698965646
3138.0,0.0007389288868995258
3137.0,0.0006084382809090627
3136.0,0.0004779868710962365
3135.0,0.0003475746339209884
3134.0,0.00026065489343207737
3133.0,0.00026065489343207737
3132.0,0.00030411258916074324
3131.0,0.0003475746339209884
3130.0,0.0003475746339209884
3129.0,0.00030411258916074324
3128.0,0.00021720154586435392
3127.0,0.0001303078917322953
3126.0,4.343161980746579e-05
3125.0,0.0001303078917322953
3124.0,0.00021720154586435392
3123.0,0.00021720154586435392
3122.0,8.686758342868472e-05
3121.0,-0.00017368305846510168
3120.0,-0.00043407747931878404
3119.0,-0.0006075870628903246
3118.0,-0.0006509536295951079
3117.0,-0.0005642161653756084
3116.0,-0.00043407747931878404
3115.0,-0.0003906892499099257
3114.0,-0.0003906892499099257
3113.0,-0.0004774613744551459
3112.0,-0.0004774613744551459
3111.0,-0.0004774613744551459
3110.0,-0.0005208409361854294
3109.0,-0.0006075870628903246
3108.0,-0.0007810273534953893
3107.0,-0.0009110621312231615
3106.0,-0.0009977303577937136
3105.0,-0.001041057986093552
3104.0,-0.001041057986093552
3103.0,-0.0010843812922201046
3102.0,-0.0010843812922201046
3101.0,-0.001041057986093552
3100.0,-0.0010843812922201046
3099.0,-0.0011277002770349043
3098.0,-0.00121432528617893
3097.0,-0.0013875234866409514
3096.0,-0.001474096691732818
3095.0,-0.0015606526425728795
3094.0,-0.0016039241497978196
3093.0,-0.0016039241497978196
3092.0,-0.0016471913460383014
3091.0,-0.0016471913460383014
3090.0,-0.0015606526425728795
3089.0,-0.001474096691732818
3088.0,-0.0013875234866409514
3087.0,-0.0013875234866409514
3086.0,-0.001474096691732818
3085.0,-0.0015606526425728795
3084.0,-0.0016039241497978196
3083.0,-0.0015606526425728795
3082.0,-0.0015173768235041685
3081.0,-0.0015173768235041685
3080.0,-0.0016039241497978196
3079.0,-0.001776967077439462
3078.0,-0.0019067040408846658
3077.0,-0.0019499410842680476
3076.0,-0.0019499410842680476
3075.0,-0.0019499410842680476
3074.0,-0.0019931738235303698
3073.0,-0.0020796263931210923
3072.0,-0.0021228462251614566
3071.0,-0.0021660617565077978
3070.0,-0.0021228462251614566
3069.0,-0.0021228462251614566
3068.0,-0.0021660617565077978
3067.0,-0.0021660617565077978
3066.0,-0.0022092729880145434
3065.0,-0.0021660617565077978
3064.0,-0.0021660617565077978
3063.0,-0.0022092729880145434
3062.0,-0.0022956825549340643
3061.0,-0.0024252646779014952
3060.0,-0.0024684501283323
3059.0,-0.0025116312849080558
3058.0,-0.0024684501283323
3057.0,-0.0024684501283323
3056.0,-0.0025116312849080558
3055.0,-0.0025548081484823015
3054.0,-0.002597980719908577
3053.0,-0.0026411490000399773
3052.0,-0.002684312989729598
3051.0,-0.002684312989729598
3050.0,-0.002684312989729598
3049.0,-0.0026411490000399773
3048.0,-0.002597980719908577
3047.0,-0.0025548081484823015
3046.0,-0.0025116312849080558
3045.0,-0.0024684501283323
3044.0,-0.0024684501283323
3043.0,-0.0025116312849080558
3042.0,-0.002597980719908577
3041.0,-0.002684312989729598
3040.0,-0.0027706281011936618
3039.0,-0.0027706281011936618
3038.0,-0.0027706281011936618
3037.0,-0.0028137792246734072
3036.0,-0.002856926061120646
3035.0,-0.002856926061120646
3034.0,-0.0027706281011936618
3033.0,-0.002684312989729598
3032.0,-0.002597980719908577
3031.0,-0.0025116312849080558
3030.0,-0.0025116312849080558
3029.0,-0.0025548081484823015
3028.0,-0.0026411490000399773
3027.0,-0.0027706281011936618
3026.0,-0.0028137792246734072
3025.0,-0.0027706281011936618
3024.0,-0.002684312989729598
3023.0,-0.0025548081484823015
3022.0,-0.0025116312849080558
3021.0,-0.002597980719908577
3020.0,-0.0027274726898296464
3019.0,-0.002856926061120646
3018.0,-0.002900068611387585
3017.0,-0.0028137792246734072
3016.0,-0.002684312989729598
3015.0,-0.002597980719908577
3014.0,-0.002597980719908577
3013.0,-0.0026411490000399773
3012.0,-0.0027274726898296464
3011.0,-0.0028137792246734072
3010.0,-0.002900068611387585
3009.0,-0.002900068611387585
3008.0,-0.0029432068763250996
3007.0,-0.0029432068763250996
3006.0,-0.0029863408567849525
3005.0,-0.0029863408567849525
3004.0,-0.0029432068763250996
3003.0,-0.002856926061120646
3002.0,-0.0027706281011936618
3001.0,-0.0027706281011936618
3000.0,-0.002856926061120646
2999.0,-0.0029432068763250996
2998.0,-0.0029432068763250996
2997.0,-0.0029432068763250996
2996.0,-0.002900068611387585
2995.0,-0.002856926061120646
2994.0,-0.0028137792246734072
2993.0,-0.0027274726898296464
2992.0,-0.002684312989729598
2991.0,-0.002597980719908577
2990.0,-0.0025548081484823015
2989.0,-0.0025116312849080558
2988.0,-0.0025116312849080558
2987.0,-0.0025548081484823015
2986.0,-0.0025548081484823015
2985.0,-0.0025548081484823015
2984.0,-0.0025116312849080558
2983.0,-0.0024252646779014952
2982.0,-0.0023820749327607693
2981.0,-0.0023820749327607693
2980.0,-0.0023820749327607693
2979.0,-0.002338880892056583
2978.0,-0.002338880892056583
2977.0,-0.0022956825549340643
2976.0,-0.0022956825549340643
2975.0,-0.002338880892056583
2974.0,-0.002338880892056583
2973.0,-0.0023820749327607693
2972.0,-0.0024252646779014952
2971.0,-0.0024252646779014952
2970.0,-0.0024252646779014952
2969.0,-0.0024252646779014952
2968.0,-0.0024684501283323
2967.0,-0.0024684501283323
2966.0,-0.0025116312849080558
2965.0,-0.0024684501283323
2964.0,-0.0023820749327607693
2963.0,-0.0022524799205383417
2962.0,-0.0022092729880145434
2961.0,-0.0022092729880145434
2960.0,-0.0022956825549340643
2959.0,-0.0024252646779014952
2958.0,-0.002597980719908577
2957.0,-0.0027274726898296464
2956.0,-0.0027706281011936618
2955.0,-0.0027274726898296464
2954.0,-0.0026411490000399773
2953.0,-0.002597980719908577
2952.0,-0.002597980719908577
2951.0,-0.0025116312849080558
2950.0,-0.0024252646779014952
2949.0,-0.0022956825549340643
2948.0,-0.0022092729880145434
2947.0,-0.0021228462251614566
2946.0,-0.0021228462251614566
2945.0,-0.0020796263931210923
2944.0,-0.0021228462251614566
2943.0,-0.0021660617565077978
2942.0,-0.0022956825549340643
2941.0,-0.0023820749327607693
2940.0,-0.0024252646779014952
2939.0,-0.002338880892056583
2938.0,-0.0022524799205383417
2937.0,-0.0021660617565077978
2936.0,-0.0021228462251614566
2935.0,-0.0021660617565077978
2934.0,-0.0022092729880145434
2933.0,-0.0022524799205383417
2932.0,-0.0022092729880145434
2931.0,-0.0021660617565077978
2930.0,-0.0021228462251614566
2929.0,-0.0021660617565077978
2928.0,-0.0022524799205383417
2927.0,-0.0022956825549340643
2926.0,-0.0022956825549340643
2925.0,-0.0022524799205383417
2924.0,-0.0022524799205383417
2923.0,-0.0022956825549340643
2922.0,-0.002338880892056583
2921.0,-0.002338880892056583
2920.0,-0.0022956825549340643
2919.0,-0.0022092729880145434
2918.0,-0.0021660617565077978
2917.0,-0.0020796263931210923
2916.0,-0.0020364022595291686
2915.0,-0.0019499410842680476
2914.0,-0.0019499410842680476
2913.0,-0.0019067040408846658
2912.0,-0.0019067040408846658
2911.0,-0.0018202170383281313
2910.0,-0.001776967077439462
2909.0,-0.001776967077439462
2908.0,-0.0018202170383281313
2907.0,-0.0018634626925240205
2906.0,-0.0018202170383281313
2905.0,-0.0016904542321527494
2904.0,-0.0016471913460383014
2903.0,-0.0016471913460383014
2902.0,-0.0016904542321527494
2901.0,-0.0018202170383281313
2900.0,-0.0019067040408846658
2899.0,-0.0019499410842680476
2898.0,-0.0019931738235303698
2897.0,-0.0019931738235303698
2896.0,-0.0019499410842680476
2895.0,-0.0018634626925240205
2894.0,-0.001776967077439462
2893.0,-0.0016904542321527494
2892.0,-0.0016471913460383014
2891.0,-0.0016039241497978196
2890.0,-0.0016039241497978196
2889.0,-0.0015606526425728795
2888.0,-0.0015173768235041685
2887.0,-0.0015173768235041685
2886.0,-0.001474096691732818
2885.0,-0.0015173768235041685
2884.0,-0.0016039241497978196
2883.0,-0.0016904542321527494
2882.0,-0.0016904542321527494
2881.0,-0.0016471913460383014
2880.0,-0.0015606526425728795
2879.0,-0.001474096691732818
2878.0,-0.0013875234866409514
2877.0,-0.0013009330204178937
2876.0,-0.0013009330204178937
2875.0,-0.001344230411601366
2874.0,-0.0014308122463981832
2873.0,-0.001474096691732818
2872.0,-0.0015173768235041685
2871.0,-0.0015173768235041685
2870.0,-0.0015173768235041685
2869.0,-0.0015173768235041685
2868.0,-0.0015173768235041685
2867.0,-0.001474096691732818
2866.0,-0.0013875234866409514
2865.0,-0.001344230411601366
2864.0,-0.0013009330204178937
2863.0,-0.001344230411601366
2862.0,-0.0013875234866409514
2861.0,-0.0014308122463981832
2860.0,-0.0015173768235041685
2859.0,-0.0015606526425728795
2858.0,-0.0015606526425728795
2857.0,-0.0015173768235041685
2856.0,-0.0014308122463981832
2855.0,-0.001344230411601366
2854.0,-0.001344230411601366
2853.0,-0.001344230411601366
2852.0,-0.0013875234866409514
2851.0,-0.0014308122463981832
2850.0,-0.0014308122463981832
2849.0,-0.0013875234866409514
2848.0,-0.0013875234866409514
2847.0,-0.001344230411601366
2846.0,-0.0013009330204178937
2845.0,-0.001257631312230778
2844.0,-0.00121432528617893
2843.0,-0.00121432528617893
2842.0,-0.00121432528617893
2841.0,-0.00121432528617893
2840.0,-0.001257631312230778
2839.0,-0.0013009330204178937
2838.0,-0.001344230411601366
2837.0,-0.0014308122463981832
2836.0,-0.0014308122463981832
2835.0,-0.001344230411601366
2834.0,-0.001257631312230778
2833.0,-0.00121432528617893
2832.0,-0.0011710149414008164
2831.0,-0.0011277002770349043
2830.0,-0.0010843812922201046
2829.0,-0.0010843812922201046
2828.0,-0.0011277002770349043
2827.0,-0.0011710149414008164
2826.0,-0.0011710149414008164
2825.0,-0.0011277002770349043
2824.0,-0.001041057986093552
2823.0,-0.0009543984064577238
2822.0,-0.0009110621312231615
2821.0,-0.0009110621312231615
2820.0,-0.0009977303577937136
2819.0,-0.001041057986093552
2818.0,-0.0010843812922201046
2817.0,-0.0011277002770349043
2816.0,-0.0011277002770349043
2815.0,-0.0011277002770349043
2814.0,-0.0011710149414008164
2813.0,-0.0011710149414008164
2812.0,-0.00121432528617893
2811.0,-0.001257631312230778
2810.0,-0.001257631312230778
2809.0,-0.001257631312230778
2808.0,-0.00121432528617893
2807.0,-0.0010843812922201046
2806.0,-0.0009977303577937136
2805.0,-0.0009110621312231615
2804.0,-0.0009110621312231615
2803.0,-0.0009543984064577238
2802.0,-0.0009543984064577238
2801.0,-0.0009977303577937136
2800.0,-0.0009977303577937136
2799.0,-0.0009977303577937136
2798.0,-0.0009543984064577238
2797.0,-0.0009543984064577238
2796.0,-0.0009977303577937136
2795.0,-0.0010843812922201046
2794.0,-0.0011277002770349043
2793.0,-0.0010843812922201046
2792.0,-0.0009543984064577238
2791.0,-0.0008243766056055257
2790.0,-0.0007376737740329986
2789.0,-0.0007376737740329986
2788.0,-0.0008677215312267172
2787.0,-0.0009977303577937136
2786.0,-0.0009977303577937136
2785.0,-0.0009543984064577238
2784.0,-0.0009110621312231615
2783.0,-0.0009110621312231615
2782.0,-0.0009110621312231615
2781.0,-0.0009110621312231615
2780.0,-0.0009110621312231615
2779.0,-0.0008243766056055257
2778.0,-0.0008243766056055257
2777.0,-0.0008243766056055257
2776.0,-0.0008243766056055257
2775.0,-0.0008243766056055257
2774.0,-0.0008677215312267172
2773.0,-0.0009110621312231615
2772.0,-0.0009977303577937136
2771.0,-0.0010843812922201046
2770.0,-0.0010843812922201046
2769.0,-0.0010843812922201046
2768.0,-0.001041057986093552
2767.0,-0.001041057986093552
2766.0,-0.001041057986093552
2765.0,-0.0010843812922201046
2764.0,-0.0010843812922201046
2763.0,-0.0010843812922201046
2762.0,-0.0010843812922201046
2761.0,-0.0009977303577937136
2760.0,-0.0009543984064577238
2759.0,-0.0009543984064577238
2758.0,-0.0009110621312231615
2757.0,-0.0008677215312267172
2756.0,-0.0009110621312231615
2755.0,-0.0009543984064577238
2754.0,-0.0010843812922201046
2753.0,-0.00121432528617893
2752.0,-0.001257631312230778
2751.0,-0.00121432528617893
2750.0,-0.0011277002770349043
2749.0,-0.0009977303577937136
2748.0,-0.0009543984064577238
2747.0,-0.0009543984064577238
2746.0,-0.0009977303577937136
2745.0,-0.0009977303577937136
2744.0,-0.0009543984064577238
2743.0,-0.0009110621312231615
2742.0,-0.0008243766056055257
2741.0,-0.0008243766056055257
2740.0,-0.0008243766056055257
2739.0,-0.0009110621312231615
2738.0,-0.0009977303577937136
2737.0,-0.0010843812922201046
2736.0,-0.0010843812922201046
2735.0,-0.0010843812922201046
2734.0,-0.0009977303577937136
2733.0,-0.0009977303577937136
2732.0,-0.0009977303577937136
2731.0,-0.0009977303577937136
2730.0,-0.0009977303577937136
2729.0,-0.0009977303577937136
2728.0,-0.001041057986093552
2727.0,-0.001041057986093552
2726.0,-0.0010843812922201046
2725.0,-0.0010843812922201046
2724.0,-0.0010843812922201046
2723.0,-0.0011277002770349043
2722.0,-0.0011710149414008164
2721.0,-0.00121432528617893
2720.0,-0.00121432528617893
2719.0,-0.00121432528617893
2718.0,-0.00121432528617893
2717.0,-0.001257631312230778
2716.0,-0.0013009330204178937
2715.0,-0.0013875234866409514
2714.0,-0.0013875234866409514
2713.0,-0.001344230411601366
2712.0,-0.001257631312230778
2711.0,-0.00121432528617893
2710.0,-0.0011710149414008164
2709.0,-0.0011710149414008164
2708.0,-0.0011277002770349043
2707.0,-0.0011277002770349043
2706.0,-0.0011277002770349043
2705.0,-0.0011277002770349043
2704.0,-0.00121432528617893
2703.0,-0.001257631312230778
2702.0,-0.0013009330204178937
2701.0,-0.0013009330204178937
2700.0,-0.001257631312230778
2699.0,-0.0011710149414008164
2698.0,-0.0011277002770349043
2697.0,-0.0011277002770349043
2696.0,-0.0011277002770349043
2695.0,-0.00121432528617893
2694.0,-0.0013009330204178937
2693.0,-0.0013009330204178937
2692.0,-0.00121432528617893
2691.0,-0.0010843812922201046
2690.0,-0.0009977303577937136
2689.0,-0.001041057986093552
2688.0,-0.0010843812922201046
2687.0,-0.0011710149414008164
2686.0,-0.001257631312230778
2685.0,-0.0013009330204178937
2684.0,-0.001344230411601366
2683.0,-0.0013009330204178937
2682.0,-0.001257631312230778
2681.0,-0.00121432528617893
2680.0,-0.0011710149414008164
2679.0,-0.0011710149414008164
2678.0,-0.0011710149414008164
2677.0,-0.0010843812922201046
2676.0,-0.0009977303577937136
2675.0,-0.0009543984064577238
2674.0,-0.0009977303577937136
2673.0,-0.0010843812922201046
2672.0,-0.001257631312230778
2671.0,-0.0013875234866409514
2670.0,-0.0014308122463981832
2669.0,-0.0014308122463981832
2668.0,-0.0014308122463981832
2667.0,-0.001474096691732818
2666.0,-0.001474096691732818
2665.0,-0.0015173768235041685
2664.0,-0.001474096691732818
2663.0,-0.0013875234866409514
2662.0,-0.001257631312230778
2661.0,-0.00121432528617893
2660.0,-0.0011710149414008164
2659.0,-0.0011277002770349043
2658.0,-0.0010843812922201046
2657.0,-0.0010843812922201046
2656.0,-0.0011710149414008164
2655.0,-0.001257631312230778
2654.0,-0.001344230411601366
2653.0,-0.0013875234866409514
2652.0,-0.001344230411601366
2651.0,-0.0013009330204178937
2650.0,-0.001344230411601366
2649.0,-0.001344230411601366
2648.0,-0.001344230411601366
2647.0,-0.001344230411601366
2646.0,-0.0013009330204178937
2645.0,-0.0013009330204178937
2644.0,-0.001257631312230778
2643.0,-0.001257631312230778
2642.0,-0.0013009330204178937
2641.0,-0.0013875234866409514
2640.0,-0.001474096691732818
2639.0,-0.0015173768235041685
2638.0,-0.001474096691732818
2637.0,-0.0014308122463981832
2636.0,-0.0013875234866409514
2635.0,-0.0014308122463981832
2634.0,-0.0014308122463981832
2633.0,-0.001474096691732818
2632.0,-0.001474096691732818
2631.0,-0.0015173768235041685
2630.0,-0.0015606526425728795
2629.0,-0.0016039241497978196
2628.0,-0.0016039241497978196
2627.0,-0.0016039241497978196
2626.0,-0.0016039241497978196
2625.0,-0.0016471913460383014
2624.0,-0.001733712809000476
2623.0,-0.001776967077439462
2622.0,-0.0018202170383281313
2621.0,-0.001733712809000476
2620.0,-0.0016471913460383014
2619.0,-0.0016039241497978196
2618.0,-0.0016039241497978196
2617.0,-0.0016039241497978196
2616.0,-0.0016039241497978196
2615.0,-0.0016471913460383014
2614.0,-0.0016904542321527494
2613.0,-0.001733712809000476
2612.0,-0.0016904542321527494
2611.0,-0.0016039241497978196
2610.0,-0.0016039241497978196
2609.0,-0.0016039241497978196
2608.0,-0.0016471913460383014
2607.0,-0.0016471913460383014
2606.0,-0.0016039241497978196
2605.0,-0.0016039241497978196
2604.0,-0.0016039241497978196
2603.0,-0.001733712809000476
2602.0,-0.0018202170383281313
2601.0,-0.0018202170383281313
2600.0,-0.0016904542321527494
2599.0,-0.0015606526425728795
2598.0,-0.001474096691732818
2597.0,-0.0015173768235041685
2596.0,-0.0016039241497978196
2595.0,-0.001733712809000476
2594.0,-0.0018202170383281313
2593.0,-0.0018634626925240205
2592.0,-0.0018634626925240205
2591.0,-0.0018634626925240205
2590.0,-0.0018202170383281313
2589.0,-0.001733712809000476
2588.0,-0.0016904542321527494
2587.0,-0.0016471913460383014
2586.0,-0.0016471913460383014
2585.0,-0.0016904542321527494
2584.0,-0.0016904542321527494
2583.0,-0.0016471913460383014
2582.0,-0.0016471913460383014
2581.0,-0.0016471913460383014
2580.0,-0.0016471913460383014
2579.0,-0.0016471913460383014
2578.0,-0.0016471913460383014
2577.0,-0.0016471913460383014
2576.0,-0.0016039241497978196
2575.0,-0.0016039241497978196
2574.0,-0.0016471913460383014
2573.0,-0.001733712809000476
2572.0,-0.0018202170383281313
2571.0,-0.0019067040408846658
2570.0,-0.0019931738235303698
2569.0,-0.0019931738235303698
2568.0,-0.0019067040408846658
2567.0,-0.0018634626925240205
2566.0,-0.0018202170383281313
2565.0,-0.0018202170383281313
2564.0,-0.0018634626925240205
2563.0,-0.0019067040408846658
2562.0,-0.0019067040408846658
2561.0,-0.0019499410842680476
2560.0,-0.0019931738235303698
2559.0,-0.0020364022595291686
2558.0,-0.0020796263931210923
2557.0,-0.0021228462251614566
2556.0,-0.0020796263931210923
2555.0,-0.0020796263931210923
2554.0,-0.0020796263931210923
2553.0,-0.0021228462251614566
2552.0,-0.0021660617565077978
2551.0,-0.0022092729880145434
2550.0,-0.0022092729880145434
2549.0,-0.0021660617565077978
2548.0,-0.0020796263931210923
2547.0,-0.0019931738235303698
2546.0,-0.0019067040408846658
2545.0,-0.0019067040408846658
2544.0,-0.0019067040408846658
2543.0,-0.0019499410842680476
2542.0,-0.0020364022595291686
2541.0,-0.0020796263931210923
2540.0,-0.0020796263931210923
2539.0,-0.0020364022595291686
2538.0,-0.0019931738235303698
2537.0,-0.0019931738235303698
2536.0,-0.0020364022595291686
2535.0,-0.0021228462251614566
2534.0,-0.0021660617565077978
2533.0,-0.0021660617565077978
2532.0,-0.0020796263931210923
2531.0,-0.0019931738235303698
2530.0,-0.0019499410842680476
2529.0,-0.0019499410842680476
2528.0,-0.0019931738235303698
2527.0,-0.0020364022595291686
2526.0,-0.0020364022595291686
2525.0,-0.0021228462251614566
2524.0,-0.0022092729880145434
2523.0,-0.0022956825549340643
2522.0,-0.002338880892056583
2521.0,-0.002338880892056583
2520.0,-0.002338880892056583
2519.0,-0.002338880892056583
2518.0,-0.002338880892056583
2517.0,-0.002338880892056583
2516.0,-0.0023820749327607693
2515.0,-0.0024252646779014952
2514.0,-0.0024684501283323
2513.0,-0.0024684501283323
2512.0,-0.0024684501283323
2511.0,-0.0024252646779014952
2510.0,-0.002338880892056583
2509.0,-0.0022956825549340643
2508.0,-0.0022956825549340643
2507.0,-0.002338880892056583
2506.0,-0.002338880892056583
2505.0,-0.0023820749327607693
2504.0,-0.002338880892056583
2503.0,-0.0022956825549340643
2502.0,-0.0022524799205383417
2501.0,-0.0022524799205383417
2500.0,-0.0022956825549340643
2499.0,-0.0023820749327607693
2498.0,-0.0024684501283323
2497.0,-0.0025116312849080558
2496.0,-0.0025116312849080558
2495.0,-0.0024684501283323
2494.0,-0.0024252646779014952
2493.0,-0.002338880892056583
2492.0,-0.0022956825549340643
2491.0,-0.0022524799205383417
2490.0,-0.0022092729880145434
2489.0,-0.0022524799205383417
2488.0,-0.002338880892056583
2487.0,-0.0024252646779014952
2486.0,-0.0025116312849080558
2485.0,-0.0025548081484823015
2484.0,-0.0025116312849080558
2483.0,-0.0025116312849080558
2482.0,-0.0025548081484823015
2481.0,-0.0025548081484823015
2480.0,-0.0025548081484823015
2479.0,-0.002597980719908577
2478.0,-0.002684312989729598
2477.0,-0.0027274726898296464
2476.0,-0.0027274726898296464
2475.0,-0.0027274726898296464
2474.0,-0.0026411490000399773
2473.0,-0.0025548081484823015
2472.0,-0.0025116312849080558
2471.0,-0.0024684501283323
2470.0,-0.0025116312849080558
2469.0,-0.0025548081484823015
2468.0,-0.002597980719908577
2467.0,-0.002597980719908577
2466.0,-0.0025548081484823015
2465.0,-0.0025116312849080558
2464.0,-0.0025116312849080558
2463.0,-0.0024684501283323
2462.0,-0.0025116312849080558
2461.0,-0.002597980719908577
2460.0,-0.0027274726898296464
2459.0,-0.002856926061120646
2458.0,-0.002900068611387585
2457.0,-0.002900068611387585
2456.0,-0.002900068611387585
2455.0,-0.002900068611387585
2454.0,-0.0029432068763250996
2453.0,-0.0029863408567849525
2452.0,-0.003029470553618019
2451.0,-0.0029863408567849525
2450.0,-0.0029432068763250996
2449.0,-0.002900068611387585
2448.0,-0.002856926061120646
2447.0,-0.002900068611387585
2446.0,-0.0029432068763250996
2445.0,-0.0029432068763250996
2444.0,-0.0029432068763250996
2443.0,-0.0029432068763250996
2442.0,-0.0029432068763250996
2441.0,-0.0029863408567849525
2440.0,-0.0030725959676747294
2439.0,-0.003158833950862139
2438.0,-0.003201946521692367
2437.0,-0.0032450548131470747
2436.0,-0.0032450548131470747
2435.0,-0.003201946521692367
2434.0,-0.003158833950862139
2433.0,-0.003158833950862139
2432.0,-0.003115717099805959
2431.0,-0.0029863408567849525
2430.0,-0.002900068611387585
2429.0,-0.002856926061120646
2428.0,-0.002900068611387585
2427.0,-0.003029470553618019
2426.0,-0.003158833950862139
2425.0,-0.003201946521692367
2424.0,-0.003201946521692367
2423.0,-0.003158833950862139
2422.0,-0.0030725959676747294
2421.0,-0.0029863408567849525
2420.0,-0.0029863408567849525
2419.0,-0.003029470553618019
2418.0,-0.0029863408567849525
2417.0,-0.0029863408567849525
2416.0,-0.002900068611387585
2415.0,-0.002856926061120646
2414.0,-0.002900068611387585
2413.0,-0.0029432068763250996
2412.0,-0.0029863408567849525
2411.0,-0.003029470553618019
2410.0,-0.003029470553618019
2409.0,-0.003029470553618019
2408.0,-0.003029470553618019
2407.0,-0.0030725959676747294
2406.0,-0.0030725959676747294
2405.0,-0.0030725959676747294
2404.0,-0.003029470553618019
2403.0,-0.003029470553618019
2402.0,-0.0029863408567849525
2401.0,-0.0029432068763250996
2400.0,-0.0029432068763250996
2399.0,-0.0029863408567849525
2398.0,-0.003029470553618019
2397.0,-0.0030725959676747294
2396.0,-0.003115717099805959
2395.0,-0.003115717099805959
2394.0,-0.0030725959676747294
2393.0,-0.0030725959676747294
2392.0,-0.003115717099805959
2391.0,-0.003158833950862139
2390.0,-0.003201946521692367
2389.0,-0.003158833950862139
2388.0,-0.003158833950862139
2387.0,-0.003158833950862139
2386.0,-0.0032450548131470747
2385.0,-0.0032881588260753603
2384.0,-0.0033312585613267665
2383.0,-0.0033312585613267665
2382.0,-0.0033312585613267665
2381.0,-0.0033312585613267665
2380.0,-0.0033743540197499478
2379.0,-0.0034605321095062536
2378.0,-0.0035897671891400584
2377.0,-0.003675902548784027
2376.0,-0.003632837004408529
2375.0,-0.0034605321095062536
2374.0,-0.003158833950862139
2373.0,-0.0029432068763250996
2372.0,-0.0029863408567849525
2371.0,-0.0033743540197499478
2370.0,-0.0039772418455368275
2369.0,-0.004622265700782613
2368.0,-0.005137595908863979
2367.0,-0.0054379230508221355
2366.0,-0.005266332972768684
2365.0,-0.004493337547274212
2364.0,-0.0034605321095062536
2363.0,-0.0028137792246734072
2362.0,-0.0029432068763250996
2361.0,-0.003503614742536687
2360.0,-0.004020273253241502
2359.0,-0.004192356259714369
2358.0,-0.004063300397667113
2357.0,-0.0035897671891400584
2356.0,-0.003115717099805959
2355.0,-0.0029863408567849525
2354.0,-0.0032881588260753603
2353.0,-0.003546693102131737
2352.0,-0.0035897671891400584
2351.0,-0.003503614742536687
2350.0,-0.0034174452021935586
2349.0,-0.003546693102131737
2348.0,-0.003934206173708432
2347.0,-0.00445035298922436
2346.0,-0.004837060938309712
2345.0,-0.004922949296525481
2344.0,-0.004751155591001144
2343.0,-0.0042783722001624724
2342.0,-0.003546693102131737
2341.0,-0.002856926061120646
2340.0,-0.002597980719908577
2339.0,-0.002856926061120646
2338.0,-0.0032450548131470747
2337.0,-0.0033312585613267665
2336.0,-0.0030725959676747294
2335.0,-0.0027706281011936618
2334.0,-0.0027274726898296464
2333.0,-0.0029432068763250996
2332.0,-0.0030725959676747294
2331.0,-0.0029432068763250996
2330.0,-0.0025548081484823015
2329.0,-0.0022524799205383417
2328.0,-0.0022956825549340643
2327.0,-0.002684312989729598
2326.0,-0.0030725959676747294
2325.0,-0.0033312585613267665
2324.0,-0.0032450548131470747
2323.0,-0.0029432068763250996
2322.0,-0.002684312989729598
2321.0,-0.002684312989729598
2320.0,-0.0028137792246734072
2319.0,-0.0029432068763250996
2318.0,-0.0029432068763250996
2317.0,-0.002856926061120646
2316.0,-0.0027274726898296464
2315.0,-0.0026411490000399773
2314.0,-0.0025548081484823015
2313.0,-0.0025116312849080558
2312.0,-0.0025548081484823015
2311.0,-0.002684312989729598
2310.0,-0.002856926061120646
2309.0,-0.0030725959676747294
2308.0,-0.0032450548131470747
2307.0,-0.0033312585613267665
2306.0,-0.0032881588260753603
2305.0,-0.0032881588260753603
2304.0,-0.0033312585613267665
2303.0,-0.0034174452021935586
2302.0,-0.003546693102131737
2301.0,-0.003675902548784027
2300.0,-0.003805073565025019
2299.0,-0.003891166236910326
2298.0,-0.003934206173708432
2297.0,-0.0038481220342978517
2296.0,-0.003762020828246282
2295.0,-0.003632837004408529
2294.0,-0.003546693102131737
2293.0,-0.003546693102131737
2292.0,-0.003546693102131737
2291.0,-0.003546693102131737
2290.0,-0.0034605321095062536
2289.0,-0.0034174452021935586
2288.0,-0.0033743540197499478
2287.0,-0.0034174452021935586
2286.0,-0.0034605321095062536
2285.0,-0.003503614742536687
2284.0,-0.003546693102131737
2283.0,-0.003546693102131737
2282.0,-0.003546693102131737
2281.0,-0.0035897671891400584
2280.0,-0.0035897671891400584
2279.0,-0.0035897671891400584
2278.0,-0.003546693102131737
2277.0,-0.003546693102131737
2276.0,-0.003546693102131737
2275.0,-0.003546693102131737
2274.0,-0.0035897671891400584
2273.0,-0.003675902548784027
2272.0,-0.003762020828246282
2271.0,-0.003762020828246282
2270.0,-0.003675902548784027
2269.0,-0.0035897671891400584
2268.0,-0.003546693102131737
2267.0,-0.0035897671891400584
2266.0,-0.003632837004408529
2265.0,-0.0037189638231147626
2264.0,-0.0037189638231147626
2263.0,-0.003675902548784027
2262.0,-0.003632837004408529
2261.0,-0.0035897671891400584
2260.0,-0.0035897671891400584
2259.0,-0.0035897671891400584
2258.0,-0.003546693102131737
2257.0,-0.0034605321095062536
2256.0,-0.0033743540197499478
2255.0,-0.0033743540197499478
2254.0,-0.0033743540197499478
2253.0,-0.0034174452021935586
2252.0,-0.0034174452021935586
2251.0,-0.0034174452021935586
2250.0,-0.0034174452021935586
2249.0,-0.0034174452021935586
2248.0,-0.0034605321095062536
2247.0,-0.003503614742536687
2246.0,-0.003546693102131737
2245.0,-0.0035897671891400584
2244.0,-0.003546693102131737
2243.0,-0.003503614742536687
2242.0,-0.0034605321095062536
2241.0,-0.0034174452021935586
2240.0,-0.0034174452021935586
2239.0,-0.0034174452021935586
2238.0,-0.0034174452021935586
2237.0,-0.0034174452021935586
2236.0,-0.0033743540197499478
2235.0,-0.0033312585613267665
2234.0,-0.0033312585613267665
2233.0,-0.0033312585613267665
2232.0,-0.0034174452021935586
2231.0,-0.003503614742536687
2230.0,-0.003546693102131737
2229.0,-0.003546693102131737
2228.0,-0.003503614742536687
2227.0,-0.0034605321095062536
2226.0,-0.0034174452021935586
2225.0,-0.0034605321095062536
2224.0,-0.0034605321095062536
2223.0,-0.003503614742536687
2222.0,-0.003503614742536687
2221.0,-0.003503614742536687
2220.0,-0.003546693102131737
2219.0,-0.003632837004408529
2218.0,-0.003675902548784027
2217.0,-0.003632837004408529
2216.0,-0.003632837004408529
2215.0,-0.0035897671891400584
2214.0,-0.0035897671891400584
2213.0,-0.0035897671891400584
2212.0,-0.003632837004408529
2211.0,-0.003632837004408529
2210.0,-0.003632837004408529
2209.0,-0.0035897671891400584
2208.0,-0.003546693102131737
2207.0,-0.003503614742536687
2206.0,-0.003503614742536687
2205.0,-0.003503614742536687
2204.0,-0.003546693102131737
2203.0,-0.0035897671891400584
2202.0,-0.0035897671891400584
2201.0,-0.003632837004408529
2200.0,-0.003675902548784027
2199.0,-0.003675902548784027
2198.0,-0.003675902548784027
2197.0,-0.0035897671891400584
2196.0,-0.003503614742536687
2195.0,-0.0034174452021935586
2194.0,-0.0034174452021935586
2193.0,-0.0034605321095062536
2192.0,-0.003503614742536687
2191.0,-0.003503614742536687
2190.0,-0.003503614742536687
2189.0,-0.003503614742536687
2188.0,-0.003546693102131737
2187.0,-0.0035897671891400584
2186.0,-0.0035897671891400584
2185.0,-0.0035897671891400584
2184.0,-0.003546693102131737
2183.0,-0.003503614742536687
2182.0,-0.0034605321095062536
2181.0,-0.003503614742536687
2180.0,-0.003546693102131737
2179.0,-0.0035897671891400584
2178.0,-0.0035897671891400584
2177.0,-0.0035897671891400584
2176.0,-0.003546693102131737
2175.0,-0.0034605321095062536
2174.0,-0.0034605321095062536
2173.0,-0.003503614742536687
2172.0,-0.003546693102131737
2171.0,-0.003546693102131737
2170.0,-0.0034605321095062536
2169.0,-0.0034605321095062536
2168.0,-0.003546693102131737
2167.0,-0.003632837004408529
2166.0,-0.0037189638231147626
2165.0,-0.003762020828246282
2164.0,-0.003762020828246282
2163.0,-0.003762020828246282
2162.0,-0.003762020828246282
2161.0,-0.003675902548784027
2160.0,-0.003632837004408529
2159.0,-0.003632837004408529
2158.0,-0.0035897671891400584
2157.0,-0.003546693102131737
2156.0,-0.0034605321095062536
2155.0,-0.0033743540197499478
2154.0,-0.0033312585613267665
2153.0,-0.0033312585613267665
2152.0,-0.0034174452021935586
2151.0,-0.0034174452021935586
2150.0,-0.0034174452021935586
2149.0,-0.0033312585613267665
2148.0,-0.0032450548131470747
2147.0,-0.003201946521692367
2146.0,-0.0032450548131470747
2145.0,-0.0033312585613267665
2144.0,-0.003503614742536687
2143.0,-0.0035897671891400584
2142.0,-0.003632837004408529
2141.0,-0.003632837004408529
2140.0,-0.0035897671891400584
2139.0,-0.003503614742536687
2138.0,-0.003503614742536687
2137.0,-0.003503614742536687
2136.0,-0.003546693102131737
2135.0,-0.003546693102131737
2134.0,-0.003503614742536687
2133.0,-0.0034605321095062536
2132.0,-0.0034605321095062536
2131.0,-0.0034605321095062536
2130.0,-0.0034605321095062536
2129.0,-0.003503614742536687
2128.0,-0.003546693102131737
2127.0,-0.003632837004408529
2126.0,-0.003675902548784027
2125.0,-0.003675902548784027
2124.0,-0.003675902548784027
2123.0,-0.003632837004408529
2122.0,-0.003632837004408529
2121.0,-0.003632837004408529
2120.0,-0.003632837004408529
2119.0,-0.003632837004408529
2118.0,-0.003675902548784027
2117.0,-0.0037189638231147626
2116.0,-0.003805073565025019
2115.0,-0.003805073565025019
2114.0,-0.003805073565025019
2113.0,-0.0037189638231147626
2112.0,-0.0035897671891400584
2111.0,-0.0034605321095062536
2110.0,-0.0033743540197499478
2109.0,-0.0033312585613267665
2108.0,-0.0032881588260753603
2107.0,-0.0032881588260753603
2106.0,-0.0032450548131470747
2105.0,-0.0032881588260753603
2104.0,-0.0033312585613267665
2103.0,-0.0033312585613267665
2102.0,-0.0033312585613267665
2101.0,-0.0033312585613267665
2100.0,-0.0033312585613267665
2099.0,-0.0033312585613267665
2098.0,-0.0032881588260753603
2097.0,-0.0032881588260753603
2096.0,-0.0032450548131470747
2095.0,-0.003201946521692367
2094.0,-0.003158833950862139
2093.0,-0.003115717099805959
2092.0,-0.003115717099805959
2091.0,-0.003115717099805959
2090.0,-0.003201946521692367
2089.0,-0.0032450548131470747
2088.0,-0.0032881588260753603
2087.0,-0.0032881588260753603
2086.0,-0.0033312585613267665
2085.0,-0.0033312585613267665
2084.0,-0.0032881588260753603
2083.0,-0.0032450548131470747
2082.0,-0.003201946521692367
2081.0,-0.0032450548131470747
2080.0,-0.0032881588260753603
2079.0,-0.0033312585613267665
2078.0,-0.0033743540197499478
2077.0,-0.0033743540197499478
2076.0,-0.0033743540197499478
2075.0,-0.0033743540197499478
2074.0,-0.0033743540197499478
2073.0,-0.0033312585613267665
2072.0,-0.0032881588260753603
2071.0,-0.0032881588260753603
2070.0,-0.0032881588260753603
2069.0,-0.0032881588260753603
2068.0,-0.0032881588260753603
2067.0,-0.0033312585613267665
2066.0,-0.0033312585613267665
2065.0,-0.0033312585613267665
2064.0,-0.0033743540197499478
2063.0,-0.0033743540197499478
2062.0,-0.0034174452021935586
2061.0,-0.0034174452021935586
2060.0,-0.0034174452021935586
2059.0,-0.0034174452021935586
2058.0,-0.0034174452021935586
2057.0,-0.0034174452021935586
2056.0,-0.0034605321095062536
2055.0,-0.0034605321095062536
2054.0,-0.0034605321095062536
2053.0,-0.0034605321095062536
2052.0,-0.0034605321095062536
2051.0,-0.0034605321095062536
2050.0,-0.0034174452021935586
2049.0,-0.0034174452021935586
2048.0,-0.0034174452021935586
2047.0,-0.0034605321095062536
2046.0,-0.0034605321095062536
2045.0,-0.0034174452021935586
2044.0,-0.0033312585613267665
2043.0,-0.0032881588260753603
2042.0,-0.0032450548131470747
2041.0,-0.0032881588260753603
2040.0,-0.0032881588260753603
2039.0,-0.0032881588260753603
2038.0,-0.0032450548131470747
2037.0,-0.003201946521692367
2036.0,-0.003158833950862139
2035.0,-0.003115717099805959
2034.0,-0.003115717099805959
2033.0,-0.003201946521692367
2032.0,-0.0032881588260753603
2031.0,-0.0033312585613267665
2030.0,-0.0033743540197499478
2029.0,-0.0033312585613267665
2028.0,-0.0033312585613267665
2027.0,-0.0033743540197499478
2026.0,-0.0034174452021935586
2025.0,-0.0034174452021935586
2024.0,-0.0033743540197499478
2023.0,-0.0032881588260753603
2022.0,-0.003158833950862139
2021.0,-0.003115717099805959
2020.0,-0.003158833950862139
2019.0,-0.0032450548131470747
2018.0,-0.0032881588260753603
2017.0,-0.0032881588260753603
2016.0,-0.0032450548131470747
2015.0,-0.0032450548131470747
2014.0,-0.0032881588260753603
2013.0,-0.0033312585613267665
2012.0,-0.0033743540197499478
2011.0,-0.0034174452021935586
2010.0,-0.0033743540197499478
2009.0,-0.0033312585613267665
2008.0,-0.0032881588260753603
2007.0,-0.0032450548131470747
2006.0,-0.0032881588260753603
2005.0,-0.0032881588260753603
2004.0,-0.0032881588260753603
2003.0,-0.0033312585613267665
2002.0,-0.0033743540197499478
2001.0,-0.0034174452021935586
2000.0,-0.0034174452021935586
1999.0,-0.0034174452021935586
1998.0,-0.0034174452021935586
1997.0,-0.0034174452021935586
1996.0,-0.0034605321095062536
1995.0,-0.003503614742536687
1994.0,-0.003546693102131737
1993.0,-0.003632837004408529
1992.0,-0.003675902548784027
1991.0,-0.003675902548784027
1990.0,-0.003632837004408529
1989.0,-0.0035897671891400584
1988.0,-0.003632837004408529
1987.0,-0.003675902548784027
1986.0,-0.0037189638231147626
1985.0,-0.0037189638231147626
1984.0,-0.003675902548784027
1983.0,-0.003546693102131737
1982.0,-0.0034605321095062536
1981.0,-0.0033743540197499478
1980.0,-0.0033743540197499478
1979.0,-0.0033743540197499478
1978.0,-0.0034174452021935586
1977.0,-0.0034174452021935586
1976.0,-0.0034605321095062536
1975.0,-0.003546693102131737
1974.0,-0.0035897671891400584
1973.0,-0.003632837004408529
1972.0,-0.003632837004408529
1971.0,-0.003632837004408529
1970.0,-0.003632837004408529
1969.0,-0.0035897671891400584
1968.0,-0.003546693102131737
1967.0,-0.003503614742536687
1966.0,-0.0034605321095062536
1965.0,-0.0034605321095062536
1964.0,-0.0034605321095062536
1963.0,-0.003546693102131737
1962.0,-0.0035897671891400584
1961.0,-0.0035897671891400584
1960.0,-0.0035897671891400584
1959.0,-0.003632837004408529
1958.0,-0.0037189638231147626
1957.0,-0.003762020828246282
1956.0,-0.003805073565025019
1955.0,-0.0038481220342978517
1954.0,-0.0038481220342978517
1953.0,-0.003805073565025019
1952.0,-0.0037189638231147626
1951.0,-0.0035897671891400584
1950.0,-0.003546693102131737
1949.0,-0.003546693102131737
1948.0,-0.003632837004408529
1947.0,-0.003675902548784027
1946.0,-0.0037189638231147626
1945.0,-0.0037189638231147626
1944.0,-0.0037189638231147626
1943.0,-0.0037189638231147626
1942.0,-0.003762020828246282
1941.0,-0.003805073565025019
1940.0,-0.0038481220342978517
1939.0,-0.0038481220342978517
1938.0,-0.0038481220342978517
1937.0,-0.003891166236910326
1936.0,-0.0039772418455368275
1935.0,-0.004063300397667113
1934.0,-0.004063300397667113
1933.0,-0.004020273253241502
1932.0,-0.003934206173708432
1931.0,-0.003891166236910326
1930.0,-0.003891166236910326
1929.0,-0.003891166236910326
1928.0,-0.003891166236910326
1927.0,-0.003891166236910326
1926.0,-0.003891166236910326
1925.0,-0.0038481220342978517
1924.0,-0.003891166236910326
1923.0,-0.0039772418455368275
1922.0,-0.004020273253241502
1921.0,-0.004020273253241502
1920.0,-0.004020273253241502
1919.0,-0.003934206173708432
1918.0,-0.003891166236910326
1917.0,-0.0038481220342978517
1916.0,-0.0038481220342978517
1915.0,-0.0038481220342978517
1914.0,-0.003891166236910326
1913.0,-0.0039772418455368275
1912.0,-0.004106323279658319
1911.0,-0.004149341900058889
1910.0,-0.004106323279658319
1909.0,-0.004020273253241502
1908.0,-0.0039772418455368275
1907.0,-0.003934206173708432
1906.0,-0.003934206173708432
1905.0,-0.0039772418455368275
1904.0,-0.004063300397667113
1903.0,-0.004106323279658319
1902.0,-0.004149341900058889
1901.0,-0.004192356259714369
1900.0,-0.0042353663594676405
1899.0,-0.004321373782642635
1898.0,-0.004321373782642635
1897.0,-0.0042783722001624724
1896.0,-0.004192356259714369
1895.0,-0.004106323279658319
1894.0,-0.004106323279658319
1893.0,-0.004149341900058889
1892.0,-0.0042353663594676405
1891.0,-0.004321373782642635
1890.0,-0.004364371107751008
1889.0,-0.004364371107751008
1888.0,-0.004364371107751008
1887.0,-0.004321373782642635
1886.0,-0.004321373782642635
1885.0,-0.004321373782642635
1884.0,-0.004321373782642635
1883.0,-0.004321373782642635
1882.0,-0.004321373782642635
1881.0,-0.004321373782642635
1880.0,-0.0042783722001624724
1879.0,-0.0042353663594676405
1878.0,-0.004192356259714369
1877.0,-0.004192356259714369
1876.0,-0.004192356259714369
1875.0,-0.0042353663594676405
1874.0,-0.0042783722001624724
1873.0,-0.004321373782642635
1872.0,-0.0042783722001624724
1871.0,-0.0042783722001624724
1870.0,-0.004321373782642635
1869.0,-0.004407364176330919
1868.0,-0.00445035298922436
1867.0,-0.004493337547274212
1866.0,-0.00445035298922436
1865.0,-0.00445035298922436
1864.0,-0.004493337547274212
1863.0,-0.0045792939022115675
1862.0,-0.004622265700782613
1861.0,-0.004622265700782613
1860.0,-0.004622265700782613
1859.0,-0.0045792939022115675
1858.0,-0.0045792939022115675
1857.0,-0.004622265700782613
1856.0,-0.004665233247877154
1855.0,-0.004708196544336296
1854.0,-0.004665233247877154
1853.0,-0.004665233247877154
1852.0,-0.004751155591001144
1851.0,-0.004794110388711914
1850.0,-0.004837060938309712
1849.0,-0.004794110388711914
1848.0,-0.004751155591001144
1847.0,-0.004708196544336296
1846.0,-0.004708196544336296
1845.0,-0.004837060938309712
1844.0,-0.005008820672367076
1843.0,-0.005094675072548682
1842.0,-0.005094675072548682
1841.0,-0.005051749993995713
1840.0,-0.005008820672367076
1839.0,-0.005051749993995713
1838.0,-0.005094675072548682
1837.0,-0.005137595908863979
1836.0,-0.005137595908863979
1835.0,-0.005137595908863979
1834.0,-0.005094675072548682
1833.0,-0.005137595908863979
1832.0,-0.005180512503780488
1831.0,-0.005223424858135761
1830.0,-0.005309236848516363
1829.0,-0.005266332972768684
1828.0,-0.005180512503780488
1827.0,-0.005051749993995713
1826.0,-0.004965887106823441
1825.0,-0.004922949296525481
1824.0,-0.004922949296525481
1823.0,-0.004922949296525481
1822.0,-0.004922949296525481
1821.0,-0.004922949296525481
1820.0,-0.004965887106823441
1819.0,-0.005051749993995713
1818.0,-0.005094675072548682
1817.0,-0.005137595908863979
1816.0,-0.005137595908863979
1815.0,-0.005137595908863979
1814.0,-0.005137595908863979
1813.0,-0.005180512503780488
1812.0,-0.005223424858135761
1811.0,-0.005266332972768684
1810.0,-0.005266332972768684
1809.0,-0.005309236848516363
1808.0,-0.005352136486216796
1807.0,-0.005395031886706203
1806.0,-0.0054379230508221355
1805.0,-0.0054379230508221355
1804.0,-0.0054379230508221355
1803.0,-0.0054379230508221355
1802.0,-0.005395031886706203
1801.0,-0.005395031886706203
1800.0,-0.0054379230508221355
1799.0,-0.00552369267327979
1798.0,-0.005609445360280407
1797.0,-0.005695181118510195
1796.0,-0.005738042651424635
1795.0,-0.005780899954652252
1794.0,-0.005780899954652252
1793.0,-0.005780899954652252
1792.0,-0.005780899954652252
1791.0,-0.0058666018753847915
1790.0,-0.005909446494558601
1789.0,-0.005952286887382918
1788.0,-0.005952286887382918
1787.0,-0.005952286887382918
1786.0,-0.005995123054691298
1785.0,-0.006037954997317296
1784.0,-0.006123606211854593
1783.0,-0.006209240537657479
1782.0,-0.006252051369364686
1781.0,-0.0062948579813855154
1780.0,-0.0063376603745508575
1779.0,-0.006380458549692936
1778.0,-0.0064660422492317515
1777.0,-0.006508827775289827
1776.0,-0.006551609086648202
1775.0,-0.00659438618413688
1774.0,-0.00659438618413688
1773.0,-0.00659438618413688
1772.0,-0.00659438618413688
1771.0,-0.00659438618413688
1770.0,-0.006551609086648202
1769.0,-0.006551609086648202
1768.0,-0.00659438618413688
1767.0,-0.0066799277408255975
1766.0,-0.006765452451992449
1765.0,-0.006808208492578682
1764.0,-0.006850960324272126
1763.0,-0.006936451364292662
1762.0,-0.00710738297405733
1761.0,-0.007235537545951853
1760.0,-0.007235537545951853
1759.0,-0.007235537545951853
1758.0,-0.007278247334244092
1757.0,-0.007449044497748858
1756.0,-0.007577098304338836
1755.0,-0.007619774517403144
1754.0,-0.007577098304338836
1753.0,-0.007577098304338836
1752.0,-0.0077051143647803855
1751.0,-0.007833092701319266
1750.0,-0.007918390645599072
1749.0,-0.007961033336183032
1748.0,-0.008003671840159488
1747.0,-0.008003671840159488
1746.0,-0.007961033336183032
1745.0,-0.007918390645599072
1744.0,-0.007875743767585153
1743.0,-0.007790437445978515
1742.0,-0.0077051143647803855
1741.0,-0.007619774517403144
1740.0,-0.00766244653727588
1739.0,-0.007747778000740002
1738.0,-0.007790437445978515
1737.0,-0.0077051143647803855
1736.0,-0.00766244653727588
1735.0,-0.007619774517403144
1734.0,-0.007534417897257839
1733.0,-0.007449044497748858
1732.0,-0.007235537545951853
1731.0,-0.00697919057427665
1730.0,-0.006765452451992449
1729.0,-0.0066799277408255975
1728.0,-0.00659438618413688
1727.0,-0.006508827775289827
1726.0,-0.006423252507643085
1725.0,-0.006380458549692936
1724.0,-0.006380458549692936
1723.0,-0.0063376603745508575
1722.0,-0.006209240537657479
1721.0,-0.006037954997317296
1720.0,-0.00582375302902749
1719.0,-0.005652315355074045
1718.0,-0.005480809979401258
1717.0,-0.0054379230508221355
1716.0,-0.005480809979401258
1715.0,-0.00552369267327979
1714.0,-0.005480809979401258
1713.0,-0.005480809979401258
1712.0,-0.005480809979401258
1711.0,-0.00552369267327979
1710.0,-0.005566571133294396
1709.0,-0.005609445360280407
1708.0,-0.005652315355074045
1707.0,-0.005738042651424635
1706.0,-0.00582375302902749
1705.0,-0.00582375302902749
1704.0,-0.005652315355074045
1703.0,-0.0054379230508221355
1702.0,-0.005223424858135761
1701.0,-0.005266332972768684
1700.0,-0.0054379230508221355
1699.0,-0.005609445360280407
1698.0,-0.005609445360280407
1697.0,-0.005609445360280407
1696.0,-0.005695181118510195
1695.0,-0.00582375302902749
1694.0,-0.005780899954652252
1693.0,-0.005566571133294396
1692.0,-0.0054379230508221355
1691.0,-0.0054379230508221355
1690.0,-0.00552369267327979
1689.0,-0.00552369267327979
1688.0,-0.005480809979401258
1687.0,-0.0054379230508221355
1686.0,-0.005480809979401258
1685.0,-0.00552369267327979
1684.0,-0.005566571133294396
1683.0,-0.005566571133294396
1682.0,-0.00552369267327979
1681.0,-0.005395031886706203
1680.0,-0.005352136486216796
1679.0,-0.005309236848516363
1678.0,-0.005223424858135761
1677.0,-0.005137595908863979
1676.0,-0.005094675072548682
1675.0,-0.005180512503780488
1674.0,-0.005266332972768684
1673.0,-0.005223424858135761
1672.0,-0.005180512503780488
1671.0,-0.005137595908863979
1670.0,-0.005094675072548682
1669.0,-0.005051749993995713
1668.0,-0.005008820672367076
1667.0,-0.004965887106823441
1666.0,-0.004837060938309712
1665.0,-0.004665233247877154
1664.0,-0.004493337547274212
1663.0,-0.004407364176330919
1662.0,-0.004493337547274212
1661.0,-0.004622265700782613
1660.0,-0.004708196544336296
1659.0,-0.004622265700782613
1658.0,-0.004536317851322913
1657.0,-0.00445035298922436
1656.0,-0.004407364176330919
1655.0,-0.004536317851322913
1654.0,-0.004622265700782613
1653.0,-0.0045792939022115675
1652.0,-0.004622265700782613
1651.0,-0.004493337547274212
1650.0,-0.0042353663594676405
1649.0,-0.004020273253241502
1648.0,-0.0038481220342978517
1647.0,-0.0037189638231147626
1646.0,-0.0037189638231147626
1645.0,-0.0037189638231147626
1644.0,-0.0035897671891400584
1643.0,-0.0034174452021935586
1642.0,-0.0032450548131470747
1641.0,-0.003158833950862139
1640.0,-0.003115717099805959
1639.0,-0.003029470553618019
1638.0,-0.002856926061120646
1637.0,-0.002597980719908577
1636.0,-0.002338880892056583
1635.0,-0.0020796263931210923
1634.0,-0.0019067040408846658
1633.0,-0.0016039241497978196
1632.0,-0.001257631312230778
1631.0,-0.0009110621312231615
1630.0,-0.0006075870628903246
1629.0,-0.00017368305846510168
1628.0,0.00030411258916074324
1627.0,0.0008259444115150671
1626.0,0.0013919706849057079
1625.0,0.0020459959305969555
1624.0,0.0029632891174733444
1623.0,0.004145520125434121
1622.0,0.005243055412371911
1621.0,0.006035001804881146
1620.0,0.006651960076740071
1619.0,0.007358130121602358
1618.0,0.008375265465994541
1617.0,0.01001654169860089
1616.0,0.011842527443247208
1615.0,0.013138729709955221
1614.0,0.013900374944870508
1613.0,0.0144837121472845
1612.0,0.015067833932588037
1611.0,0.015652742414136167
1610.0,0.016148281008528276
1609.0,0.016509028184833463
1608.0,0.016689514205884493
1607.0,0.01646391839700767
1606.0,0.015877917138889863
1605.0,0.014977917890464765
1604.0,0.013945219230304673
1603.0,0.012870232340102872
1602.0,0.011619434777991433
1601.0,0.010327752376126709
1600.0,0.009128595198514056
1599.0,0.008021209005416363
1598.0,0.007004901568658406
1597.0,0.00612308505878878
1596.0,0.0052870145684298375
1595.0,0.004628093971837721
1594.0,0.0040578370074493275
1593.0,0.0035758960449088217
1592.0,0.0032257291386954545
1591.0,0.0030070181092942683
1590.0,0.0028758443407954637
1589.0,0.0027447101798967477
1588.0,0.002613615602686581
1587.0,0.002395212539545666
1586.0,0.0021769192542746563
1585.0,0.0020023635919956817
1584.0,0.0018714928717336043
1583.0,0.0017842676290416026
1582.0,0.0017406615763013722
1581.0,0.0016534626036355249
1580.0,0.0015662811355310335
1579.0,0.0014791171649619628
1578.0,0.0013919706849057079
1577.0,0.0013919706849057079
1576.0,0.0013919706849057079
1575.0,0.001348404001626502
1574.0,0.0012612837441823288
1573.0,0.0012177301682640973
1572.0,0.0011741809597138886
1571.0,0.0011306361176557367
1570.0,0.0011741809597138886
1569.0,0.0011741809597138886
1568.0,0.0011306361176557367
1567.0,0.0010870956412141197
1566.0,0.0010435595295137379
1565.0,0.0009565003968372565
1564.0,0.0009129773741116676
1563.0,0.000869458712629001
1562.0,0.000869458712629001
1561.0,0.0007824344698965646
1560.0,0.0008259444115150671
1559.0,0.0010000277816797354
1558.0,0.0007389288868995258
1557.0,0.0004779868710962365
1556.0,0.0004779868710962365
1555.0,0.0004779868710962365
1554.0,0.00043451177401765406
1553.0,0.00030411258916074324
1552.0,0.00026065489343207737
1551.0,0.00026065489343207737
1550.0,0.00026065489343207737
1549.0,0.00021720154586435392
1548.0,0.0001303078917322953
1547.0,8.686758342868472e-05
1546.0,8.686758342868472e-05
1545.0,8.686758342868472e-05
1544.0,0.00017375254558760211
1543.0,0.00017375254558760211
1542.0,0.00017375254558760211
1541.0,0.00026065489343207737
1540.0,0.0004779868710962365
1539.0,0.0003910410285830057
1538.0,0.0001303078917322953
1537.0,4.343161980746579e-05
1536.0,-4.3427276862573194e-05
1535.0,-8.685021164911433e-05
1534.0,-0.00013026880522692963
1533.0,-0.00013026880522692963
1532.0,-0.00021709297223004853
1531.0,-0.0003472966853634851
1530.0,-0.0004774613744551459
1529.0,-0.0005642161653756084
1528.0,-0.0006509536295951079
1527.0,-0.0006943158663546001
1526.0,-0.0006509536295951079
1525.0,-0.0006509536295951079
1524.0,-0.0006509536295951079
1523.0,-0.0007376737740329986
1522.0,-0.0008243766056055257
1521.0,-0.0009110621312231615
1520.0,-0.0009977303577937136
1519.0,-0.001041057986093552
1518.0,-0.0011277002770349043
1517.0,-0.0011710149414008164
1516.0,-0.0011710149414008164
1515.0,-0.00121432528617893
1514.0,-0.00121432528617893
1513.0,-0.001257631312230778
1512.0,-0.001344230411601366
1511.0,-0.0014308122463981832
1510.0,-0.0016039241497978196
1509.0,-0.0019067040408846658
1508.0,-0.0021228462251614566
1507.0,-0.0019931738235303698
1506.0,-0.001776967077439462
1505.0,-0.001733712809000476
1504.0,-0.0016471913460383014
1503.0,-0.0016039241497978196
1502.0,-0.0016039241497978196
1501.0,-0.0016039241497978196
1500.0,-0.0015606526425728795
1499.0,-0.0014308122463981832
1498.0,-0.0013009330204178937
1497.0,-0.00121432528617893
1496.0,-0.001257631312230778
1495.0,-0.0013009330204178937
1494.0,-0.0013875234866409514
1493.0,-0.0014308122463981832
1492.0,-0.0015173768235041685
1491.0,-0.0016471913460383014
1490.0,-0.0016904542321527494
1489.0,-0.0016904542321527494
1488.0,-0.0016039241497978196
1487.0,-0.0015606526425728795
1486.0,-0.0015606526425728795
1485.0,-0.0016039241497978196
1484.0,-0.0016471913460383014
1483.0,-0.0016904542321527494
1482.0,-0.001733712809000476
1481.0,-0.0018202170383281313
1480.0,-0.0018634626925240205
1479.0,-0.0019499410842680476
1478.0,-0.0019931738235303698
1477.0,-0.0020796263931210923
1476.0,-0.0020796263931210923
1475.0,-0.0020364022595291686
1474.0,-0.0019499410842680476
1473.0,-0.0018634626925240205
1472.0,-0.0019067040408846658
1471.0,-0.0019931738235303698
1470.0,-0.0020796263931210923
1469.0,-0.0020796263931210923
1468.0,-0.0020796263931210923
1467.0,-0.0021660617565077978
1466.0,-0.0022524799205383417
1465.0,-0.002338880892056583
1464.0,-0.0024252646779014952
1463.0,-0.0024684501283323
1462.0,-0.0025116312849080558
1461.0,-0.0024684501283323
1460.0,-0.0024252646779014952
1459.0,-0.0022956825549340643
1458.0,-0.0021660617565077978
1457.0,-0.0021228462251614566
1456.0,-0.0022956825549340643
1455.0,-0.0024684501283323
1454.0,-0.0025116312849080558
1453.0,-0.0025116312849080558
1452.0,-0.0025116312849080558
1451.0,-0.0025116312849080558
1450.0,-0.0025548081484823015
1449.0,-0.0026411490000399773
1448.0,-0.002684312989729598
1447.0,-0.002684312989729598
1446.0,-0.0027274726898296464
1445.0,-0.0028137792246734072
1444.0,-0.002856926061120646
1443.0,-0.002856926061120646
1442.0,-0.002856926061120646
1441.0,-0.002856926061120646
1440.0,-0.0028137792246734072
1439.0,-0.0027706281011936618
1438.0,-0.0027706281011936618
1437.0,-0.0027274726898296464
1436.0,-0.0027274726898296464
1435.0,-0.0027274726898296464
1434.0,-0.002684312989729598
1433.0,-0.0026411490000399773
1432.0,-0.0026411490000399773
1431.0,-0.0026411490000399773
1430.0,-0.0026411490000399773
1429.0,-0.0026411490000399773
1428.0,-0.002684312989729598
1427.0,-0.002684312989729598
1426.0,-0.0027706281011936618
1425.0,-0.002856926061120646
1424.0,-0.0029432068763250996
1423.0,-0.0029863408567849525
1422.0,-0.003029470553618019
1421.0,-0.003115717099805959
1420.0,-0.0032881588260753603
1419.0,-0.0034605321095062536
1418.0,-0.003632837004408529
1417.0,-0.0037189638231147626
1416.0,-0.003805073565025019
1415.0,-0.0038481220342978517
1414.0,-0.0038481220342978517
1413.0,-0.0038481220342978517
1412.0,-0.003762020828246282
1411.0,-0.003632837004408529
1410.0,-0.003503614742536687
1409.0,-0.0033743540197499478
1408.0,-0.0032450548131470747
1407.0,-0.0030725959676747294
1406.0,-0.002900068611387585
1405.0,-0.0027706281011936618
1404.0,-0.0027274726898296464
1403.0,-0.0027706281011936618
1402.0,-0.0028137792246734072
1401.0,-0.002856926061120646
1400.0,-0.002856926061120646
1399.0,-0.002856926061120646
1398.0,-0.002856926061120646
1397.0,-0.0029432068763250996
1396.0,-0.0030725959676747294
1395.0,-0.003201946521692367
1394.0,-0.0032881588260753603
1393.0,-0.0033743540197499478
1392.0,-0.0034605321095062536
1391.0,-0.003546693102131737
1390.0,-0.0035897671891400584
1389.0,-0.003632837004408529
1388.0,-0.003632837004408529
1387.0,-0.003675902548784027
1386.0,-0.003675902548784027
1385.0,-0.003762020828246282
1384.0,-0.0038481220342978517
1383.0,-0.003934206173708432
1382.0,-0.0039772418455368275
1381.0,-0.004020273253241502
1380.0,-0.004063300397667113
1379.0,-0.004063300397667113
1378.0,-0.004106323279658319
1377.0,-0.004106323279658319
1376.0,-0.004149341900058889
1375.0,-0.004192356259714369
1374.0,-0.0042353663594676405
1373.0,-0.0042353663594676405
1372.0,-0.0042353663594676405
1371.0,-0.004192356259714369
1370.0,-0.004106323279658319
1369.0,-0.004063300397667113
1368.0,-0.004020273253241502
1367.0,-0.004063300397667113
1366.0,-0.004063300397667113
1365.0,-0.004063300397667113
1364.0,-0.004106323279658319
1363.0,-0.004106323279658319
1362.0,-0.004192356259714369
1361.0,-0.004321373782642635
1360.0,-0.00445035298922436
1359.0,-0.004493337547274212
1358.0,-0.0045792939022115675
1357.0,-0.004622265700782613
1356.0,-0.004665233247877154
1355.0,-0.004751155591001144
1354.0,-0.004837060938309712
1353.0,-0.00488000724063431
1352.0,-0.00488000724063431
1351.0,-0.004922949296525481
1350.0,-0.005008820672367076
1349.0,-0.005094675072548682
1348.0,-0.005223424858135761
1347.0,-0.005309236848516363
1346.0,-0.005309236848516363
1345.0,-0.005309236848516363
1344.0,-0.005309236848516363
1343.0,-0.005266332972768684
1342.0,-0.005223424858135761
1341.0,-0.005180512503780488
1340.0,-0.005094675072548682
1339.0,-0.004922949296525481
1338.0,-0.004794110388711914
1337.0,-0.004708196544336296
1336.0,-0.004665233247877154
1335.0,-0.004708196544336296
1334.0,-0.004794110388711914
1333.0,-0.004965887106823441
1332.0,-0.005137595908863979
1331.0,-0.005309236848516363
1330.0,-0.005395031886706203
1329.0,-0.0054379230508221355
1328.0,-0.005480809979401258
1327.0,-0.00552369267327979
1326.0,-0.005609445360280407
1325.0,-0.005695181118510195
1324.0,-0.00582375302902749
1323.0,-0.005909446494558601
1322.0,-0.005952286887382918
1321.0,-0.005995123054691298
1320.0,-0.006037954997317296
1319.0,-0.006037954997317296
1318.0,-0.006080782716094024
1317.0,-0.006080782716094024
1316.0,-0.006123606211854593
1315.0,-0.006080782716094024
1314.0,-0.006037954997317296
1313.0,-0.006037954997317296
1312.0,-0.006037954997317296
1311.0,-0.006037954997317296
1310.0,-0.006080782716094024
1309.0,-0.006123606211854593
1308.0,-0.006123606211854593
1307.0,-0.006123606211854593
1306.0,-0.006080782716094024
1305.0,-0.006080782716094024
1304.0,-0.006080782716094024
1303.0,-0.006037954997317296
1302.0,-0.005952286887382918
1301.0,-0.0058666018753847915
1300.0,-0.0058666018753847915
1299.0,-0.005909446494558601
1298.0,-0.005952286887382918
1297.0,-0.005952286887382918
1296.0,-0.005952286887382918
1295.0,-0.0058666018753847915
1294.0,-0.005780899954652252
1293.0,-0.005738042651424635
1292.0,-0.005738042651424635
1291.0,-0.005738042651424635
1290.0,-0.005695181118510195
1289.0,-0.005652315355074045
1288.0,-0.005566571133294396
1287.0,-0.00552369267327979
1286.0,-0.005480809979401258
1285.0,-0.005480809979401258
1284.0,-0.00552369267327979
1283.0,-0.005566571133294396
1282.0,-0.005652315355074045
1281.0,-0.005695181118510195
1280.0,-0.005738042651424635
1279.0,-0.005738042651424635
1278.0,-0.005609445360280407
1277.0,-0.005480809979401258
1276.0,-0.005352136486216796
1275.0,-0.005309236848516363
1274.0,-0.005309236848516363
1273.0,-0.005352136486216796
1272.0,-0.005266332972768684
1271.0,-0.005137595908863979
1270.0,-0.005008820672367076
1269.0,-0.004922949296525481
1268.0,-0.004837060938309712
1267.0,-0.004794110388711914
1266.0,-0.004665233247877154
1265.0,-0.004536317851322913
1264.0,-0.004407364176330919
1263.0,-0.0042353663594676405
1262.0,-0.004063300397667113
1261.0,-0.003934206173708432
1260.0,-0.003762020828246282
1259.0,-0.003632837004408529
1258.0,-0.003503614742536687
1257.0,-0.0034174452021935586
1256.0,-0.0033743540197499478
1255.0,-0.0033312585613267665
1254.0,-0.0032881588260753603
1253.0,-0.0032450548131470747
1252.0,-0.003115717099805959
1251.0,-0.0029432068763250996
1250.0,-0.0027706281011936618
1249.0,-0.002684312989729598
1248.0,-0.002597980719908577
1247.0,-0.0025548081484823015
1246.0,-0.0024684501283323
1245.0,-0.0022956825549340643
1244.0,-0.0021660617565077978
1243.0,-0.0019931738235303698
1242.0,-0.0018634626925240205
1241.0,-0.0018202170383281313
1240.0,-0.001776967077439462
1239.0,-0.0018202170383281313
1238.0,-0.0018634626925240205
1237.0,-0.0018634626925240205
1236.0,-0.001733712809000476
1235.0,-0.0016471913460383014
1234.0,-0.0015606526425728795
1233.0,-0.0015606526425728795
1232.0,-0.0016039241497978196
1231.0,-0.0016039241497978196
1230.0,-0.0015606526425728795
1229.0,-0.0015606526425728795
1228.0,-0.0015173768235041685
1227.0,-0.001474096691732818
1226.0,-0.0014308122463981832
1225.0,-0.0014308122463981832
1224.0,-0.0014308122463981832
1223.0,-0.0014308122463981832
1222.0,-0.0013875234866409514
1221.0,-0.0013875234866409514
1220.0,-0.0013875234866409514
1219.0,-0.0013875234866409514
1218.0,-0.0014308122463981832
1217.0,-0.0013875234866409514
1216.0,-0.0013875234866409514
1215.0,-0.001344230411601366
1214.0,-0.0013009330204178937
1213.0,-0.00121432528617893
1212.0,-0.0011710149414008164
1211.0,-0.0011710149414008164
1210.0,-0.00121432528617893
1209.0,-0.00121432528617893
1208.0,-0.00121432528617893
1207.0,-0.0011710149414008164
1206.0,-0.0010843812922201046
1205.0,-0.001041057986093552
1204.0,-0.001041057986093552
1203.0,-0.001041057986093552
1202.0,-0.001041057986093552
1201.0,-0.0009543984064577238
1200.0,-0.0008243766056055257
1199.0,-0.0007810273534953893
1198.0,-0.0007376737740329986
1197.0,-0.0006943158663546001
1196.0,-0.0006509536295951079
1195.0,-0.0006509536295951079
1194.0,-0.0006943158663546001
1193.0,-0.0006943158663546001
1192.0,-0.0006509536295951079
1191.0,-0.0005642161653756084
1190.0,-0.00043407747931878404
1189.0,-0.0003472966853634851
1188.0,-0.0002604985473904087
1187.0,-0.00021709297223004853
1186.0,-0.00021709297223004853
1185.0,-0.00017368305846510168
1184.0,-0.00017368305846510168
1183.0,-0.00017368305846510168
1182.0,-0.00017368305846510168
1181.0,-0.0002604985473904087
1180.0,-0.00030389978481260016
1179.0,-0.00030389978481260016
1178.0,-0.00030389978481260016
1177.0,-0.0002604985473904087
1176.0,-0.00017368305846510168
1175.0,0.0
1174.0,0.00017375254558760211
1173.0,0.00030411258916074324
1172.0,0.00030411258916074324
1171.0,0.00026065489343207737
1170.0,0.00021720154586435392
1169.0,0.00026065489343207737
1168.0,0.0003475746339209884
1167.0,0.0004779868710962365
1166.0,0.0006084382809090627
1165.0,0.0006519307932786322
1164.0,0.0006954276616513155
1163.0,0.0006954276616513155
1162.0,0.0007389288868995258
1161.0,0.0008259444115150671
1160.0,0.0009129773741116676
1159.0,0.0010000277816797354
1158.0,0.0010435595295137379
1157.0,0.0010870956412141197
1156.0,0.0010870956412141197
1155.0,0.0010435595295137379
1154.0,0.0010435595295137379
1153.0,0.0011306361176557367
1152.0,0.001304841688344327
1151.0,0.0014791171649619628
1150.0,0.0016534626036355249
1149.0,0.0017406615763013722
1148.0,0.0018278780605593958
1147.0,0.001915112063444413
1146.0,0.0020023635919956817
1145.0,0.0021332737608552588
1144.0,0.0022642234021015284
1143.0,0.002351545103793873
1142.0,0.0024388843664115978
1141.0,0.0025262411970197185
1140.0,0.002701007590486082
1139.0,0.0029195645282691363
1138.0,0.0031382315093266833
1137.0,0.0033132443998284966
1136.0,0.0034445503666347133
1135.0,0.0035758960449088217
1134.0,0.0036634819042162814
1133.0,0.0038387066319929275
1132.0,0.0040578370074493275
1131.0,0.004320939488377862
1130.0,0.004540313378935901
1129.0,0.004671990922590297
1128.0,0.00489154225525934
1127.0,0.005199100705396198
1126.0,0.005594853310833647
1125.0,0.005946936412324799
1124.0,0.00625524344553785
1123.0,0.006431517210272464
1122.0,0.006607862550997545
1121.0,0.00696076819309055
1120.0,0.007358130121602358
1119.0,0.007800070204414977
1118.0,0.008109696063975047
1117.0,0.008375265465994541
1116.0,0.008596697419959609
1115.0,0.008862564879688284
1114.0,0.009172949432521227
1113.0,0.009483555971770974
1112.0,0.009883233932095559
1111.0,0.01023881228122181
1110.0,0.010550182333308289
1109.0,0.010683695010048622
1108.0,0.01077272626946324
1107.0,0.01086177578421088
1106.0,0.010995384301463185
1105.0,0.01117359295472431
1104.0,0.011307297450183107
1103.0,0.011530229790124524
1102.0,0.011753276624621556
1101.0,0.0119764380713403
1100.0,0.012244383261476699
1099.0,0.012467797270160563
1098.0,0.012691326268817527
1097.0,0.012825498912458322
1096.0,0.012914970375878188
1095.0,0.013004460275618523
1094.0,0.01322826573375524
1093.0,0.013407393177789162
1092.0,0.013586594534531482
1091.0,0.013676222949234651
1090.0,0.01372104409400876
1089.0,0.01381070026317599
1088.0,0.013945219230304673
1087.0,0.01403492169512921
1086.0,0.014079779876432497
1085.0,0.014079779876432497
1084.0,0.014259258949925524
1083.0,0.014573525916998342
1082.0,0.014798141635428141
1081.0,0.014977917890464765
1080.0,0.015022873584506602
1079.0,0.015022873584506602
1078.0,0.014932966849499074
1077.0,0.014843078722943437
1076.0,0.014753209197138295
1075.0,0.014753209197138295
1074.0,0.014843078722943437
1073.0,0.014932966849499074
1072.0,0.014977917890464765
1071.0,0.014977917890464765
1070.0,0.014888020460646079
1069.0,0.014798141635428141
1068.0,0.014618439768003144
1067.0,0.014438812226654996
1066.0,0.014259258949925524
1065.0,0.014214382227394795
1064.0,0.014214382227394795
1063.0,0.014214382227394795
1062.0,0.014169510141607944
1061.0,0.013945219230304673
1060.0,0.01372104409400876
1059.0,0.013452186585275916
1058.0,0.013273040668781544
1057.0,0.01318349541446362
1056.0,0.013138729709955221
1055.0,0.013049212141483357
1054.0,0.012825498912458322
1053.0,0.01260190086298274
1052.0,0.012378417874516323
1051.0,0.012289056869694281
1050.0,0.012289056869694281
1049.0,0.012289056869694281
1048.0,0.012244383261476699
1047.0,0.012244383261476699
1046.0,0.012199714248127602
1045.0,0.01215504982870197
1044.0,0.012065734767841452
1043.0,0.011842527443247208
1042.0,0.011574829993696856
1041.0,0.011307297450183107
1040.0,0.011084479487313281
1039.0,0.010950843561779777
1038.0,0.010817248744452446
1037.0,0.010639186223752484
1036.0,0.010550182333308289
1035.0,0.010505687227290839
1034.0,0.010416710688994968
1033.0,0.01023881228122181
1032.0,0.01001654169860089
1031.0,0.009705553871561357
1030.0,0.009439170005980158
1029.0,0.009172949432521227
1028.0,0.008906891951112605
1027.0,0.008685301823389224
1026.0,0.008375265465994541
1025.0,0.008021209005416363
1024.0,0.00762324020119709
1023.0,0.007269796045857202
1022.0,0.007049039429553483
1021.0,0.007004901568658406
1020.0,0.007049039429553483
1019.0,0.007181479933320523
1018.0,0.007358130121602358
1017.0,0.007534852191956709
1016.0,0.007711646202907652
1015.0,0.007844288957383316
1014.0,0.007932739972333236
1013.0,0.007976972236149349
1012.0,0.007976972236149349
1011.0,0.007932739972333236
1010.0,0.007888512213050314
1009.0,0.007800070204414977
1008.0,0.007800070204414977
1007.0,0.007755855953228474
1006.0,0.007711646202907652
1005.0,0.0075790439479759275
1004.0,0.0074464821678643656
1003.0,0.007358130121602358
1002.0,0.007313960837872058
1001.0,0.007313960837872058
1000.0,0.007269796045857202
999.0,0.007225635744644521
998.0,0.007137328610972382
997.0,0.007049039429553483
996.0,0.006916639301937977
995.0,0.006784279525863024
994.0,0.006651960076740071
993.0,0.006475596832934416
992.0,0.006343371384537999
991.0,0.00621118618129457
990.0,0.006079041198713275
989.0,0.005946936412324799
988.0,0.00590291041179003
987.0,0.006079041198713275
986.0,0.006387442061109638
985.0,0.006740168563263094
984.0,0.006916639301937977
983.0,0.00696076819309055
982.0,0.006784279525863024
981.0,0.006519680930003435
980.0,0.00625524344553785
979.0,0.005990966876386672
978.0,0.005726851026829571
977.0,0.005550862985963967
976.0,0.005462895701502157
975.0,0.005462895701502157
974.0,0.005550862985963967
973.0,0.005594853310833647
972.0,0.005638848091999105
971.0,0.005638848091999105
970.0,0.005550862985963967
969.0,0.005506877116487674
968.0,0.005506877116487674
967.0,0.005462895701502157
966.0,0.00541891874010525
965.0,0.005330978174470591
964.0,0.0052870145684298375
963.0,0.0052870145684298375
962.0,0.0052870145684298375
961.0,0.005199100705396198
960.0,0.005067263269958211
959.0,0.004979393875242044
958.0,0.004935465843858511
957.0,0.00489154225525934
956.0,0.00489154225525934
955.0,0.00484762310854614
954.0,0.004759798137184523
953.0,0.004759798137184523
952.0,0.004759798137184523
951.0,0.004759798137184523
950.0,0.004759798137184523
949.0,0.00484762310854614
948.0,0.00489154225525934
947.0,0.004935465843858511
946.0,0.004935465843858511
945.0,0.004979393875242044
944.0,0.005067263269958211
943.0,0.005155150446602086
942.0,0.005199100705396198
941.0,0.005199100705396198
940.0,0.005155150446602086
939.0,0.005023326350308999
938.0,0.00489154225525934
937.0,0.00484762310854614
936.0,0.004935465843858511
935.0,0.005023326350308999
934.0,0.005067263269958211
933.0,0.005067263269958211
932.0,0.004979393875242044
931.0,0.00489154225525934
930.0,0.004759798137184523
929.0,0.004628093971837721
928.0,0.00458420145758498
927.0,0.00458420145758498
926.0,0.004628093971837721
925.0,0.00458420145758498
924.0,0.004540313378935901
923.0,0.0044964297349936455
922.0,0.004452550524862486
921.0,0.0043648054024501
920.0,0.004277078004534696
919.0,0.004101676353562844
918.0,0.003926345514724705
917.0,0.003794893821675638
916.0,0.003794893821675638
915.0,0.003926345514724705
914.0,0.004101676353562844
913.0,0.004145520125434121
912.0,0.00401400208620073
911.0,0.0038825238627120395
910.0,0.003794893821675638
909.0,0.003794893821675638
908.0,0.0037510854308679953
907.0,0.003707281458678491
906.0,0.003619686766589858
905.0,0.003619686766589858
904.0,0.0036634819042162814
903.0,0.003707281458678491
902.0,0.0036634819042162814
901.0,0.0035758960449088217
900.0,0.0033570086445275926
899.0,0.0031819781204844855
898.0,0.003050751504618754
897.0,0.0030070181092942683
896.0,0.003050751504618754
895.0,0.0030944893043338695
894.0,0.0030944893043338695
893.0,0.0030070181092942683
892.0,0.0028321285541661467
891.0,0.002613615602686581
890.0,0.002395212539545666
889.0,0.0023078820582733695
888.0,0.0023078820582733695
887.0,0.002351545103793873
886.0,0.0023078820582733695
885.0,0.0022205691343961664
884.0,0.002089632653256679
883.0,0.0020459959305969555
882.0,0.002089632653256679
881.0,0.0022205691343961664
880.0,0.002482560585275184
879.0,0.002701007590486082
878.0,0.0029195645282691363
877.0,0.0031382315093266833
876.0,0.0033570086445275926
875.0,0.0035321097382827737
874.0,0.003707281458678491
873.0,0.003926345514724705
872.0,0.004233220950025984
871.0,0.004452550524862486
870.0,0.004540313378935901
869.0,0.004452550524862486
868.0,0.004277078004534696
867.0,0.004233220950025984
866.0,0.004277078004534696
865.0,0.0043648054024501
864.0,0.0043648054024501
863.0,0.004320939488377862
862.0,0.004320939488377862
861.0,0.004408675747646695
860.0,0.0044964297349936455
859.0,0.004540313378935901
858.0,0.0044964297349936455
857.0,0.0044964297349936455
856.0,0.004540313378935901
855.0,0.004540313378935901
854.0,0.004408675747646695
853.0,0.004320939488377862
852.0,0.004277078004534696
851.0,0.004408675747646695
850.0,0.004540313378935901
849.0,0.004715892310740433
848.0,0.004935465843858511
847.0,0.005155150446602086
846.0,0.00537494623139545
845.0,0.00541891874010525
844.0,0.005330978174470591
843.0,0.005243055412371911
842.0,0.005155150446602086
841.0,0.005111204635089406
840.0,0.005067263269958211
839.0,0.005023326350308999
838.0,0.004979393875242044
837.0,0.004979393875242044
836.0,0.005023326350308999
835.0,0.005111204635089406
834.0,0.005199100705396198
833.0,0.005243055412371911
832.0,0.0052870145684298375
831.0,0.00537494623139545
830.0,0.005506877116487674
829.0,0.00577085918230158
828.0,0.005990966876386672
827.0,0.005990966876386672
826.0,0.00577085918230158
825.0,0.005506877116487674
824.0,0.005243055412371911
823.0,0.005111204635089406
822.0,0.005067263269958211
821.0,0.005155150446602086
820.0,0.0052870145684298375
819.0,0.00541891874010525
818.0,0.005462895701502157
817.0,0.005462895701502157
816.0,0.005506877116487674
815.0,0.005594853310833647
814.0,0.005594853310833647
813.0,0.005638848091999105
812.0,0.00577085918230158
811.0,0.005814871797682919
810.0,0.005814871797682919
809.0,0.005682847330363394
808.0,0.005550862985963967
807.0,0.005550862985963967
806.0,0.005638848091999105
805.0,0.005858888873877532
804.0,0.005990966876386672
803.0,0.006079041198713275
802.0,0.006035001804881146
801.0,0.005946936412324799
800.0,0.005990966876386672
799.0,0.006167133386013823
798.0,0.006431517210272464
797.0,0.006696062080525422
796.0,0.006916639301937977
795.0,0.007093181776687496
794.0,0.007137328610972382
793.0,0.007181479933320523
792.0,0.007225635744644521
791.0,0.007358130121602358
790.0,0.0074464821678643656
789.0,0.007402303897961815
788.0,0.007402303897961815
787.0,0.007402303897961815
786.0,0.007490664932224611
785.0,0.00762324020119709
784.0,0.007844288957383316
783.0,0.008153946355103248
782.0,0.008286724286910463
781.0,0.008242460465651913
780.0,0.008109696063975047
779.0,0.008021209005416363
778.0,0.008065450281052211
777.0,0.008065450281052211
776.0,0.008065450281052211
775.0,0.008065450281052211
774.0,0.008065450281052211
773.0,0.008109696063975047
772.0,0.008198201155356077
771.0,0.008286724286910463
770.0,0.008286724286910463
769.0,0.008330992620051436
768.0,0.008419542825660153
767.0,0.008596697419959609
766.0,0.008685301823389224
765.0,0.008596697419959609
764.0,0.008419542825660153
763.0,0.008286724286910463
762.0,0.008286724286910463
761.0,0.008198201155356077
760.0,0.007976972236149349
759.0,0.007755855953228474
758.0,0.0075790439479759275
757.0,0.0075790439479759275
756.0,0.007800070204414977
755.0,0.008153946355103248
754.0,0.008552401996197112
753.0,0.008862564879688284
752.0,0.009039900317800775
751.0,0.009128595198514056
750.0,0.009128595198514056
749.0,0.009039900317800775
748.0,0.008951223547323472
747.0,0.008773924307505121
746.0,0.008640997362049818
745.0,0.008463824699968647
744.0,0.008198201155356077
743.0,0.007932739972333236
742.0,0.007800070204414977
741.0,0.007976972236149349
740.0,0.008286724286910463
739.0,0.00850811108984062
738.0,0.008419542825660153
737.0,0.008153946355103248
736.0,0.007976972236149349
735.0,0.008065450281052211
734.0,0.008375265465994541
733.0,0.008773924307505121
732.0,0.009306039320248427
731.0,0.009883233932095559
730.0,0.010550182333308289
729.0,0.011129033935354915
728.0,0.011574829993696856
727.0,0.0119764380713403
726.0,0.012423105273012602
725.0,0.012959713020733288
724.0,0.013496984613259544
723.0,0.013900374944870508
722.0,0.014124642691606404
721.0,0.014393916947563534
720.0,0.014663358264387139
719.0,0.014798141635428141
718.0,0.014798141635428141
717.0,0.014708281407112
716.0,0.014798141635428141
715.0,0.015112798935672522
714.0,0.015562705203923999
713.0,0.01596801972881945
712.0,0.01596801972881945
711.0,0.015562705203923999
710.0,0.014843078722943437
709.0,0.014304140310157809
708.0,0.014349026309051105
707.0,0.014798141635428141
706.0,0.015337693809893471
705.0,0.01578783323856614
704.0,0.016013078034810446
703.0,0.016013078034810446
702.0,0.01596801972881945
701.0,0.016193358021584725
700.0,0.017005545341335804
699.0,0.018181392829336396
698.0,0.019042683770379876
697.0,0.0192242260373785
696.0,0.018951941086827073
695.0,0.018634490921455527
694.0,0.018770512579999288
693.0,0.01940584422377989
692.0,0.02036058777709271
691.0,0.02122621566987748
690.0,0.021636852916117055
689.0,0.02159120737696063
688.0,0.021363051615525652
687.0,0.02122621566987748
686.0,0.02122621566987748
685.0,0.021271822861508305
684.0,0.021271822861508305
683.0,0.020952673052035298
682.0,0.019996628416253603
681.0,0.01840788278591865
680.0,0.016870075265299933
679.0,0.01628352608625061
678.0,0.016915227262211507
677.0,0.018362575344230914
676.0,0.019814763052665052
675.0,0.020907099361673565
674.0,0.02168250325324883
673.0,0.022413561996148967
672.0,0.023100049017062307
671.0,0.02355831062115543
670.0,0.023787622882622816
669.0,0.02461415101053266
668.0,0.02617967564731627
667.0,0.02654885597506529
666.0,0.025304128090317013
665.0,0.023787622882622816
664.0,0.02277955336461468
663.0,0.02255077261765881
662.0,0.02291687968414724
661.0,0.02342078135989012
660.0,0.023879381700184332
659.0,0.024017056287453542
658.0,0.023604163388120325
657.0,0.022871099419317753
656.0,0.02227639471115217
655.0,0.022413561996148967
654.0,0.02314585342378117
653.0,0.02406295751688936
652.0,0.024890010313838973
651.0,0.02539620791296726
650.0,0.025488307262671706
649.0,0.025074013910237447
648.0,0.024522236834125355
647.0,0.02406295751688936
646.0,0.023879381700184332
645.0,0.023833499868024743
644.0,0.023879381700184332
643.0,0.023971159908874107
642.0,0.024292536462819925
641.0,0.024936003904763915
640.0,0.02562649291857677
639.0,0.025949097207122573
638.0,0.025764722556973707
637.0,0.02553436426275746
636.0,0.025810808881832736
635.0,0.02664120011360227
634.0,0.027658283674251827
633.0,0.028770552723758724
632.0,0.029978734171634214
631.0,0.030957032694186815
630.0,0.03142366482450232
629.0,0.03142366482450232
628.0,0.031236951802751545
627.0,0.031096969696171817
626.0,0.030957032694186815
625.0,0.03105031901865729
624.0,0.03151705144606498
623.0,0.03207779326948268
622.0,0.03207779326948268
621.0,0.03142366482450232
620.0,0.03081714076773867
619.0,0.031096969696171817
618.0,0.032545631817259224
617.0,0.03437503289075727
616.0,0.03517488211661135
615.0,0.034046110897937076
614.0,0.031143625385307683
613.0,0.028075050815808744
612.0,0.02664120011360227
611.0,0.027565723042634938
610.0,0.029792641193145286
609.0,0.03147035562516054
608.0,0.03170388495374454
607.0,0.031143625385307683
606.0,0.031190286087141805
605.0,0.032545631817259224
604.0,0.03437503289075727
603.0,0.03503362516890207
602.0,0.033905220553829274
601.0,0.03189079887180224
600.0,0.030351159519274695
