cm-1,A
4000.0,0.04513062893352182
3999.0,0.04513062893352182
3998.0,0.04513062893352182
3997.0,0.04513062893352182
3996.0,0.04513062893352182
3995.0,0.04508244626504121
3994.0,0.044986096961949995
3993.0,0.04488976902944808
3992.0,0.04484161307420642
3991.0,0.044793462458058375
3990.0,0.044793462458058375
3989.0,0.04484161307420642
3988.0,0.044937930324967956
3987.0,0.04508244626504121
3986.0,0.04522701031028298
3985.0,0.04527520902093718
3984.0,0.04527520902093718
3983.0,0.04527520902093718
3982.0,0.045323413081356456
3981.0,0.04541983725624266
3980.0,0.045564513671517703
3979.0,0.045612749855485024
3978.0,0.045516282844447975
3977.0,0.04541983725624266
3976.0,0.045323413081356456
3975.0,0.045323413081356456
3974.0,0.045323413081356456
3973.0,0.045323413081356456
3972.0,0.045323413081356456
3971.0,0.04527520902093718
3970.0,0.04522701031028298
3969.0,0.04527520902093718
3968.0,0.045323413081356456
3967.0,0.04537162249272897
3966.0,0.04537162249272897
3965.0,0.045323413081356456
3964.0,0.045323413081356456
3963.0,0.045323413081356456
3962.0,0.04537162249272897
3961.0,0.04537162249272897
3960.0,0.04537162249272897
3959.0,0.04537162249272897
3958.0,0.04541983725624266
3957.0,0.045516282844447975
3956.0,0.045564513671517703
3955.0,0.045516282844447975
3954.0,0.0454680573730859
3953.0,0.045323413081356456
3952.0,0.04527520902093718
3951.0,0.04527520902093718
3950.0,0.045323413081356456
3949.0,0.04541983725624266
3948.0,0.0454680573730859
3947.0,0.04541983725624266
3946.0,0.045323413081356456
3945.0,0.0451788169482068
3944.0,0.04508244626504121
3943.0,0.0451788169482068
3942.0,0.04537162249272897
3941.0,0.045564513671517703
3940.0,0.045660991397539874
3939.0,0.04570923829887308
3938.0,0.045660991397539874
3937.0,0.045516282844447975
3936.0,0.04537162249272897
3935.0,0.04527520902093718
3934.0,0.045323413081356456
3933.0,0.04537162249272897
3932.0,0.04541983725624266
3931.0,0.045323413081356456
3930.0,0.0451788169482068
3929.0,0.04508244626504121
3928.0,0.044937930324967956
3927.0,0.04488976902944808
3926.0,0.044937930324967956
3925.0,0.04513062893352182
3924.0,0.045323413081356456
3923.0,0.0454680573730859
3922.0,0.045612749855485024
3921.0,0.04585401117045196
3920.0,0.046047116768076934
3919.0,0.046143701775014145
3918.0,0.04609540658654021
3917.0,0.04599883231842972
3916.0,0.04585401117045196
3915.0,0.045660991397539874
3914.0,0.045612749855485024
3913.0,0.045660991397539874
3912.0,0.04580574818413763
3911.0,0.045902279520810385
3910.0,0.04599883231842972
3909.0,0.046047116768076934
3908.0,0.046047116768076934
3907.0,0.04599883231842972
3906.0,0.04585401117045196
3905.0,0.04570923829887308
3904.0,0.045564513671517703
3903.0,0.04537162249272897
3902.0,0.0451788169482068
3901.0,0.04513062893352182
3900.0,0.045323413081356456
3899.0,0.045612749855485024
3898.0,0.04575749056067524
3897.0,0.04575749056067524
3896.0,0.04575749056067524
3895.0,0.04580574818413763
3894.0,0.04570923829887308
3893.0,0.045564513671517703
3892.0,0.045564513671517703
3891.0,0.04580574818413763
3890.0,0.04585401117045196
3889.0,0.04570923829887308
3888.0,0.04585401117045196
3887.0,0.04624030826677128
3886.0,0.04657860031896477
3885.0,0.04653025674659861
3884.0,0.046047116768076934
3883.0,0.0454680573730859
3882.0,0.04522701031028298
3881.0,0.045323413081356456
3880.0,0.04541983725624266
3879.0,0.04537162249272897
3878.0,0.0451788169482068
3877.0,0.04522701031028298
3876.0,0.0454680573730859
3875.0,0.04570923829887308
3874.0,0.04570923829887308
3873.0,0.0454680573730859
3872.0,0.04537162249272897
3871.0,0.045660991397539874
3870.0,0.04624030826677128
3869.0,0.04643358574299339
3868.0,0.046047116768076934
3867.0,0.045660991397539874
3866.0,0.04585401117045196
3865.0,0.046192002334692894
3864.0,0.04624030826677128
3863.0,0.046192002334692894
3862.0,0.04624030826677128
3861.0,0.04643358574299339
3860.0,0.04657860031896477
3859.0,0.04662694927330402
3858.0,0.046481918555007384
3857.0,0.04628861957244457
3856.0,0.04609540658654021
3855.0,0.04599883231842972
3854.0,0.04633693625290869
3853.0,0.0469171560879138
3852.0,0.04667530361081473
3851.0,0.04585401117045196
3850.0,0.04580574818413763
3849.0,0.04643358574299339
3848.0,0.04677202844014605
3847.0,0.04667530361081473
3846.0,0.04638525830935958
3845.0,0.046192002334692894
3844.0,0.046047116768076934
3843.0,0.04595055323640551
3842.0,0.04570923829887308
3841.0,0.0454680573730859
3840.0,0.04527520902093718
3839.0,0.04527520902093718
3838.0,0.04537162249272897
3837.0,0.0454680573730859
3836.0,0.045516282844447975
3835.0,0.04570923829887308
3834.0,0.04599883231842972
3833.0,0.04638525830935958
3832.0,0.04667530361081473
3831.0,0.04682039893436585
3830.0,0.04682039893436585
3829.0,0.0469171560879138
3828.0,0.04701393480294458
3827.0,0.04701393480294458
3826.0,0.04672366333269573
3825.0,0.046143701775014145
3824.0,0.045564513671517703
3823.0,0.04541983725624266
3822.0,0.04575749056067524
3821.0,0.04633693625290869
3820.0,0.04657860031896477
3819.0,0.046143701775014145
3818.0,0.04595055323640551
3817.0,0.04643358574299339
3816.0,0.0469171560879138
3815.0,0.04701393480294458
3814.0,0.04667530361081473
3813.0,0.04657860031896477
3812.0,0.04696554274964315
3811.0,0.047352830241056854
3810.0,0.04730440041308315
3809.0,0.04715914332429838
3808.0,0.04730440041308315
3807.0,0.047643522676209304
3806.0,0.047691990337874746
3805.0,0.04730440041308315
3804.0,0.04686877481655505
3803.0,0.04682039893436585
3802.0,0.0469171560879138
3801.0,0.04686877481655505
3800.0,0.04633693625290869
3799.0,0.04575749056067524
3798.0,0.04585401117045196
3797.0,0.04657860031896477
3796.0,0.047062332249019345
3795.0,0.04711073508906982
3794.0,0.04701393480294458
3793.0,0.04720755695590784
3792.0,0.04754660357696672
3791.0,0.04778894189133087
3790.0,0.04774046340917959
3789.0,0.04754660357696672
3788.0,0.047352830241056854
3787.0,0.04720755695590784
3786.0,0.04720755695590784
3785.0,0.04730440041308315
3784.0,0.04725597598510167
3783.0,0.04711073508906982
3782.0,0.04696554274964315
3781.0,0.04701393480294458
3780.0,0.04720755695590784
3779.0,0.04744970610179822
3778.0,0.04749815213697639
3777.0,0.04744970610179822
3776.0,0.04749815213697639
3775.0,0.047691990337874746
3774.0,0.04774046340917959
3773.0,0.047643522676209304
3772.0,0.04754660357696672
3771.0,0.047595060422975566
3770.0,0.04774046340917959
3769.0,0.047691990337874746
3768.0,0.04749815213697639
3767.0,0.04744970610179822
3766.0,0.047691990337874746
3765.0,0.047934409814949674
3764.0,0.047934409814949674
3763.0,0.04778894189133087
3762.0,0.04778894189133087
3761.0,0.047934409814949674
3760.0,0.04803141550708934
3759.0,0.047934409814949674
3758.0,0.047643522676209304
3757.0,0.047352830241056854
3756.0,0.04711073508906982
3755.0,0.047062332249019345
3754.0,0.047062332249019345
3753.0,0.04696554274964315
3752.0,0.04682039893436585
3751.0,0.04686877481655505
3750.0,0.04730440041308315
3749.0,0.04754660357696672
3748.0,0.04749815213697639
3747.0,0.04749815213697639
3746.0,0.04774046340917959
3745.0,0.04817696468408794
3744.0,0.048565334467987054
3743.0,0.04832256265669943
3742.0,0.0478374257855374
3741.0,0.04803141550708934
3740.0,0.04851676924770687
3739.0,0.048468209457651845
3738.0,0.047885915093007325
3737.0,0.047352830241056854
3736.0,0.04720755695590784
3735.0,0.04744970610179822
3734.0,0.04778894189133087
3733.0,0.04817696468408794
3732.0,0.04866248120408234
3731.0,0.04905128560059957
3730.0,0.049148541111453614
3729.0,0.04909991063361274
3728.0,0.049148541111453614
3727.0,0.049245818406496555
3726.0,0.049294465226138895
3725.0,0.04919717703534143
3724.0,0.04905128560059957
3723.0,0.048954051864180226
3722.0,0.048808242065293994
3721.0,0.048565334467987054
3720.0,0.04841965509660828
3719.0,0.04837110616336182
3718.0,0.048468209457651845
3717.0,0.048468209457651845
3716.0,0.04837110616336182
3715.0,0.04817696468408794
3714.0,0.04803141550708934
3713.0,0.047982909952573705
3712.0,0.048128442871635535
3711.0,0.0486139051197072
3710.0,0.048954051864180226
3709.0,0.04900266601119507
3708.0,0.04900266601119507
3707.0,0.04909991063361274
3706.0,0.04909991063361274
3705.0,0.048905443158337114
3704.0,0.04866248120408234
3703.0,0.04832256265669943
3702.0,0.04803141550708934
3701.0,0.04778894189133087
3700.0,0.047595060422975566
3699.0,0.04744970610179822
3698.0,0.04754660357696672
3697.0,0.047691990337874746
3696.0,0.04774046340917959
3695.0,0.04774046340917959
3694.0,0.04778894189133087
3693.0,0.047934409814949674
3692.0,0.047982909952573705
3691.0,0.0478374257855374
3690.0,0.047595060422975566
3689.0,0.04744970610179822
3688.0,0.04725597598510167
3687.0,0.04711073508906982
3686.0,0.04725597598510167
3685.0,0.04774046340917959
3684.0,0.04832256265669943
3683.0,0.048565334467987054
3682.0,0.04851676924770687
3681.0,0.04841965509660828
3680.0,0.04832256265669943
3679.0,0.04807992647970649
3678.0,0.047643522676209304
3677.0,0.04730440041308315
3676.0,0.04720755695590784
3675.0,0.04720755695590784
3674.0,0.04672366333269573
3673.0,0.04624030826677128
3672.0,0.04657860031896477
3671.0,0.04730440041308315
3670.0,0.04778894189133087
3669.0,0.047934409814949674
3668.0,0.04778894189133087
3667.0,0.047885915093007325
3666.0,0.04837110616336182
3665.0,0.04885683989244738
3664.0,0.04900266601119507
3663.0,0.048905443158337114
3662.0,0.048808242065293994
3661.0,0.04871106272232795
3660.0,0.0486139051197072
3659.0,0.04851676924770687
3658.0,0.048565334467987054
3657.0,0.04885683989244738
3656.0,0.04919717703534143
3655.0,0.04939177521576932
3654.0,0.049245818406496555
3653.0,0.049148541111453614
3652.0,0.049148541111453614
3651.0,0.04900266601119507
3650.0,0.048954051864180226
3649.0,0.049294465226138895
3648.0,0.04968383607539972
3647.0,0.04978123335813667
3646.0,0.049927370249842395
3645.0,0.05026854768429301
3644.0,0.05065879322950262
3643.0,0.05100054597304693
3642.0,0.05119595406718891
3641.0,0.05129369109514803
3640.0,0.05139145012356372
3639.0,0.0515870342213991
3638.0,0.05192951848105887
3637.0,0.05222329153526162
3636.0,0.052468254304406825
3635.0,0.05271335532220167
3634.0,0.05286048235717078
3633.0,0.052762392129333646
3632.0,0.052468254304406825
3631.0,0.05217431555754937
3630.0,0.05207638016827354
3629.0,0.05232126006306337
3628.0,0.0525172634430815
3627.0,0.05222329153526162
3626.0,0.05207638016827354
3625.0,0.052468254304406825
3624.0,0.05281143447390635
3623.0,0.05271335532220167
3622.0,0.05222329153526162
3621.0,0.051684859310652254
3620.0,0.051244819831730126
3619.0,0.051049389754451946
3618.0,0.050902874887084115
3617.0,0.050805225762017736
3616.0,0.05100054597304693
3615.0,0.05148923116234294
3614.0,0.05207638016827354
3613.0,0.052468254304406825
3612.0,0.05256627811294923
3611.0,0.0525172634430815
3610.0,0.05261529831525902
3609.0,0.05295859474477971
3608.0,0.053351266093323746
3607.0,0.0534986094304124
3606.0,0.053351266093323746
3605.0,0.053203972728539606
3604.0,0.05325306496641513
3603.0,0.05340037498486727
3602.0,0.053449489430144714
3601.0,0.05340037498486727
3600.0,0.0531548860393769
3599.0,0.052762392129333646
3598.0,0.05237025261564554
3597.0,0.05217431555754937
3596.0,0.05222329153526162
3595.0,0.052468254304406825
3594.0,0.05271335532220167
3593.0,0.052762392129333646
3592.0,0.052762392129333646
3591.0,0.05271335532220167
3590.0,0.05266432405126009
3589.0,0.05266432405126009
3588.0,0.05261529831525902
3587.0,0.05256627811294923
3586.0,0.052419250695677544
3585.0,0.05227227303668425
3584.0,0.05237025261564554
3583.0,0.05266432405126009
3582.0,0.05295859474477971
3581.0,0.05325306496641513
3580.0,0.053449489430144714
3579.0,0.05354773498692689
3578.0,0.0534986094304124
3577.0,0.05340037498486727
3576.0,0.05330216275425803
3575.0,0.05330216275425803
3574.0,0.053449489430144714
3573.0,0.053646002773725554
3572.0,0.05379344615721715
3571.0,0.05379344615721715
3570.0,0.053596866100945384
3569.0,0.05330216275425803
3568.0,0.0531548860393769
3567.0,0.053203972728539606
3566.0,0.053351266093323746
3565.0,0.05340037498486727
3564.0,0.05340037498486727
3563.0,0.053646002773725554
3562.0,0.05399011523423525
3561.0,0.05423607688882637
3560.0,0.05443294655761144
3559.0,0.05448217792216048
3558.0,0.05453141486818014
3557.0,0.05458065739693696
3556.0,0.05462990550969615
3555.0,0.054679159207724926
3554.0,0.054728418492290265
3553.0,0.05477768336465916
3552.0,0.05482695382609992
3551.0,0.054876229877880656
3550.0,0.05482695382609992
3549.0,0.05477768336465916
3548.0,0.05477768336465916
3547.0,0.05482695382609992
3546.0,0.054876229877880656
3545.0,0.0549747987575373
3544.0,0.05502409158795207
3543.0,0.055122694036304765
3542.0,0.055172003656783764
3541.0,0.05522131887649295
3540.0,0.055172003656783764
3539.0,0.05507339001378431
3538.0,0.05502409158795207
3537.0,0.05502409158795207
3536.0,0.055122694036304765
3535.0,0.055270639696704205
3534.0,0.05536929814372171
3533.0,0.05536929814372171
3532.0,0.055270639696704205
3531.0,0.05507339001378431
3530.0,0.05482695382609992
3529.0,0.05458065739693696
3528.0,0.05443294655761144
3527.0,0.05438372077326825
3526.0,0.05443294655761144
3525.0,0.05458065739693696
3524.0,0.054728418492290265
3523.0,0.054876229877880656
3522.0,0.054876229877880656
3521.0,0.05477768336465916
3520.0,0.05477768336465916
3519.0,0.054876229877880656
3518.0,0.05507339001378431
3517.0,0.05522131887649295
3516.0,0.055270639696704205
3515.0,0.05522131887649295
3514.0,0.055172003656783764
3513.0,0.05522131887649295
3512.0,0.055270639696704205
3511.0,0.055270639696704205
3510.0,0.05522131887649295
3509.0,0.05502409158795207
3508.0,0.05482695382609992
3507.0,0.054679159207724926
3506.0,0.05462990550969615
3505.0,0.05462990550969615
3504.0,0.05462990550969615
3503.0,0.054679159207724926
3502.0,0.054728418492290265
3501.0,0.05477768336465916
3500.0,0.054876229877880656
3499.0,0.0549255115212699
3498.0,0.05502409158795207
3497.0,0.05507339001378431
3496.0,0.05507339001378431
3495.0,0.055122694036304765
3494.0,0.055122694036304765
3493.0,0.055172003656783764
3492.0,0.055172003656783764
3491.0,0.055172003656783764
3490.0,0.055122694036304765
3489.0,0.05507339001378431
3488.0,0.0549255115212699
3487.0,0.054728418492290265
3486.0,0.05458065739693696
3485.0,0.05453141486818014
3484.0,0.054679159207724926
3483.0,0.05482695382609992
3482.0,0.054876229877880656
3481.0,0.05482695382609992
3480.0,0.054728418492290265
3479.0,0.05477768336465916
3478.0,0.0549255115212699
3477.0,0.055172003656783764
3476.0,0.05536929814372171
3475.0,0.05551732784983132
3474.0,0.055566682299785564
3473.0,0.05566540802921782
3472.0,0.05581353871631256
3471.0,0.055961719945581745
3470.0,0.05606053552778367
3469.0,0.055912320584565744
3468.0,0.05561604235915585
3467.0,0.055270639696704205
3466.0,0.0549747987575373
3465.0,0.0549747987575373
3464.0,0.055122694036304765
3463.0,0.05536929814372171
3462.0,0.055566682299785564
3461.0,0.05571477931124735
3460.0,0.055912320584565744
3459.0,0.05620880107069848
3458.0,0.05655495097496965
3457.0,0.05680236993107379
3456.0,0.056950888991593285
3455.0,0.056950888991593285
3454.0,0.05690137699451481
3453.0,0.05685187064143715
3452.0,0.05685187064143715
3451.0,0.057000406633959555
3450.0,0.057198533682059516
3449.0,0.05744631966579017
3448.0,0.05764465029232335
3447.0,0.05784307153250956
3446.0,0.05799194697768684
3445.0,0.058190526991161784
3444.0,0.0582898510583536
3443.0,0.0582898510583536
3442.0,0.0582898510583536
3441.0,0.05824018618530458
3440.0,0.05824018618530458
3439.0,0.0583891978463662
3438.0,0.05868737463933793
3437.0,0.058936011780097886
3436.0,0.059135024033278416
3435.0,0.05928434309333741
3434.0,0.05938391766259232
3433.0,0.05953332233647113
3432.0,0.05968277842578207
3431.0,0.05988213325228142
3430.0,0.05998184499233683
3429.0,0.060081579630943294
3428.0,0.0601813371786204
3427.0,0.06028111764589528
3426.0,0.06028111764589528
3425.0,0.060231224546650086
3424.0,0.05998184499233683
3423.0,0.05973260855398799
3422.0,0.05943371350990989
3421.0,0.05923456436878238
3420.0,0.05908526241971446
3419.0,0.05898575629443026
3418.0,0.059035506507200575
3417.0,0.05908526241971446
3416.0,0.05918479134919874
3415.0,0.059135024033278416
3414.0,0.058936011780097886
3413.0,0.05863766428823891
3412.0,0.0583891978463662
3411.0,0.058190526991161784
3410.0,0.05809122563440061
3409.0,0.05799194697768684
3408.0,0.05789269101064454
3407.0,0.05764465029232335
3406.0,0.05734718830678798
3405.0,0.05709945885970602
3404.0,0.05690137699451481
3403.0,0.05680236993107379
3402.0,0.05670338543334519
3401.0,0.05655495097496965
3400.0,0.056456022846545606
3399.0,0.05650548409389744
3398.0,0.05670338543334519
3397.0,0.056950888991593285
3396.0,0.057049929922901255
3395.0,0.057000406633959555
3394.0,0.05690137699451481
3393.0,0.05680236993107379
3392.0,0.05685187064143715
3391.0,0.05685187064143715
3390.0,0.05680236993107379
3389.0,0.05670338543334519
3388.0,0.05655495097496965
3387.0,0.056456022846545606
3386.0,0.056406567231630955
3385.0,0.05635711724787096
3384.0,0.05625823416868636
3383.0,0.05625823416868636
3382.0,0.05630767289398331
3381.0,0.056456022846545606
3380.0,0.05655495097496965
3379.0,0.05660442349104544
3378.0,0.05655495097496965
3377.0,0.056456022846545606
3376.0,0.056456022846545606
3375.0,0.05650548409389744
3374.0,0.05665390164340933
3373.0,0.05680236993107379
3372.0,0.05690137699451481
3371.0,0.05690137699451481
3370.0,0.05680236993107379
3369.0,0.05660442349104544
3368.0,0.05650548409389744
3367.0,0.056406567231630955
3366.0,0.05625823416868636
3365.0,0.056159373598738904
3364.0,0.056159373598738904
3363.0,0.05625823416868636
3362.0,0.056456022846545606
3361.0,0.05665390164340933
3360.0,0.05680236993107379
3359.0,0.05690137699451481
3358.0,0.05690137699451481
3357.0,0.0567528748621382
3356.0,0.05655495097496965
3355.0,0.05630767289398331
3354.0,0.05620880107069848
3353.0,0.05620880107069848
3352.0,0.05630767289398331
3351.0,0.05650548409389744
3350.0,0.0567528748621382
3349.0,0.057000406633959555
3348.0,0.0571489934456626
3347.0,0.057198533682059516
3346.0,0.057198533682059516
3345.0,0.0571489934456626
3344.0,0.057049929922901255
3343.0,0.057049929922901255
3342.0,0.057049929922901255
3341.0,0.05709945885970602
3340.0,0.057049929922901255
3339.0,0.05690137699451481
3338.0,0.05670338543334519
3337.0,0.05660442349104544
3336.0,0.05665390164340933
3335.0,0.05670338543334519
3334.0,0.05685187064143715
3333.0,0.056950888991593285
3332.0,0.057000406633959555
3331.0,0.05709945885970602
3330.0,0.05709945885970602
3329.0,0.057000406633959555
3328.0,0.05690137699451481
3327.0,0.0567528748621382
3326.0,0.05670338543334519
3325.0,0.0567528748621382
3324.0,0.05690137699451481
3323.0,0.057049929922901255
3322.0,0.057198533682059516
3321.0,0.0571489934456626
3320.0,0.057000406633959555
3319.0,0.05680236993107379
3318.0,0.05660442349104544
3317.0,0.056456022846545606
3316.0,0.05630767289398331
3315.0,0.05625823416868636
3314.0,0.05620880107069848
3313.0,0.05620880107069848
3312.0,0.05625823416868636
3311.0,0.05630767289398331
3310.0,0.05630767289398331
3309.0,0.05635711724787096
3308.0,0.05635711724787096
3307.0,0.056406567231630955
3306.0,0.05650548409389744
3305.0,0.05660442349104544
3304.0,0.05665390164340933
3303.0,0.05665390164340933
3302.0,0.05655495097496965
3301.0,0.056406567231630955
3300.0,0.05630767289398331
3299.0,0.05630767289398331
3298.0,0.056406567231630955
3297.0,0.05655495097496965
3296.0,0.05670338543334519
3295.0,0.0567528748621382
3294.0,0.05680236993107379
3293.0,0.05680236993107379
3292.0,0.0567528748621382
3291.0,0.0567528748621382
3290.0,0.0567528748621382
3289.0,0.0567528748621382
3288.0,0.0567528748621382
3287.0,0.05680236993107379
3286.0,0.05680236993107379
3285.0,0.05680236993107379
3284.0,0.0567528748621382
3283.0,0.05670338543334519
3282.0,0.05670338543334519
3281.0,0.0567528748621382
3280.0,0.0567528748621382
3279.0,0.05670338543334519
3278.0,0.05660442349104544
3277.0,0.05650548409389744
3276.0,0.056456022846545606
3275.0,0.056456022846545606
3274.0,0.05650548409389744
3273.0,0.05665390164340933
3272.0,0.05685187064143715
3271.0,0.057049929922901255
3270.0,0.057049929922901255
3269.0,0.056950888991593285
3268.0,0.05680236993107379
3267.0,0.05665390164340933
3266.0,0.05650548409389744
3265.0,0.056456022846545606
3264.0,0.05660442349104544
3263.0,0.05690137699451481
3262.0,0.057198533682059516
3261.0,0.05734718830678798
3260.0,0.05734718830678798
3259.0,0.05724807957018618
3258.0,0.05709945885970602
3257.0,0.056950888991593285
3256.0,0.05685187064143715
3255.0,0.05685187064143715
3254.0,0.05685187064143715
3253.0,0.05690137699451481
3252.0,0.05690137699451481
3251.0,0.05690137699451481
3250.0,0.05685187064143715
3249.0,0.05685187064143715
3248.0,0.05690137699451481
3247.0,0.05690137699451481
3246.0,0.057000406633959555
3245.0,0.057049929922901255
3244.0,0.057000406633959555
3243.0,0.05690137699451481
3242.0,0.05680236993107379
3241.0,0.05665390164340933
3240.0,0.05665390164340933
3239.0,0.05670338543334519
3238.0,0.05680236993107379
3237.0,0.05680236993107379
3236.0,0.05670338543334519
3235.0,0.05665390164340933
3234.0,0.05665390164340933
3233.0,0.05665390164340933
3232.0,0.05665390164340933
3231.0,0.05655495097496965
3230.0,0.056456022846545606
3229.0,0.05635711724787096
3228.0,0.05635711724787096
3227.0,0.05650548409389744
3226.0,0.0567528748621382
3225.0,0.05690137699451481
3224.0,0.056950888991593285
3223.0,0.056950888991593285
3222.0,0.056950888991593285
3221.0,0.056950888991593285
3220.0,0.056950888991593285
3219.0,0.056950888991593285
3218.0,0.05690137699451481
3217.0,0.05685187064143715
3216.0,0.05680236993107379
3215.0,0.05680236993107379
3214.0,0.05690137699451481
3213.0,0.057000406633959555
3212.0,0.057049929922901255
3211.0,0.057049929922901255
3210.0,0.05690137699451481
3209.0,0.0567528748621382
3208.0,0.05660442349104544
3207.0,0.05655495097496965
3206.0,0.05660442349104544
3205.0,0.05665390164340933
3204.0,0.05670338543334519
3203.0,0.05670338543334519
3202.0,0.0567528748621382
3201.0,0.057000406633959555
3200.0,0.05729763111133224
3199.0,0.05749589383191922
3198.0,0.05749589383191922
3197.0,0.05724807957018618
3196.0,0.05690137699451481
3195.0,0.05660442349104544
3194.0,0.056456022846545606
3193.0,0.05650548409389744
3192.0,0.05660442349104544
3191.0,0.05670338543334519
3190.0,0.05680236993107379
3189.0,0.05690137699451481
3188.0,0.056950888991593285
3187.0,0.056950888991593285
3186.0,0.056950888991593285
3185.0,0.05690137699451481
3184.0,0.056950888991593285
3183.0,0.057000406633959555
3182.0,0.057049929922901255
3181.0,0.057049929922901255
3180.0,0.057000406633959555
3179.0,0.05690137699451481
3178.0,0.0567528748621382
3177.0,0.05660442349104544
3176.0,0.05655495097496965
3175.0,0.05665390164340933
3174.0,0.05685187064143715
3173.0,0.057000406633959555
3172.0,0.057000406633959555
3171.0,0.05690137699451481
3170.0,0.05680236993107379
3169.0,0.0567528748621382
3168.0,0.05665390164340933
3167.0,0.05650548409389744
3166.0,0.05630767289398331
3165.0,0.05620880107069848
3164.0,0.05625823416868636
3163.0,0.05635711724787096
3162.0,0.05655495097496965
3161.0,0.0567528748621382
3160.0,0.05685187064143715
3159.0,0.05685187064143715
3158.0,0.0567528748621382
3157.0,0.05670338543334519
3156.0,0.05665390164340933
3155.0,0.05670338543334519
3154.0,0.05680236993107379
3153.0,0.05685187064143715
3152.0,0.05685187064143715
3151.0,0.05690137699451481
3150.0,0.056950888991593285
3149.0,0.057000406633959555
3148.0,0.057000406633959555
3147.0,0.057000406633959555
3146.0,0.057049929922901255
3145.0,0.05709945885970602
3144.0,0.0571489934456626
3143.0,0.057198533682059516
3142.0,0.05724807957018618
3141.0,0.05729763111133224
3140.0,0.05734718830678798
3139.0,0.05734718830678798
3138.0,0.05734718830678798
3137.0,0.05729763111133224
3136.0,0.05734718830678798
3135.0,0.057396751157843484
3134.0,0.05744631966579017
3133.0,0.05744631966579017
3132.0,0.05744631966579017
3131.0,0.05744631966579017
3130.0,0.05754547365752294
3129.0,0.05764465029232335
3128.0,0.057743849580535134
3127.0,0.05769424710410598
3126.0,0.0575950591438934
3125.0,0.05744631966579017
3124.0,0.05734718830678798
3123.0,0.05734718830678798
3122.0,0.05744631966579017
3121.0,0.0575950591438934
3120.0,0.05769424710410598
3119.0,0.05779345772290467
3118.0,0.05779345772290467
3117.0,0.05784307153250956
3116.0,0.05789269101064454
3115.0,0.05794231615860479
3114.0,0.05809122563440061
3113.0,0.0583395216116076
3112.0,0.058538260652670315
3111.0,0.05868737463933793
3110.0,0.058836539841526925
3109.0,0.0588862729628985
3108.0,0.05898575629443026
3107.0,0.059035506507200575
3106.0,0.05908526241971446
3105.0,0.05918479134919874
3104.0,0.05933412752417122
3103.0,0.05943371350990989
3102.0,0.05948351506743288
3101.0,0.05938391766259232
3100.0,0.05918479134919874
3099.0,0.059035506507200575
3098.0,0.05898575629443026
3097.0,0.05898575629443026
3096.0,0.05908526241971446
3095.0,0.059035506507200575
3094.0,0.0588862729628985
3093.0,0.05863766428823891
3092.0,0.0583891978463662
3091.0,0.0582898510583536
3090.0,0.05843887976392925
3089.0,0.058737090681050264
3088.0,0.059035506507200575
3087.0,0.05928434309333741
3086.0,0.05943371350990989
3085.0,0.05953332233647113
3084.0,0.0595831353183347
3083.0,0.05963295401433477
3082.0,0.05963295401433477
3081.0,0.05968277842578207
3080.0,0.05978244440026481
3079.0,0.05988213325228142
3078.0,0.05993198626064755
3077.0,0.05988213325228142
3076.0,0.05973260855398799
3075.0,0.05963295401433477
3074.0,0.05963295401433477
3073.0,0.05973260855398799
3072.0,0.05988213325228142
3071.0,0.05998184499233683
3070.0,0.060081579630943294
3069.0,0.060131455540490375
3068.0,0.0601813371786204
3067.0,0.060131455540490375
3066.0,0.06003170944866376
3065.0,0.05983228596592505
3064.0,0.0595831353183347
3063.0,0.05943371350990989
3062.0,0.05943371350990989
3061.0,0.05963295401433477
3060.0,0.05998184499233683
3059.0,0.06038092104330195
3058.0,0.06068046892176193
3057.0,0.060880282351513104
3056.0,0.06098022355133348
3055.0,0.06093025007657582
3054.0,0.06083032037482261
3053.0,0.06068046892176193
3052.0,0.06048074738138154
3051.0,0.060231224546650086
3050.0,0.05993198626064755
3049.0,0.05953332233647113
3048.0,0.05908526241971446
3047.0,0.058737090681050264
3046.0,0.05843887976392925
3045.0,0.05824018618530458
3044.0,0.05809122563440061
3043.0,0.05794231615860479
3042.0,0.057743849580535134
3041.0,0.05749589383191922
3040.0,0.05734718830678798
3039.0,0.057198533682059516
3038.0,0.05709945885970602
3037.0,0.057049929922901255
3036.0,0.057000406633959555
3035.0,0.05690137699451481
3034.0,0.05680236993107379
3033.0,0.05670338543334519
3032.0,0.05655495097496965
3031.0,0.056456022846545606
3030.0,0.056406567231630955
3029.0,0.056406567231630955
3028.0,0.056456022846545606
3027.0,0.05650548409389744
3026.0,0.05650548409389744
3025.0,0.05650548409389744
3024.0,0.05650548409389744
3023.0,0.05660442349104544
3022.0,0.05665390164340933
3021.0,0.0567528748621382
3020.0,0.05680236993107379
3019.0,0.05685187064143715
3018.0,0.057000406633959555
3017.0,0.05724807957018618
3016.0,0.0575950591438934
3015.0,0.05784307153250956
3014.0,0.05804158346918653
3013.0,0.058190526991161784
3012.0,0.0583395216116076
3011.0,0.058538260652670315
3010.0,0.05868737463933793
3009.0,0.058786812414678646
3008.0,0.058737090681050264
3007.0,0.05863766428823891
3006.0,0.058538260652670315
3005.0,0.05848856736559682
3004.0,0.058538260652670315
3003.0,0.058737090681050264
3002.0,0.059035506507200575
3001.0,0.05923456436878238
3000.0,0.05938391766259232
2999.0,0.05938391766259232
2998.0,0.05938391766259232
2997.0,0.05948351506743288
2996.0,0.05968277842578207
2995.0,0.05998184499233683
2994.0,0.060231224546650086
2993.0,0.06038092104330195
2992.0,0.06033101647767336
2991.0,0.0601813371786204
2990.0,0.06003170944866376
2989.0,0.06003170944866376
2988.0,0.060231224546650086
2987.0,0.06058059667068294
2986.0,0.06103020277710969
2985.0,0.06153031163235467
2984.0,0.06208109735221967
2983.0,0.0627329277885873
2982.0,0.06343599486473406
2981.0,0.06408986356949264
2980.0,0.06479513257341862
2979.0,0.06545105233385295
2978.0,0.06600683616875758
2977.0,0.0665127121512945
2976.0,0.06701917807680191
2975.0,0.0675769736232612
2974.0,0.06813548650796819
2973.0,0.06859298644342648
2972.0,0.06894915322260897
2971.0,0.06930561233546473
2970.0,0.06971335275448043
2969.0,0.07022356719509815
2968.0,0.07073438174693436
2967.0,0.07109230975604719
2966.0,0.0713481533463054
2965.0,0.07150173187630915
2964.0,0.07155293679081787
2963.0,0.07155293679081787
2962.0,0.07155293679081787
2961.0,0.07139934015547578
2960.0,0.07119462910671581
2959.0,0.07088774334533943
2958.0,0.07058107428570715
2957.0,0.0702746216219956
2956.0,0.06996838504902692
2955.0,0.06966236426227002
2954.0,0.06930561233546473
2953.0,0.06894915322260897
2952.0,0.06844043290919477
2951.0,0.0678307540792078
2950.0,0.06712054217620067
2949.0,0.06656333217371957
2948.0,0.06620911585658007
2947.0,0.06590573164451952
2946.0,0.06550154875643233
2945.0,0.06499684854634524
2944.0,0.06444235490698613
2943.0,0.06403953101083348
2942.0,0.06373765809652254
2941.0,0.06338573802478864
2940.0,0.06293368798257193
2939.0,0.06248210798265341
2938.0,0.062131203436140536
2937.0,0.06193081377661436
2936.0,0.06173051653708872
2935.0,0.061580354206806964
2934.0,0.061380218497318895
2933.0,0.06118017497378969
2932.0,0.06103020277710969
2931.0,0.060880282351513104
2930.0,0.060730413661268745
2929.0,0.06048074738138154
2928.0,0.06033101647767336
2927.0,0.060231224546650086
2926.0,0.06028111764589528
2925.0,0.06028111764589528
2924.0,0.060231224546650086
2923.0,0.060131455540490375
2922.0,0.05998184499233683
2921.0,0.05988213325228142
2920.0,0.05983228596592505
2919.0,0.05998184499233683
2918.0,0.0601813371786204
2917.0,0.06048074738138154
2916.0,0.06083032037482261
2915.0,0.0611301784870133
2914.0,0.06148027482350815
2913.0,0.06173051653708872
2912.0,0.06203099704854709
2911.0,0.062331685600995
2910.0,0.0627329277885873
2909.0,0.06318476880236723
2908.0,0.06353652599525317
2907.0,0.06373765809652254
2906.0,0.06373765809652254
2905.0,0.06353652599525317
2904.0,0.06313454102437754
2903.0,0.06263258248271053
2902.0,0.06208109735221967
2901.0,0.061580354206806964
2900.0,0.06123017721688262
2899.0,0.06108018775522828
2898.0,0.0611301784870133
2897.0,0.0611301784870133
2896.0,0.06118017497378969
2895.0,0.06118017497378969
2894.0,0.06118017497378969
2893.0,0.06123017721688262
2892.0,0.06123017721688262
2891.0,0.06118017497378969
2890.0,0.0611301784870133
2889.0,0.0611301784870133
2888.0,0.06108018775522828
2887.0,0.06093025007657582
2886.0,0.060730413661268745
2885.0,0.060530669156469985
2884.0,0.06038092104330195
2883.0,0.06033101647767336
2882.0,0.06033101647767336
2881.0,0.06038092104330195
2880.0,0.060530669156469985
2879.0,0.060730413661268745
2878.0,0.06093025007657582
2877.0,0.06108018775522828
2876.0,0.06108018775522828
2875.0,0.06098022355133348
2874.0,0.06078036414518184
2873.0,0.06063052992534024
2872.0,0.06058059667068294
2871.0,0.06058059667068294
2870.0,0.06063052992534024
2869.0,0.060730413661268745
2868.0,0.06083032037482261
2867.0,0.060880282351513104
2866.0,0.06098022355133348
2865.0,0.06103020277710969
2864.0,0.0611301784870133
2863.0,0.06123017721688262
2862.0,0.061380218497318895
2861.0,0.06148027482350815
2860.0,0.061580354206806964
2859.0,0.061580354206806964
2858.0,0.06153031163235467
2857.0,0.06148027482350815
2856.0,0.06148027482350815
2855.0,0.061580354206806964
2854.0,0.06163040254819374
2853.0,0.061680456657844385
2852.0,0.061680456657844385
2851.0,0.061680456657844385
2850.0,0.061580354206806964
2849.0,0.06148027482350815
2848.0,0.061380218497318895
2847.0,0.06133019897732073
2846.0,0.061380218497318895
2845.0,0.06143024377893891
2844.0,0.06143024377893891
2843.0,0.061380218497318895
2842.0,0.06128018521761747
2841.0,0.06108018775522828
2840.0,0.06078036414518184
2839.0,0.060530669156469985
2838.0,0.060430831344098435
2837.0,0.060430831344098435
2836.0,0.06048074738138154
2835.0,0.06058059667068294
2834.0,0.06058059667068294
2833.0,0.06048074738138154
2832.0,0.06028111764589528
2831.0,0.0601813371786204
2830.0,0.060131455540490375
2829.0,0.0601813371786204
2828.0,0.06028111764589528
2827.0,0.06028111764589528
2826.0,0.06028111764589528
2825.0,0.0601813371786204
2824.0,0.0601813371786204
2823.0,0.06033101647767336
2822.0,0.06048074738138154
2821.0,0.06063052992534024
2820.0,0.06068046892176193
2819.0,0.06068046892176193
2818.0,0.06068046892176193
2817.0,0.06058059667068294
2816.0,0.06048074738138154
2815.0,0.060430831344098435
2814.0,0.060430831344098435
2813.0,0.060430831344098435
2812.0,0.060530669156469985
2811.0,0.06063052992534024
2810.0,0.060730413661268745
2809.0,0.06083032037482261
2808.0,0.06083032037482261
2807.0,0.06083032037482261
2806.0,0.06083032037482261
2805.0,0.06083032037482261
2804.0,0.06078036414518184
2803.0,0.060730413661268745
2802.0,0.06063052992534024
2801.0,0.060530669156469985
2800.0,0.06048074738138154
2799.0,0.06048074738138154
2798.0,0.060530669156469985
2797.0,0.06058059667068294
2796.0,0.06063052992534024
2795.0,0.06058059667068294
2794.0,0.060530669156469985
2793.0,0.06048074738138154
2792.0,0.060430831344098435
2791.0,0.06038092104330195
2790.0,0.06033101647767336
2789.0,0.0601813371786204
2788.0,0.06003170944866376
2787.0,0.05988213325228142
2786.0,0.05983228596592505
2785.0,0.05983228596592505
2784.0,0.05993198626064755
2783.0,0.06003170944866376
2782.0,0.060081579630943294
2781.0,0.060081579630943294
2780.0,0.060081579630943294
2779.0,0.060081579630943294
2778.0,0.060081579630943294
2777.0,0.0601813371786204
2776.0,0.06033101647767336
2775.0,0.06038092104330195
2774.0,0.06028111764589528
2773.0,0.060131455540490375
2772.0,0.05993198626064755
2771.0,0.05983228596592505
2770.0,0.05988213325228142
2769.0,0.05993198626064755
2768.0,0.05993198626064755
2767.0,0.05978244440026481
2766.0,0.05968277842578207
2765.0,0.05963295401433477
2764.0,0.05968277842578207
2763.0,0.05988213325228142
2762.0,0.060131455540490375
2761.0,0.06033101647767336
2760.0,0.06038092104330195
2759.0,0.06028111764589528
2758.0,0.060081579630943294
2757.0,0.05998184499233683
2756.0,0.05993198626064755
2755.0,0.05998184499233683
2754.0,0.060081579630943294
2753.0,0.060131455540490375
2752.0,0.060081579630943294
2751.0,0.06003170944866376
2750.0,0.05998184499233683
2749.0,0.05998184499233683
2748.0,0.05998184499233683
2747.0,0.06003170944866376
2746.0,0.06003170944866376
2745.0,0.06003170944866376
2744.0,0.06003170944866376
2743.0,0.06003170944866376
2742.0,0.060081579630943294
2741.0,0.060081579630943294
2740.0,0.0601813371786204
2739.0,0.060231224546650086
2738.0,0.060231224546650086
2737.0,0.0601813371786204
2736.0,0.060081579630943294
2735.0,0.06003170944866376
2734.0,0.05998184499233683
2733.0,0.05993198626064755
2732.0,0.05993198626064755
2731.0,0.05993198626064755
2730.0,0.05993198626064755
2729.0,0.05988213325228142
2728.0,0.05983228596592505
2727.0,0.05978244440026481
2726.0,0.05978244440026481
2725.0,0.05978244440026481
2724.0,0.05983228596592505
2723.0,0.05988213325228142
2722.0,0.05993198626064755
2721.0,0.05993198626064755
2720.0,0.05993198626064755
2719.0,0.05993198626064755
2718.0,0.05993198626064755
2717.0,0.05993198626064755
2716.0,0.05998184499233683
2715.0,0.060131455540490375
2714.0,0.060231224546650086
2713.0,0.0601813371786204
2712.0,0.060081579630943294
2711.0,0.05993198626064755
2710.0,0.05983228596592505
2709.0,0.05978244440026481
2708.0,0.05983228596592505
2707.0,0.05988213325228142
2706.0,0.05988213325228142
2705.0,0.05983228596592505
2704.0,0.05983228596592505
2703.0,0.05983228596592505
2702.0,0.05988213325228142
2701.0,0.05993198626064755
2700.0,0.05998184499233683
2699.0,0.05998184499233683
2698.0,0.05998184499233683
2697.0,0.05998184499233683
2696.0,0.05998184499233683
2695.0,0.06003170944866376
2694.0,0.060131455540490375
2693.0,0.0601813371786204
2692.0,0.060131455540490375
2691.0,0.06003170944866376
2690.0,0.05998184499233683
2689.0,0.05998184499233683
2688.0,0.06003170944866376
2687.0,0.06003170944866376
2686.0,0.06003170944866376
2685.0,0.06003170944866376
2684.0,0.06003170944866376
2683.0,0.05998184499233683
2682.0,0.05988213325228142
2681.0,0.05978244440026481
2680.0,0.05978244440026481
2679.0,0.05988213325228142
2678.0,0.05998184499233683
2677.0,0.06003170944866376
2676.0,0.06003170944866376
2675.0,0.06003170944866376
2674.0,0.05998184499233683
2673.0,0.05998184499233683
2672.0,0.05993198626064755
2671.0,0.05993198626064755
2670.0,0.05993198626064755
2669.0,0.05988213325228142
2668.0,0.05988213325228142
2667.0,0.05983228596592505
2666.0,0.05978244440026481
2665.0,0.05978244440026481
2664.0,0.05983228596592505
2663.0,0.05993198626064755
2662.0,0.06003170944866376
2661.0,0.06003170944866376
2660.0,0.06003170944866376
2659.0,0.05988213325228142
2658.0,0.05978244440026481
2657.0,0.05968277842578207
2656.0,0.05963295401433477
2655.0,0.05973260855398799
2654.0,0.05978244440026481
2653.0,0.05983228596592505
2652.0,0.05983228596592505
2651.0,0.05978244440026481
2650.0,0.05983228596592505
2649.0,0.05993198626064755
2648.0,0.05998184499233683
2647.0,0.06003170944866376
2646.0,0.05998184499233683
2645.0,0.05993198626064755
2644.0,0.05993198626064755
2643.0,0.05993198626064755
2642.0,0.05993198626064755
2641.0,0.06003170944866376
2640.0,0.060131455540490375
2639.0,0.060231224546650086
2638.0,0.06033101647767336
2637.0,0.06033101647767336
2636.0,0.06028111764589528
2635.0,0.060231224546650086
2634.0,0.0601813371786204
2633.0,0.060231224546650086
2632.0,0.06038092104330195
2631.0,0.060530669156469985
2630.0,0.06068046892176193
2629.0,0.060730413661268745
2628.0,0.060730413661268745
2627.0,0.06068046892176193
2626.0,0.06058059667068294
2625.0,0.060530669156469985
2624.0,0.060530669156469985
2623.0,0.060530669156469985
2622.0,0.060530669156469985
2621.0,0.060430831344098435
2620.0,0.06038092104330195
2619.0,0.06038092104330195
2618.0,0.060430831344098435
2617.0,0.06048074738138154
2616.0,0.06048074738138154
2615.0,0.06048074738138154
2614.0,0.060430831344098435
2613.0,0.060530669156469985
2612.0,0.06068046892176193
2611.0,0.060730413661268745
2610.0,0.060730413661268745
2609.0,0.06063052992534024
2608.0,0.06058059667068294
2607.0,0.060530669156469985
2606.0,0.06048074738138154
2605.0,0.06048074738138154
2604.0,0.06048074738138154
2603.0,0.06058059667068294
2602.0,0.060730413661268745
2601.0,0.06083032037482261
2600.0,0.06093025007657582
2599.0,0.06093025007657582
2598.0,0.06098022355133348
2597.0,0.06093025007657582
2596.0,0.06093025007657582
2595.0,0.06093025007657582
2594.0,0.06098022355133348
2593.0,0.0611301784870133
2592.0,0.06123017721688262
2591.0,0.06133019897732073
2590.0,0.06128018521761747
2589.0,0.06118017497378969
2588.0,0.06108018775522828
2587.0,0.06098022355133348
2586.0,0.06103020277710969
2585.0,0.06108018775522828
2584.0,0.06123017721688262
2583.0,0.06133019897732073
2582.0,0.06143024377893891
2581.0,0.06148027482350815
2580.0,0.06153031163235467
2579.0,0.06148027482350815
2578.0,0.06143024377893891
2577.0,0.061380218497318895
2576.0,0.06133019897732073
2575.0,0.06133019897732073
2574.0,0.061380218497318895
2573.0,0.061380218497318895
2572.0,0.061380218497318895
2571.0,0.06143024377893891
2570.0,0.06148027482350815
2569.0,0.06148027482350815
2568.0,0.06153031163235467
2567.0,0.06153031163235467
2566.0,0.061580354206806964
2565.0,0.061580354206806964
2564.0,0.061580354206806964
2563.0,0.061580354206806964
2562.0,0.06163040254819374
2561.0,0.061680456657844385
2560.0,0.061780582187257016
2559.0,0.061880730805688344
2558.0,0.061880730805688344
2557.0,0.061830653609679764
2556.0,0.061780582187257016
2555.0,0.061680456657844385
2554.0,0.06163040254819374
2553.0,0.06163040254819374
2552.0,0.06173051653708872
2551.0,0.061880730805688344
2550.0,0.06198090252378963
2549.0,0.06193081377661436
2548.0,0.061830653609679764
2547.0,0.06163040254819374
2546.0,0.061580354206806964
2545.0,0.06153031163235467
2544.0,0.061580354206806964
2543.0,0.06163040254819374
2542.0,0.061580354206806964
2541.0,0.06153031163235467
2540.0,0.06148027482350815
2539.0,0.06143024377893891
2538.0,0.06148027482350815
2537.0,0.061580354206806964
2536.0,0.06173051653708872
2535.0,0.061880730805688344
2534.0,0.06198090252378963
2533.0,0.06198090252378963
2532.0,0.06193081377661436
2531.0,0.061830653609679764
2530.0,0.061780582187257016
2529.0,0.061830653609679764
2528.0,0.06193081377661436
2527.0,0.06203099704854709
2526.0,0.06208109735221967
2525.0,0.06208109735221967
2524.0,0.06208109735221967
2523.0,0.06208109735221967
2522.0,0.06208109735221967
2521.0,0.06208109735221967
2520.0,0.06208109735221967
2519.0,0.062131203436140536
2518.0,0.06218131530164395
2517.0,0.06208109735221967
2516.0,0.061880730805688344
2515.0,0.06163040254819374
2514.0,0.06148027482350815
2513.0,0.06143024377893891
2512.0,0.06148027482350815
2511.0,0.06148027482350815
2510.0,0.06143024377893891
2509.0,0.061380218497318895
2508.0,0.06133019897732073
2507.0,0.061380218497318895
2506.0,0.06148027482350815
2505.0,0.06163040254819374
2504.0,0.06173051653708872
2503.0,0.06173051653708872
2502.0,0.061580354206806964
2501.0,0.061380218497318895
2500.0,0.06118017497378969
2499.0,0.06108018775522828
2498.0,0.0611301784870133
2497.0,0.06123017721688262
2496.0,0.061380218497318895
2495.0,0.06148027482350815
2494.0,0.06148027482350815
2493.0,0.06143024377893891
2492.0,0.06133019897732073
2491.0,0.06123017721688262
2490.0,0.0611301784870133
2489.0,0.0611301784870133
2488.0,0.06123017721688262
2487.0,0.06133019897732073
2486.0,0.06143024377893891
2485.0,0.06143024377893891
2484.0,0.061380218497318895
2483.0,0.061380218497318895
2482.0,0.06143024377893891
2481.0,0.06148027482350815
2480.0,0.06148027482350815
2479.0,0.06143024377893891
2478.0,0.06133019897732073
2477.0,0.06123017721688262
2476.0,0.06118017497378969
2475.0,0.0611301784870133
2474.0,0.0611301784870133
2473.0,0.06118017497378969
2472.0,0.06128018521761747
2471.0,0.06133019897732073
2470.0,0.06133019897732073
2469.0,0.06128018521761747
2468.0,0.06118017497378969
2467.0,0.06118017497378969
2466.0,0.06123017721688262
2465.0,0.06128018521761747
2464.0,0.06133019897732073
2463.0,0.06133019897732073
2462.0,0.06128018521761747
2461.0,0.06123017721688262
2460.0,0.0611301784870133
2459.0,0.0611301784870133
2458.0,0.06118017497378969
2457.0,0.06123017721688262
2456.0,0.06128018521761747
2455.0,0.06133019897732073
2454.0,0.06133019897732073
2453.0,0.06128018521761747
2452.0,0.06133019897732073
2451.0,0.06133019897732073
2450.0,0.061380218497318895
2449.0,0.06143024377893891
2448.0,0.061380218497318895
2447.0,0.06128018521761747
2446.0,0.06118017497378969
2445.0,0.06108018775522828
2444.0,0.06108018775522828
2443.0,0.0611301784870133
2442.0,0.0611301784870133
2441.0,0.06118017497378969
2440.0,0.06118017497378969
2439.0,0.06123017721688262
2438.0,0.06123017721688262
2437.0,0.06123017721688262
2436.0,0.06118017497378969
2435.0,0.06118017497378969
2434.0,0.06123017721688262
2433.0,0.061380218497318895
2432.0,0.06153031163235467
2431.0,0.06173051653708872
2430.0,0.061880730805688344
2429.0,0.06198090252378963
2428.0,0.06203099704854709
2427.0,0.062131203436140536
2426.0,0.062131203436140536
2425.0,0.062131203436140536
2424.0,0.06203099704854709
2423.0,0.06198090252378963
2422.0,0.06203099704854709
2421.0,0.06208109735221967
2420.0,0.06218131530164395
2419.0,0.062331685600995
2418.0,0.062381820606176586
2417.0,0.06243196139961715
2416.0,0.062381820606176586
2415.0,0.062281556382736136
2414.0,0.06223143295006417
2413.0,0.06218131530164395
2412.0,0.06218131530164395
2411.0,0.06223143295006417
2410.0,0.062281556382736136
2409.0,0.062331685600995
2408.0,0.06243196139961715
2407.0,0.06253226035662252
2406.0,0.06253226035662252
2405.0,0.06253226035662252
2404.0,0.06258241852286206
2403.0,0.06268275223750575
2402.0,0.0627329277885873
2401.0,0.0627329277885873
2400.0,0.06278310913729457
2399.0,0.06283329628496737
2398.0,0.06293368798257193
2397.0,0.06298389253518577
2396.0,0.06303410289212974
2395.0,0.06303410289212974
2394.0,0.06303410289212974
2393.0,0.06298389253518577
2392.0,0.06303410289212974
2391.0,0.06313454102437754
2390.0,0.06338573802478864
2389.0,0.06363708040225546
2388.0,0.06388856832514578
2387.0,0.06419054619006714
2386.0,0.06464390705442691
2385.0,0.06504729218214189
2384.0,0.0654005617819271
2383.0,0.06550154875643233
2382.0,0.06529959828457499
2381.0,0.06469430971007495
2380.0,0.0636873663378068
2379.0,0.062381820606176586
2378.0,0.06108018775522828
2377.0,0.0601813371786204
2376.0,0.05998184499233683
2375.0,0.06068046892176193
2374.0,0.06193081377661436
2373.0,0.06303410289212974
2372.0,0.06358680028852026
2371.0,0.0636873663378068
2370.0,0.06378795567975115
2369.0,0.06408986356949264
2368.0,0.06464390705442691
2367.0,0.0655520510510299
2366.0,0.06686717627326577
2365.0,0.0680846829187538
2364.0,0.06884736147670667
2363.0,0.0692037370166998
2362.0,0.06915280831750303
2361.0,0.0684912781333824
2360.0,0.06737405597821788
2359.0,0.06636088747507496
2358.0,0.06545105233385295
2357.0,0.06393888339001164
2356.0,0.06173051653708872
2355.0,0.05978244440026481
2354.0,0.05858795962645047
2353.0,0.05784307153250956
2352.0,0.057743849580535134
2351.0,0.05928434309333741
2350.0,0.06243196139961715
2349.0,0.0653500770992892
2348.0,0.06636088747507496
2347.0,0.06514819703433927
2346.0,0.06338573802478864
2345.0,0.06303410289212974
2344.0,0.06439198148213077
2343.0,0.06625970050306473
2342.0,0.06696850489759454
2341.0,0.06605739725873905
2340.0,0.06459351024765114
2339.0,0.06393888339001164
2338.0,0.06419054619006714
2337.0,0.06439198148213077
2336.0,0.06419054619006714
2335.0,0.06388856832514578
2334.0,0.06353652599525317
2333.0,0.06283329628496737
2332.0,0.061830653609679764
2331.0,0.0611301784870133
2330.0,0.06133019897732073
2329.0,0.06208109735221967
2328.0,0.0630843190547461
2327.0,0.0636873663378068
2326.0,0.06378795567975115
2325.0,0.06298389253518577
2324.0,0.06163040254819374
2323.0,0.06033101647767336
2322.0,0.05943371350990989
2321.0,0.05923456436878238
2320.0,0.0595831353183347
2319.0,0.060430831344098435
2318.0,0.061380218497318895
2317.0,0.06208109735221967
2316.0,0.062381820606176586
2315.0,0.06223143295006417
2314.0,0.061880730805688344
2313.0,0.06153031163235467
2312.0,0.061580354206806964
2311.0,0.06193081377661436
2310.0,0.06253226035662252
2309.0,0.06288348923294618
2308.0,0.06298389253518577
2307.0,0.06278310913729457
2306.0,0.06263258248271053
2305.0,0.06258241852286206
2304.0,0.06283329628496737
2303.0,0.06328524178879635
2302.0,0.06383825908884244
2301.0,0.06419054619006714
2300.0,0.06434161389936577
2299.0,0.06444235490698613
2298.0,0.06459351024765114
2297.0,0.06479513257341862
2296.0,0.06499684854634524
2295.0,0.06519865825346338
2294.0,0.06529959828457499
2293.0,0.06524912533642091
2292.0,0.06509774167768612
2291.0,0.06489597884855036
2290.0,0.06474471821595262
2289.0,0.06464390705442691
2288.0,0.06454311928839007
2287.0,0.06439198148213077
2286.0,0.06424089625468832
2285.0,0.06414020196211956
2284.0,0.06408986356949264
2283.0,0.06419054619006714
2282.0,0.06429125215733666
2281.0,0.06434161389936577
2280.0,0.06424089625468832
2279.0,0.06408986356949264
2278.0,0.06398920428479049
2277.0,0.06388856832514578
2276.0,0.06388856832514578
2275.0,0.06383825908884244
2274.0,0.06383825908884244
2273.0,0.06388856832514578
2272.0,0.06393888339001164
2271.0,0.06398920428479049
2270.0,0.06403953101083348
2269.0,0.06398920428479049
2268.0,0.06388856832514578
2267.0,0.06373765809652254
2266.0,0.06363708040225546
2265.0,0.0636873663378068
2264.0,0.06373765809652254
2263.0,0.06388856832514578
2262.0,0.06398920428479049
2261.0,0.06403953101083348
2260.0,0.06403953101083348
2259.0,0.06398920428479049
2258.0,0.06388856832514578
2257.0,0.06383825908884244
2256.0,0.06373765809652254
2255.0,0.0636873663378068
2254.0,0.06363708040225546
2253.0,0.06363708040225546
2252.0,0.06363708040225546
2251.0,0.06358680028852026
2250.0,0.06353652599525317
2249.0,0.06348625752110681
2248.0,0.06343599486473406
2247.0,0.06343599486473406
2246.0,0.06343599486473406
2245.0,0.06343599486473406
2244.0,0.06338573802478864
2243.0,0.06333548699992453
2242.0,0.06333548699992453
2241.0,0.06333548699992453
2240.0,0.06338573802478864
2239.0,0.06338573802478864
2238.0,0.06338573802478864
2237.0,0.06328524178879635
2236.0,0.06323500239005853
2235.0,0.06318476880236723
2234.0,0.06318476880236723
2233.0,0.06313454102437754
2232.0,0.06303410289212974
2231.0,0.06298389253518577
2230.0,0.06298389253518577
2229.0,0.06303410289212974
2228.0,0.06298389253518577
2227.0,0.06293368798257193
2226.0,0.06283329628496737
2225.0,0.06283329628496737
2224.0,0.06288348923294618
2223.0,0.06293368798257193
2222.0,0.06288348923294618
2221.0,0.06278310913729457
2220.0,0.06263258248271053
2219.0,0.06253226035662252
2218.0,0.06248210798265341
2217.0,0.06243196139961715
2216.0,0.06248210798265341
2215.0,0.06253226035662252
2214.0,0.06258241852286206
2213.0,0.06258241852286206
2212.0,0.06263258248271053
2211.0,0.06263258248271053
2210.0,0.06263258248271053
2209.0,0.06258241852286206
2208.0,0.06243196139961715
2207.0,0.062331685600995
2206.0,0.062331685600995
2205.0,0.06243196139961715
2204.0,0.06253226035662252
2203.0,0.06258241852286206
2202.0,0.06253226035662252
2201.0,0.06248210798265341
2200.0,0.06243196139961715
2199.0,0.062331685600995
2198.0,0.062281556382736136
2197.0,0.062331685600995
2196.0,0.06243196139961715
2195.0,0.06243196139961715
2194.0,0.062381820606176586
2193.0,0.06218131530164395
2192.0,0.06203099704854709
2191.0,0.06193081377661436
2190.0,0.061880730805688344
2189.0,0.061880730805688344
2188.0,0.061880730805688344
2187.0,0.06193081377661436
2186.0,0.06193081377661436
2185.0,0.06193081377661436
2184.0,0.06193081377661436
2183.0,0.06203099704854709
2182.0,0.06203099704854709
2181.0,0.06203099704854709
2180.0,0.06193081377661436
2179.0,0.06193081377661436
2178.0,0.06198090252378963
2177.0,0.06208109735221967
2176.0,0.062131203436140536
2175.0,0.062131203436140536
2174.0,0.06208109735221967
2173.0,0.06203099704854709
2172.0,0.06203099704854709
2171.0,0.06203099704854709
2170.0,0.06198090252378963
2169.0,0.06193081377661436
2168.0,0.06193081377661436
2167.0,0.06193081377661436
2166.0,0.06193081377661436
2165.0,0.06193081377661436
2164.0,0.06193081377661436
2163.0,0.06193081377661436
2162.0,0.06198090252378963
2161.0,0.06208109735221967
2160.0,0.06218131530164395
2159.0,0.06223143295006417
2158.0,0.062331685600995
2157.0,0.062331685600995
2156.0,0.06223143295006417
2155.0,0.06218131530164395
2154.0,0.06223143295006417
2153.0,0.062281556382736136
2152.0,0.062381820606176586
2151.0,0.062331685600995
2150.0,0.06223143295006417
2149.0,0.062131203436140536
2148.0,0.062131203436140536
2147.0,0.062131203436140536
2146.0,0.06218131530164395
2145.0,0.06223143295006417
2144.0,0.06223143295006417
2143.0,0.06223143295006417
2142.0,0.062281556382736136
2141.0,0.062331685600995
2140.0,0.06243196139961715
2139.0,0.06248210798265341
2138.0,0.06248210798265341
2137.0,0.06248210798265341
2136.0,0.06253226035662252
2135.0,0.06263258248271053
2134.0,0.06268275223750575
2133.0,0.06278310913729457
2132.0,0.06288348923294618
2131.0,0.06288348923294618
2130.0,0.06283329628496737
2129.0,0.0627329277885873
2128.0,0.06263258248271053
2127.0,0.06258241852286206
2126.0,0.06253226035662252
2125.0,0.06253226035662252
2124.0,0.06253226035662252
2123.0,0.06263258248271053
2122.0,0.0627329277885873
2121.0,0.06278310913729457
2120.0,0.06278310913729457
2119.0,0.0627329277885873
2118.0,0.06268275223750575
2117.0,0.06263258248271053
2116.0,0.06263258248271053
2115.0,0.06263258248271053
2114.0,0.06268275223750575
2113.0,0.0627329277885873
2112.0,0.06283329628496737
2111.0,0.06298389253518577
2110.0,0.0630843190547461
2109.0,0.06313454102437754
2108.0,0.06313454102437754
2107.0,0.06313454102437754
2106.0,0.06313454102437754
2105.0,0.0630843190547461
2104.0,0.06303410289212974
2103.0,0.06288348923294618
2102.0,0.0627329277885873
2101.0,0.06263258248271053
2100.0,0.06258241852286206
2099.0,0.06263258248271053
2098.0,0.0627329277885873
2097.0,0.06283329628496737
2096.0,0.06283329628496737
2095.0,0.0627329277885873
2094.0,0.06263258248271053
2093.0,0.06263258248271053
2092.0,0.06263258248271053
2091.0,0.06268275223750575
2090.0,0.06268275223750575
2089.0,0.06263258248271053
2088.0,0.06253226035662252
2087.0,0.06253226035662252
2086.0,0.06253226035662252
2085.0,0.06248210798265341
2084.0,0.06248210798265341
2083.0,0.062381820606176586
2082.0,0.062331685600995
2081.0,0.062281556382736136
2080.0,0.06223143295006417
2079.0,0.06223143295006417
2078.0,0.06218131530164395
2077.0,0.06208109735221967
2076.0,0.06198090252378963
2075.0,0.06193081377661436
2074.0,0.06193081377661436
2073.0,0.061830653609679764
2072.0,0.06173051653708872
2071.0,0.06163040254819374
2070.0,0.061580354206806964
2069.0,0.06153031163235467
2068.0,0.06143024377893891
2067.0,0.06128018521761747
2066.0,0.0611301784870133
2065.0,0.06103020277710969
2064.0,0.06093025007657582
2063.0,0.060880282351513104
2062.0,0.06083032037482261
2061.0,0.060730413661268745
2060.0,0.060730413661268745
2059.0,0.060730413661268745
2058.0,0.06068046892176193
2057.0,0.06058059667068294
2056.0,0.060430831344098435
2055.0,0.06038092104330195
2054.0,0.06038092104330195
2053.0,0.06048074738138154
2052.0,0.060530669156469985
2051.0,0.060530669156469985
2050.0,0.060430831344098435
2049.0,0.06028111764589528
2048.0,0.0601813371786204
2047.0,0.06003170944866376
2046.0,0.05998184499233683
2045.0,0.05988213325228142
2044.0,0.05973260855398799
2043.0,0.05968277842578207
2042.0,0.0595831353183347
2041.0,0.05948351506743288
2040.0,0.05943371350990989
2039.0,0.05943371350990989
2038.0,0.05943371350990989
2037.0,0.05943371350990989
2036.0,0.05938391766259232
2035.0,0.05933412752417122
2034.0,0.05928434309333741
2033.0,0.05918479134919874
2032.0,0.05908526241971446
2031.0,0.059035506507200575
2030.0,0.05898575629443026
2029.0,0.058936011780097886
2028.0,0.0588862729628985
2027.0,0.058836539841526925
2026.0,0.058836539841526925
2025.0,0.058836539841526925
2024.0,0.0588862729628985
2023.0,0.0588862729628985
2022.0,0.0588862729628985
2021.0,0.058836539841526925
2020.0,0.05868737463933793
2019.0,0.05858795962645047
2018.0,0.058538260652670315
2017.0,0.05848856736559682
2016.0,0.05843887976392925
2015.0,0.0583891978463662
2014.0,0.0583891978463662
2013.0,0.05843887976392925
2012.0,0.05843887976392925
2011.0,0.05848856736559682
2010.0,0.05848856736559682
2009.0,0.05848856736559682
2008.0,0.05848856736559682
2007.0,0.05843887976392925
2006.0,0.05843887976392925
2005.0,0.05843887976392925
2004.0,0.0583891978463662
2003.0,0.0583891978463662
2002.0,0.0583891978463662
2001.0,0.05848856736559682
2000.0,0.05858795962645047
1999.0,0.05868737463933793
1998.0,0.058786812414678646
1997.0,0.0588862729628985
1996.0,0.058936011780097886
1995.0,0.058936011780097886
1994.0,0.0588862729628985
1993.0,0.058786812414678646
1992.0,0.058786812414678646
1991.0,0.058836539841526925
1990.0,0.058936011780097886
1989.0,0.05898575629443026
1988.0,0.059035506507200575
1987.0,0.059035506507200575
1986.0,0.05898575629443026
1985.0,0.0588862729628985
1984.0,0.058786812414678646
1983.0,0.058737090681050264
1982.0,0.058737090681050264
1981.0,0.058786812414678646
1980.0,0.058836539841526925
1979.0,0.058936011780097886
1978.0,0.05898575629443026
1977.0,0.05898575629443026
1976.0,0.05898575629443026
1975.0,0.05898575629443026
1974.0,0.05898575629443026
1973.0,0.05898575629443026
1972.0,0.059035506507200575
1971.0,0.059135024033278416
1970.0,0.05928434309333741
1969.0,0.05943371350990989
1968.0,0.05963295401433477
1967.0,0.05988213325228142
1966.0,0.060081579630943294
1965.0,0.060231224546650086
1964.0,0.06038092104330195
1963.0,0.060530669156469985
1962.0,0.06068046892176193
1961.0,0.060730413661268745
1960.0,0.06083032037482261
1959.0,0.06098022355133348
1958.0,0.0611301784870133
1957.0,0.06123017721688262
1956.0,0.061380218497318895
1955.0,0.06153031163235467
1954.0,0.061680456657844385
1953.0,0.061680456657844385
1952.0,0.06163040254819374
1951.0,0.061580354206806964
1950.0,0.06148027482350815
1949.0,0.061380218497318895
1948.0,0.06123017721688262
1947.0,0.06108018775522828
1946.0,0.06093025007657582
1945.0,0.060730413661268745
1944.0,0.060530669156469985
1943.0,0.06033101647767336
1942.0,0.060131455540490375
1941.0,0.05993198626064755
1940.0,0.05968277842578207
1939.0,0.05938391766259232
1938.0,0.05908526241971446
1937.0,0.058786812414678646
1936.0,0.058538260652670315
1935.0,0.0583395216116076
1934.0,0.05814087347462649
1933.0,0.05794231615860479
1932.0,0.05769424710410598
1931.0,0.05749589383191922
1930.0,0.05734718830678798
1929.0,0.057198533682059516
1928.0,0.057000406633959555
1927.0,0.0567528748621382
1926.0,0.05650548409389744
1925.0,0.05625823416868636
1924.0,0.05610995175152733
1923.0,0.05606053552778367
1922.0,0.055961719945581745
1921.0,0.055764156206519866
1920.0,0.05551732784983132
1919.0,0.05531996611868961
1918.0,0.055172003656783764
1917.0,0.05502409158795207
1916.0,0.054876229877880656
1915.0,0.05477768336465916
1914.0,0.054679159207724926
1913.0,0.05448217792216048
1912.0,0.05428528594013993
1911.0,0.05413767551038262
1910.0,0.05399011523423525
1909.0,0.05389176956309405
1908.0,0.05374429280060267
1907.0,0.05354773498692689
1906.0,0.05340037498486727
1905.0,0.05325306496641513
1904.0,0.0531548860393769
1903.0,0.05305672930217464
1902.0,0.05290953578037816
1901.0,0.052762392129333646
1900.0,0.05261529831525902
1899.0,0.052419250695677544
1898.0,0.05227227303668425
1897.0,0.05207638016827354
1896.0,0.05188057561946402
1895.0,0.051684859310652254
1894.0,0.05153812993871654
1893.0,0.05139145012356372
1892.0,0.05129369109514803
1891.0,0.051244819831730126
1890.0,0.05129369109514803
1889.0,0.051244819831730126
1888.0,0.051098239029786274
1887.0,0.05095170768433621
1886.0,0.05075640943173498
1885.0,0.05056119896349576
1884.0,0.05036607620073763
1883.0,0.050171041064686284
1882.0,0.04997609347667353
1881.0,0.04973253198641148
1880.0,0.04953778109440221
1879.0,0.04939177521576932
1878.0,0.049294465226138895
1877.0,0.04919717703534143
1876.0,0.04905128560059957
1875.0,0.048905443158337114
1874.0,0.048808242065293994
1873.0,0.04871106272232795
1872.0,0.0486139051197072
1871.0,0.04851676924770687
1870.0,0.04837110616336182
1869.0,0.048225491918274965
1868.0,0.04803141550708934
1867.0,0.047885915093007325
1866.0,0.0478374257855374
1865.0,0.04774046340917959
1864.0,0.047595060422975566
1863.0,0.04744970610179822
1862.0,0.047352830241056854
1861.0,0.04730440041308315
1860.0,0.04720755695590784
1859.0,0.04715914332429838
1858.0,0.04711073508906982
1857.0,0.047062332249019345
1856.0,0.04696554274964315
1855.0,0.04682039893436585
1854.0,0.04667530361081473
1853.0,0.04653025674659861
1852.0,0.046481918555007384
1851.0,0.04643358574299339
1850.0,0.04643358574299339
1849.0,0.04638525830935958
1848.0,0.04628861957244457
1847.0,0.04624030826677128
1846.0,0.04624030826677128
1845.0,0.04624030826677128
1844.0,0.04628861957244457
1843.0,0.04633693625290869
1842.0,0.04638525830935958
1841.0,0.04633693625290869
1840.0,0.046192002334692894
1839.0,0.04609540658654021
1838.0,0.046047116768076934
1837.0,0.046047116768076934
1836.0,0.046047116768076934
1835.0,0.046047116768076934
1834.0,0.046047116768076934
1833.0,0.04599883231842972
1832.0,0.04595055323640551
1831.0,0.04595055323640551
1830.0,0.04599883231842972
1829.0,0.04599883231842972
1828.0,0.04595055323640551
1827.0,0.04595055323640551
1826.0,0.04595055323640551
1825.0,0.04585401117045196
1824.0,0.045612749855485024
1823.0,0.0454680573730859
1822.0,0.04541983725624266
1821.0,0.045323413081356456
1820.0,0.0451788169482068
1819.0,0.044986096961949995
1818.0,0.044793462458058375
1817.0,0.04455278942230456
1816.0,0.04421607108308856
1815.0,0.04397571771932274
1814.0,0.04383156952463674
1813.0,0.04368746915880539
1812.0,0.04344740808260106
1811.0,0.04315950984076644
1810.0,0.04287180232318688
1809.0,0.04253638427006878
1808.0,0.042201225070002124
1807.0,0.041914151478914974
1806.0,0.04167506835594681
1805.0,0.041436116778032606
1804.0,0.041101805289228244
1803.0,0.04081545726880842
1802.0,0.040481623027001756
1801.0,0.04010041213405646
1800.0,0.03957679292217042
1799.0,0.03914884628031379
1798.0,0.038816290187564384
1797.0,0.03848398855105106
1796.0,0.03810452633214956
1795.0,0.03777276864991497
1794.0,0.037488606492403154
1793.0,0.0371573187987575
1792.0,0.03663723389626394
1791.0,0.03616496929785207
1790.0,0.035646070707806565
1789.0,0.03512779136222477
1788.0,0.03456310022373987
1787.0,0.03414006319292828
1786.0,0.03376437590141812
1785.0,0.03334211579824231
1784.0,0.03277974021703267
1783.0,0.032311649546687526
1782.0,0.03193753992355086
1781.0,0.03137697904301118
1780.0,0.03067729388779794
1779.0,0.030118356253500123
1778.0,0.02969962459782227
1777.0,0.029281296279810798
1776.0,0.028770552723758724
1775.0,0.02826040911222183
1774.0,0.027889771597169544
1773.0,0.027334407733889066
1772.0,0.026595025589939425
1771.0,0.025995203102585407
1770.0,0.02553436426275746
1769.0,0.02498200236711723
1768.0,0.024200690320592466
1767.0,0.02351246269481
1766.0,0.02314585342378117
1765.0,0.02291687968414724
1764.0,0.022642270454698687
1763.0,0.022413561996148967
1762.0,0.022093572362881675
1761.0,0.02168250325324883
1760.0,0.0214542995372613
1759.0,0.021636852916117055
1758.0,0.022093572362881675
1757.0,0.022505030926963654
1756.0,0.02277955336461468
1755.0,0.02342078135989012
1754.0,0.024568191490736968
1753.0,0.025902996205869
1752.0,0.02751945012352408
1751.0,0.03002526987828502
1750.0,0.03367050483612166
1749.0,0.03800971255993524
1748.0,0.043063586155803746
1747.0,0.04905128560059957
1746.0,0.05586292684190197
1745.0,0.06338573802478864
1744.0,0.07221915065262552
1743.0,0.08249449044745338
1742.0,0.0935033402006471
1741.0,0.10535169620648288
1740.0,0.11958660012208333
1739.0,0.13572630319562085
1738.0,0.1502121757623145
1737.0,0.16121385505340546
1736.0,0.17121125181504682
1735.0,0.18588564387087447
1734.0,0.20999647960951062
1733.0,0.23604817396667577
1732.0,0.2553159367231137
1731.0,0.2717274021049829
1730.0,0.2906452241656039
1729.0,0.31211447515129453
1728.0,0.33432521900610657
1727.0,0.3562513145404742
1726.0,0.37882371822496475
1725.0,0.4035128662634557
1724.0,0.4315635855831146
1723.0,0.4621809049267258
1722.0,0.4925489390980302
1721.0,0.5192746210115122
1720.0,0.5436339668709569
1719.0,0.5726762136427528
1718.0,0.616543703475247
1717.0,0.6695862266508092
1716.0,0.708187312532881
1715.0,0.7274622226247627
1714.0,0.7351821769904636
1713.0,0.7304870557820837
1712.0,0.7128703792808893
1711.0,0.6861327796308465
1710.0,0.6544302439436078
1709.0,0.6205131862827262
1708.0,0.5858626378155234
1707.0,0.5499049241283975
1706.0,0.5113083016830593
1705.0,0.47391930819797
1704.0,0.44538971477383593
1703.0,0.4258529358492773
1702.0,0.4091581652183973
1701.0,0.3876400520322256
1700.0,0.36061313098231595
1699.0,0.33932421166147586
1698.0,0.3269790928711038
1697.0,0.31650268232018863
1696.0,0.3031196283172377
1695.0,0.28945955206670293
1694.0,0.27975798171294297
1693.0,0.2735988378970775
1692.0,0.26825011647273667
1691.0,0.2622509261084429
1690.0,0.2553159367231137
1689.0,0.248951965179812
1688.0,0.24412514432750854
1687.0,0.24055880286630238
1686.0,0.23717144681090963
1685.0,0.23284413391781955
1684.0,0.22767829327708022
1683.0,0.22322619758789308
1682.0,0.22004294875309416
1681.0,0.21724080737600282
1680.0,0.2141009716156166
1679.0,0.21077194273266486
1678.0,0.20753826865304936
1677.0,0.2043980201058202
1676.0,0.200797343699475
1675.0,0.1969527895088714
1674.0,0.1935486767527379
1673.0,0.1910467008440888
1672.0,0.18896149139578422
1671.0,0.18641901143180806
1670.0,0.1832285876666535
1669.0,0.17999569319168218
1668.0,0.17730898922394545
1667.0,0.17502853887630665
1666.0,0.17288931253398876
1665.0,0.17056756638240134
1664.0,0.16787445746599094
1663.0,0.16475346000368907
1662.0,0.16184381524785207
1661.0,0.15970566838856382
1660.0,0.15807768832054925
1659.0,0.15645578805436489
1658.0,0.15471587365200845
1657.0,0.15310645668337486
1656.0,0.15168769637271562
1655.0,0.1502121757623145
1654.0,0.1480693213597324
1653.0,0.1456332219591303
1652.0,0.14393604666690019
1651.0,0.14302956651750764
1650.0,0.1423660148499919
1649.0,0.1414628024303608
1648.0,0.14014147951900724
1647.0,0.13846558914096208
1646.0,0.1370342410222376
1645.0,0.136142038116027
1644.0,0.13542959314656988
1643.0,0.13454067733803532
1642.0,0.13353543402825974
1641.0,0.13265038281120756
1640.0,0.1318847946727828
1639.0,0.1311205537629121
1638.0,0.13035765534840538
1637.0,0.1294790499872358
1636.0,0.12866061890013913
1635.0,0.1277271537757949
1634.0,0.12691201440971422
1633.0,0.12627261935332057
1632.0,0.12557616941349803
1631.0,0.12476505354983503
1630.0,0.12389767862220635
1629.0,0.12308968865537295
1628.0,0.12251347193039863
1627.0,0.12188051530283239
1626.0,0.12124847982699793
1625.0,0.12056003400478299
1624.0,0.11981544717356662
1623.0,0.11907213473291511
1622.0,0.11850122038501709
1621.0,0.11821604440661537
1620.0,0.11804502866039956
1619.0,0.11781711236973003
1618.0,0.11770319906234805
1617.0,0.11821604440661537
1616.0,0.11930071078129845
1615.0,0.1201016756699902
1614.0,0.12033079436794658
1613.0,0.12015894401343741
1612.0,0.11964380058076385
1611.0,0.11884367892443626
1610.0,0.11781711236973003
1609.0,0.11679296664760996
1608.0,0.11582793047608719
1607.0,0.114865033936566
1606.0,0.1138478180292033
1605.0,0.1128329791052256
1604.0,0.11187669270209155
1603.0,0.11086644403327606
1602.0,0.10980261378997125
1601.0,0.10879717273970457
1600.0,0.10784972209863586
1599.0,0.10695988804288215
1598.0,0.10612732120491852
1597.0,0.10540705207704448
1596.0,0.1047432468551055
1595.0,0.10408045468998406
1594.0,0.10358402352687701
1593.0,0.10319830233507843
1592.0,0.1028679566179056
1591.0,0.10253786198693682
1590.0,0.1022080180607754
1589.0,0.10198826120249849
1588.0,0.10198826120249849
1587.0,0.10204318999304807
1586.0,0.10226297465457268
1585.0,0.10281292341984649
1584.0,0.1038045895457893
1583.0,0.10518567091669917
1582.0,0.10695988804288215
1581.0,0.10890877353227624
1580.0,0.11075433910702048
1579.0,0.11227020271196975
1578.0,0.11317099532301778
1577.0,0.11322735694556196
1576.0,0.11227020271196975
1575.0,0.11075433910702048
1574.0,0.10924374808178183
1573.0,0.10807246577932506
1572.0,0.10690433390377163
1571.0,0.10557316203581202
1570.0,0.10391491457671487
1569.0,0.10226297465457268
1568.0,0.10083635852278117
1567.0,0.09979678698310646
1566.0,0.09886874864462802
1565.0,0.0978882765519955
1564.0,0.09707290398273716
1563.0,0.0964759355287379
1562.0,0.09604229147682952
1561.0,0.09560907998763835
1560.0,0.0950141189006366
1559.0,0.09452793807529569
1558.0,0.09409623378338305
1557.0,0.09371884422784693
1556.0,0.09334178232840018
1555.0,0.09285746899685954
1554.0,0.09231997575758011
1553.0,0.0919977988274463
1552.0,0.0917295005042762
1551.0,0.09140776115243066
1550.0,0.09087205801073917
1549.0,0.09033701484598189
1548.0,0.08996287644694911
1547.0,0.08974922769985194
1546.0,0.08948231448273347
1545.0,0.08916223500731646
1544.0,0.08878910686244668
1543.0,0.08830984124613894
1542.0,0.08767164203958999
1541.0,0.08714052483764512
1540.0,0.08682216600953208
1539.0,0.08655704514060414
1538.0,0.0862920860195171
1537.0,0.0861331881037608
1536.0,0.08602728844902896
1535.0,0.08581556657675371
1534.0,0.0856568428805593
1533.0,0.08560394787021397
1532.0,0.08570974433405087
1531.0,0.08576265223225898
1530.0,0.08581556657675371
1529.0,0.08586848736910624
1528.0,0.08586848736910624
1527.0,0.08576265223225898
1526.0,0.08555105930144569
1525.0,0.08533956941077814
1524.0,0.08523386307414738
1523.0,0.08507535179485148
1522.0,0.08454739831152125
1521.0,0.08375666953466032
1520.0,0.08301995267961781
1519.0,0.08254700807033655
1518.0,0.08217951800630297
1517.0,0.08170748724464438
1516.0,0.08113125661901543
1515.0,0.08071265949561734
1514.0,0.08060807322614072
1513.0,0.08092190762392604
1512.0,0.08170748724464438
1511.0,0.08296737783760655
1510.0,0.08481129482684358
1509.0,0.08761850108119962
1508.0,0.09328794305703592
1507.0,0.10457745396059215
1506.0,0.11599807523121286
1505.0,0.12004441487725082
1504.0,0.11907213473291511
1503.0,0.11560117444331386
1502.0,0.11075433910702048
1501.0,0.1052410056281079
1500.0,0.09974214156222239
1499.0,0.09463593123310776
1498.0,0.09023008526723086
1497.0,0.08661005636824437
1496.0,0.08402008585977572
1495.0,0.08217951800630297
1494.0,0.08086958613938555
1493.0,0.07992887570247587
1492.0,0.07925073872429178
1491.0,0.07852161962430992
1490.0,0.07794959783282618
1489.0,0.07789763319239285
1488.0,0.07841755960658348
1487.0,0.079094395835976
1486.0,0.07982447798997727
1485.0,0.08071265949561734
1484.0,0.08191721535781271
1483.0,0.0832303157168639
1482.0,0.08481129482684358
1481.0,0.0867691288864394
1480.0,0.08878910686244668
1479.0,0.09060445403289452
1478.0,0.09226626300234453
1477.0,0.09404230090757282
1476.0,0.09598811640261173
1475.0,0.09777947172068524
1474.0,0.09941441335003853
1473.0,0.10105553313349058
1472.0,0.1022080180607754
1471.0,0.10231793820358015
1470.0,0.10171372141087698
1469.0,0.10083635852278117
1468.0,0.10001543745060903
1467.0,0.09925064193892053
1466.0,0.09886874864462802
1465.0,0.09914149529800831
1464.0,0.09990609845660159
1463.0,0.10083635852278117
1462.0,0.10154908080162528
1461.0,0.1022080180607754
1460.0,0.10281292341984649
1459.0,0.10347378251044459
1458.0,0.10441172433373724
1457.0,0.1060718734573931
1456.0,0.1075158206353124
1455.0,0.10807246577932506
1454.0,0.1081838804751396
1453.0,0.10801676914803293
1452.0,0.10762709260156367
1451.0,0.10701544928928342
1450.0,0.1062937069352865
1449.0,0.10546241500425357
1448.0,0.10452220372428545
1447.0,0.10352889952072264
1446.0,0.10264786565568684
1445.0,0.10193333935836524
1444.0,0.10132965703447017
1443.0,0.10072681268239614
1442.0,0.10012480397898926
1441.0,0.09952362861074304
1440.0,0.0989778267519208
1439.0,0.09821485469640057
1438.0,0.09707290398273716
1437.0,0.09533854208447545
1436.0,0.09307265269104414
1435.0,0.09092559859909577
1434.0,0.08900228368935714
1433.0,0.08714052483764512
1432.0,0.08496970974083906
1431.0,0.08254700807033655
1430.0,0.07998108397108505
1429.0,0.07753405470158659
1428.0,0.07546228222451012
1427.0,0.07391491307485598
1426.0,0.07262963696097646
1425.0,0.07145053299833615
1424.0,0.07042782092345012
1423.0,0.06981534770138009
1422.0,0.06976434723371505
1421.0,0.07012147634321675
1420.0,0.07155293679081787
1419.0,0.0748426728241014
1418.0,0.08029446545087904
1417.0,0.08719360733870762
1416.0,0.09571734235437201
1415.0,0.10640466618011679
1414.0,0.11958660012208333
1413.0,0.13542959314656988
1412.0,0.15347733158371324
1411.0,0.17179138553205453
1410.0,0.18735398376688117
1409.0,0.1981848314185628
1408.0,0.20342566678957041
1407.0,0.20273245916928362
1406.0,0.1962698290254561
1405.0,0.18568579979254052
1404.0,0.17386038206408516
1403.0,0.16310648362356628
1402.0,0.15415809257824264
1401.0,0.1463626180414057
1400.0,0.1388839558386048
1399.0,0.13135556160517425
1398.0,0.12476505354983503
1397.0,0.11958660012208333
1396.0,0.11509140583739286
1395.0,0.11058623595729111
1394.0,0.10646015643533868
1393.0,0.10363915453068362
1392.0,0.10193333935836524
1391.0,0.10067205012234592
1390.0,0.09946901754724413
1389.0,0.09826930827078129
1388.0,0.09707290398273716
1387.0,0.09604229147682952
1386.0,0.09517630019905599
1385.0,0.09468993788391455
1384.0,0.09447395156495153
1383.0,0.09436599867304518
1382.0,0.09431203228814788
1381.0,0.09431203228814788
1380.0,0.09447395156495153
1379.0,0.09468993788391455
1378.0,0.09506817260434741
1377.0,0.09560907998763835
1376.0,0.09642170633694569
1375.0,0.09739886933346864
1374.0,0.09843270997155007
1373.0,0.09935981601739963
1372.0,0.10007011727213588
1371.0,0.10045306890913297
1370.0,0.10028890542885538
1369.0,0.09952362861074304
1368.0,0.09816040794877057
1367.0,0.09620485725896466
1366.0,0.09382663635595145
1365.0,0.09113982698272349
1364.0,0.0880970039559672
1363.0,0.08475850269380558
1362.0,0.08149786036382611
1361.0,0.0788860261633193
1360.0,0.07706704344478843
1359.0,0.07566901529132153
1358.0,0.07453319930846214
1357.0,0.07370901311513656
1356.0,0.07334892291111106
1355.0,0.07340034609297241
1354.0,0.07391491307485598
1353.0,0.07499749231902242
1352.0,0.07685964397479927
1351.0,0.07961575782164254
1350.0,0.08333553545860273
1349.0,0.0885227828938977
1348.0,0.09533854208447545
1347.0,0.10402526764093545
1346.0,0.114865033936566
1345.0,0.12796033202671375
1344.0,0.14284849731250704
1343.0,0.15832774992636556
1342.0,0.17340694606595197
1341.0,0.18722029299103604
1340.0,0.19845909380968174
1339.0,0.20467623567068616
1338.0,0.2043980201058202
1337.0,0.1980477651457182
1336.0,0.1872871332346313
1335.0,0.17353645090719882
1334.0,0.15801519540988607
1333.0,0.14200450443907608
1332.0,0.1267375405612734
1331.0,0.11317099532301778
1330.0,0.10182351650232357
1329.0,0.09285746899685954
1328.0,0.08597434830367123
1327.0,0.08081727095749947
1326.0,0.07717078033335123
1325.0,0.07468790850035045
1324.0,0.07309189829456408
1323.0,0.07221915065262552
1322.0,0.07196279359311708
1321.0,0.0720140529005715
1320.0,0.07237303755504598
1319.0,0.07288638806623937
1318.0,0.07370901311513656
1317.0,0.07463633264589853
1316.0,0.07572071393811841
1315.0,0.07701518429111709
1314.0,0.07857365898473456
1313.0,0.0805035121369384
1312.0,0.08270459905431071
1311.0,0.08507535179485148
1310.0,0.08772478950118767
1309.0,0.0905509530187334
1308.0,0.0935033402006471
1307.0,0.09636748391576244
1306.0,0.0990869322623309
1305.0,0.10165883427249067
1304.0,0.10435649517592083
1303.0,0.10734896612269962
1302.0,0.11092250734993603
1301.0,0.11514801725400226
1300.0,0.12015894401343741
1299.0,0.12586622117202761
1298.0,0.1320613491092153
1297.0,0.13870460647330418
1296.0,0.1456939581989194
1295.0,0.15279763601907614
1294.0,0.159956669396506
1293.0,0.16710805524020933
1292.0,0.1742494186519723
1291.0,0.18137827362411096
1290.0,0.18815699382352258
1289.0,0.19477108579657387
1288.0,0.20128031481499375
1287.0,0.2076783636484265
1286.0,0.2137456042102197
1285.0,0.2196826878598488
1284.0,0.22548303427145044
1283.0,0.2312139530919859
1282.0,0.23679669962922834
1281.0,0.24245214653075609
1280.0,0.24848994972995864
1279.0,0.2547690154718594
1278.0,0.2612194415156308
1277.0,0.26825011647273667
1276.0,0.2761340355564963
1275.0,0.2850000325879576
1274.0,0.2949063894521269
1273.0,0.30618514611058334
1272.0,0.31921138849331765
1271.0,0.3337629041041956
1270.0,0.3495953301319683
1269.0,0.36683464631609675
1268.0,0.38541913300251385
1267.0,0.4050552633049167
1266.0,0.4249276742861876
1265.0,0.44478459487392685
1264.0,0.4644527208233322
1263.0,0.48333244090095717
1262.0,0.5005878743277246
1261.0,0.5162701009999762
1260.0,0.5306198641500748
1259.0,0.5430269863641821
1258.0,0.5534628329263562
1257.0,0.5630426693305504
1256.0,0.5731635461964919
1255.0,0.584025588623434
1254.0,0.595850750790305
1253.0,0.6094181214495646
1252.0,0.6258017420709172
1251.0,0.6439741428068773
1250.0,0.6629402736794754
1249.0,0.6829818989518885
1248.0,0.7035542057936037
1247.0,0.7235381958267559
1246.0,0.7408841558149337
1245.0,0.7557228791981572
1244.0,0.7675121336470139
1243.0,0.7744322865605291
1242.0,0.7741740085381066
1241.0,0.7677664788852663
1240.0,0.7564658981679382
1239.0,0.7401673009365164
1238.0,0.7194216296319238
1237.0,0.6959405337824007
1236.0,0.6712127996454653
1235.0,0.645891560852599
1234.0,0.62015082123717
1233.0,0.5953372991262778
1232.0,0.5723516288130674
1231.0,0.5509846836522136
1230.0,0.5307672574933879
1229.0,0.5122961368362737
1228.0,0.4953932293580463
1227.0,0.4799096718871576
1226.0,0.4653394241715556
1225.0,0.45197930509446893
1224.0,0.43997375108710757
1223.0,0.4285240963180563
1222.0,0.41748211639593746
1221.0,0.40660315769979327
1220.0,0.39609816826832867
1219.0,0.38584129049082483
1218.0,0.37540854087315223
1217.0,0.3651198592334737
1216.0,0.3549709352788575
1215.0,0.3451499094386059
1214.0,0.3355460714188425
1213.0,0.32651830292665274
1212.0,0.31812587787135316
1211.0,0.3101585908624953
1210.0,0.3025962767995123
1209.0,0.29542055030370085
1208.0,0.2886990400838343
1207.0,0.28216313251307445
1206.0,0.27580608048567035
1205.0,0.26970233790285025
1204.0,0.2640021159082062
1203.0,0.2585332382302452
1202.0,0.25313237214957063
1201.0,0.24795155218056153
1200.0,0.24283180778572744
1199.0,0.2379219126653609
1198.0,0.23321548450214102
1197.0,0.22870655737094037
1196.0,0.2243895519936392
1195.0,0.22011503680735567
1194.0,0.21573941743391623
1193.0,0.21140744407964052
1192.0,0.20725821416525125
1191.0,0.20342566678957041
1190.0,0.19983300979863605
1189.0,0.19654288435158618
1188.0,0.1934808659192948
1187.0,0.19057497120296585
1186.0,0.1878891587969005
1185.0,0.18561920553006184
1184.0,0.1838913292600961
1183.0,0.1827652695745019
1182.0,0.1821703002543944
1181.0,0.18197215814074386
1180.0,0.18223636771963214
1179.0,0.18269912160667867
1178.0,0.1832285876666535
1177.0,0.18369240056806024
1176.0,0.1840903491132253
1175.0,0.18422307970163732
1174.0,0.1838250095711984
1173.0,0.1827652695745019
1172.0,0.18091692425629735
1171.0,0.17809362264767703
1170.0,0.17457388223217696
1169.0,0.17056756638240134
1168.0,0.16647041824135633
1167.0,0.16247469055039865
1166.0,0.158765704493959
1165.0,0.15552282425431851
1164.0,0.15279763601907614
1163.0,0.15051916275601385
1162.0,0.14861933203440336
1161.0,0.14703230897118158
1160.0,0.1456939581989194
1159.0,0.14448084433219988
1158.0,0.14345235514325205
1157.0,0.1425468829647336
1156.0,0.1419442819496357
1155.0,0.1415229581866595
1154.0,0.14140265500530758
1153.0,0.14164329470222659
1152.0,0.1423660148499919
1151.0,0.14357322752975565
1150.0,0.14514763758216587
1149.0,0.1471541819850033
1148.0,0.1497214474819628
1147.0,0.15267416921457633
1146.0,0.15602015552184012
1145.0,0.15976840504189105
1144.0,0.16405589990615188
1143.0,0.16896251435997467
1142.0,0.17444406770964305
1141.0,0.18052187163787736
1140.0,0.18735398376688117
1139.0,0.19477108579657387
1138.0,0.2028710122034474
1137.0,0.21176090261783198
1136.0,0.2216316566441261
1135.0,0.23254728190222673
1134.0,0.2445062715848807
1133.0,0.25758911941950746
1132.0,0.27180860141005336
1131.0,0.28676153845433827
1130.0,0.302160631781637
1129.0,0.3178549236261683
1128.0,0.3338565727084417
1127.0,0.34988683555642863
1126.0,0.3656235059116322
1125.0,0.3810110796350663
1124.0,0.3963144503853002
1123.0,0.411056357259985
1122.0,0.42481215507233894
1121.0,0.43735032778808325
1120.0,0.4484280263257463
1119.0,0.4571745730408201
1118.0,0.4628107737563554
1117.0,0.4653394241715556
1116.0,0.46483251488505584
1115.0,0.4618034216505458
1114.0,0.4571745730408201
1113.0,0.4532106483687419
1112.0,0.45173345482925464
1111.0,0.45333397492981575
1110.0,0.45854557125241113
1109.0,0.4673729987711088
1108.0,0.48030323284014687
1107.0,0.496209316942819
1106.0,0.5141366704026653
1105.0,0.5331323796458904
1104.0,0.5525318690502443
1103.0,0.5712174885030454
1102.0,0.5882119954561311
1101.0,0.6031035508574762
1100.0,0.6161846340195687
1099.0,0.6267201067225039
1098.0,0.6339507901997645
1097.0,0.6380833813313567
1096.0,0.6399749108106025
1095.0,0.63921731012672
1094.0,0.6354490046460282
1093.0,0.6289321377282637
1092.0,0.6203319659663462
1091.0,0.6101254416090145
1090.0,0.5987718325018869
1089.0,0.5872035712834567
1088.0,0.5760990814715834
1087.0,0.5647928967592524
1086.0,0.5529971015338377
1085.0,0.5413621509743507
1084.0,0.5300307905000405
1083.0,0.518557371497695
1082.0,0.5064025509994732
1081.0,0.4934949675951279
1080.0,0.48017200622428113
1079.0,0.4664821379830326
1078.0,0.45247142354021785
1077.0,0.4386600585410987
1076.0,0.42550573171467243
1075.0,0.41273815030746586
1074.0,0.40033522121158316
1073.0,0.38880793913156575
1072.0,0.37830453767072125
1071.0,0.36845477216569056
1070.0,0.3589226866746258
1069.0,0.34978964533964096
1068.0,0.34122567915564317
1067.0,0.3332948638801012
1066.0,0.32605800136591223
1065.0,0.3195738291418546
1064.0,0.31398970868471454
1063.0,0.3086532358651781
1062.0,0.30346888003039285
1061.0,0.2984320149440727
1060.0,0.2937944581180294
1059.0,0.2893749849392031
1058.0,0.28533500713746296
1057.0,0.2818305946086932
1056.0,0.27909682918654255
1055.0,0.2771193893130608
1054.0,0.2755602766029255
1053.0,0.2744967311406845
1052.0,0.27384353382724513
1051.0,0.2733542797590882
1050.0,0.2730284163171235
1049.0,0.27294698864614264
1048.0,0.2732727909734278
1047.0,0.27368038788922466
1046.0,0.2739251297846299
1045.0,0.27400674107527756
1044.0,0.27400674107527756
1043.0,0.27400674107527756
1042.0,0.2735988378970775
1041.0,0.27270279719641266
1040.0,0.2712405248321257
1039.0,0.2692177243336109
1038.0,0.26664221207441474
1037.0,0.26408188346870287
1036.0,0.2615365605380475
1035.0,0.2589272276266785
1034.0,0.25617677839624964
1033.0,0.25336580106242135
1032.0,0.2506502394025234
1031.0,0.24802842526367286
1030.0,0.24557521072274135
1029.0,0.2440489589958681
1028.0,0.24458253718906375
1027.0,0.24841299491768987
1026.0,0.25649023527157033
1025.0,0.2690563065722642
1024.0,0.2860057323393561
1023.0,0.3064489144040865
1022.0,0.3296613588725579
1021.0,0.3549709352788575
1020.0,0.38142897187987024
1019.0,0.40604970473601254
1018.0,0.42458120878564
1017.0,0.4333268623938835
1016.0,0.4302750507738411
1015.0,0.41680122603137737
1014.0,0.3964226318485333
1013.0,0.3738650213646113
1012.0,0.35291057128344505
1011.0,0.33517005885690954
1010.0,0.32066296947920603
1009.0,0.3090069679001306
1008.0,0.2994693430214084
1007.0,0.291324207273463
1006.0,0.2844980547067162
1005.0,0.2788491562503159
1004.0,0.2743333396858214
1003.0,0.2704302736980302
1002.0,0.2668830185579356
1001.0,0.26360349772335767
1000.0,0.26058589730130466
999.0,0.25790359769675564
998.0,0.2555505425532014
997.0,0.25336580106242135
996.0,0.25142438306900816
995.0,0.24964591123729196
994.0,0.24787469270210183
993.0,0.24626377782498987
992.0,0.24496406623222855
991.0,0.24389662841489446
990.0,0.2430597639532759
989.0,0.24245214653075609
988.0,0.24199699070020086
987.0,0.2415423113895343
986.0,0.24116377525304178
985.0,0.24101245313238073
984.0,0.241315150117559
983.0,0.24214865631442017
982.0,0.2432878398352285
981.0,0.24473510858775338
980.0,0.2465701584245772
979.0,0.24856691818065246
978.0,0.2506502394025234
977.0,0.25282132863983553
976.0,0.25515960321462083
975.0,0.25758911941950746
974.0,0.25955835505023406
973.0,0.2612194415156308
972.0,0.2622509261084429
971.0,0.26256879948541756
970.0,0.26217149410421525
969.0,0.2610609687965204
968.0,0.2596373105057561
967.0,0.25790359769675564
966.0,0.25570701687732367
965.0,0.2532101678473877
964.0,0.2506502394025234
963.0,0.24810531195625263
962.0,0.2454987706130829
961.0,0.2430597639532759
960.0,0.24070996697569602
959.0,0.23837281543841726
958.0,0.23589862352377122
957.0,0.2336615247487126
956.0,0.23158391178366822
955.0,0.22981097726400668
954.0,0.2280452510360509
953.0,0.22635980673997413
952.0,0.22482661457521314
951.0,0.22337144657984997
950.0,0.22184874961635637
949.0,0.22047565667521019
948.0,0.21910689131292105
947.0,0.2178141335079835
946.0,0.21652521241775347
945.0,0.21538270736712462
944.0,0.21452779669361166
943.0,0.21381665443236653
942.0,0.2130357405642671
941.0,0.2121146490590755
940.0,0.21126614117229248
939.0,0.2104897959097456
938.0,0.20978522975602076
937.0,0.2090818047854217
936.0,0.20823919598709506
935.0,0.20732821085843267
934.0,0.20641913263184408
933.0,0.20558166912585896
932.0,0.20481541031757589
931.0,0.20391157131933157
930.0,0.20280173016104097
929.0,0.2016256233184388
928.0,0.20059052038487324
927.0,0.19962664510865036
926.0,0.19866490432545336
925.0,0.19777376230892996
924.0,0.1969527895088714
923.0,0.19620159201032594
922.0,0.19545169161194398
921.0,0.19470308384201496
920.0,0.19388788983090888
919.0,0.192938760082761
918.0,0.19192413190869306
917.0,0.1910467008440888
916.0,0.19037295810595034
915.0,0.18983471545685027
914.0,0.18929713905288326
913.0,0.18882730493344568
912.0,0.18842499412940672
911.0,0.18815699382352258
910.0,0.188023055663046
909.0,0.18829097330380895
908.0,0.18882730493344568
907.0,0.18936429972446267
906.0,0.18983471545685027
905.0,0.19037295810595034
904.0,0.19111413264018795
903.0,0.1919917000896001
902.0,0.19273564472389304
901.0,0.19334527600813955
900.0,0.19382002601611292
899.0,0.19422736806433094
898.0,0.1944311824514442
897.0,0.1944311824514442
896.0,0.19409154492580294
895.0,0.1932097284159331
894.0,0.1919917000896001
893.0,0.19077707831057822
892.0,0.18970025895983111
891.0,0.18869315991866387
890.0,0.18742084459095332
889.0,0.18615224577114575
888.0,0.18521985425419518
887.0,0.1847544080834369
886.0,0.1850203162392432
885.0,0.1862189218259176
884.0,0.1885590563258419
883.0,0.19239733008350535
882.0,0.19784224681303852
881.0,0.20488501436963658
880.0,0.21317762050081246
879.0,0.22264568691579112
878.0,0.23299263605019593
877.0,0.2448114143916751
876.0,0.258612007520731
875.0,0.27482369858086275
874.0,0.29242982390206373
873.0,0.30883006586839623
872.0,0.3203904282202441
871.0,0.3239468753481285
870.0,0.31939257100821217
869.0,0.30953810675382165
868.0,0.2979142785641751
867.0,0.2868455981627016
866.0,0.2773660774661879
865.0,0.2696215314123571
864.0,0.26360349772335767
863.0,0.25900606841511387
862.0,0.2553159367231137
861.0,0.2523551806717519
860.0,0.2499546879882324
859.0,0.24802842526367286
858.0,0.24641694110709333
857.0,0.24526953097624649
856.0,0.24473510858775338
855.0,0.24473510858775338
854.0,0.24496406623222855
853.0,0.24542234395526963
852.0,0.24641694110709333
851.0,0.24795155218056153
850.0,0.2500319164905971
849.0,0.25219990913563106
848.0,0.25391095694379984
847.0,0.2547690154718594
846.0,0.25445679800197585
845.0,0.2534436385896308
844.0,0.2521222941802099
843.0,0.25041826513444065
842.0,0.24833605373901335
841.0,0.2461106685401666
840.0,0.24389662841489446
839.0,0.24184537803260997
838.0,0.2399546720341894
837.0,0.23807216157947098
836.0,0.23604817396667577
835.0,0.23388471677858602
834.0,0.23150989482875484
833.0,0.22929523178422073
832.0,0.22723835285596783
831.0,0.2251182341812037
830.0,0.2228632874958274
829.0,0.2206199885083442
828.0,0.2187474057515435
827.0,0.21731243176503368
826.0,0.2159535841918867
825.0,0.21452779669361166
824.0,0.21310667473868428
823.0,0.21176090261783198
822.0,0.21027830601907826
821.0,0.2087305190897315
820.0,0.20732821085843267
819.0,0.20613979865733034
818.0,0.20509389348319607
817.0,0.20418947533259169
816.0,0.20349504844670374
815.0,0.20280173016104097
814.0,0.20210951694165114
813.0,0.20141840527145227
812.0,0.200797343699475
811.0,0.200246033588114
810.0,0.19955787866374353
809.0,0.19866490432545336
808.0,0.19756837356927637
807.0,0.19640633522865558
806.0,0.19538358301274483
805.0,0.1946350925335547
804.0,0.19395576425191186
803.0,0.192938760082761
802.0,0.19158644859963192
801.0,0.19017103893211385
800.0,0.18889439298206967
799.0,0.18809001957990112
798.0,0.18822397839709626
797.0,0.189767482004916
796.0,0.1928033392890527
795.0,0.19647460442346754
794.0,0.19997064075586568
793.0,0.20231706508510094
792.0,0.20307892466983124
791.0,0.20204035626280392
790.0,0.1994203784308699
789.0,0.19613336571501572
788.0,0.192938760082761
787.0,0.18983471545685027
786.0,0.18681946741398825
785.0,0.1838913292600961
784.0,0.1811804924524636
783.0,0.17861750025270084
782.0,0.17600440884403223
781.0,0.17340694606595197
780.0,0.17095366314681737
779.0,0.16857818293497795
778.0,0.16627930955536674
777.0,0.16399254087446846
776.0,0.16178077809237412
775.0,0.15970566838856382
774.0,0.15776531365276036
773.0,0.15564710368910672
772.0,0.1532918545439932
771.0,0.15076490868527737
770.0,0.14813039927023364
769.0,0.14551177495556966
768.0,0.14296920172737604
767.0,0.14038142122781938
766.0,0.13763006287711765
765.0,0.13471831500438958
764.0,0.1316495003520317
763.0,0.12842706445412122
762.0,0.12517042212027807
761.0,0.1219955297319748
760.0,0.11878658374498086
759.0,0.11554450392951199
758.0,0.11249522576462212
757.0,0.10980261378997125
756.0,0.10740457717110186
755.0,0.10463271122663809
754.0,0.10127481841050656
753.0,0.0975619438013351
752.0,0.09393445524476318
751.0,0.09076499663169257
750.0,0.08804381092731295
749.0,0.08555105930144569
748.0,0.08312512146131668
747.0,0.08076496207674921
746.0,0.07867775641617802
745.0,0.07727454200674
744.0,0.07675598136972361
743.0,0.07743023101428781
742.0,0.07987667370927598
741.0,0.08496970974083906
740.0,0.0935572061829677
739.0,0.10601643278815298
738.0,0.12228319913502328
737.0,0.14212497447643746
736.0,0.16500739626697003
735.0,0.19030564128307614
734.0,0.21759904750347014
733.0,0.24664678735850387
732.0,0.2772016031290947
731.0,0.30909544594503346
730.0,0.34275287011628364
729.0,0.37944755527056473
728.0,0.4191890273390537
727.0,0.45992091119582734
726.0,0.4970269409343686
725.0,0.5260753065838426
724.0,0.5442417968958633
723.0,0.5506759069012732
722.0,0.5482135644757098
721.0,0.5409092103994135
720.0,0.5322439487559671
719.0,0.5233132570543553
718.0,0.5142785735184199
717.0,0.5054280157698015
716.0,0.49716336137899697
715.0,0.4889191544608815
714.0,0.4804344991194909
713.0,0.4721124340472953
712.0,0.4644527208233322
711.0,0.4571745730408201
710.0,0.45038376048091466
709.0,0.4440595621814889
708.0,0.43842163169903947
707.0,0.43297363384093956
706.0,0.42736070295718664
705.0,0.42181939037222205
704.0,0.4169146336523124
703.0,0.4120646513636439
702.0,0.407046428452134
701.0,0.40197592766581036
700.0,0.39674733801835327
699.0,0.39104630072413715
698.0,0.384681343388521
697.0,0.37809703910876946
696.0,0.3719177390093207
695.0,0.36632959394855624
694.0,0.3610118406563181
693.0,0.3561526897002858
692.0,0.35163998901906846
691.0,0.34746358140697464
690.0,0.3435184842095014
689.0,0.34017884194429504
688.0,0.3373365904259624
687.0,0.334606649720288
686.0,0.33170728955177897
685.0,0.3289197672611506
684.0,0.32679471822095474
683.0,0.32495526404410735
682.0,0.3228494787265672
681.0,0.32066296947920603
680.0,0.3186682940308343
679.0,0.31677279395856517
678.0,0.3149752148942859
677.0,0.31363189652696377
676.0,0.31273865375649357
675.0,0.3114022249188302
674.0,0.3091839420190845
673.0,0.3064489144040865
672.0,0.3033815407677751
671.0,0.2984320149440727
670.0,0.2898826348881838
669.0,0.27785987454258443
668.0,0.2688142923659995
667.0,0.27188981589965944
666.0,0.2811662816961378
665.0,0.2868455981627016
664.0,0.2881084501194211
663.0,0.28667749501297246
662.0,0.2844980547067162
661.0,0.2827456872374503
660.0,0.2818305946086932
659.0,0.28133226468378925
658.0,0.28058584029740663
657.0,0.2794272796357391
656.0,0.27777753603026967
655.0,0.2753146117626406
654.0,0.27262143054851107
653.0,0.2705922030369319
652.0,0.26970233790285025
651.0,0.2695407399542311
650.0,0.26945996352288093
649.0,0.2695407399542311
648.0,0.26937920211271726
647.0,0.26825011647273667
646.0,0.2663213443229122
645.0,0.26440110030182007
644.0,0.26320524507563947
643.0,0.26256879948541756
642.0,0.2624098337142784
641.0,0.2629664686661224
640.0,0.264241462556261
639.0,0.26536016101230064
638.0,0.2658404867555333
637.0,0.2668830185579356
636.0,0.26970233790285025
635.0,0.2735173032151703
634.0,0.2755602766029255
633.0,0.27466018409026294
632.0,0.27180860141005336
631.0,0.2687336509245084
630.0,0.2659205927194057
629.0,0.26336450231317876
628.0,0.26058589730130466
627.0,0.25758911941950746
626.0,0.25500332596143993
625.0,0.25359935550843904
624.0,0.25336580106242135
623.0,0.25313237214957063
622.0,0.25204469309327027
621.0,0.2506502394025234
620.0,0.24972308484600725
619.0,0.24926024876464936
618.0,0.24918315735024543
617.0,0.24964591123729196
616.0,0.2511145599904834
615.0,0.25282132863983553
614.0,0.25391095694379984
613.0,0.2536772349100471
612.0,0.25266589038409504
611.0,0.2512694439015055
610.0,0.25026368443093894
609.0,0.25026368443093894
608.0,0.2505729008782511
607.0,0.2499546879882324
606.0,0.24810531195625263
605.0,0.2461106685401666
604.0,0.24488773360492888
603.0,0.2439727870265589
602.0,0.24245214653075609
601.0,0.24063437834407142
600.0,0.23920068836928232
