cm-1,A
4000.0,0.0173
3999.0,0.0173
3998.0,0.0173
3997.0,0.0174
3996.0,0.0175
3995.0,0.0176
3994.0,0.0176
3993.0,0.0176
3992.0,0.0176
3991.0,0.0176
3990.0,0.0176
3989.0,0.0176
3988.0,0.0177
3987.0,0.0177
3986.0,0.0178
3985.0,0.0178
3984.0,0.0179
3983.0,0.0178
3982.0,0.0178
3981.0,0.0177
3980.0,0.0177
3979.0,0.0178
3978.0,0.0178
3977.0,0.0178
3976.0,0.0178
3975.0,0.0176
3974.0,0.0175
3973.0,0.0175
3972.0,0.0175
3971.0,0.0175
3970.0,0.0175
3969.0,0.0175
3968.0,0.0175
3967.0,0.0175
3966.0,0.0175
3965.0,0.0176
3964.0,0.0176
3963.0,0.0176
3962.0,0.0177
3961.0,0.0177
3960.0,0.0178
3959.0,0.0179
3958.0,0.0178
3957.0,0.0177
3956.0,0.0176
3955.0,0.0175
3954.0,0.0174
3953.0,0.0174
3952.0,0.0174
3951.0,0.0175
3950.0,0.0176
3949.0,0.0176
3948.0,0.0176
3947.0,0.0176
3946.0,0.0176
3945.0,0.0175
3944.0,0.0175
3943.0,0.0175
3942.0,0.0176
3941.0,0.0176
3940.0,0.0177
3939.0,0.0179
3938.0,0.018
3937.0,0.018
3936.0,0.0179
3935.0,0.0178
3934.0,0.0177
3933.0,0.0176
3932.0,0.0175
3931.0,0.0175
3930.0,0.0175
3929.0,0.0175
3928.0,0.0175
3927.0,0.0176
3926.0,0.0176
3925.0,0.0176
3924.0,0.0175
3923.0,0.0174
3922.0,0.0174
3921.0,0.0174
3920.0,0.0175
3919.0,0.0175
3918.0,0.0176
3917.0,0.0178
3916.0,0.0178
3915.0,0.0179
3914.0,0.0179
3913.0,0.0179
3912.0,0.0179
3911.0,0.0179
3910.0,0.0178
3909.0,0.0177
3908.0,0.0174
3907.0,0.0172
3906.0,0.0171
3905.0,0.0171
3904.0,0.0171
3903.0,0.0172
3902.0,0.0174
3901.0,0.0176
3900.0,0.0177
3899.0,0.0177
3898.0,0.0177
3897.0,0.0177
3896.0,0.0178
3895.0,0.0178
3894.0,0.0177
3893.0,0.0178
3892.0,0.0179
3891.0,0.0179
3890.0,0.0178
3889.0,0.0179
3888.0,0.018
3887.0,0.0181
3886.0,0.0179
3885.0,0.0176
3884.0,0.0174
3883.0,0.0175
3882.0,0.0178
3881.0,0.0179
3880.0,0.0178
3879.0,0.0176
3878.0,0.0176
3877.0,0.0177
3876.0,0.0178
3875.0,0.0177
3874.0,0.0174
3873.0,0.0172
3872.0,0.0173
3871.0,0.0176
3870.0,0.0177
3869.0,0.0175
3868.0,0.0174
3867.0,0.0175
3866.0,0.0175
3865.0,0.0175
3864.0,0.0176
3863.0,0.0177
3862.0,0.0179
3861.0,0.0179
3860.0,0.0179
3859.0,0.0178
3858.0,0.0177
3857.0,0.0175
3856.0,0.0175
3855.0,0.0177
3854.0,0.018
3853.0,0.0178
3852.0,0.0176
3851.0,0.0178
3850.0,0.0181
3849.0,0.0183
3848.0,0.0183
3847.0,0.0182
3846.0,0.0182
3845.0,0.0182
3844.0,0.0181
3843.0,0.0179
3842.0,0.0176
3841.0,0.0173
3840.0,0.0172
3839.0,0.0172
3838.0,0.0173
3837.0,0.0173
3836.0,0.0173
3835.0,0.0174
3834.0,0.0177
3833.0,0.018
3832.0,0.0182
3831.0,0.0183
3830.0,0.0183
3829.0,0.0183
3828.0,0.0183
3827.0,0.0183
3826.0,0.0181
3825.0,0.0179
3824.0,0.0179
3823.0,0.0179
3822.0,0.018
3821.0,0.0179
3820.0,0.0176
3819.0,0.0177
3818.0,0.018
3817.0,0.0182
3816.0,0.0182
3815.0,0.0181
3814.0,0.0182
3813.0,0.0184
3812.0,0.0185
3811.0,0.0185
3810.0,0.0184
3809.0,0.0184
3808.0,0.0185
3807.0,0.0184
3806.0,0.0181
3805.0,0.0179
3804.0,0.0178
3803.0,0.0178
3802.0,0.0178
3801.0,0.0177
3800.0,0.0176
3799.0,0.0179
3798.0,0.0183
3797.0,0.0185
3796.0,0.0185
3795.0,0.0185
3794.0,0.0186
3793.0,0.0188
3792.0,0.0189
3791.0,0.0189
3790.0,0.0189
3789.0,0.0189
3788.0,0.0189
3787.0,0.0189
3786.0,0.0189
3785.0,0.0189
3784.0,0.0188
3783.0,0.0187
3782.0,0.0186
3781.0,0.0187
3780.0,0.0188
3779.0,0.0188
3778.0,0.0188
3777.0,0.0189
3776.0,0.0189
3775.0,0.0189
3774.0,0.0189
3773.0,0.0188
3772.0,0.0189
3771.0,0.0189
3770.0,0.0189
3769.0,0.0188
3768.0,0.0188
3767.0,0.0189
3766.0,0.0189
3765.0,0.0188
3764.0,0.0187
3763.0,0.0187
3762.0,0.0187
3761.0,0.0187
3760.0,0.0186
3759.0,0.0185
3758.0,0.0184
3757.0,0.0183
3756.0,0.0182
3755.0,0.0181
3754.0,0.0178
3753.0,0.0175
3752.0,0.0173
3751.0,0.0174
3750.0,0.0175
3749.0,0.0175
3748.0,0.0177
3747.0,0.0182
3746.0,0.0186
3745.0,0.0187
3744.0,0.0183
3743.0,0.0179
3742.0,0.0178
3741.0,0.0178
3740.0,0.0176
3739.0,0.0173
3738.0,0.0171
3737.0,0.017
3736.0,0.017
3735.0,0.0172
3734.0,0.0174
3733.0,0.0176
3732.0,0.0177
3731.0,0.0178
3730.0,0.0179
3729.0,0.018
3728.0,0.018
3727.0,0.0179
3726.0,0.0179
3725.0,0.0179
3724.0,0.0181
3723.0,0.0184
3722.0,0.0185
3721.0,0.0185
3720.0,0.0185
3719.0,0.0186
3718.0,0.0187
3717.0,0.0187
3716.0,0.0187
3715.0,0.0186
3714.0,0.0183
3713.0,0.0179
3712.0,0.0177
3711.0,0.0176
3710.0,0.0176
3709.0,0.0178
3708.0,0.0181
3707.0,0.0182
3706.0,0.0183
3705.0,0.0184
3704.0,0.0186
3703.0,0.0188
3702.0,0.0189
3701.0,0.0189
3700.0,0.0188
3699.0,0.0187
3698.0,0.0187
3697.0,0.0186
3696.0,0.0184
3695.0,0.0183
3694.0,0.0182
3693.0,0.018
3692.0,0.0179
3691.0,0.0179
3690.0,0.018
3689.0,0.0182
3688.0,0.0183
3687.0,0.0185
3686.0,0.0187
3685.0,0.0189
3684.0,0.019
3683.0,0.0189
3682.0,0.0188
3681.0,0.0187
3680.0,0.0186
3679.0,0.0184
3678.0,0.0182
3677.0,0.0182
3676.0,0.0183
3675.0,0.018
3674.0,0.0178
3673.0,0.018
3672.0,0.0183
3671.0,0.0186
3670.0,0.0188
3669.0,0.0187
3668.0,0.0188
3667.0,0.0189
3666.0,0.0191
3665.0,0.0192
3664.0,0.0193
3663.0,0.0194
3662.0,0.0194
3661.0,0.0193
3660.0,0.0193
3659.0,0.0193
3658.0,0.0194
3657.0,0.0195
3656.0,0.0195
3655.0,0.0193
3654.0,0.019
3653.0,0.0188
3652.0,0.0185
3651.0,0.0185
3650.0,0.0187
3649.0,0.0189
3648.0,0.0188
3647.0,0.0188
3646.0,0.0191
3645.0,0.0194
3644.0,0.0196
3643.0,0.0197
3642.0,0.0196
3641.0,0.0195
3640.0,0.0195
3639.0,0.0194
3638.0,0.0194
3637.0,0.0194
3636.0,0.0195
3635.0,0.0195
3634.0,0.0194
3633.0,0.0192
3632.0,0.019
3631.0,0.0189
3630.0,0.0191
3629.0,0.0193
3628.0,0.0193
3627.0,0.0194
3626.0,0.0196
3625.0,0.0199
3624.0,0.02
3623.0,0.02
3622.0,0.0199
3621.0,0.0199
3620.0,0.02
3619.0,0.02
3618.0,0.0199
3617.0,0.0199
3616.0,0.0199
3615.0,0.02
3614.0,0.0201
3613.0,0.0201
3612.0,0.0201
3611.0,0.0201
3610.0,0.0202
3609.0,0.0202
3608.0,0.0201
3607.0,0.0201
3606.0,0.02
3605.0,0.02
3604.0,0.02
3603.0,0.02
3602.0,0.0201
3601.0,0.0202
3600.0,0.0202
3599.0,0.0202
3598.0,0.0202
3597.0,0.0202
3596.0,0.0202
3595.0,0.0203
3594.0,0.0204
3593.0,0.0204
3592.0,0.0203
3591.0,0.0203
3590.0,0.0203
3589.0,0.0204
3588.0,0.0206
3587.0,0.0206
3586.0,0.0206
3585.0,0.0207
3584.0,0.0209
3583.0,0.0211
3582.0,0.0212
3581.0,0.0212
3580.0,0.0212
3579.0,0.0212
3578.0,0.0213
3577.0,0.0214
3576.0,0.0215
3575.0,0.0215
3574.0,0.0214
3573.0,0.0213
3572.0,0.0212
3571.0,0.0211
3570.0,0.021
3569.0,0.021
3568.0,0.0211
3567.0,0.0212
3566.0,0.0212
3565.0,0.0213
3564.0,0.0214
3563.0,0.0216
3562.0,0.0217
3561.0,0.0218
3560.0,0.0219
3559.0,0.022
3558.0,0.022
3557.0,0.0221
3556.0,0.0221
3555.0,0.022
3554.0,0.0219
3553.0,0.0219
3552.0,0.0219
3551.0,0.0219
3550.0,0.0219
3549.0,0.0219
3548.0,0.0219
3547.0,0.022
3546.0,0.022
3545.0,0.0219
3544.0,0.022
3543.0,0.0221
3542.0,0.0222
3541.0,0.0223
3540.0,0.0223
3539.0,0.0223
3538.0,0.0223
3537.0,0.0224
3536.0,0.0224
3535.0,0.0223
3534.0,0.0223
3533.0,0.0223
3532.0,0.0223
3531.0,0.0223
3530.0,0.0223
3529.0,0.0223
3528.0,0.0224
3527.0,0.0224
3526.0,0.0224
3525.0,0.0223
3524.0,0.0223
3523.0,0.0223
3522.0,0.0223
3521.0,0.0223
3520.0,0.0224
3519.0,0.0225
3518.0,0.0226
3517.0,0.0227
3516.0,0.0227
3515.0,0.0227
3514.0,0.0226
3513.0,0.0225
3512.0,0.0224
3511.0,0.0223
3510.0,0.0223
3509.0,0.0223
3508.0,0.0223
3507.0,0.0222
3506.0,0.0221
3505.0,0.0221
3504.0,0.0222
3503.0,0.0224
3502.0,0.0225
3501.0,0.0226
3500.0,0.0228
3499.0,0.0228
3498.0,0.0229
3497.0,0.0229
3496.0,0.023
3495.0,0.023
3494.0,0.023
3493.0,0.023
3492.0,0.0231
3491.0,0.0232
3490.0,0.0232
3489.0,0.0232
3488.0,0.0231
3487.0,0.023
3486.0,0.0229
3485.0,0.0229
3484.0,0.0229
3483.0,0.0229
3482.0,0.0229
3481.0,0.023
3480.0,0.0231
3479.0,0.0232
3478.0,0.0233
3477.0,0.0234
3476.0,0.0234
3475.0,0.0234
3474.0,0.0234
3473.0,0.0233
3472.0,0.0233
3471.0,0.0232
3470.0,0.0232
3469.0,0.0232
3468.0,0.0233
3467.0,0.0233
3466.0,0.0233
3465.0,0.0233
3464.0,0.0233
3463.0,0.0234
3462.0,0.0235
3461.0,0.0236
3460.0,0.0236
3459.0,0.0236
3458.0,0.0237
3457.0,0.0237
3456.0,0.0237
3455.0,0.0237
3454.0,0.0237
3453.0,0.0236
3452.0,0.0236
3451.0,0.0235
3450.0,0.0234
3449.0,0.0234
3448.0,0.0233
3447.0,0.0233
3446.0,0.0232
3445.0,0.0232
3444.0,0.0232
3443.0,0.0233
3442.0,0.0233
3441.0,0.0234
3440.0,0.0235
3439.0,0.0236
3438.0,0.0237
3437.0,0.0237
3436.0,0.0236
3435.0,0.0235
3434.0,0.0235
3433.0,0.0236
3432.0,0.0237
3431.0,0.0237
3430.0,0.0237
3429.0,0.0237
3428.0,0.0237
3427.0,0.0237
3426.0,0.0236
3425.0,0.0236
3424.0,0.0234
3423.0,0.0233
3422.0,0.0232
3421.0,0.0232
3420.0,0.0232
3419.0,0.0233
3418.0,0.0234
3417.0,0.0235
3416.0,0.0235
3415.0,0.0235
3414.0,0.0235
3413.0,0.0235
3412.0,0.0236
3411.0,0.0236
3410.0,0.0236
3409.0,0.0235
3408.0,0.0235
3407.0,0.0235
3406.0,0.0235
3405.0,0.0235
3404.0,0.0234
3403.0,0.0234
3402.0,0.0234
3401.0,0.0234
3400.0,0.0235
3399.0,0.0235
3398.0,0.0235
3397.0,0.0234
3396.0,0.0234
3395.0,0.0235
3394.0,0.0236
3393.0,0.0237
3392.0,0.0236
3391.0,0.0235
3390.0,0.0234
3389.0,0.0233
3388.0,0.0233
3387.0,0.0234
3386.0,0.0233
3385.0,0.0233
3384.0,0.0233
3383.0,0.0234
3382.0,0.0235
3381.0,0.0235
3380.0,0.0236
3379.0,0.0235
3378.0,0.0234
3377.0,0.0233
3376.0,0.0233
3375.0,0.0233
3374.0,0.0234
3373.0,0.0234
3372.0,0.0234
3371.0,0.0234
3370.0,0.0235
3369.0,0.0236
3368.0,0.0237
3367.0,0.0237
3366.0,0.0237
3365.0,0.0236
3364.0,0.0234
3363.0,0.0233
3362.0,0.0233
3361.0,0.0233
3360.0,0.0234
3359.0,0.0234
3358.0,0.0234
3357.0,0.0235
3356.0,0.0235
3355.0,0.0235
3354.0,0.0235
3353.0,0.0234
3352.0,0.0234
3351.0,0.0233
3350.0,0.0232
3349.0,0.0231
3348.0,0.0232
3347.0,0.0233
3346.0,0.0234
3345.0,0.0235
3344.0,0.0235
3343.0,0.0235
3342.0,0.0235
3341.0,0.0235
3340.0,0.0235
3339.0,0.0234
3338.0,0.0233
3337.0,0.0232
3336.0,0.0231
3335.0,0.023
3334.0,0.0231
3333.0,0.0232
3332.0,0.0233
3331.0,0.0233
3330.0,0.0234
3329.0,0.0234
3328.0,0.0234
3327.0,0.0234
3326.0,0.0235
3325.0,0.0235
3324.0,0.0236
3323.0,0.0237
3322.0,0.0237
3321.0,0.0236
3320.0,0.0236
3319.0,0.0235
3318.0,0.0234
3317.0,0.0234
3316.0,0.0235
3315.0,0.0236
3314.0,0.0236
3313.0,0.0235
3312.0,0.0234
3311.0,0.0233
3310.0,0.0232
3309.0,0.0233
3308.0,0.0233
3307.0,0.0235
3306.0,0.0236
3305.0,0.0236
3304.0,0.0236
3303.0,0.0236
3302.0,0.0236
3301.0,0.0235
3300.0,0.0234
3299.0,0.0234
3298.0,0.0233
3297.0,0.0232
3296.0,0.0231
3295.0,0.0231
3294.0,0.0231
3293.0,0.0231
3292.0,0.0231
3291.0,0.0231
3290.0,0.0232
3289.0,0.0232
3288.0,0.0233
3287.0,0.0233
3286.0,0.0233
3285.0,0.0232
3284.0,0.0232
3283.0,0.0231
3282.0,0.0231
3281.0,0.0231
3280.0,0.023
3279.0,0.0231
3278.0,0.0231
3277.0,0.0232
3276.0,0.0232
3275.0,0.0231
3274.0,0.023
3273.0,0.023
3272.0,0.023
3271.0,0.023
3270.0,0.023
3269.0,0.023
3268.0,0.023
3267.0,0.023
3266.0,0.023
3265.0,0.023
3264.0,0.023
3263.0,0.023
3262.0,0.0229
3261.0,0.0228
3260.0,0.0227
3259.0,0.0227
3258.0,0.0227
3257.0,0.0227
3256.0,0.0226
3255.0,0.0226
3254.0,0.0227
3253.0,0.0227
3252.0,0.0228
3251.0,0.0229
3250.0,0.023
3249.0,0.023
3248.0,0.023
3247.0,0.023
3246.0,0.0228
3245.0,0.0227
3244.0,0.0226
3243.0,0.0225
3242.0,0.0225
3241.0,0.0225
3240.0,0.0224
3239.0,0.0223
3238.0,0.0223
3237.0,0.0222
3236.0,0.0223
3235.0,0.0222
3234.0,0.0222
3233.0,0.0221
3232.0,0.0222
3231.0,0.0223
3230.0,0.0223
3229.0,0.0224
3228.0,0.0225
3227.0,0.0226
3226.0,0.0226
3225.0,0.0226
3224.0,0.0224
3223.0,0.0223
3222.0,0.0222
3221.0,0.0222
3220.0,0.0222
3219.0,0.0222
3218.0,0.0222
3217.0,0.0222
3216.0,0.0222
3215.0,0.0223
3214.0,0.0223
3213.0,0.0222
3212.0,0.0221
3211.0,0.0221
3210.0,0.0221
3209.0,0.0222
3208.0,0.0222
3207.0,0.0221
3206.0,0.022
3205.0,0.0219
3204.0,0.0219
3203.0,0.022
3202.0,0.0221
3201.0,0.0221
3200.0,0.0221
3199.0,0.0221
3198.0,0.022
3197.0,0.0221
3196.0,0.0221
3195.0,0.0222
3194.0,0.0223
3193.0,0.0223
3192.0,0.0222
3191.0,0.0221
3190.0,0.022
3189.0,0.022
3188.0,0.0219
3187.0,0.0219
3186.0,0.0218
3185.0,0.0218
3184.0,0.0219
3183.0,0.0219
3182.0,0.0219
3181.0,0.0219
3180.0,0.022
3179.0,0.022
3178.0,0.0221
3177.0,0.0221
3176.0,0.022
3175.0,0.022
3174.0,0.0219
3173.0,0.0218
3172.0,0.0218
3171.0,0.0218
3170.0,0.0218
3169.0,0.0218
3168.0,0.0219
3167.0,0.0219
3166.0,0.022
3165.0,0.022
3164.0,0.0219
3163.0,0.0219
3162.0,0.0218
3161.0,0.0218
3160.0,0.0218
3159.0,0.0218
3158.0,0.0218
3157.0,0.0218
3156.0,0.0218
3155.0,0.0217
3154.0,0.0217
3153.0,0.0216
3152.0,0.0215
3151.0,0.0214
3150.0,0.0213
3149.0,0.0213
3148.0,0.0213
3147.0,0.0215
3146.0,0.0215
3145.0,0.0216
3144.0,0.0215
3143.0,0.0215
3142.0,0.0214
3141.0,0.0213
3140.0,0.0213
3139.0,0.0212
3138.0,0.021
3137.0,0.0209
3136.0,0.0208
3135.0,0.0209
3134.0,0.021
3133.0,0.021
3132.0,0.021
3131.0,0.021
3130.0,0.0209
3129.0,0.0209
3128.0,0.021
3127.0,0.021
3126.0,0.0211
3125.0,0.0212
3124.0,0.0212
3123.0,0.0213
3122.0,0.0213
3121.0,0.0212
3120.0,0.0211
3119.0,0.0211
3118.0,0.021
3117.0,0.021
3116.0,0.021
3115.0,0.0211
3114.0,0.0213
3113.0,0.0214
3112.0,0.0215
3111.0,0.0216
3110.0,0.0216
3109.0,0.0216
3108.0,0.0218
3107.0,0.0219
3106.0,0.0221
3105.0,0.0223
3104.0,0.0224
3103.0,0.0225
3102.0,0.0225
3101.0,0.0224
3100.0,0.0224
3099.0,0.0223
3098.0,0.0222
3097.0,0.0222
3096.0,0.0221
3095.0,0.0222
3094.0,0.0224
3093.0,0.0227
3092.0,0.023
3091.0,0.0234
3090.0,0.0237
3089.0,0.0241
3088.0,0.0246
3087.0,0.0253
3086.0,0.0261
3085.0,0.0268
3084.0,0.0273
3083.0,0.0276
3082.0,0.0276
3081.0,0.0273
3080.0,0.027
3079.0,0.0265
3078.0,0.0262
3077.0,0.0258
3076.0,0.0256
3075.0,0.0254
3074.0,0.0253
3073.0,0.0253
3072.0,0.0254
3071.0,0.0255
3070.0,0.0257
3069.0,0.026
3068.0,0.0264
3067.0,0.027
3066.0,0.0276
3065.0,0.0282
3064.0,0.0289
3063.0,0.0296
3062.0,0.0302
3061.0,0.0306
3060.0,0.0309
3059.0,0.0309
3058.0,0.0306
3057.0,0.0303
3056.0,0.0298
3055.0,0.0291
3054.0,0.0285
3053.0,0.0279
3052.0,0.0273
3051.0,0.027
3050.0,0.0267
3049.0,0.0264
3048.0,0.0261
3047.0,0.0258
3046.0,0.0255
3045.0,0.0253
3044.0,0.0252
3043.0,0.0252
3042.0,0.0253
3041.0,0.0255
3040.0,0.0257
3039.0,0.026
3038.0,0.0264
3037.0,0.0269
3036.0,0.0276
3035.0,0.0285
3034.0,0.0297
3033.0,0.0311
3032.0,0.0327
3031.0,0.0344
3030.0,0.0362
3029.0,0.038
3028.0,0.0395
3027.0,0.0407
3026.0,0.0414
3025.0,0.0416
3024.0,0.0412
3023.0,0.0402
3022.0,0.0389
3021.0,0.0373
3020.0,0.0357
3019.0,0.0341
3018.0,0.0328
3017.0,0.0315
3016.0,0.0304
3015.0,0.0294
3014.0,0.0285
3013.0,0.0277
3012.0,0.0272
3011.0,0.0268
3010.0,0.0266
3009.0,0.0264
3008.0,0.0263
3007.0,0.0263
3006.0,0.0264
3005.0,0.0265
3004.0,0.0266
3003.0,0.0266
3002.0,0.0266
3001.0,0.0264
3000.0,0.0262
2999.0,0.0259
2998.0,0.0256
2997.0,0.0252
2996.0,0.0247
2995.0,0.0243
2994.0,0.0239
2993.0,0.0235
2992.0,0.0232
2991.0,0.0228
2990.0,0.0226
2989.0,0.0223
2988.0,0.0222
2987.0,0.0222
2986.0,0.0222
2985.0,0.0223
2984.0,0.0223
2983.0,0.0222
2982.0,0.0222
2981.0,0.0222
2980.0,0.0222
2979.0,0.0221
2978.0,0.0221
2977.0,0.0221
2976.0,0.0221
2975.0,0.0221
2974.0,0.0221
2973.0,0.0221
2972.0,0.0222
2971.0,0.0222
2970.0,0.0223
2969.0,0.0224
2968.0,0.0226
2967.0,0.0228
2966.0,0.023
2965.0,0.0232
2964.0,0.0234
2963.0,0.0236
2962.0,0.0238
2961.0,0.024
2960.0,0.0241
2959.0,0.0243
2958.0,0.0245
2957.0,0.0247
2956.0,0.025
2955.0,0.0252
2954.0,0.0255
2953.0,0.0257
2952.0,0.026
2951.0,0.0263
2950.0,0.0266
2949.0,0.0269
2948.0,0.0273
2947.0,0.0277
2946.0,0.0282
2945.0,0.0288
2944.0,0.0295
2943.0,0.0301
2942.0,0.0307
2941.0,0.0314
2940.0,0.0322
2939.0,0.0331
2938.0,0.0341
2937.0,0.0352
2936.0,0.0363
2935.0,0.0375
2934.0,0.0387
2933.0,0.0398
2932.0,0.041
2931.0,0.0423
2930.0,0.0434
2929.0,0.0446
2928.0,0.0456
2927.0,0.0465
2926.0,0.0472
2925.0,0.0478
2924.0,0.0484
2923.0,0.0488
2922.0,0.0491
2921.0,0.0492
2920.0,0.0492
2919.0,0.0491
2918.0,0.0488
2917.0,0.0484
2916.0,0.048
2915.0,0.0475
2914.0,0.0471
2913.0,0.0466
2912.0,0.0461
2911.0,0.0456
2910.0,0.045
2909.0,0.0444
2908.0,0.0438
2907.0,0.0432
2906.0,0.0427
2905.0,0.0421
2904.0,0.0414
2903.0,0.0407
2902.0,0.04
2901.0,0.0394
2900.0,0.0388
2899.0,0.0383
2898.0,0.0378
2897.0,0.0374
2896.0,0.0369
2895.0,0.0365
2894.0,0.0362
2893.0,0.0358
2892.0,0.0354
2891.0,0.035
2890.0,0.0346
2889.0,0.0343
2888.0,0.0339
2887.0,0.0336
2886.0,0.0333
2885.0,0.033
2884.0,0.0328
2883.0,0.0325
2882.0,0.0324
2881.0,0.0322
2880.0,0.032
2879.0,0.0319
2878.0,0.0317
2877.0,0.0315
2876.0,0.0313
2875.0,0.0311
2874.0,0.0309
2873.0,0.0308
2872.0,0.0308
2871.0,0.0308
2870.0,0.0308
2869.0,0.0308
2868.0,0.0308
2867.0,0.0309
2866.0,0.031
2865.0,0.0312
2864.0,0.0315
2863.0,0.0318
2862.0,0.0323
2861.0,0.0327
2860.0,0.0331
2859.0,0.0336
2858.0,0.0342
2857.0,0.0347
2856.0,0.0353
2855.0,0.0358
2854.0,0.0362
2853.0,0.0366
2852.0,0.037
2851.0,0.0373
2850.0,0.0375
2849.0,0.0376
2848.0,0.0375
2847.0,0.0373
2846.0,0.0369
2845.0,0.0364
2844.0,0.0359
2843.0,0.0353
2842.0,0.0346
2841.0,0.034
2840.0,0.0333
2839.0,0.0326
2838.0,0.0319
2837.0,0.0314
2836.0,0.0308
2835.0,0.0303
2834.0,0.03
2833.0,0.0296
2832.0,0.0294
2831.0,0.0291
2830.0,0.0289
2829.0,0.0287
2828.0,0.0285
2827.0,0.0284
2826.0,0.0282
2825.0,0.0281
2824.0,0.0279
2823.0,0.0279
2822.0,0.0278
2821.0,0.0278
2820.0,0.0278
2819.0,0.0278
2818.0,0.0278
2817.0,0.0277
2816.0,0.0276
2815.0,0.0275
2814.0,0.0273
2813.0,0.0272
2812.0,0.0272
2811.0,0.0272
2810.0,0.0271
2809.0,0.027
2808.0,0.027
2807.0,0.027
2806.0,0.027
2805.0,0.027
2804.0,0.027
2803.0,0.0269
2802.0,0.0268
2801.0,0.0267
2800.0,0.0267
2799.0,0.0266
2798.0,0.0266
2797.0,0.0265
2796.0,0.0265
2795.0,0.0265
2794.0,0.0265
2793.0,0.0264
2792.0,0.0264
2791.0,0.0264
2790.0,0.0264
2789.0,0.0263
2788.0,0.0263
2787.0,0.0262
2786.0,0.0261
2785.0,0.0261
2784.0,0.0261
2783.0,0.0262
2782.0,0.0262
2781.0,0.0262
2780.0,0.0262
2779.0,0.0262
2778.0,0.0263
2777.0,0.0263
2776.0,0.0263
2775.0,0.0262
2774.0,0.0261
2773.0,0.026
2772.0,0.0259
2771.0,0.0259
2770.0,0.0259
2769.0,0.0258
2768.0,0.0258
2767.0,0.0258
2766.0,0.0258
2765.0,0.0258
2764.0,0.0258
2763.0,0.0258
2762.0,0.0258
2761.0,0.0258
2760.0,0.0257
2759.0,0.0257
2758.0,0.0257
2757.0,0.0257
2756.0,0.0256
2755.0,0.0256
2754.0,0.0255
2753.0,0.0255
2752.0,0.0255
2751.0,0.0255
2750.0,0.0255
2749.0,0.0256
2748.0,0.0256
2747.0,0.0256
2746.0,0.0255
2745.0,0.0254
2744.0,0.0253
2743.0,0.0253
2742.0,0.0254
2741.0,0.0255
2740.0,0.0255
2739.0,0.0255
2738.0,0.0254
2737.0,0.0254
2736.0,0.0254
2735.0,0.0254
2734.0,0.0255
2733.0,0.0255
2732.0,0.0255
2731.0,0.0255
2730.0,0.0254
2729.0,0.0253
2728.0,0.0253
2727.0,0.0253
2726.0,0.0254
2725.0,0.0254
2724.0,0.0255
2723.0,0.0255
2722.0,0.0256
2721.0,0.0256
2720.0,0.0255
2719.0,0.0255
2718.0,0.0255
2717.0,0.0255
2716.0,0.0255
2715.0,0.0254
2714.0,0.0253
2713.0,0.0253
2712.0,0.0252
2711.0,0.0252
2710.0,0.0252
2709.0,0.0252
2708.0,0.0253
2707.0,0.0253
2706.0,0.0253
2705.0,0.0254
2704.0,0.0254
2703.0,0.0254
2702.0,0.0254
2701.0,0.0254
2700.0,0.0254
2699.0,0.0254
2698.0,0.0254
2697.0,0.0254
2696.0,0.0253
2695.0,0.0253
2694.0,0.0253
2693.0,0.0253
2692.0,0.0253
2691.0,0.0253
2690.0,0.0253
2689.0,0.0253
2688.0,0.0253
2687.0,0.0253
2686.0,0.0253
2685.0,0.0253
2684.0,0.0253
2683.0,0.0253
2682.0,0.0253
2681.0,0.0253
2680.0,0.0253
2679.0,0.0253
2678.0,0.0253
2677.0,0.0253
2676.0,0.0252
2675.0,0.0252
2674.0,0.0252
2673.0,0.0252
2672.0,0.0252
2671.0,0.0252
2670.0,0.0252
2669.0,0.0252
2668.0,0.0252
2667.0,0.0252
2666.0,0.0252
2665.0,0.0253
2664.0,0.0252
2663.0,0.0252
2662.0,0.0251
2661.0,0.0251
2660.0,0.0251
2659.0,0.0251
2658.0,0.0251
2657.0,0.0251
2656.0,0.0251
2655.0,0.0252
2654.0,0.0252
2653.0,0.0252
2652.0,0.0251
2651.0,0.025
2650.0,0.025
2649.0,0.025
2648.0,0.0251
2647.0,0.0251
2646.0,0.0251
2645.0,0.0251
2644.0,0.025
2643.0,0.0249
2642.0,0.0249
2641.0,0.0249
2640.0,0.025
2639.0,0.025
2638.0,0.0251
2637.0,0.0252
2636.0,0.0252
2635.0,0.0252
2634.0,0.0252
2633.0,0.0252
2632.0,0.0252
2631.0,0.0252
2630.0,0.0252
2629.0,0.0252
2628.0,0.0252
2627.0,0.0251
2626.0,0.025
2625.0,0.0249
2624.0,0.0249
2623.0,0.0248
2622.0,0.0248
2621.0,0.0248
2620.0,0.0249
2619.0,0.0249
2618.0,0.0248
2617.0,0.0248
2616.0,0.0248
2615.0,0.0248
2614.0,0.0248
2613.0,0.0248
2612.0,0.0248
2611.0,0.0249
2610.0,0.0248
2609.0,0.0248
2608.0,0.0247
2607.0,0.0247
2606.0,0.0247
2605.0,0.0248
2604.0,0.025
2603.0,0.0251
2602.0,0.0251
2601.0,0.0251
2600.0,0.025
2599.0,0.0248
2598.0,0.0247
2597.0,0.0247
2596.0,0.0247
2595.0,0.0248
2594.0,0.0248
2593.0,0.0249
2592.0,0.0249
2591.0,0.0249
2590.0,0.0248
2589.0,0.0249
2588.0,0.0249
2587.0,0.0249
2586.0,0.0249
2585.0,0.0248
2584.0,0.0247
2583.0,0.0247
2582.0,0.0248
2581.0,0.0248
2580.0,0.0248
2579.0,0.0248
2578.0,0.0248
2577.0,0.0248
2576.0,0.0247
2575.0,0.0246
2574.0,0.0245
2573.0,0.0246
2572.0,0.0247
2571.0,0.0248
2570.0,0.0248
2569.0,0.0248
2568.0,0.0248
2567.0,0.0247
2566.0,0.0248
2565.0,0.0248
2564.0,0.0248
2563.0,0.0247
2562.0,0.0246
2561.0,0.0246
2560.0,0.0246
2559.0,0.0245
2558.0,0.0245
2557.0,0.0245
2556.0,0.0246
2555.0,0.0246
2554.0,0.0246
2553.0,0.0246
2552.0,0.0246
2551.0,0.0245
2550.0,0.0245
2549.0,0.0245
2548.0,0.0246
2547.0,0.0246
2546.0,0.0245
2545.0,0.0245
2544.0,0.0245
2543.0,0.0245
2542.0,0.0245
2541.0,0.0245
2540.0,0.0245
2539.0,0.0245
2538.0,0.0246
2537.0,0.0245
2536.0,0.0245
2535.0,0.0245
2534.0,0.0245
2533.0,0.0245
2532.0,0.0245
2531.0,0.0246
2530.0,0.0246
2529.0,0.0246
2528.0,0.0246
2527.0,0.0246
2526.0,0.0246
2525.0,0.0246
2524.0,0.0246
2523.0,0.0246
2522.0,0.0246
2521.0,0.0246
2520.0,0.0246
2519.0,0.0246
2518.0,0.0245
2517.0,0.0245
2516.0,0.0244
2515.0,0.0244
2514.0,0.0244
2513.0,0.0244
2512.0,0.0244
2511.0,0.0244
2510.0,0.0245
2509.0,0.0245
2508.0,0.0245
2507.0,0.0244
2506.0,0.0244
2505.0,0.0244
2504.0,0.0244
2503.0,0.0243
2502.0,0.0243
2501.0,0.0243
2500.0,0.0243
2499.0,0.0242
2498.0,0.0243
2497.0,0.0243
2496.0,0.0244
2495.0,0.0244
2494.0,0.0245
2493.0,0.0245
2492.0,0.0245
2491.0,0.0244
2490.0,0.0243
2489.0,0.0243
2488.0,0.0243
2487.0,0.0243
2486.0,0.0243
2485.0,0.0243
2484.0,0.0243
2483.0,0.0242
2482.0,0.0242
2481.0,0.0242
2480.0,0.0242
2479.0,0.0242
2478.0,0.0242
2477.0,0.0242
2476.0,0.0242
2475.0,0.0242
2474.0,0.0242
2473.0,0.0241
2472.0,0.0241
2471.0,0.0241
2470.0,0.024
2469.0,0.024
2468.0,0.024
2467.0,0.0241
2466.0,0.0241
2465.0,0.0241
2464.0,0.0242
2463.0,0.0242
2462.0,0.0242
2461.0,0.0241
2460.0,0.0241
2459.0,0.0241
2458.0,0.024
2457.0,0.0241
2456.0,0.0241
2455.0,0.0241
2454.0,0.024
2453.0,0.024
2452.0,0.024
2451.0,0.024
2450.0,0.024
2449.0,0.024
2448.0,0.0241
2447.0,0.024
2446.0,0.024
2445.0,0.024
2444.0,0.0239
2443.0,0.0239
2442.0,0.0239
2441.0,0.0239
2440.0,0.0239
2439.0,0.024
2438.0,0.024
2437.0,0.0241
2436.0,0.0241
2435.0,0.024
2434.0,0.024
2433.0,0.0241
2432.0,0.0241
2431.0,0.0241
2430.0,0.0241
2429.0,0.0241
2428.0,0.024
2427.0,0.024
2426.0,0.024
2425.0,0.0239
2424.0,0.0239
2423.0,0.0238
2422.0,0.0238
2421.0,0.0238
2420.0,0.0238
2419.0,0.0238
2418.0,0.0237
2417.0,0.0237
2416.0,0.0237
2415.0,0.0237
2414.0,0.0237
2413.0,0.0237
2412.0,0.0238
2411.0,0.0238
2410.0,0.0238
2409.0,0.0238
2408.0,0.0238
2407.0,0.0238
2406.0,0.0238
2405.0,0.0239
2404.0,0.0239
2403.0,0.0239
2402.0,0.0239
2401.0,0.0239
2400.0,0.0239
2399.0,0.0238
2398.0,0.0238
2397.0,0.0238
2396.0,0.0238
2395.0,0.0238
2394.0,0.0237
2393.0,0.0237
2392.0,0.0237
2391.0,0.0236
2390.0,0.0235
2389.0,0.0234
2388.0,0.0233
2387.0,0.0232
2386.0,0.0229
2385.0,0.0225
2384.0,0.0221
2383.0,0.0217
2382.0,0.0213
2381.0,0.021
2380.0,0.0207
2379.0,0.0205
2378.0,0.0204
2377.0,0.0205
2376.0,0.0206
2375.0,0.0208
2374.0,0.0209
2373.0,0.021
2372.0,0.0209
2371.0,0.0207
2370.0,0.0204
2369.0,0.0203
2368.0,0.0205
2367.0,0.0207
2366.0,0.0207
2365.0,0.0204
2364.0,0.0202
2363.0,0.0201
2362.0,0.0202
2361.0,0.02
2360.0,0.0194
2359.0,0.0188
2358.0,0.0187
2357.0,0.0192
2356.0,0.0196
2355.0,0.0197
2354.0,0.0197
2353.0,0.0197
2352.0,0.0198
2351.0,0.0198
2350.0,0.0197
2349.0,0.0196
2348.0,0.0195
2347.0,0.0192
2346.0,0.0191
2345.0,0.0193
2344.0,0.0195
2343.0,0.0196
2342.0,0.0198
2341.0,0.02
2340.0,0.02
2339.0,0.0196
2338.0,0.0192
2337.0,0.0192
2336.0,0.0196
2335.0,0.02
2334.0,0.0202
2333.0,0.0203
2332.0,0.0203
2331.0,0.0203
2330.0,0.0203
2329.0,0.0201
2328.0,0.0201
2327.0,0.0202
2326.0,0.0205
2325.0,0.0208
2324.0,0.021
2323.0,0.021
2322.0,0.0209
2321.0,0.0207
2320.0,0.0207
2319.0,0.0208
2318.0,0.021
2317.0,0.0212
2316.0,0.0211
2315.0,0.0209
2314.0,0.0206
2313.0,0.0204
2312.0,0.0202
2311.0,0.0202
2310.0,0.0203
2309.0,0.0204
2308.0,0.0205
2307.0,0.0208
2306.0,0.021
2305.0,0.0212
2304.0,0.0214
2303.0,0.0214
2302.0,0.0215
2301.0,0.0216
2300.0,0.0218
2299.0,0.0219
2298.0,0.0219
2297.0,0.022
2296.0,0.0221
2295.0,0.0222
2294.0,0.0224
2293.0,0.0225
2292.0,0.0227
2291.0,0.0228
2290.0,0.0229
2289.0,0.023
2288.0,0.0231
2287.0,0.0232
2286.0,0.0233
2285.0,0.0234
2284.0,0.0234
2283.0,0.0235
2282.0,0.0235
2281.0,0.0234
2280.0,0.0234
2279.0,0.0234
2278.0,0.0233
2277.0,0.0233
2276.0,0.0232
2275.0,0.0232
2274.0,0.0231
2273.0,0.0232
2272.0,0.0232
2271.0,0.0232
2270.0,0.0232
2269.0,0.0232
2268.0,0.0232
2267.0,0.0232
2266.0,0.0233
2265.0,0.0233
2264.0,0.0234
2263.0,0.0235
2262.0,0.0235
2261.0,0.0236
2260.0,0.0236
2259.0,0.0236
2258.0,0.0236
2257.0,0.0235
2256.0,0.0235
2255.0,0.0235
2254.0,0.0235
2253.0,0.0235
2252.0,0.0235
2251.0,0.0235
2250.0,0.0236
2249.0,0.0236
2248.0,0.0236
2247.0,0.0236
2246.0,0.0236
2245.0,0.0236
2244.0,0.0236
2243.0,0.0237
2242.0,0.0237
2241.0,0.0237
2240.0,0.0237
2239.0,0.0237
2238.0,0.0237
2237.0,0.0237
2236.0,0.0238
2235.0,0.0238
2234.0,0.0238
2233.0,0.0239
2232.0,0.0239
2231.0,0.0239
2230.0,0.0238
2229.0,0.0238
2228.0,0.0237
2227.0,0.0237
2226.0,0.0236
2225.0,0.0236
2224.0,0.0237
2223.0,0.0237
2222.0,0.0237
2221.0,0.0238
2220.0,0.0237
2219.0,0.0237
2218.0,0.0236
2217.0,0.0237
2216.0,0.0237
2215.0,0.0237
2214.0,0.0237
2213.0,0.0237
2212.0,0.0237
2211.0,0.0238
2210.0,0.0239
2209.0,0.0239
2208.0,0.0239
2207.0,0.0239
2206.0,0.0239
2205.0,0.0238
2204.0,0.0237
2203.0,0.0237
2202.0,0.0237
2201.0,0.0237
2200.0,0.0238
2199.0,0.0238
2198.0,0.0239
2197.0,0.0239
2196.0,0.0239
2195.0,0.0238
2194.0,0.0238
2193.0,0.0237
2192.0,0.0237
2191.0,0.0237
2190.0,0.0238
2189.0,0.0238
2188.0,0.0239
2187.0,0.0239
2186.0,0.0239
2185.0,0.0239
2184.0,0.0239
2183.0,0.0239
2182.0,0.0239
2181.0,0.0239
2180.0,0.0239
2179.0,0.0239
2178.0,0.0239
2177.0,0.0239
2176.0,0.0239
2175.0,0.0239
2174.0,0.0239
2173.0,0.0239
2172.0,0.0239
2171.0,0.0239
2170.0,0.0239
2169.0,0.0239
2168.0,0.0239
2167.0,0.0238
2166.0,0.0238
2165.0,0.0239
2164.0,0.0239
2163.0,0.024
2162.0,0.024
2161.0,0.0239
2160.0,0.0238
2159.0,0.0237
2158.0,0.0237
2157.0,0.0238
2156.0,0.0239
2155.0,0.0239
2154.0,0.024
2153.0,0.0239
2152.0,0.0239
2151.0,0.0239
2150.0,0.0239
2149.0,0.0239
2148.0,0.0239
2147.0,0.0239
2146.0,0.024
2145.0,0.024
2144.0,0.024
2143.0,0.0241
2142.0,0.024
2141.0,0.024
2140.0,0.0239
2139.0,0.0239
2138.0,0.0239
2137.0,0.024
2136.0,0.024
2135.0,0.024
2134.0,0.024
2133.0,0.024
2132.0,0.024
2131.0,0.024
2130.0,0.024
2129.0,0.024
2128.0,0.024
2127.0,0.024
2126.0,0.024
2125.0,0.0239
2124.0,0.0239
2123.0,0.0239
2122.0,0.0239
2121.0,0.024
2120.0,0.024
2119.0,0.0239
2118.0,0.0239
2117.0,0.0239
2116.0,0.024
2115.0,0.024
2114.0,0.024
2113.0,0.0239
2112.0,0.0239
2111.0,0.0239
2110.0,0.0238
2109.0,0.0239
2108.0,0.0239
2107.0,0.024
2106.0,0.024
2105.0,0.024
2104.0,0.024
2103.0,0.024
2102.0,0.024
2101.0,0.024
2100.0,0.024
2099.0,0.024
2098.0,0.024
2097.0,0.024
2096.0,0.024
2095.0,0.024
2094.0,0.0239
2093.0,0.0239
2092.0,0.0239
2091.0,0.0239
2090.0,0.0239
2089.0,0.0239
2088.0,0.024
2087.0,0.024
2086.0,0.0239
2085.0,0.0238
2084.0,0.0238
2083.0,0.0238
2082.0,0.0239
2081.0,0.0239
2080.0,0.024
2079.0,0.024
2078.0,0.024
2077.0,0.024
2076.0,0.024
2075.0,0.024
2074.0,0.024
2073.0,0.024
2072.0,0.024
2071.0,0.024
2070.0,0.024
2069.0,0.024
2068.0,0.0241
2067.0,0.0241
2066.0,0.0241
2065.0,0.024
2064.0,0.024
2063.0,0.024
2062.0,0.024
2061.0,0.024
2060.0,0.024
2059.0,0.024
2058.0,0.0241
2057.0,0.0241
2056.0,0.0241
2055.0,0.0241
2054.0,0.0241
2053.0,0.0241
2052.0,0.0241
2051.0,0.024
2050.0,0.024
2049.0,0.0239
2048.0,0.0239
2047.0,0.024
2046.0,0.0241
2045.0,0.0241
2044.0,0.0241
2043.0,0.0241
2042.0,0.0241
2041.0,0.0241
2040.0,0.0241
2039.0,0.0241
2038.0,0.024
2037.0,0.024
2036.0,0.0241
2035.0,0.0241
2034.0,0.0241
2033.0,0.0242
2032.0,0.0242
2031.0,0.0242
2030.0,0.0242
2029.0,0.0242
2028.0,0.0242
2027.0,0.0242
2026.0,0.0242
2025.0,0.0241
2024.0,0.0241
2023.0,0.0241
2022.0,0.0241
2021.0,0.0242
2020.0,0.0242
2019.0,0.0242
2018.0,0.0242
2017.0,0.0242
2016.0,0.0242
2015.0,0.0242
2014.0,0.0242
2013.0,0.0241
2012.0,0.0241
2011.0,0.0241
2010.0,0.0242
2009.0,0.0242
2008.0,0.0242
2007.0,0.0241
2006.0,0.0241
2005.0,0.0241
2004.0,0.0242
2003.0,0.0242
2002.0,0.0242
2001.0,0.0243
2000.0,0.0244
1999.0,0.0244
1998.0,0.0243
1997.0,0.0242
1996.0,0.0242
1995.0,0.0241
1994.0,0.0241
1993.0,0.0242
1992.0,0.0242
1991.0,0.0242
1990.0,0.0242
1989.0,0.0242
1988.0,0.0243
1987.0,0.0243
1986.0,0.0244
1985.0,0.0244
1984.0,0.0244
1983.0,0.0244
1982.0,0.0244
1981.0,0.0244
1980.0,0.0243
1979.0,0.0243
1978.0,0.0243
1977.0,0.0244
1976.0,0.0244
1975.0,0.0245
1974.0,0.0245
1973.0,0.0246
1972.0,0.0247
1971.0,0.0247
1970.0,0.0248
1969.0,0.0248
1968.0,0.0249
1967.0,0.025
1966.0,0.0251
1965.0,0.0252
1964.0,0.0253
1963.0,0.0255
1962.0,0.0256
1961.0,0.0257
1960.0,0.0257
1959.0,0.0258
1958.0,0.0259
1957.0,0.0259
1956.0,0.0259
1955.0,0.026
1954.0,0.0261
1953.0,0.0262
1952.0,0.0264
1951.0,0.0265
1950.0,0.0266
1949.0,0.0267
1948.0,0.0269
1947.0,0.0271
1946.0,0.0272
1945.0,0.0274
1944.0,0.0275
1943.0,0.0277
1942.0,0.0278
1941.0,0.0278
1940.0,0.0277
1939.0,0.0275
1938.0,0.0273
1937.0,0.0272
1936.0,0.027
1935.0,0.0268
1934.0,0.0266
1933.0,0.0265
1932.0,0.0263
1931.0,0.0261
1930.0,0.026
1929.0,0.0259
1928.0,0.0258
1927.0,0.0257
1926.0,0.0255
1925.0,0.0254
1924.0,0.0253
1923.0,0.0253
1922.0,0.0253
1921.0,0.0253
1920.0,0.0253
1919.0,0.0252
1918.0,0.0252
1917.0,0.0252
1916.0,0.0251
1915.0,0.0251
1914.0,0.0251
1913.0,0.025
1912.0,0.025
1911.0,0.0249
1910.0,0.0249
1909.0,0.0248
1908.0,0.0248
1907.0,0.0248
1906.0,0.0249
1905.0,0.0249
1904.0,0.025
1903.0,0.025
1902.0,0.0249
1901.0,0.0249
1900.0,0.0249
1899.0,0.0249
1898.0,0.025
1897.0,0.025
1896.0,0.0251
1895.0,0.0252
1894.0,0.0253
1893.0,0.0255
1892.0,0.0256
1891.0,0.0256
1890.0,0.0258
1889.0,0.0259
1888.0,0.026
1887.0,0.0261
1886.0,0.0261
1885.0,0.0262
1884.0,0.0263
1883.0,0.0264
1882.0,0.0265
1881.0,0.0266
1880.0,0.0267
1879.0,0.0268
1878.0,0.0268
1877.0,0.0269
1876.0,0.027
1875.0,0.0271
1874.0,0.0271
1873.0,0.0272
1872.0,0.0272
1871.0,0.0272
1870.0,0.0272
1869.0,0.0272
1868.0,0.0271
1867.0,0.0271
1866.0,0.0271
1865.0,0.027
1864.0,0.0269
1863.0,0.0268
1862.0,0.0267
1861.0,0.0266
1860.0,0.0265
1859.0,0.0264
1858.0,0.0262
1857.0,0.026
1856.0,0.0259
1855.0,0.0258
1854.0,0.0257
1853.0,0.0256
1852.0,0.0256
1851.0,0.0255
1850.0,0.0254
1849.0,0.0253
1848.0,0.0253
1847.0,0.0253
1846.0,0.0253
1845.0,0.0252
1844.0,0.0252
1843.0,0.0251
1842.0,0.0251
1841.0,0.0251
1840.0,0.0251
1839.0,0.0251
1838.0,0.025
1837.0,0.025
1836.0,0.025
1835.0,0.025
1834.0,0.025
1833.0,0.025
1832.0,0.0249
1831.0,0.0249
1830.0,0.025
1829.0,0.0251
1828.0,0.0252
1827.0,0.0254
1826.0,0.0255
1825.0,0.0256
1824.0,0.0257
1823.0,0.0257
1822.0,0.0258
1821.0,0.0258
1820.0,0.0259
1819.0,0.0259
1818.0,0.026
1817.0,0.0261
1816.0,0.0262
1815.0,0.0263
1814.0,0.0263
1813.0,0.0263
1812.0,0.0264
1811.0,0.0265
1810.0,0.0266
1809.0,0.0269
1808.0,0.0271
1807.0,0.0272
1806.0,0.0272
1805.0,0.0273
1804.0,0.0274
1803.0,0.0274
1802.0,0.0275
1801.0,0.0275
1800.0,0.0274
1799.0,0.0273
1798.0,0.0272
1797.0,0.0271
1796.0,0.027
1795.0,0.0268
1794.0,0.0267
1793.0,0.0265
1792.0,0.0264
1791.0,0.0262
1790.0,0.0261
1789.0,0.0261
1788.0,0.026
1787.0,0.0259
1786.0,0.0258
1785.0,0.0257
1784.0,0.0256
1783.0,0.0255
1782.0,0.0254
1781.0,0.0254
1780.0,0.0254
1779.0,0.0255
1778.0,0.0255
1777.0,0.0254
1776.0,0.0254
1775.0,0.0253
1774.0,0.0252
1773.0,0.0251
1772.0,0.0251
1771.0,0.0251
1770.0,0.0253
1769.0,0.0254
1768.0,0.0255
1767.0,0.0254
1766.0,0.0254
1765.0,0.0254
1764.0,0.0254
1763.0,0.0255
1762.0,0.0256
1761.0,0.0256
1760.0,0.0257
1759.0,0.0258
1758.0,0.0259
1757.0,0.026
1756.0,0.0261
1755.0,0.0262
1754.0,0.0263
1753.0,0.0263
1752.0,0.0264
1751.0,0.0266
1750.0,0.0267
1749.0,0.0268
1748.0,0.0269
1747.0,0.027
1746.0,0.027
1745.0,0.0271
1744.0,0.0272
1743.0,0.0273
1742.0,0.0273
1741.0,0.0273
1740.0,0.0272
1739.0,0.0271
1738.0,0.0271
1737.0,0.0272
1736.0,0.0272
1735.0,0.0272
1734.0,0.0271
1733.0,0.0269
1732.0,0.0268
1731.0,0.0268
1730.0,0.0268
1729.0,0.0267
1728.0,0.0266
1727.0,0.0265
1726.0,0.0264
1725.0,0.0263
1724.0,0.0262
1723.0,0.0262
1722.0,0.0262
1721.0,0.0262
1720.0,0.0261
1719.0,0.0259
1718.0,0.0257
1717.0,0.0257
1716.0,0.0258
1715.0,0.0259
1714.0,0.026
1713.0,0.026
1712.0,0.0259
1711.0,0.0259
1710.0,0.0258
1709.0,0.0258
1708.0,0.0258
1707.0,0.0257
1706.0,0.0257
1705.0,0.0258
1704.0,0.0259
1703.0,0.0261
1702.0,0.0263
1701.0,0.0264
1700.0,0.0264
1699.0,0.0263
1698.0,0.0264
1697.0,0.0265
1696.0,0.0266
1695.0,0.0265
1694.0,0.0265
1693.0,0.0266
1692.0,0.0267
1691.0,0.0267
1690.0,0.0267
1689.0,0.0269
1688.0,0.027
1687.0,0.0271
1686.0,0.0271
1685.0,0.0272
1684.0,0.0274
1683.0,0.0275
1682.0,0.0277
1681.0,0.0278
1680.0,0.028
1679.0,0.0281
1678.0,0.0282
1677.0,0.0283
1676.0,0.0284
1675.0,0.0285
1674.0,0.0285
1673.0,0.0285
1672.0,0.0285
1671.0,0.0285
1670.0,0.0287
1669.0,0.0288
1668.0,0.0289
1667.0,0.029
1666.0,0.0291
1665.0,0.0291
1664.0,0.029
1663.0,0.0291
1662.0,0.0291
1661.0,0.0291
1660.0,0.0292
1659.0,0.0292
1658.0,0.0291
1657.0,0.0291
1656.0,0.0291
1655.0,0.029
1654.0,0.0291
1653.0,0.0292
1652.0,0.0287
1651.0,0.0285
1650.0,0.0285
1649.0,0.0283
1648.0,0.0282
1647.0,0.0284
1646.0,0.0286
1645.0,0.0286
1644.0,0.0286
1643.0,0.0286
1642.0,0.0285
1641.0,0.0284
1640.0,0.0283
1639.0,0.0281
1638.0,0.028
1637.0,0.0279
1636.0,0.0281
1635.0,0.0282
1634.0,0.0281
1633.0,0.028
1632.0,0.028
1631.0,0.0279
1630.0,0.0278
1629.0,0.0277
1628.0,0.0277
1627.0,0.0277
1626.0,0.0277
1625.0,0.0276
1624.0,0.0275
1623.0,0.0274
1622.0,0.0274
1621.0,0.0273
1620.0,0.0273
1619.0,0.0272
1618.0,0.0272
1617.0,0.0272
1616.0,0.0272
1615.0,0.0273
1614.0,0.0274
1613.0,0.0275
1612.0,0.0277
1611.0,0.0281
1610.0,0.0289
1609.0,0.0301
1608.0,0.0319
1607.0,0.0341
1606.0,0.0366
1605.0,0.0394
1604.0,0.0424
1603.0,0.0452
1602.0,0.0471
1601.0,0.0478
1600.0,0.0474
1599.0,0.046
1598.0,0.044
1597.0,0.0417
1596.0,0.0396
1595.0,0.0379
1594.0,0.0365
1593.0,0.0353
1592.0,0.0344
1591.0,0.0337
1590.0,0.0332
1589.0,0.0329
1588.0,0.0329
1587.0,0.0334
1586.0,0.0341
1585.0,0.035
1584.0,0.0357
1583.0,0.036
1582.0,0.0356
1581.0,0.0346
1580.0,0.0335
1579.0,0.0325
1578.0,0.0315
1577.0,0.0306
1576.0,0.03
1575.0,0.0297
1574.0,0.0295
1573.0,0.0294
1572.0,0.0291
1571.0,0.0288
1570.0,0.0286
1569.0,0.0285
1568.0,0.0284
1567.0,0.0284
1566.0,0.0283
1565.0,0.0281
1564.0,0.028
1563.0,0.028
1562.0,0.028
1561.0,0.0277
1560.0,0.0276
1559.0,0.0282
1558.0,0.0283
1557.0,0.0281
1556.0,0.0282
1555.0,0.0283
1554.0,0.0283
1553.0,0.0283
1552.0,0.0283
1551.0,0.0283
1550.0,0.0285
1549.0,0.0286
1548.0,0.0287
1547.0,0.0287
1546.0,0.0287
1545.0,0.0287
1544.0,0.0287
1543.0,0.0287
1542.0,0.0287
1541.0,0.0288
1540.0,0.0289
1539.0,0.0287
1538.0,0.0285
1537.0,0.0285
1536.0,0.0285
1535.0,0.0285
1534.0,0.0283
1533.0,0.0282
1532.0,0.0281
1531.0,0.0279
1530.0,0.0277
1529.0,0.0274
1528.0,0.0272
1527.0,0.0271
1526.0,0.0269
1525.0,0.0267
1524.0,0.0266
1523.0,0.0265
1522.0,0.0264
1521.0,0.0264
1520.0,0.0263
1519.0,0.0263
1518.0,0.0261
1517.0,0.026
1516.0,0.026
1515.0,0.0259
1514.0,0.0258
1513.0,0.0257
1512.0,0.0255
1511.0,0.0254
1510.0,0.0252
1509.0,0.025
1508.0,0.025
1507.0,0.0252
1506.0,0.0251
1505.0,0.0248
1504.0,0.0249
1503.0,0.0251
1502.0,0.0255
1501.0,0.0262
1500.0,0.0277
1499.0,0.0306
1498.0,0.0363
1497.0,0.046
1496.0,0.0582
1495.0,0.0691
1494.0,0.0768
1493.0,0.081
1492.0,0.081
1491.0,0.0761
1490.0,0.0675
1489.0,0.0591
1488.0,0.0529
1487.0,0.0486
1486.0,0.0452
1485.0,0.0426
1484.0,0.0405
1483.0,0.0386
1482.0,0.037
1481.0,0.0356
1480.0,0.0346
1479.0,0.0338
1478.0,0.033
1477.0,0.0324
1476.0,0.032
1475.0,0.0316
1474.0,0.0312
1473.0,0.0311
1472.0,0.0311
1471.0,0.031
1470.0,0.0309
1469.0,0.0309
1468.0,0.0309
1467.0,0.0308
1466.0,0.0307
1465.0,0.0307
1464.0,0.0309
1463.0,0.0309
1462.0,0.0309
1461.0,0.031
1460.0,0.0316
1459.0,0.0331
1458.0,0.0384
1457.0,0.0488
1456.0,0.0598
1455.0,0.0685
1454.0,0.0756
1453.0,0.081
1452.0,0.0836
1451.0,0.0828
1450.0,0.0799
1449.0,0.076
1448.0,0.072
1447.0,0.0687
1446.0,0.0661
1445.0,0.0638
1444.0,0.0614
1443.0,0.059
1442.0,0.0568
1441.0,0.0549
1440.0,0.0533
1439.0,0.0517
1438.0,0.05
1437.0,0.048
1436.0,0.0461
1435.0,0.0444
1434.0,0.0431
1433.0,0.0419
1432.0,0.0407
1431.0,0.0396
1430.0,0.0387
1429.0,0.0379
1428.0,0.0372
1427.0,0.0366
1426.0,0.0361
1425.0,0.0356
1424.0,0.0353
1423.0,0.035
1422.0,0.0349
1421.0,0.0346
1420.0,0.0344
1419.0,0.0342
1418.0,0.034
1417.0,0.0339
1416.0,0.0337
1415.0,0.0335
1414.0,0.0333
1413.0,0.0331
1412.0,0.0329
1411.0,0.0327
1410.0,0.0326
1409.0,0.0324
1408.0,0.0323
1407.0,0.0322
1406.0,0.0321
1405.0,0.032
1404.0,0.032
1403.0,0.0319
1402.0,0.0319
1401.0,0.0318
1400.0,0.0318
1399.0,0.0318
1398.0,0.0319
1397.0,0.0319
1396.0,0.0319
1395.0,0.032
1394.0,0.0322
1393.0,0.0324
1392.0,0.0326
1391.0,0.0328
1390.0,0.0331
1389.0,0.0334
1388.0,0.0338
1387.0,0.0344
1386.0,0.0349
1385.0,0.0353
1384.0,0.0356
1383.0,0.0359
1382.0,0.0363
1381.0,0.0368
1380.0,0.0373
1379.0,0.0378
1378.0,0.0382
1377.0,0.0385
1376.0,0.0389
1375.0,0.0392
1374.0,0.0396
1373.0,0.0398
1372.0,0.0398
1371.0,0.0397
1370.0,0.0396
1369.0,0.0396
1368.0,0.0397
1367.0,0.0396
1366.0,0.0395
1365.0,0.0394
1364.0,0.0393
1363.0,0.0393
1362.0,0.0393
1361.0,0.0393
1360.0,0.0391
1359.0,0.0388
1358.0,0.0386
1357.0,0.0385
1356.0,0.0383
1355.0,0.0383
1354.0,0.0382
1353.0,0.0382
1352.0,0.0381
1351.0,0.0381
1350.0,0.038
1349.0,0.038
1348.0,0.038
1347.0,0.0379
1346.0,0.0378
1345.0,0.0376
1344.0,0.0374
1343.0,0.0371
1342.0,0.0369
1341.0,0.0367
1340.0,0.0367
1339.0,0.0367
1338.0,0.0367
1337.0,0.0367
1336.0,0.0368
1335.0,0.037
1334.0,0.0372
1333.0,0.0375
1332.0,0.0377
1331.0,0.038
1330.0,0.0381
1329.0,0.0383
1328.0,0.0383
1327.0,0.0382
1326.0,0.0381
1325.0,0.038
1324.0,0.0379
1323.0,0.0378
1322.0,0.0377
1321.0,0.0376
1320.0,0.0376
1319.0,0.0376
1318.0,0.0377
1317.0,0.0378
1316.0,0.0379
1315.0,0.0381
1314.0,0.0382
1313.0,0.0384
1312.0,0.0385
1311.0,0.0386
1310.0,0.0385
1309.0,0.0384
1308.0,0.0382
1307.0,0.0381
1306.0,0.0379
1305.0,0.0377
1304.0,0.0376
1303.0,0.0375
1302.0,0.0373
1301.0,0.0372
1300.0,0.037
1299.0,0.0369
1298.0,0.0368
1297.0,0.0368
1296.0,0.0367
1295.0,0.0366
1294.0,0.0366
1293.0,0.0365
1292.0,0.0364
1291.0,0.0363
1290.0,0.0363
1289.0,0.0362
1288.0,0.0361
1287.0,0.036
1286.0,0.0359
1285.0,0.0359
1284.0,0.036
1283.0,0.036
1282.0,0.036
1281.0,0.036
1280.0,0.0359
1279.0,0.0358
1278.0,0.0357
1277.0,0.0356
1276.0,0.0355
1275.0,0.0353
1274.0,0.0352
1273.0,0.0351
1272.0,0.035
1271.0,0.0349
1270.0,0.0348
1269.0,0.0347
1268.0,0.0346
1267.0,0.0346
1266.0,0.0345
1265.0,0.0345
1264.0,0.0345
1263.0,0.0344
1262.0,0.0344
1261.0,0.0344
1260.0,0.0343
1259.0,0.0343
1258.0,0.0342
1257.0,0.0342
1256.0,0.0341
1255.0,0.0341
1254.0,0.034
1253.0,0.034
1252.0,0.034
1251.0,0.0341
1250.0,0.0341
1249.0,0.0341
1248.0,0.0342
1247.0,0.0342
1246.0,0.0342
1245.0,0.0342
1244.0,0.0341
1243.0,0.034
1242.0,0.034
1241.0,0.034
1240.0,0.0341
1239.0,0.0341
1238.0,0.0341
1237.0,0.0341
1236.0,0.034
1235.0,0.0339
1234.0,0.0339
1233.0,0.0339
1232.0,0.0339
1231.0,0.0339
1230.0,0.0339
1229.0,0.0339
1228.0,0.0339
1227.0,0.0339
1226.0,0.0339
1225.0,0.0339
1224.0,0.0338
1223.0,0.0338
1222.0,0.0338
1221.0,0.0338
1220.0,0.0339
1219.0,0.0339
1218.0,0.034
1217.0,0.034
1216.0,0.034
1215.0,0.034
1214.0,0.034
1213.0,0.0341
1212.0,0.0342
1211.0,0.0343
1210.0,0.0345
1209.0,0.0346
1208.0,0.0348
1207.0,0.035
1206.0,0.0351
1205.0,0.0353
1204.0,0.0355
1203.0,0.0358
1202.0,0.0361
1201.0,0.0363
1200.0,0.0365
1199.0,0.0367
1198.0,0.0369
1197.0,0.037
1196.0,0.0372
1195.0,0.0373
1194.0,0.0374
1193.0,0.0374
1192.0,0.0375
1191.0,0.0375
1190.0,0.0376
1189.0,0.0377
1188.0,0.0379
1187.0,0.0382
1186.0,0.0387
1185.0,0.0393
1184.0,0.0401
1183.0,0.0408
1182.0,0.0414
1181.0,0.0417
1180.0,0.0416
1179.0,0.0412
1178.0,0.0405
1177.0,0.0398
1176.0,0.0391
1175.0,0.0385
1174.0,0.038
1173.0,0.0377
1172.0,0.0375
1171.0,0.0374
1170.0,0.0373
1169.0,0.0371
1168.0,0.037
1167.0,0.0369
1166.0,0.0369
1165.0,0.0369
1164.0,0.0369
1163.0,0.037
1162.0,0.0372
1161.0,0.0376
1160.0,0.0383
1159.0,0.0391
1158.0,0.04
1157.0,0.0409
1156.0,0.0417
1155.0,0.0423
1154.0,0.0425
1153.0,0.0422
1152.0,0.0416
1151.0,0.0407
1150.0,0.0398
1149.0,0.039
1148.0,0.0383
1147.0,0.0378
1146.0,0.0373
1145.0,0.037
1144.0,0.0367
1143.0,0.0365
1142.0,0.0362
1141.0,0.036
1140.0,0.0357
1139.0,0.0355
1138.0,0.0354
1137.0,0.0353
1136.0,0.0352
1135.0,0.0351
1134.0,0.035
1133.0,0.0349
1132.0,0.0347
1131.0,0.0346
1130.0,0.0346
1129.0,0.0346
1128.0,0.0346
1127.0,0.0346
1126.0,0.0346
1125.0,0.0345
1124.0,0.0345
1123.0,0.0345
1122.0,0.0346
1121.0,0.0347
1120.0,0.0348
1119.0,0.0349
1118.0,0.035
1117.0,0.0351
1116.0,0.0353
1115.0,0.0355
1114.0,0.0356
1113.0,0.0357
1112.0,0.0357
1111.0,0.0356
1110.0,0.0355
1109.0,0.0354
1108.0,0.0353
1107.0,0.0352
1106.0,0.0351
1105.0,0.035
1104.0,0.035
1103.0,0.035
1102.0,0.0351
1101.0,0.0352
1100.0,0.0352
1099.0,0.0352
1098.0,0.0352
1097.0,0.0353
1096.0,0.0353
1095.0,0.0354
1094.0,0.0354
1093.0,0.0354
1092.0,0.0354
1091.0,0.0354
1090.0,0.0354
1089.0,0.0354
1088.0,0.0355
1087.0,0.0357
1086.0,0.0358
1085.0,0.0359
1084.0,0.0362
1083.0,0.0365
1082.0,0.0369
1081.0,0.0372
1080.0,0.0375
1079.0,0.0378
1078.0,0.0381
1077.0,0.0386
1076.0,0.0391
1075.0,0.0397
1074.0,0.0405
1073.0,0.0413
1072.0,0.0421
1071.0,0.0429
1070.0,0.0434
1069.0,0.0436
1068.0,0.0436
1067.0,0.0433
1066.0,0.043
1065.0,0.0426
1064.0,0.0421
1063.0,0.0417
1062.0,0.0411
1061.0,0.0406
1060.0,0.04
1059.0,0.0395
1058.0,0.039
1057.0,0.0386
1056.0,0.0383
1055.0,0.0381
1054.0,0.0378
1053.0,0.0375
1052.0,0.0372
1051.0,0.0369
1050.0,0.0366
1049.0,0.0364
1048.0,0.0362
1047.0,0.0359
1046.0,0.0358
1045.0,0.0356
1044.0,0.0355
1043.0,0.0354
1042.0,0.0352
1041.0,0.0352
1040.0,0.0353
1039.0,0.0355
1038.0,0.0361
1037.0,0.0371
1036.0,0.0386
1035.0,0.0406
1034.0,0.0432
1033.0,0.0463
1032.0,0.0495
1031.0,0.0526
1030.0,0.0551
1029.0,0.0569
1028.0,0.0578
1027.0,0.0576
1026.0,0.0567
1025.0,0.0552
1024.0,0.0535
1023.0,0.0518
1022.0,0.0503
1021.0,0.0491
1020.0,0.048
1019.0,0.0471
1018.0,0.0464
1017.0,0.0458
1016.0,0.0451
1015.0,0.0446
1014.0,0.044
1013.0,0.0436
1012.0,0.0432
1011.0,0.0429
1010.0,0.0427
1009.0,0.0425
1008.0,0.0425
1007.0,0.0426
1006.0,0.0428
1005.0,0.0432
1004.0,0.0435
1003.0,0.0436
1002.0,0.0433
1001.0,0.0428
1000.0,0.0422
999.0,0.0415
998.0,0.0409
997.0,0.0404
996.0,0.0401
995.0,0.0398
994.0,0.0396
993.0,0.0395
992.0,0.0394
991.0,0.0394
990.0,0.0394
989.0,0.0395
988.0,0.0396
987.0,0.0398
986.0,0.0401
985.0,0.0404
984.0,0.0408
983.0,0.0411
982.0,0.0413
981.0,0.0415
980.0,0.0415
979.0,0.0415
978.0,0.0414
977.0,0.0412
976.0,0.0409
975.0,0.0407
974.0,0.0405
973.0,0.0403
972.0,0.0402
971.0,0.0403
970.0,0.0406
969.0,0.041
968.0,0.0416
967.0,0.0421
966.0,0.0425
965.0,0.0428
964.0,0.0429
963.0,0.0428
962.0,0.0426
961.0,0.0422
960.0,0.0418
959.0,0.0413
958.0,0.0409
957.0,0.0406
956.0,0.0402
955.0,0.0399
954.0,0.0396
953.0,0.0395
952.0,0.0395
951.0,0.0396
950.0,0.0397
949.0,0.0398
948.0,0.04
947.0,0.0403
946.0,0.0404
945.0,0.0406
944.0,0.0407
943.0,0.0407
942.0,0.0407
941.0,0.0407
940.0,0.0406
939.0,0.0404
938.0,0.0401
937.0,0.0398
936.0,0.0394
935.0,0.039
934.0,0.0385
933.0,0.0382
932.0,0.0379
931.0,0.0378
930.0,0.0376
929.0,0.0375
928.0,0.0373
927.0,0.0371
926.0,0.0369
925.0,0.037
924.0,0.0371
923.0,0.0373
922.0,0.0375
921.0,0.0377
920.0,0.0379
919.0,0.0382
918.0,0.0386
917.0,0.0391
916.0,0.0398
915.0,0.0406
914.0,0.0416
913.0,0.0429
912.0,0.0442
911.0,0.0457
910.0,0.0472
909.0,0.0486
908.0,0.0499
907.0,0.0508
906.0,0.0513
905.0,0.0512
904.0,0.0508
903.0,0.0499
902.0,0.0487
901.0,0.0473
900.0,0.0459
899.0,0.0445
898.0,0.0433
897.0,0.0422
896.0,0.0413
895.0,0.0406
894.0,0.04
893.0,0.0396
892.0,0.0392
891.0,0.0388
890.0,0.0385
889.0,0.0383
888.0,0.0381
887.0,0.0379
886.0,0.0378
885.0,0.0377
884.0,0.0375
883.0,0.0373
882.0,0.037
881.0,0.0369
880.0,0.0368
879.0,0.0368
878.0,0.0369
877.0,0.0369
876.0,0.0369
875.0,0.0367
874.0,0.0364
873.0,0.0362
872.0,0.036
871.0,0.0359
870.0,0.0359
869.0,0.0358
868.0,0.0357
867.0,0.0356
866.0,0.0355
865.0,0.0354
864.0,0.0353
863.0,0.0353
862.0,0.0353
861.0,0.0353
860.0,0.0352
859.0,0.035
858.0,0.0349
857.0,0.0349
856.0,0.0349
855.0,0.035
854.0,0.0351
853.0,0.0351
852.0,0.0353
851.0,0.0355
850.0,0.0359
849.0,0.0364
848.0,0.037
847.0,0.0376
846.0,0.0384
845.0,0.039
844.0,0.0396
843.0,0.0401
842.0,0.0403
841.0,0.0404
840.0,0.0404
839.0,0.0401
838.0,0.0396
837.0,0.039
836.0,0.0384
835.0,0.0376
834.0,0.0369
833.0,0.0363
832.0,0.0357
831.0,0.0353
830.0,0.0349
829.0,0.0346
828.0,0.0343
827.0,0.0341
826.0,0.0339
825.0,0.0339
824.0,0.0339
823.0,0.0338
822.0,0.0335
821.0,0.0332
820.0,0.0329
819.0,0.0327
818.0,0.0325
817.0,0.0324
816.0,0.0323
815.0,0.0322
814.0,0.0321
813.0,0.0321
812.0,0.0321
811.0,0.0321
810.0,0.0321
809.0,0.032
808.0,0.0318
807.0,0.0316
806.0,0.0314
805.0,0.0312
804.0,0.0311
803.0,0.031
802.0,0.0308
801.0,0.0306
800.0,0.0304
799.0,0.0302
798.0,0.0302
797.0,0.0302
796.0,0.0303
795.0,0.0304
794.0,0.0306
793.0,0.0308
792.0,0.0311
791.0,0.0314
790.0,0.0318
789.0,0.0322
788.0,0.0324
787.0,0.0327
786.0,0.033
785.0,0.0334
784.0,0.034
783.0,0.0346
782.0,0.0354
781.0,0.0364
780.0,0.0376
779.0,0.0391
778.0,0.0409
777.0,0.043
776.0,0.0454
775.0,0.0481
774.0,0.051
773.0,0.0543
772.0,0.0579
771.0,0.0617
770.0,0.0658
769.0,0.0701
768.0,0.0746
767.0,0.079
766.0,0.0832
765.0,0.0875
764.0,0.0919
763.0,0.0963
762.0,0.1008
761.0,0.1051
760.0,0.1094
759.0,0.1133
758.0,0.1167
757.0,0.1193
756.0,0.1211
755.0,0.1221
754.0,0.1226
753.0,0.1228
752.0,0.123
751.0,0.1232
750.0,0.1235
749.0,0.1239
748.0,0.1239
747.0,0.1231
746.0,0.1211
745.0,0.1176
744.0,0.1128
743.0,0.1069
742.0,0.1006
741.0,0.0945
740.0,0.0888
739.0,0.0836
738.0,0.0787
737.0,0.074
736.0,0.0695
735.0,0.0649
734.0,0.0605
733.0,0.0564
732.0,0.0529
731.0,0.0498
730.0,0.047
729.0,0.0444
728.0,0.0422
727.0,0.0402
726.0,0.0385
725.0,0.0369
724.0,0.0354
723.0,0.0338
722.0,0.032
721.0,0.0303
720.0,0.0289
719.0,0.0278
718.0,0.027
717.0,0.0261
716.0,0.0253
715.0,0.0246
714.0,0.0244
713.0,0.0252
712.0,0.0271
711.0,0.0306
710.0,0.0361
709.0,0.0438
708.0,0.054
707.0,0.0669
706.0,0.0827
705.0,0.1017
704.0,0.1239
703.0,0.1492
702.0,0.1772
701.0,0.2084
700.0,0.2429
699.0,0.2798
698.0,0.3162
697.0,0.347
696.0,0.365
695.0,0.3637
694.0,0.3425
693.0,0.3083
692.0,0.2701
691.0,0.234
690.0,0.2034
689.0,0.1791
688.0,0.1605
687.0,0.1461
686.0,0.1352
685.0,0.1271
684.0,0.1213
683.0,0.1168
682.0,0.1128
681.0,0.1091
680.0,0.1056
679.0,0.1023
678.0,0.0992
677.0,0.0961
676.0,0.0929
675.0,0.0897
674.0,0.0871
673.0,0.0853
672.0,0.0843
671.0,0.0843
670.0,0.0855
669.0,0.0873
668.0,0.0876
667.0,0.0851
666.0,0.0814
665.0,0.0783
664.0,0.0764
663.0,0.0753
662.0,0.0746
661.0,0.0739
660.0,0.0728
659.0,0.0713
658.0,0.0697
657.0,0.0688
656.0,0.0683
655.0,0.0679
654.0,0.0675
653.0,0.0671
652.0,0.0665
651.0,0.0655
650.0,0.0647
649.0,0.0643
648.0,0.0642
647.0,0.0638
646.0,0.0628
645.0,0.0618
644.0,0.0611
643.0,0.0606
642.0,0.06
641.0,0.0598
640.0,0.0602
639.0,0.0612
638.0,0.0627
637.0,0.0644
636.0,0.0662
635.0,0.0674
634.0,0.0676
633.0,0.0669
632.0,0.0659
631.0,0.0649
630.0,0.0641
629.0,0.064
628.0,0.0644
627.0,0.0651
626.0,0.0656
625.0,0.0662
624.0,0.0668
623.0,0.0671
622.0,0.0668
621.0,0.0661
620.0,0.065
619.0,0.0637
618.0,0.0622
617.0,0.0613
616.0,0.0614
615.0,0.0622
614.0,0.0631
613.0,0.0635
612.0,0.0635
611.0,0.0633
610.0,0.0635
609.0,0.0639
608.0,0.0639
607.0,0.0628
606.0,0.0609
605.0,0.0592
604.0,0.0586
603.0,0.0592
602.0,0.0604
601.0,0.0613
600.0,0.0611
