cm-1,A
4000.0,0.0025
3999.0,0.0025
3998.0,0.0025
3997.0,0.0025
3996.0,0.0025
3995.0,0.0025
3994.0,0.0025
3993.0,0.0026
3992.0,0.0026
3991.0,0.0026
3990.0,0.0025
3989.0,0.0025
3988.0,0.0025
3987.0,0.0024
3986.0,0.0024
3985.0,0.0024
3984.0,0.0024
3983.0,0.0023
3982.0,0.0023
3981.0,0.0024
3980.0,0.0024
3979.0,0.0024
3978.0,0.0024
3977.0,0.0024
3976.0,0.0024
3975.0,0.0023
3974.0,0.0023
3973.0,0.0023
3972.0,0.0024
3971.0,0.0025
3970.0,0.0025
3969.0,0.0025
3968.0,0.0024
3967.0,0.0024
3966.0,0.0024
3965.0,0.0024
3964.0,0.0023
3963.0,0.0023
3962.0,0.0022
3961.0,0.0021
3960.0,0.0021
3959.0,0.0022
3958.0,0.0024
3957.0,0.0025
3956.0,0.0025
3955.0,0.0025
3954.0,0.0025
3953.0,0.0024
3952.0,0.0024
3951.0,0.0024
3950.0,0.0024
3949.0,0.0023
3948.0,0.0023
3947.0,0.0023
3946.0,0.0023
3945.0,0.0023
3944.0,0.0022
3943.0,0.0021
3942.0,0.0021
3941.0,0.0021
3940.0,0.0022
3939.0,0.0022
3938.0,0.0023
3937.0,0.0024
3936.0,0.0025
3935.0,0.0025
3934.0,0.0025
3933.0,0.0024
3932.0,0.0024
3931.0,0.0024
3930.0,0.0025
3929.0,0.0025
3928.0,0.0026
3927.0,0.0026
3926.0,0.0024
3925.0,0.0023
3924.0,0.0022
3923.0,0.0022
3922.0,0.0022
3921.0,0.0023
3920.0,0.0024
3919.0,0.0026
3918.0,0.0027
3917.0,0.0027
3916.0,0.0027
3915.0,0.0026
3914.0,0.0025
3913.0,0.0024
3912.0,0.0024
3911.0,0.0025
3910.0,0.0025
3909.0,0.0024
3908.0,0.0024
3907.0,0.0024
3906.0,0.0024
3905.0,0.0024
3904.0,0.0025
3903.0,0.0025
3902.0,0.0025
3901.0,0.0025
3900.0,0.0024
3899.0,0.0024
3898.0,0.0024
3897.0,0.0025
3896.0,0.0025
3895.0,0.0025
3894.0,0.0025
3893.0,0.0024
3892.0,0.0023
3891.0,0.0023
3890.0,0.0024
3889.0,0.0024
3888.0,0.0025
3887.0,0.0024
3886.0,0.0024
3885.0,0.0024
3884.0,0.0024
3883.0,0.0024
3882.0,0.0023
3881.0,0.0022
3880.0,0.0022
3879.0,0.0023
3878.0,0.0023
3877.0,0.0024
3876.0,0.0024
3875.0,0.0024
3874.0,0.0024
3873.0,0.0024
3872.0,0.0023
3871.0,0.0021
3870.0,0.002
3869.0,0.002
3868.0,0.0021
3867.0,0.0022
3866.0,0.0023
3865.0,0.0023
3864.0,0.0023
3863.0,0.0023
3862.0,0.0023
3861.0,0.0024
3860.0,0.0025
3859.0,0.0026
3858.0,0.0026
3857.0,0.0027
3856.0,0.0028
3855.0,0.0028
3854.0,0.0026
3853.0,0.0023
3852.0,0.0021
3851.0,0.0021
3850.0,0.0022
3849.0,0.0023
3848.0,0.0024
3847.0,0.0025
3846.0,0.0026
3845.0,0.0027
3844.0,0.0027
3843.0,0.0027
3842.0,0.0026
3841.0,0.0024
3840.0,0.0022
3839.0,0.0019
3838.0,0.0019
3837.0,0.0019
3836.0,0.0021
3835.0,0.0023
3834.0,0.0024
3833.0,0.0025
3832.0,0.0026
3831.0,0.0027
3830.0,0.0028
3829.0,0.0028
3828.0,0.0027
3827.0,0.0026
3826.0,0.0025
3825.0,0.0024
3824.0,0.0023
3823.0,0.0022
3822.0,0.0021
3821.0,0.0021
3820.0,0.0021
3819.0,0.0022
3818.0,0.0022
3817.0,0.0022
3816.0,0.0023
3815.0,0.0024
3814.0,0.0025
3813.0,0.0025
3812.0,0.0024
3811.0,0.0025
3810.0,0.0026
3809.0,0.0027
3808.0,0.0027
3807.0,0.0027
3806.0,0.0027
3805.0,0.0026
3804.0,0.0025
3803.0,0.0023
3802.0,0.0023
3801.0,0.0023
3800.0,0.0024
3799.0,0.0025
3798.0,0.0025
3797.0,0.0026
3796.0,0.0026
3795.0,0.0027
3794.0,0.0028
3793.0,0.0028
3792.0,0.0028
3791.0,0.0028
3790.0,0.0028
3789.0,0.0027
3788.0,0.0026
3787.0,0.0026
3786.0,0.0026
3785.0,0.0026
3784.0,0.0026
3783.0,0.0026
3782.0,0.0026
3781.0,0.0025
3780.0,0.0025
3779.0,0.0025
3778.0,0.0025
3777.0,0.0025
3776.0,0.0025
3775.0,0.0026
3774.0,0.0026
3773.0,0.0027
3772.0,0.0026
3771.0,0.0026
3770.0,0.0026
3769.0,0.0026
3768.0,0.0026
3767.0,0.0026
3766.0,0.0026
3765.0,0.0026
3764.0,0.0026
3763.0,0.0027
3762.0,0.0027
3761.0,0.0027
3760.0,0.0027
3759.0,0.0026
3758.0,0.0026
3757.0,0.0026
3756.0,0.0026
3755.0,0.0026
3754.0,0.0027
3753.0,0.0028
3752.0,0.0031
3751.0,0.0033
3750.0,0.0033
3749.0,0.0031
3748.0,0.003
3747.0,0.0029
3746.0,0.0028
3745.0,0.0027
3744.0,0.0026
3743.0,0.0027
3742.0,0.0026
3741.0,0.0025
3740.0,0.0024
3739.0,0.0024
3738.0,0.0025
3737.0,0.0026
3736.0,0.0027
3735.0,0.0028
3734.0,0.0027
3733.0,0.0026
3732.0,0.0026
3731.0,0.0025
3730.0,0.0025
3729.0,0.0024
3728.0,0.0025
3727.0,0.0026
3726.0,0.0027
3725.0,0.0028
3724.0,0.0028
3723.0,0.0028
3722.0,0.0028
3721.0,0.0028
3720.0,0.0028
3719.0,0.0028
3718.0,0.0027
3717.0,0.0027
3716.0,0.0027
3715.0,0.0027
3714.0,0.0027
3713.0,0.0028
3712.0,0.003
3711.0,0.0029
3710.0,0.0028
3709.0,0.0028
3708.0,0.0028
3707.0,0.0028
3706.0,0.0029
3705.0,0.0029
3704.0,0.0028
3703.0,0.0027
3702.0,0.0027
3701.0,0.0028
3700.0,0.0029
3699.0,0.003
3698.0,0.003
3697.0,0.003
3696.0,0.003
3695.0,0.0029
3694.0,0.0028
3693.0,0.0028
3692.0,0.0027
3691.0,0.0027
3690.0,0.0025
3689.0,0.0024
3688.0,0.0025
3687.0,0.0027
3686.0,0.0029
3685.0,0.003
3684.0,0.0031
3683.0,0.0031
3682.0,0.0031
3681.0,0.0029
3680.0,0.0028
3679.0,0.0028
3678.0,0.0028
3677.0,0.0029
3676.0,0.003
3675.0,0.003
3674.0,0.003
3673.0,0.0029
3672.0,0.0029
3671.0,0.0028
3670.0,0.0029
3669.0,0.0029
3668.0,0.003
3667.0,0.003
3666.0,0.003
3665.0,0.003
3664.0,0.0031
3663.0,0.0031
3662.0,0.0031
3661.0,0.0032
3660.0,0.0032
3659.0,0.0032
3658.0,0.0032
3657.0,0.0031
3656.0,0.003
3655.0,0.0029
3654.0,0.0028
3653.0,0.0027
3652.0,0.0026
3651.0,0.0027
3650.0,0.0028
3649.0,0.0028
3648.0,0.0028
3647.0,0.0029
3646.0,0.003
3645.0,0.0031
3644.0,0.0031
3643.0,0.0031
3642.0,0.0031
3641.0,0.0031
3640.0,0.0031
3639.0,0.0031
3638.0,0.0031
3637.0,0.0032
3636.0,0.0033
3635.0,0.0033
3634.0,0.0033
3633.0,0.0033
3632.0,0.0032
3631.0,0.0032
3630.0,0.0032
3629.0,0.0032
3628.0,0.0033
3627.0,0.0033
3626.0,0.0033
3625.0,0.0032
3624.0,0.0031
3623.0,0.0031
3622.0,0.003
3621.0,0.0029
3620.0,0.0028
3619.0,0.0027
3618.0,0.0027
3617.0,0.0027
3616.0,0.0027
3615.0,0.0028
3614.0,0.0029
3613.0,0.003
3612.0,0.0031
3611.0,0.0032
3610.0,0.0033
3609.0,0.0034
3608.0,0.0034
3607.0,0.0035
3606.0,0.0035
3605.0,0.0034
3604.0,0.0034
3603.0,0.0033
3602.0,0.0032
3601.0,0.0031
3600.0,0.0031
3599.0,0.0031
3598.0,0.0032
3597.0,0.0034
3596.0,0.0035
3595.0,0.0036
3594.0,0.0036
3593.0,0.0036
3592.0,0.0036
3591.0,0.0036
3590.0,0.0035
3589.0,0.0034
3588.0,0.0034
3587.0,0.0034
3586.0,0.0034
3585.0,0.0034
3584.0,0.0033
3583.0,0.0033
3582.0,0.0033
3581.0,0.0033
3580.0,0.0034
3579.0,0.0035
3578.0,0.0036
3577.0,0.0036
3576.0,0.0037
3575.0,0.0037
3574.0,0.0038
3573.0,0.0037
3572.0,0.0037
3571.0,0.0037
3570.0,0.0037
3569.0,0.0037
3568.0,0.0037
3567.0,0.0036
3566.0,0.0035
3565.0,0.0035
3564.0,0.0036
3563.0,0.0037
3562.0,0.0038
3561.0,0.0038
3560.0,0.0038
3559.0,0.0038
3558.0,0.0039
3557.0,0.004
3556.0,0.004
3555.0,0.004
3554.0,0.0039
3553.0,0.0039
3552.0,0.004
3551.0,0.0041
3550.0,0.0041
3549.0,0.0041
3548.0,0.004
3547.0,0.0039
3546.0,0.0038
3545.0,0.0038
3544.0,0.0038
3543.0,0.0039
3542.0,0.0039
3541.0,0.004
3540.0,0.004
3539.0,0.004
3538.0,0.0039
3537.0,0.0039
3536.0,0.0039
3535.0,0.0039
3534.0,0.0039
3533.0,0.004
3532.0,0.004
3531.0,0.004
3530.0,0.004
3529.0,0.004
3528.0,0.0039
3527.0,0.0039
3526.0,0.0039
3525.0,0.0039
3524.0,0.0039
3523.0,0.004
3522.0,0.004
3521.0,0.004
3520.0,0.004
3519.0,0.004
3518.0,0.004
3517.0,0.0041
3516.0,0.0042
3515.0,0.0042
3514.0,0.0041
3513.0,0.0041
3512.0,0.004
3511.0,0.0039
3510.0,0.0039
3509.0,0.0038
3508.0,0.0038
3507.0,0.0039
3506.0,0.004
3505.0,0.0041
3504.0,0.0042
3503.0,0.0042
3502.0,0.0043
3501.0,0.0043
3500.0,0.0045
3499.0,0.0045
3498.0,0.0045
3497.0,0.0045
3496.0,0.0044
3495.0,0.0043
3494.0,0.0043
3493.0,0.0043
3492.0,0.0043
3491.0,0.0043
3490.0,0.0043
3489.0,0.0043
3488.0,0.0043
3487.0,0.0043
3486.0,0.0043
3485.0,0.0042
3484.0,0.0041
3483.0,0.004
3482.0,0.004
3481.0,0.004
3480.0,0.0042
3479.0,0.0043
3478.0,0.0044
3477.0,0.0044
3476.0,0.0043
3475.0,0.0042
3474.0,0.0042
3473.0,0.0042
3472.0,0.0043
3471.0,0.0044
3470.0,0.0044
3469.0,0.0044
3468.0,0.0044
3467.0,0.0043
3466.0,0.0043
3465.0,0.0044
3464.0,0.0044
3463.0,0.0044
3462.0,0.0043
3461.0,0.0043
3460.0,0.0043
3459.0,0.0043
3458.0,0.0044
3457.0,0.0045
3456.0,0.0046
3455.0,0.0046
3454.0,0.0046
3453.0,0.0045
3452.0,0.0045
3451.0,0.0045
3450.0,0.0046
3449.0,0.0046
3448.0,0.0046
3447.0,0.0046
3446.0,0.0045
3445.0,0.0044
3444.0,0.0044
3443.0,0.0044
3442.0,0.0044
3441.0,0.0045
3440.0,0.0045
3439.0,0.0046
3438.0,0.0046
3437.0,0.0046
3436.0,0.0046
3435.0,0.0046
3434.0,0.0045
3433.0,0.0044
3432.0,0.0044
3431.0,0.0044
3430.0,0.0044
3429.0,0.0044
3428.0,0.0045
3427.0,0.0046
3426.0,0.0047
3425.0,0.0047
3424.0,0.0046
3423.0,0.0046
3422.0,0.0045
3421.0,0.0045
3420.0,0.0045
3419.0,0.0046
3418.0,0.0047
3417.0,0.0047
3416.0,0.0048
3415.0,0.0047
3414.0,0.0046
3413.0,0.0046
3412.0,0.0046
3411.0,0.0046
3410.0,0.0046
3409.0,0.0045
3408.0,0.0045
3407.0,0.0045
3406.0,0.0046
3405.0,0.0047
3404.0,0.0047
3403.0,0.0046
3402.0,0.0046
3401.0,0.0045
3400.0,0.0046
3399.0,0.0046
3398.0,0.0046
3397.0,0.0046
3396.0,0.0047
3395.0,0.0047
3394.0,0.0047
3393.0,0.0047
3392.0,0.0047
3391.0,0.0047
3390.0,0.0047
3389.0,0.0047
3388.0,0.0047
3387.0,0.0047
3386.0,0.0048
3385.0,0.0048
3384.0,0.0048
3383.0,0.0047
3382.0,0.0047
3381.0,0.0046
3380.0,0.0046
3379.0,0.0047
3378.0,0.0047
3377.0,0.0047
3376.0,0.0047
3375.0,0.0047
3374.0,0.0046
3373.0,0.0045
3372.0,0.0045
3371.0,0.0045
3370.0,0.0045
3369.0,0.0045
3368.0,0.0045
3367.0,0.0045
3366.0,0.0045
3365.0,0.0045
3364.0,0.0045
3363.0,0.0045
3362.0,0.0045
3361.0,0.0046
3360.0,0.0045
3359.0,0.0045
3358.0,0.0045
3357.0,0.0046
3356.0,0.0046
3355.0,0.0045
3354.0,0.0045
3353.0,0.0044
3352.0,0.0044
3351.0,0.0045
3350.0,0.0045
3349.0,0.0046
3348.0,0.0046
3347.0,0.0046
3346.0,0.0046
3345.0,0.0047
3344.0,0.0047
3343.0,0.0047
3342.0,0.0047
3341.0,0.0047
3340.0,0.0047
3339.0,0.0047
3338.0,0.0047
3337.0,0.0047
3336.0,0.0047
3335.0,0.0047
3334.0,0.0048
3333.0,0.0048
3332.0,0.0047
3331.0,0.0046
3330.0,0.0046
3329.0,0.0045
3328.0,0.0045
3327.0,0.0046
3326.0,0.0046
3325.0,0.0045
3324.0,0.0044
3323.0,0.0043
3322.0,0.0043
3321.0,0.0043
3320.0,0.0043
3319.0,0.0044
3318.0,0.0044
3317.0,0.0044
3316.0,0.0044
3315.0,0.0044
3314.0,0.0044
3313.0,0.0044
3312.0,0.0044
3311.0,0.0043
3310.0,0.0043
3309.0,0.0043
3308.0,0.0043
3307.0,0.0042
3306.0,0.0042
3305.0,0.0041
3304.0,0.0041
3303.0,0.0041
3302.0,0.0042
3301.0,0.0043
3300.0,0.0044
3299.0,0.0045
3298.0,0.0046
3297.0,0.0046
3296.0,0.0046
3295.0,0.0046
3294.0,0.0046
3293.0,0.0046
3292.0,0.0046
3291.0,0.0046
3290.0,0.0046
3289.0,0.0045
3288.0,0.0045
3287.0,0.0045
3286.0,0.0045
3285.0,0.0044
3284.0,0.0044
3283.0,0.0044
3282.0,0.0044
3281.0,0.0044
3280.0,0.0044
3279.0,0.0043
3278.0,0.0043
3277.0,0.0042
3276.0,0.0042
3275.0,0.0041
3274.0,0.0041
3273.0,0.0042
3272.0,0.0042
3271.0,0.0042
3270.0,0.0042
3269.0,0.0042
3268.0,0.0042
3267.0,0.0043
3266.0,0.0045
3265.0,0.0045
3264.0,0.0046
3263.0,0.0045
3262.0,0.0043
3261.0,0.0043
3260.0,0.0043
3259.0,0.0043
3258.0,0.0043
3257.0,0.0042
3256.0,0.0042
3255.0,0.0042
3254.0,0.0043
3253.0,0.0042
3252.0,0.0042
3251.0,0.0042
3250.0,0.0042
3249.0,0.0042
3248.0,0.0043
3247.0,0.0043
3246.0,0.0043
3245.0,0.0043
3244.0,0.0042
3243.0,0.0041
3242.0,0.004
3241.0,0.004
3240.0,0.004
3239.0,0.004
3238.0,0.0041
3237.0,0.0041
3236.0,0.0041
3235.0,0.004
3234.0,0.004
3233.0,0.004
3232.0,0.004
3231.0,0.004
3230.0,0.004
3229.0,0.004
3228.0,0.0041
3227.0,0.0041
3226.0,0.0041
3225.0,0.0041
3224.0,0.0042
3223.0,0.0042
3222.0,0.0042
3221.0,0.0043
3220.0,0.0043
3219.0,0.0043
3218.0,0.0042
3217.0,0.0041
3216.0,0.004
3215.0,0.004
3214.0,0.0041
3213.0,0.0042
3212.0,0.0043
3211.0,0.0043
3210.0,0.0043
3209.0,0.0043
3208.0,0.0042
3207.0,0.0042
3206.0,0.0042
3205.0,0.0042
3204.0,0.0042
3203.0,0.0042
3202.0,0.0042
3201.0,0.0042
3200.0,0.0041
3199.0,0.0041
3198.0,0.004
3197.0,0.004
3196.0,0.004
3195.0,0.004
3194.0,0.004
3193.0,0.0039
3192.0,0.0039
3191.0,0.0039
3190.0,0.0039
3189.0,0.0039
3188.0,0.004
3187.0,0.004
3186.0,0.004
3185.0,0.0039
3184.0,0.0039
3183.0,0.0038
3182.0,0.0038
3181.0,0.0037
3180.0,0.0038
3179.0,0.0038
3178.0,0.0039
3177.0,0.004
3176.0,0.004
3175.0,0.004
3174.0,0.0039
3173.0,0.0039
3172.0,0.0039
3171.0,0.0039
3170.0,0.0039
3169.0,0.004
3168.0,0.004
3167.0,0.004
3166.0,0.004
3165.0,0.004
3164.0,0.0039
3163.0,0.0039
3162.0,0.0039
3161.0,0.0039
3160.0,0.0039
3159.0,0.0039
3158.0,0.0038
3157.0,0.0037
3156.0,0.0037
3155.0,0.0036
3154.0,0.0035
3153.0,0.0035
3152.0,0.0035
3151.0,0.0036
3150.0,0.0037
3149.0,0.0037
3148.0,0.0038
3147.0,0.0038
3146.0,0.0038
3145.0,0.0038
3144.0,0.0038
3143.0,0.0037
3142.0,0.0036
3141.0,0.0035
3140.0,0.0034
3139.0,0.0034
3138.0,0.0035
3137.0,0.0035
3136.0,0.0036
3135.0,0.0037
3134.0,0.0037
3133.0,0.0036
3132.0,0.0035
3131.0,0.0035
3130.0,0.0034
3129.0,0.0034
3128.0,0.0035
3127.0,0.0035
3126.0,0.0034
3125.0,0.0034
3124.0,0.0034
3123.0,0.0034
3122.0,0.0035
3121.0,0.0035
3120.0,0.0034
3119.0,0.0033
3118.0,0.0033
3117.0,0.0032
3116.0,0.0032
3115.0,0.0031
3114.0,0.0031
3113.0,0.0031
3112.0,0.0031
3111.0,0.0031
3110.0,0.0032
3109.0,0.0033
3108.0,0.0033
3107.0,0.0032
3106.0,0.0032
3105.0,0.0031
3104.0,0.0031
3103.0,0.003
3102.0,0.003
3101.0,0.0029
3100.0,0.0029
3099.0,0.0029
3098.0,0.0029
3097.0,0.0029
3096.0,0.003
3095.0,0.003
3094.0,0.003
3093.0,0.003
3092.0,0.003
3091.0,0.0029
3090.0,0.0029
3089.0,0.0029
3088.0,0.003
3087.0,0.003
3086.0,0.003
3085.0,0.0029
3084.0,0.0029
3083.0,0.0028
3082.0,0.0028
3081.0,0.0027
3080.0,0.0026
3079.0,0.0026
3078.0,0.0026
3077.0,0.0026
3076.0,0.0027
3075.0,0.0027
3074.0,0.0027
3073.0,0.0027
3072.0,0.0027
3071.0,0.0027
3070.0,0.0027
3069.0,0.0026
3068.0,0.0026
3067.0,0.0025
3066.0,0.0025
3065.0,0.0025
3064.0,0.0024
3063.0,0.0024
3062.0,0.0024
3061.0,0.0023
3060.0,0.0023
3059.0,0.0023
3058.0,0.0022
3057.0,0.0022
3056.0,0.0021
3055.0,0.0021
3054.0,0.0021
3053.0,0.0021
3052.0,0.0021
3051.0,0.0021
3050.0,0.0021
3049.0,0.0021
3048.0,0.0021
3047.0,0.0021
3046.0,0.0021
3045.0,0.0021
3044.0,0.0021
3043.0,0.0021
3042.0,0.002
3041.0,0.0019
3040.0,0.0018
3039.0,0.0017
3038.0,0.0017
3037.0,0.0018
3036.0,0.0018
3035.0,0.0018
3034.0,0.0017
3033.0,0.0016
3032.0,0.0016
3031.0,0.0016
3030.0,0.0016
3029.0,0.0016
3028.0,0.0015
3027.0,0.0014
3026.0,0.0014
3025.0,0.0014
3024.0,0.0014
3023.0,0.0015
3022.0,0.0015
3021.0,0.0016
3020.0,0.0016
3019.0,0.0015
3018.0,0.0014
3017.0,0.0013
3016.0,0.0012
3015.0,0.0012
3014.0,0.0011
3013.0,0.0011
3012.0,0.0011
3011.0,0.0011
3010.0,0.0011
3009.0,0.001
3008.0,0.001
3007.0,0.001
3006.0,0.001
3005.0,0.001
3004.0,0.001
3003.0,0.001
3002.0,0.0011
3001.0,0.0011
3000.0,0.0011
2999.0,0.001
2998.0,0.001
2997.0,0.0011
2996.0,0.0011
2995.0,0.0012
2994.0,0.0012
2993.0,0.0012
2992.0,0.0012
2991.0,0.0013
2990.0,0.0015
2989.0,0.0016
2988.0,0.0018
2987.0,0.002
2986.0,0.0022
2985.0,0.0024
2984.0,0.0026
2983.0,0.0028
2982.0,0.0032
2981.0,0.0036
2980.0,0.004
2979.0,0.0046
2978.0,0.0051
2977.0,0.0058
2976.0,0.0066
2975.0,0.0075
2974.0,0.0085
2973.0,0.0098
2972.0,0.0111
2971.0,0.0126
2970.0,0.0143
2969.0,0.016
2968.0,0.0178
2967.0,0.0197
2966.0,0.0216
2965.0,0.0235
2964.0,0.0252
2963.0,0.0268
2962.0,0.0281
2961.0,0.0292
2960.0,0.03
2959.0,0.0309
2958.0,0.0319
2957.0,0.0333
2956.0,0.035
2955.0,0.0371
2954.0,0.0395
2953.0,0.042
2952.0,0.0443
2951.0,0.046
2950.0,0.0469
2949.0,0.0467
2948.0,0.0455
2947.0,0.0433
2946.0,0.0404
2945.0,0.0372
2944.0,0.034
2943.0,0.0311
2942.0,0.0286
2941.0,0.0267
2940.0,0.0254
2939.0,0.0245
2938.0,0.0243
2937.0,0.0245
2936.0,0.0252
2935.0,0.0263
2934.0,0.0278
2933.0,0.0297
2932.0,0.0319
2931.0,0.0343
2930.0,0.0369
2929.0,0.0395
2928.0,0.042
2927.0,0.0444
2926.0,0.0468
2925.0,0.0491
2924.0,0.0514
2923.0,0.0538
2922.0,0.0563
2921.0,0.0586
2920.0,0.0607
2919.0,0.0624
2918.0,0.0634
2917.0,0.0635
2916.0,0.0627
2915.0,0.0613
2914.0,0.0595
2913.0,0.0575
2912.0,0.0556
2911.0,0.0538
2910.0,0.0521
2909.0,0.0506
2908.0,0.0492
2907.0,0.0478
2906.0,0.0466
2905.0,0.0453
2904.0,0.044
2903.0,0.0426
2902.0,0.0413
2901.0,0.04
2900.0,0.0387
2899.0,0.0374
2898.0,0.0362
2897.0,0.0351
2896.0,0.0342
2895.0,0.0334
2894.0,0.0328
2893.0,0.0321
2892.0,0.0316
2891.0,0.0312
2890.0,0.031
2889.0,0.0309
2888.0,0.031
2887.0,0.0312
2886.0,0.0315
2885.0,0.0318
2884.0,0.0322
2883.0,0.0327
2882.0,0.0332
2881.0,0.0339
2880.0,0.0346
2879.0,0.0352
2878.0,0.0356
2877.0,0.0358
2876.0,0.0357
2875.0,0.0356
2874.0,0.0355
2873.0,0.0355
2872.0,0.0358
2871.0,0.0363
2870.0,0.0369
2869.0,0.0376
2868.0,0.0382
2867.0,0.0384
2866.0,0.0381
2865.0,0.0372
2864.0,0.0356
2863.0,0.0337
2862.0,0.0315
2861.0,0.0293
2860.0,0.0274
2859.0,0.0258
2858.0,0.0245
2857.0,0.0235
2856.0,0.0227
2855.0,0.0221
2854.0,0.0217
2853.0,0.0215
2852.0,0.0214
2851.0,0.0215
2850.0,0.0219
2849.0,0.0224
2848.0,0.0231
2847.0,0.024
2846.0,0.0253
2845.0,0.0268
2844.0,0.0285
2843.0,0.0303
2842.0,0.0321
2841.0,0.0338
2840.0,0.0352
2839.0,0.0362
2838.0,0.0366
2837.0,0.0363
2836.0,0.0355
2835.0,0.034
2834.0,0.0322
2833.0,0.0302
2832.0,0.0282
2831.0,0.0265
2830.0,0.0249
2829.0,0.0236
2828.0,0.0224
2827.0,0.0215
2826.0,0.0207
2825.0,0.02
2824.0,0.0194
2823.0,0.0189
2822.0,0.0185
2821.0,0.0182
2820.0,0.0178
2819.0,0.0175
2818.0,0.0172
2817.0,0.0169
2816.0,0.0166
2815.0,0.0164
2814.0,0.0163
2813.0,0.0161
2812.0,0.016
2811.0,0.0158
2810.0,0.0156
2809.0,0.0154
2808.0,0.0152
2807.0,0.0151
2806.0,0.0148
2805.0,0.0146
2804.0,0.0143
2803.0,0.0141
2802.0,0.0139
2801.0,0.0137
2800.0,0.0136
2799.0,0.0134
2798.0,0.0133
2797.0,0.0132
2796.0,0.0131
2795.0,0.013
2794.0,0.0129
2793.0,0.0128
2792.0,0.0127
2791.0,0.0126
2790.0,0.0125
2789.0,0.0124
2788.0,0.0122
2787.0,0.0121
2786.0,0.012
2785.0,0.0119
2784.0,0.0118
2783.0,0.0117
2782.0,0.0117
2781.0,0.0116
2780.0,0.0115
2779.0,0.0114
2778.0,0.0113
2777.0,0.0112
2776.0,0.0111
2775.0,0.0111
2774.0,0.0111
2773.0,0.0111
2772.0,0.011
2771.0,0.0109
2770.0,0.0108
2769.0,0.0107
2768.0,0.0107
2767.0,0.0107
2766.0,0.0106
2765.0,0.0106
2764.0,0.0105
2763.0,0.0105
2762.0,0.0105
2761.0,0.0105
2760.0,0.0105
2759.0,0.0104
2758.0,0.0104
2757.0,0.0103
2756.0,0.0102
2755.0,0.0102
2754.0,0.0101
2753.0,0.01
2752.0,0.01
2751.0,0.01
2750.0,0.01
2749.0,0.01
2748.0,0.01
2747.0,0.01
2746.0,0.01
2745.0,0.0099
2744.0,0.0099
2743.0,0.0099
2742.0,0.01
2741.0,0.01
2740.0,0.01
2739.0,0.01
2738.0,0.01
2737.0,0.01
2736.0,0.01
2735.0,0.01
2734.0,0.01
2733.0,0.0101
2732.0,0.0101
2731.0,0.0101
2730.0,0.0102
2729.0,0.0102
2728.0,0.0103
2727.0,0.0104
2726.0,0.0105
2725.0,0.0107
2724.0,0.0109
2723.0,0.0109
2722.0,0.0109
2721.0,0.0109
2720.0,0.0108
2719.0,0.0107
2718.0,0.0106
2717.0,0.0105
2716.0,0.0104
2715.0,0.0104
2714.0,0.0103
2713.0,0.0102
2712.0,0.01
2711.0,0.0099
2710.0,0.0098
2709.0,0.0098
2708.0,0.0098
2707.0,0.0098
2706.0,0.0097
2705.0,0.0097
2704.0,0.0096
2703.0,0.0096
2702.0,0.0095
2701.0,0.0095
2700.0,0.0095
2699.0,0.0095
2698.0,0.0095
2697.0,0.0095
2696.0,0.0095
2695.0,0.0095
2694.0,0.0094
2693.0,0.0094
2692.0,0.0094
2691.0,0.0094
2690.0,0.0094
2689.0,0.0093
2688.0,0.0092
2687.0,0.0092
2686.0,0.0092
2685.0,0.0092
2684.0,0.0092
2683.0,0.0092
2682.0,0.0092
2681.0,0.0091
2680.0,0.0091
2679.0,0.0091
2678.0,0.0091
2677.0,0.0091
2676.0,0.0091
2675.0,0.0091
2674.0,0.009
2673.0,0.009
2672.0,0.009
2671.0,0.0091
2670.0,0.0091
2669.0,0.0091
2668.0,0.0091
2667.0,0.009
2666.0,0.009
2665.0,0.009
2664.0,0.009
2663.0,0.009
2662.0,0.009
2661.0,0.009
2660.0,0.0091
2659.0,0.0091
2658.0,0.0091
2657.0,0.0091
2656.0,0.009
2655.0,0.0089
2654.0,0.0089
2653.0,0.0088
2652.0,0.0088
2651.0,0.0088
2650.0,0.0088
2649.0,0.0088
2648.0,0.0088
2647.0,0.0088
2646.0,0.0088
2645.0,0.0088
2644.0,0.0088
2643.0,0.0087
2642.0,0.0086
2641.0,0.0086
2640.0,0.0086
2639.0,0.0087
2638.0,0.0087
2637.0,0.0087
2636.0,0.0087
2635.0,0.0087
2634.0,0.0087
2633.0,0.0087
2632.0,0.0087
2631.0,0.0087
2630.0,0.0087
2629.0,0.0087
2628.0,0.0086
2627.0,0.0086
2626.0,0.0085
2625.0,0.0085
2624.0,0.0086
2623.0,0.0087
2622.0,0.0087
2621.0,0.0086
2620.0,0.0086
2619.0,0.0085
2618.0,0.0085
2617.0,0.0085
2616.0,0.0086
2615.0,0.0086
2614.0,0.0085
2613.0,0.0085
2612.0,0.0085
2611.0,0.0085
2610.0,0.0085
2609.0,0.0085
2608.0,0.0085
2607.0,0.0084
2606.0,0.0084
2605.0,0.0084
2604.0,0.0084
2603.0,0.0084
2602.0,0.0085
2601.0,0.0085
2600.0,0.0085
2599.0,0.0085
2598.0,0.0084
2597.0,0.0084
2596.0,0.0084
2595.0,0.0083
2594.0,0.0083
2593.0,0.0083
2592.0,0.0083
2591.0,0.0084
2590.0,0.0084
2589.0,0.0084
2588.0,0.0084
2587.0,0.0084
2586.0,0.0084
2585.0,0.0084
2584.0,0.0084
2583.0,0.0084
2582.0,0.0084
2581.0,0.0085
2580.0,0.0085
2579.0,0.0086
2578.0,0.0086
2577.0,0.0086
2576.0,0.0086
2575.0,0.0085
2574.0,0.0085
2573.0,0.0084
2572.0,0.0084
2571.0,0.0084
2570.0,0.0084
2569.0,0.0084
2568.0,0.0084
2567.0,0.0083
2566.0,0.0083
2565.0,0.0083
2564.0,0.0083
2563.0,0.0083
2562.0,0.0083
2561.0,0.0083
2560.0,0.0083
2559.0,0.0083
2558.0,0.0082
2557.0,0.0082
2556.0,0.0083
2555.0,0.0083
2554.0,0.0083
2553.0,0.0083
2552.0,0.0083
2551.0,0.0083
2550.0,0.0083
2549.0,0.0083
2548.0,0.0083
2547.0,0.0083
2546.0,0.0082
2545.0,0.0082
2544.0,0.0082
2543.0,0.0082
2542.0,0.0081
2541.0,0.0081
2540.0,0.008
2539.0,0.008
2538.0,0.008
2537.0,0.0079
2536.0,0.0079
2535.0,0.0078
2534.0,0.0078
2533.0,0.0079
2532.0,0.0079
2531.0,0.0079
2530.0,0.0079
2529.0,0.0079
2528.0,0.0079
2527.0,0.0079
2526.0,0.0078
2525.0,0.0078
2524.0,0.0078
2523.0,0.0078
2522.0,0.0078
2521.0,0.0078
2520.0,0.0077
2519.0,0.0077
2518.0,0.0077
2517.0,0.0077
2516.0,0.0078
2515.0,0.0078
2514.0,0.0078
2513.0,0.0078
2512.0,0.0077
2511.0,0.0077
2510.0,0.0077
2509.0,0.0077
2508.0,0.0077
2507.0,0.0077
2506.0,0.0078
2505.0,0.0078
2504.0,0.0077
2503.0,0.0077
2502.0,0.0077
2501.0,0.0077
2500.0,0.0077
2499.0,0.0077
2498.0,0.0077
2497.0,0.0076
2496.0,0.0076
2495.0,0.0076
2494.0,0.0076
2493.0,0.0076
2492.0,0.0076
2491.0,0.0076
2490.0,0.0076
2489.0,0.0076
2488.0,0.0076
2487.0,0.0077
2486.0,0.0077
2485.0,0.0078
2484.0,0.0078
2483.0,0.0078
2482.0,0.0078
2481.0,0.0078
2480.0,0.0078
2479.0,0.0078
2478.0,0.0077
2477.0,0.0077
2476.0,0.0076
2475.0,0.0075
2474.0,0.0075
2473.0,0.0075
2472.0,0.0075
2471.0,0.0076
2470.0,0.0076
2469.0,0.0076
2468.0,0.0076
2467.0,0.0076
2466.0,0.0076
2465.0,0.0076
2464.0,0.0076
2463.0,0.0076
2462.0,0.0075
2461.0,0.0075
2460.0,0.0075
2459.0,0.0075
2458.0,0.0075
2457.0,0.0074
2456.0,0.0075
2455.0,0.0075
2454.0,0.0076
2453.0,0.0077
2452.0,0.0077
2451.0,0.0077
2450.0,0.0077
2449.0,0.0076
2448.0,0.0076
2447.0,0.0076
2446.0,0.0076
2445.0,0.0076
2444.0,0.0075
2443.0,0.0075
2442.0,0.0075
2441.0,0.0076
2440.0,0.0076
2439.0,0.0077
2438.0,0.0077
2437.0,0.0077
2436.0,0.0078
2435.0,0.0078
2434.0,0.0077
2433.0,0.0076
2432.0,0.0076
2431.0,0.0076
2430.0,0.0076
2429.0,0.0076
2428.0,0.0075
2427.0,0.0075
2426.0,0.0075
2425.0,0.0075
2424.0,0.0076
2423.0,0.0077
2422.0,0.0077
2421.0,0.0076
2420.0,0.0076
2419.0,0.0076
2418.0,0.0076
2417.0,0.0076
2416.0,0.0076
2415.0,0.0076
2414.0,0.0076
2413.0,0.0076
2412.0,0.0076
2411.0,0.0076
2410.0,0.0076
2409.0,0.0075
2408.0,0.0075
2407.0,0.0075
2406.0,0.0076
2405.0,0.0076
2404.0,0.0076
2403.0,0.0076
2402.0,0.0077
2401.0,0.0077
2400.0,0.0076
2399.0,0.0076
2398.0,0.0075
2397.0,0.0075
2396.0,0.0075
2395.0,0.0075
2394.0,0.0075
2393.0,0.0076
2392.0,0.0076
2391.0,0.0076
2390.0,0.0077
2389.0,0.0077
2388.0,0.0077
2387.0,0.0077
2386.0,0.0078
2385.0,0.0077
2384.0,0.0077
2383.0,0.0076
2382.0,0.0074
2381.0,0.0074
2380.0,0.0072
2379.0,0.0071
2378.0,0.0069
2377.0,0.0068
2376.0,0.0068
2375.0,0.0067
2374.0,0.0067
2373.0,0.0065
2372.0,0.0066
2371.0,0.0068
2370.0,0.0072
2369.0,0.0075
2368.0,0.0076
2367.0,0.0078
2366.0,0.008
2365.0,0.0079
2364.0,0.0073
2363.0,0.007
2362.0,0.007
2361.0,0.0069
2360.0,0.0064
2359.0,0.0064
2358.0,0.0071
2357.0,0.0077
2356.0,0.0078
2355.0,0.0076
2354.0,0.0072
2353.0,0.0067
2352.0,0.0062
2351.0,0.006
2350.0,0.0061
2349.0,0.0061
2348.0,0.0061
2347.0,0.006
2346.0,0.0061
2345.0,0.0063
2344.0,0.0067
2343.0,0.0072
2342.0,0.0071
2341.0,0.0061
2340.0,0.0048
2339.0,0.0038
2338.0,0.0036
2337.0,0.0037
2336.0,0.0038
2335.0,0.0038
2334.0,0.0035
2333.0,0.0032
2332.0,0.0033
2331.0,0.0038
2330.0,0.0046
2329.0,0.0053
2328.0,0.0058
2327.0,0.0059
2326.0,0.0059
2325.0,0.0059
2324.0,0.0058
2323.0,0.0057
2322.0,0.0058
2321.0,0.0061
2320.0,0.0065
2319.0,0.0071
2318.0,0.0076
2317.0,0.0078
2316.0,0.0079
2315.0,0.0078
2314.0,0.0076
2313.0,0.0075
2312.0,0.0073
2311.0,0.0072
2310.0,0.0071
2309.0,0.007
2308.0,0.0071
2307.0,0.0072
2306.0,0.0074
2305.0,0.0075
2304.0,0.0075
2303.0,0.0075
2302.0,0.0075
2301.0,0.0075
2300.0,0.0075
2299.0,0.0075
2298.0,0.0076
2297.0,0.0076
2296.0,0.0076
2295.0,0.0077
2294.0,0.0077
2293.0,0.0077
2292.0,0.0076
2291.0,0.0076
2290.0,0.0076
2289.0,0.0077
2288.0,0.0077
2287.0,0.0076
2286.0,0.0076
2285.0,0.0075
2284.0,0.0075
2283.0,0.0075
2282.0,0.0075
2281.0,0.0075
2280.0,0.0074
2279.0,0.0074
2278.0,0.0073
2277.0,0.0073
2276.0,0.0073
2275.0,0.0073
2274.0,0.0073
2273.0,0.0073
2272.0,0.0073
2271.0,0.0073
2270.0,0.0073
2269.0,0.0073
2268.0,0.0073
2267.0,0.0073
2266.0,0.0073
2265.0,0.0073
2264.0,0.0073
2263.0,0.0073
2262.0,0.0074
2261.0,0.0075
2260.0,0.0075
2259.0,0.0075
2258.0,0.0075
2257.0,0.0075
2256.0,0.0076
2255.0,0.0076
2254.0,0.0076
2253.0,0.0076
2252.0,0.0076
2251.0,0.0075
2250.0,0.0074
2249.0,0.0074
2248.0,0.0074
2247.0,0.0075
2246.0,0.0075
2245.0,0.0075
2244.0,0.0075
2243.0,0.0074
2242.0,0.0074
2241.0,0.0074
2240.0,0.0074
2239.0,0.0074
2238.0,0.0074
2237.0,0.0074
2236.0,0.0074
2235.0,0.0075
2234.0,0.0075
2233.0,0.0075
2232.0,0.0075
2231.0,0.0075
2230.0,0.0074
2229.0,0.0073
2228.0,0.0073
2227.0,0.0073
2226.0,0.0073
2225.0,0.0073
2224.0,0.0073
2223.0,0.0073
2222.0,0.0073
2221.0,0.0073
2220.0,0.0073
2219.0,0.0073
2218.0,0.0073
2217.0,0.0074
2216.0,0.0074
2215.0,0.0074
2214.0,0.0075
2213.0,0.0075
2212.0,0.0075
2211.0,0.0075
2210.0,0.0074
2209.0,0.0074
2208.0,0.0074
2207.0,0.0073
2206.0,0.0074
2205.0,0.0074
2204.0,0.0074
2203.0,0.0074
2202.0,0.0074
2201.0,0.0074
2200.0,0.0074
2199.0,0.0074
2198.0,0.0074
2197.0,0.0074
2196.0,0.0074
2195.0,0.0074
2194.0,0.0074
2193.0,0.0074
2192.0,0.0073
2191.0,0.0073
2190.0,0.0072
2189.0,0.0072
2188.0,0.0073
2187.0,0.0073
2186.0,0.0074
2185.0,0.0074
2184.0,0.0074
2183.0,0.0075
2182.0,0.0075
2181.0,0.0075
2180.0,0.0075
2179.0,0.0075
2178.0,0.0075
2177.0,0.0075
2176.0,0.0075
2175.0,0.0075
2174.0,0.0075
2173.0,0.0075
2172.0,0.0076
2171.0,0.0076
2170.0,0.0076
2169.0,0.0076
2168.0,0.0076
2167.0,0.0076
2166.0,0.0076
2165.0,0.0076
2164.0,0.0076
2163.0,0.0076
2162.0,0.0075
2161.0,0.0075
2160.0,0.0075
2159.0,0.0075
2158.0,0.0074
2157.0,0.0074
2156.0,0.0074
2155.0,0.0075
2154.0,0.0075
2153.0,0.0075
2152.0,0.0075
2151.0,0.0075
2150.0,0.0075
2149.0,0.0075
2148.0,0.0074
2147.0,0.0074
2146.0,0.0074
2145.0,0.0074
2144.0,0.0074
2143.0,0.0074
2142.0,0.0074
2141.0,0.0075
2140.0,0.0075
2139.0,0.0075
2138.0,0.0074
2137.0,0.0074
2136.0,0.0074
2135.0,0.0075
2134.0,0.0076
2133.0,0.0076
2132.0,0.0076
2131.0,0.0075
2130.0,0.0075
2129.0,0.0074
2128.0,0.0074
2127.0,0.0074
2126.0,0.0075
2125.0,0.0075
2124.0,0.0075
2123.0,0.0075
2122.0,0.0075
2121.0,0.0075
2120.0,0.0075
2119.0,0.0074
2118.0,0.0074
2117.0,0.0073
2116.0,0.0074
2115.0,0.0074
2114.0,0.0074
2113.0,0.0074
2112.0,0.0074
2111.0,0.0074
2110.0,0.0074
2109.0,0.0074
2108.0,0.0074
2107.0,0.0074
2106.0,0.0075
2105.0,0.0075
2104.0,0.0076
2103.0,0.0076
2102.0,0.0075
2101.0,0.0075
2100.0,0.0075
2099.0,0.0075
2098.0,0.0075
2097.0,0.0075
2096.0,0.0075
2095.0,0.0075
2094.0,0.0075
2093.0,0.0075
2092.0,0.0074
2091.0,0.0074
2090.0,0.0074
2089.0,0.0074
2088.0,0.0075
2087.0,0.0075
2086.0,0.0075
2085.0,0.0075
2084.0,0.0075
2083.0,0.0074
2082.0,0.0074
2081.0,0.0074
2080.0,0.0075
2079.0,0.0075
2078.0,0.0075
2077.0,0.0075
2076.0,0.0074
2075.0,0.0074
2074.0,0.0074
2073.0,0.0073
2072.0,0.0073
2071.0,0.0073
2070.0,0.0073
2069.0,0.0074
2068.0,0.0074
2067.0,0.0074
2066.0,0.0075
2065.0,0.0075
2064.0,0.0074
2063.0,0.0074
2062.0,0.0074
2061.0,0.0074
2060.0,0.0074
2059.0,0.0075
2058.0,0.0075
2057.0,0.0076
2056.0,0.0076
2055.0,0.0075
2054.0,0.0075
2053.0,0.0074
2052.0,0.0074
2051.0,0.0074
2050.0,0.0074
2049.0,0.0074
2048.0,0.0075
2047.0,0.0076
2046.0,0.0076
2045.0,0.0076
2044.0,0.0076
2043.0,0.0075
2042.0,0.0075
2041.0,0.0075
2040.0,0.0076
2039.0,0.0076
2038.0,0.0075
2037.0,0.0075
2036.0,0.0074
2035.0,0.0074
2034.0,0.0074
2033.0,0.0074
2032.0,0.0074
2031.0,0.0074
2030.0,0.0074
2029.0,0.0074
2028.0,0.0075
2027.0,0.0075
2026.0,0.0075
2025.0,0.0075
2024.0,0.0075
2023.0,0.0075
2022.0,0.0075
2021.0,0.0074
2020.0,0.0074
2019.0,0.0074
2018.0,0.0075
2017.0,0.0076
2016.0,0.0076
2015.0,0.0076
2014.0,0.0076
2013.0,0.0076
2012.0,0.0076
2011.0,0.0076
2010.0,0.0076
2009.0,0.0076
2008.0,0.0076
2007.0,0.0075
2006.0,0.0075
2005.0,0.0075
2004.0,0.0075
2003.0,0.0075
2002.0,0.0075
2001.0,0.0075
2000.0,0.0075
1999.0,0.0076
1998.0,0.0076
1997.0,0.0076
1996.0,0.0076
1995.0,0.0075
1994.0,0.0075
1993.0,0.0074
1992.0,0.0075
1991.0,0.0075
1990.0,0.0075
1989.0,0.0075
1988.0,0.0075
1987.0,0.0075
1986.0,0.0075
1985.0,0.0075
1984.0,0.0075
1983.0,0.0075
1982.0,0.0075
1981.0,0.0076
1980.0,0.0076
1979.0,0.0076
1978.0,0.0076
1977.0,0.0076
1976.0,0.0076
1975.0,0.0076
1974.0,0.0076
1973.0,0.0076
1972.0,0.0075
1971.0,0.0075
1970.0,0.0074
1969.0,0.0074
1968.0,0.0074
1967.0,0.0074
1966.0,0.0074
1965.0,0.0075
1964.0,0.0075
1963.0,0.0075
1962.0,0.0075
1961.0,0.0075
1960.0,0.0075
1959.0,0.0076
1958.0,0.0076
1957.0,0.0076
1956.0,0.0075
1955.0,0.0074
1954.0,0.0074
1953.0,0.0074
1952.0,0.0074
1951.0,0.0075
1950.0,0.0075
1949.0,0.0076
1948.0,0.0077
1947.0,0.0077
1946.0,0.0077
1945.0,0.0077
1944.0,0.0077
1943.0,0.0076
1942.0,0.0076
1941.0,0.0076
1940.0,0.0075
1939.0,0.0075
1938.0,0.0075
1937.0,0.0075
1936.0,0.0075
1935.0,0.0075
1934.0,0.0076
1933.0,0.0076
1932.0,0.0076
1931.0,0.0076
1930.0,0.0077
1929.0,0.0077
1928.0,0.0077
1927.0,0.0077
1926.0,0.0077
1925.0,0.0077
1924.0,0.0076
1923.0,0.0076
1922.0,0.0075
1921.0,0.0075
1920.0,0.0075
1919.0,0.0075
1918.0,0.0075
1917.0,0.0075
1916.0,0.0076
1915.0,0.0077
1914.0,0.0077
1913.0,0.0077
1912.0,0.0077
1911.0,0.0077
1910.0,0.0077
1909.0,0.0077
1908.0,0.0077
1907.0,0.0077
1906.0,0.0077
1905.0,0.0077
1904.0,0.0077
1903.0,0.0076
1902.0,0.0076
1901.0,0.0076
1900.0,0.0076
1899.0,0.0076
1898.0,0.0077
1897.0,0.0077
1896.0,0.0077
1895.0,0.0076
1894.0,0.0076
1893.0,0.0077
1892.0,0.0077
1891.0,0.0077
1890.0,0.0077
1889.0,0.0077
1888.0,0.0077
1887.0,0.0077
1886.0,0.0077
1885.0,0.0077
1884.0,0.0077
1883.0,0.0077
1882.0,0.0077
1881.0,0.0077
1880.0,0.0077
1879.0,0.0077
1878.0,0.0077
1877.0,0.0077
1876.0,0.0077
1875.0,0.0077
1874.0,0.0078
1873.0,0.0077
1872.0,0.0077
1871.0,0.0077
1870.0,0.0077
1869.0,0.0076
1868.0,0.0076
1867.0,0.0076
1866.0,0.0076
1865.0,0.0076
1864.0,0.0076
1863.0,0.0076
1862.0,0.0077
1861.0,0.0077
1860.0,0.0077
1859.0,0.0077
1858.0,0.0077
1857.0,0.0078
1856.0,0.0078
1855.0,0.0078
1854.0,0.0078
1853.0,0.0078
1852.0,0.0079
1851.0,0.0079
1850.0,0.0078
1849.0,0.0078
1848.0,0.0078
1847.0,0.0078
1846.0,0.0078
1845.0,0.0078
1844.0,0.0078
1843.0,0.0078
1842.0,0.0077
1841.0,0.0077
1840.0,0.0077
1839.0,0.0077
1838.0,0.0078
1837.0,0.0078
1836.0,0.0078
1835.0,0.0078
1834.0,0.0078
1833.0,0.0078
1832.0,0.0079
1831.0,0.0079
1830.0,0.0079
1829.0,0.0079
1828.0,0.0079
1827.0,0.0079
1826.0,0.0079
1825.0,0.0078
1824.0,0.0078
1823.0,0.0078
1822.0,0.0078
1821.0,0.0078
1820.0,0.0078
1819.0,0.0078
1818.0,0.0078
1817.0,0.0078
1816.0,0.0078
1815.0,0.0078
1814.0,0.0078
1813.0,0.0078
1812.0,0.0078
1811.0,0.0078
1810.0,0.0078
1809.0,0.0078
1808.0,0.0078
1807.0,0.0078
1806.0,0.0078
1805.0,0.0078
1804.0,0.0078
1803.0,0.0078
1802.0,0.0079
1801.0,0.008
1800.0,0.008
1799.0,0.0079
1798.0,0.0078
1797.0,0.0078
1796.0,0.0078
1795.0,0.0078
1794.0,0.0078
1793.0,0.0078
1792.0,0.0078
1791.0,0.0078
1790.0,0.0078
1789.0,0.0079
1788.0,0.0079
1787.0,0.0079
1786.0,0.0079
1785.0,0.0079
1784.0,0.0079
1783.0,0.0079
1782.0,0.0079
1781.0,0.0079
1780.0,0.008
1779.0,0.008
1778.0,0.008
1777.0,0.008
1776.0,0.008
1775.0,0.0079
1774.0,0.0079
1773.0,0.0079
1772.0,0.0079
1771.0,0.0079
1770.0,0.0079
1769.0,0.008
1768.0,0.008
1767.0,0.0079
1766.0,0.0079
1765.0,0.008
1764.0,0.008
1763.0,0.008
1762.0,0.008
1761.0,0.008
1760.0,0.008
1759.0,0.008
1758.0,0.0081
1757.0,0.0081
1756.0,0.0082
1755.0,0.0082
1754.0,0.0082
1753.0,0.0082
1752.0,0.0082
1751.0,0.0082
1750.0,0.0083
1749.0,0.0083
1748.0,0.0083
1747.0,0.0084
1746.0,0.0083
1745.0,0.0083
1744.0,0.0083
1743.0,0.0083
1742.0,0.0083
1741.0,0.0084
1740.0,0.0084
1739.0,0.0085
1738.0,0.0085
1737.0,0.0085
1736.0,0.0085
1735.0,0.0085
1734.0,0.0086
1733.0,0.0085
1732.0,0.0084
1731.0,0.0084
1730.0,0.0083
1729.0,0.0084
1728.0,0.0084
1727.0,0.0085
1726.0,0.0085
1725.0,0.0085
1724.0,0.0084
1723.0,0.0084
1722.0,0.0084
1721.0,0.0084
1720.0,0.0084
1719.0,0.0083
1718.0,0.0084
1717.0,0.0084
1716.0,0.0085
1715.0,0.0085
1714.0,0.0085
1713.0,0.0085
1712.0,0.0085
1711.0,0.0085
1710.0,0.0085
1709.0,0.0085
1708.0,0.0085
1707.0,0.0084
1706.0,0.0084
1705.0,0.0085
1704.0,0.0086
1703.0,0.0087
1702.0,0.0087
1701.0,0.0087
1700.0,0.0087
1699.0,0.0087
1698.0,0.0088
1697.0,0.0089
1696.0,0.0089
1695.0,0.0088
1694.0,0.0088
1693.0,0.0088
1692.0,0.0088
1691.0,0.0088
1690.0,0.0088
1689.0,0.0089
1688.0,0.009
1687.0,0.0091
1686.0,0.009
1685.0,0.009
1684.0,0.0089
1683.0,0.0089
1682.0,0.0089
1681.0,0.009
1680.0,0.0091
1679.0,0.0091
1678.0,0.0091
1677.0,0.0091
1676.0,0.0092
1675.0,0.0092
1674.0,0.0092
1673.0,0.0092
1672.0,0.0092
1671.0,0.0092
1670.0,0.0092
1669.0,0.0092
1668.0,0.0092
1667.0,0.0092
1666.0,0.0092
1665.0,0.0092
1664.0,0.0092
1663.0,0.0092
1662.0,0.0093
1661.0,0.0094
1660.0,0.0094
1659.0,0.0094
1658.0,0.0094
1657.0,0.0094
1656.0,0.0094
1655.0,0.0093
1654.0,0.0093
1653.0,0.0093
1652.0,0.0092
1651.0,0.0092
1650.0,0.0092
1649.0,0.0093
1648.0,0.0093
1647.0,0.0095
1646.0,0.0095
1645.0,0.0095
1644.0,0.0095
1643.0,0.0095
1642.0,0.0095
1641.0,0.0095
1640.0,0.0095
1639.0,0.0095
1638.0,0.0095
1637.0,0.0096
1636.0,0.0097
1635.0,0.0097
1634.0,0.0096
1633.0,0.0096
1632.0,0.0096
1631.0,0.0096
1630.0,0.0095
1629.0,0.0095
1628.0,0.0095
1627.0,0.0095
1626.0,0.0095
1625.0,0.0095
1624.0,0.0095
1623.0,0.0095
1622.0,0.0095
1621.0,0.0095
1620.0,0.0094
1619.0,0.0093
1618.0,0.0092
1617.0,0.0092
1616.0,0.0092
1615.0,0.0093
1614.0,0.0093
1613.0,0.0093
1612.0,0.0093
1611.0,0.0092
1610.0,0.0092
1609.0,0.0092
1608.0,0.0093
1607.0,0.0093
1606.0,0.0092
1605.0,0.0092
1604.0,0.0092
1603.0,0.0091
1602.0,0.0092
1601.0,0.0092
1600.0,0.0092
1599.0,0.0092
1598.0,0.0092
1597.0,0.0092
1596.0,0.0091
1595.0,0.009
1594.0,0.009
1593.0,0.0089
1592.0,0.0089
1591.0,0.0089
1590.0,0.0089
1589.0,0.0089
1588.0,0.009
1587.0,0.009
1586.0,0.0089
1585.0,0.0089
1584.0,0.0089
1583.0,0.009
1582.0,0.009
1581.0,0.009
1580.0,0.009
1579.0,0.009
1578.0,0.0089
1577.0,0.0088
1576.0,0.0088
1575.0,0.0088
1574.0,0.0088
1573.0,0.0089
1572.0,0.0088
1571.0,0.0088
1570.0,0.0087
1569.0,0.0088
1568.0,0.0088
1567.0,0.0088
1566.0,0.0088
1565.0,0.0087
1564.0,0.0087
1563.0,0.0087
1562.0,0.0087
1561.0,0.0086
1560.0,0.0086
1559.0,0.0088
1558.0,0.0087
1557.0,0.0087
1556.0,0.0088
1555.0,0.0089
1554.0,0.0089
1553.0,0.0089
1552.0,0.0089
1551.0,0.0088
1550.0,0.0088
1549.0,0.0088
1548.0,0.0088
1547.0,0.0088
1546.0,0.0087
1545.0,0.0087
1544.0,0.0088
1543.0,0.0088
1542.0,0.0089
1541.0,0.0089
1540.0,0.0086
1539.0,0.0084
1538.0,0.0084
1537.0,0.0084
1536.0,0.0085
1535.0,0.0085
1534.0,0.0085
1533.0,0.0085
1532.0,0.0085
1531.0,0.0084
1530.0,0.0084
1529.0,0.0083
1528.0,0.0084
1527.0,0.0084
1526.0,0.0084
1525.0,0.0084
1524.0,0.0084
1523.0,0.0084
1522.0,0.0084
1521.0,0.0085
1520.0,0.0085
1519.0,0.0084
1518.0,0.0083
1517.0,0.0083
1516.0,0.0083
1515.0,0.0083
1514.0,0.0083
1513.0,0.0084
1512.0,0.0084
1511.0,0.0084
1510.0,0.0082
1509.0,0.0082
1508.0,0.0082
1507.0,0.0082
1506.0,0.0081
1505.0,0.008
1504.0,0.008
1503.0,0.008
1502.0,0.0079
1501.0,0.0079
1500.0,0.0079
1499.0,0.0079
1498.0,0.0079
1497.0,0.008
1496.0,0.0081
1495.0,0.008
1494.0,0.008
1493.0,0.008
1492.0,0.0079
1491.0,0.0078
1490.0,0.0078
1489.0,0.0078
1488.0,0.0079
1487.0,0.008
1486.0,0.0081
1485.0,0.0082
1484.0,0.0083
1483.0,0.0083
1482.0,0.0085
1481.0,0.0087
1480.0,0.0089
1479.0,0.0091
1478.0,0.0094
1477.0,0.0099
1476.0,0.0106
1475.0,0.0113
1474.0,0.0125
1473.0,0.0146
1472.0,0.0171
1471.0,0.0193
1470.0,0.0213
1469.0,0.0236
1468.0,0.0261
1467.0,0.029
1466.0,0.0327
1465.0,0.037
1464.0,0.0407
1463.0,0.043
1462.0,0.0443
1461.0,0.0452
1460.0,0.0458
1459.0,0.0465
1458.0,0.0477
1457.0,0.0492
1456.0,0.05
1455.0,0.0499
1454.0,0.0497
1453.0,0.0494
1452.0,0.0489
1451.0,0.0481
1450.0,0.0467
1449.0,0.0448
1448.0,0.0421
1447.0,0.0391
1446.0,0.0364
1445.0,0.0341
1444.0,0.0319
1443.0,0.03
1442.0,0.0285
1441.0,0.0274
1440.0,0.0266
1439.0,0.0263
1438.0,0.0265
1437.0,0.027
1436.0,0.0272
1435.0,0.0267
1434.0,0.0255
1433.0,0.024
1432.0,0.0223
1431.0,0.0207
1430.0,0.0194
1429.0,0.0184
1428.0,0.0177
1427.0,0.0171
1426.0,0.0167
1425.0,0.0162
1424.0,0.0158
1423.0,0.0155
1422.0,0.0154
1421.0,0.0151
1420.0,0.0148
1419.0,0.0146
1418.0,0.0145
1417.0,0.0143
1416.0,0.0141
1415.0,0.014
1414.0,0.0139
1413.0,0.0138
1412.0,0.0136
1411.0,0.0136
1410.0,0.0135
1409.0,0.0133
1408.0,0.0131
1407.0,0.013
1406.0,0.0128
1405.0,0.0127
1404.0,0.0126
1403.0,0.0125
1402.0,0.0124
1401.0,0.0122
1400.0,0.0121
1399.0,0.012
1398.0,0.0119
1397.0,0.0117
1396.0,0.0115
1395.0,0.0114
1394.0,0.0114
1393.0,0.0113
1392.0,0.0112
1391.0,0.0112
1390.0,0.0113
1389.0,0.0115
1388.0,0.0118
1387.0,0.0125
1386.0,0.0137
1385.0,0.0155
1384.0,0.0182
1383.0,0.0224
1382.0,0.0281
1381.0,0.0356
1380.0,0.0452
1379.0,0.0564
1378.0,0.0674
1377.0,0.0761
1376.0,0.0806
1375.0,0.0797
1374.0,0.0737
1373.0,0.0654
1372.0,0.0573
1371.0,0.0502
1370.0,0.0438
1369.0,0.0386
1368.0,0.0347
1367.0,0.0321
1366.0,0.0304
1365.0,0.0295
1364.0,0.0292
1363.0,0.0295
1362.0,0.0303
1361.0,0.0313
1360.0,0.0321
1359.0,0.0324
1358.0,0.0322
1357.0,0.0314
1356.0,0.0301
1355.0,0.0286
1354.0,0.027
1353.0,0.0257
1352.0,0.0245
1351.0,0.0235
1350.0,0.0227
1349.0,0.0219
1348.0,0.0213
1347.0,0.0207
1346.0,0.0202
1345.0,0.0198
1344.0,0.0194
1343.0,0.0191
1342.0,0.0189
1341.0,0.0187
1340.0,0.0186
1339.0,0.0185
1338.0,0.0183
1337.0,0.0182
1336.0,0.0181
1335.0,0.0181
1334.0,0.0182
1333.0,0.0183
1332.0,0.0185
1331.0,0.0186
1330.0,0.0187
1329.0,0.0187
1328.0,0.0186
1327.0,0.0184
1326.0,0.0182
1325.0,0.0179
1324.0,0.0176
1323.0,0.0174
1322.0,0.0172
1321.0,0.0171
1320.0,0.017
1319.0,0.0169
1318.0,0.0168
1317.0,0.0167
1316.0,0.0166
1315.0,0.0165
1314.0,0.0164
1313.0,0.0163
1312.0,0.0162
1311.0,0.0162
1310.0,0.0162
1309.0,0.0163
1308.0,0.0166
1307.0,0.0168
1306.0,0.0171
1305.0,0.0173
1304.0,0.0174
1303.0,0.0174
1302.0,0.0173
1301.0,0.0173
1300.0,0.0173
1299.0,0.0174
1298.0,0.0175
1297.0,0.0176
1296.0,0.0177
1295.0,0.0177
1294.0,0.0176
1293.0,0.0175
1292.0,0.0173
1291.0,0.0171
1290.0,0.0169
1289.0,0.0167
1288.0,0.0165
1287.0,0.0164
1286.0,0.0163
1285.0,0.0163
1284.0,0.0162
1283.0,0.0161
1282.0,0.0161
1281.0,0.016
1280.0,0.016
1279.0,0.016
1278.0,0.0159
1277.0,0.0159
1276.0,0.0158
1275.0,0.0157
1274.0,0.0156
1273.0,0.0156
1272.0,0.0156
1271.0,0.0156
1270.0,0.0157
1269.0,0.0157
1268.0,0.0157
1267.0,0.0158
1266.0,0.0158
1265.0,0.0159
1264.0,0.016
1263.0,0.0161
1262.0,0.0162
1261.0,0.0164
1260.0,0.0165
1259.0,0.0167
1258.0,0.017
1257.0,0.0172
1256.0,0.0173
1255.0,0.0173
1254.0,0.0172
1253.0,0.017
1252.0,0.0168
1251.0,0.0166
1250.0,0.0165
1249.0,0.0163
1248.0,0.0162
1247.0,0.0161
1246.0,0.016
1245.0,0.0159
1244.0,0.0158
1243.0,0.0158
1242.0,0.0158
1241.0,0.0159
1240.0,0.0159
1239.0,0.0159
1238.0,0.0159
1237.0,0.0159
1236.0,0.0158
1235.0,0.0158
1234.0,0.0158
1233.0,0.0158
1232.0,0.0158
1231.0,0.0158
1230.0,0.0157
1229.0,0.0157
1228.0,0.0157
1227.0,0.0158
1226.0,0.0159
1225.0,0.0161
1224.0,0.0163
1223.0,0.0165
1222.0,0.0166
1221.0,0.0167
1220.0,0.0168
1219.0,0.0168
1218.0,0.0167
1217.0,0.0166
1216.0,0.0165
1215.0,0.0165
1214.0,0.0164
1213.0,0.0164
1212.0,0.0163
1211.0,0.0162
1210.0,0.0161
1209.0,0.016
1208.0,0.016
1207.0,0.0159
1206.0,0.0159
1205.0,0.0159
1204.0,0.016
1203.0,0.016
1202.0,0.0159
1201.0,0.0159
1200.0,0.0158
1199.0,0.0158
1198.0,0.0158
1197.0,0.0159
1196.0,0.0159
1195.0,0.0159
1194.0,0.0159
1193.0,0.0159
1192.0,0.0158
1191.0,0.0158
1190.0,0.0158
1189.0,0.0158
1188.0,0.0158
1187.0,0.0158
1186.0,0.0159
1185.0,0.0159
1184.0,0.016
1183.0,0.016
1182.0,0.016
1181.0,0.016
1180.0,0.0161
1179.0,0.0163
1178.0,0.0164
1177.0,0.0166
1176.0,0.0168
1175.0,0.0172
1174.0,0.0178
1173.0,0.0186
1172.0,0.0195
1171.0,0.0205
1170.0,0.0214
1169.0,0.0221
1168.0,0.0225
1167.0,0.0226
1166.0,0.0225
1165.0,0.0222
1164.0,0.022
1163.0,0.0217
1162.0,0.0214
1161.0,0.0212
1160.0,0.021
1159.0,0.0209
1158.0,0.0209
1157.0,0.021
1156.0,0.0211
1155.0,0.0212
1154.0,0.0212
1153.0,0.0212
1152.0,0.0211
1151.0,0.0209
1150.0,0.0206
1149.0,0.0203
1148.0,0.0199
1147.0,0.0195
1146.0,0.0192
1145.0,0.019
1144.0,0.0187
1143.0,0.0185
1142.0,0.0182
1141.0,0.0179
1140.0,0.0176
1139.0,0.0173
1138.0,0.0171
1137.0,0.0169
1136.0,0.0168
1135.0,0.0168
1134.0,0.0168
1133.0,0.0168
1132.0,0.0167
1131.0,0.0166
1130.0,0.0165
1129.0,0.0165
1128.0,0.0165
1127.0,0.0165
1126.0,0.0165
1125.0,0.0165
1124.0,0.0165
1123.0,0.0164
1122.0,0.0164
1121.0,0.0163
1120.0,0.0163
1119.0,0.0162
1118.0,0.0162
1117.0,0.0162
1116.0,0.0163
1115.0,0.0163
1114.0,0.0164
1113.0,0.0165
1112.0,0.0167
1111.0,0.0169
1110.0,0.017
1109.0,0.0172
1108.0,0.0173
1107.0,0.0176
1106.0,0.0179
1105.0,0.0183
1104.0,0.0186
1103.0,0.0187
1102.0,0.0187
1101.0,0.0186
1100.0,0.0184
1099.0,0.0182
1098.0,0.0179
1097.0,0.0178
1096.0,0.0176
1095.0,0.0175
1094.0,0.0173
1093.0,0.0172
1092.0,0.0171
1091.0,0.017
1090.0,0.0169
1089.0,0.0169
1088.0,0.0169
1087.0,0.0169
1086.0,0.0169
1085.0,0.0169
1084.0,0.0168
1083.0,0.0168
1082.0,0.0168
1081.0,0.0168
1080.0,0.0168
1079.0,0.0168
1078.0,0.0168
1077.0,0.0168
1076.0,0.0168
1075.0,0.0167
1074.0,0.0167
1073.0,0.0166
1072.0,0.0166
1071.0,0.0166
1070.0,0.0166
1069.0,0.0166
1068.0,0.0166
1067.0,0.0166
1066.0,0.0165
1065.0,0.0164
1064.0,0.0165
1063.0,0.0165
1062.0,0.0166
1061.0,0.0166
1060.0,0.0167
1059.0,0.0167
1058.0,0.0168
1057.0,0.0168
1056.0,0.0168
1055.0,0.0168
1054.0,0.0168
1053.0,0.0169
1052.0,0.0169
1051.0,0.017
1050.0,0.017
1049.0,0.0171
1048.0,0.0171
1047.0,0.0172
1046.0,0.0173
1045.0,0.0174
1044.0,0.0175
1043.0,0.0174
1042.0,0.0173
1041.0,0.0172
1040.0,0.0172
1039.0,0.0171
1038.0,0.0171
1037.0,0.0171
1036.0,0.0171
1035.0,0.0171
1034.0,0.0172
1033.0,0.0172
1032.0,0.0171
1031.0,0.0171
1030.0,0.0171
1029.0,0.0171
1028.0,0.0171
1027.0,0.0171
1026.0,0.0172
1025.0,0.0172
1024.0,0.0172
1023.0,0.0171
1022.0,0.0171
1021.0,0.0171
1020.0,0.0171
1019.0,0.0172
1018.0,0.0172
1017.0,0.0172
1016.0,0.0173
1015.0,0.0173
1014.0,0.0174
1013.0,0.0175
1012.0,0.0175
1011.0,0.0175
1010.0,0.0176
1009.0,0.0177
1008.0,0.0178
1007.0,0.0181
1006.0,0.0184
1005.0,0.0187
1004.0,0.0192
1003.0,0.0199
1002.0,0.0209
1001.0,0.0221
1000.0,0.0233
999.0,0.0243
998.0,0.0247
997.0,0.0246
996.0,0.0239
995.0,0.0229
994.0,0.0218
993.0,0.0208
992.0,0.02
991.0,0.0194
990.0,0.0189
989.0,0.0186
988.0,0.0183
987.0,0.0181
986.0,0.0179
985.0,0.018
984.0,0.0181
983.0,0.0183
982.0,0.0186
981.0,0.0192
980.0,0.02
979.0,0.0212
978.0,0.0227
977.0,0.0244
976.0,0.0262
975.0,0.0278
974.0,0.0289
973.0,0.0293
972.0,0.0288
971.0,0.0277
970.0,0.0261
969.0,0.0246
968.0,0.0233
967.0,0.0222
966.0,0.0214
965.0,0.0208
964.0,0.0204
963.0,0.0201
962.0,0.0199
961.0,0.0197
960.0,0.0195
959.0,0.0194
958.0,0.0192
957.0,0.019
956.0,0.0188
955.0,0.0186
954.0,0.0185
953.0,0.0184
952.0,0.0183
951.0,0.0182
950.0,0.0182
949.0,0.0182
948.0,0.0182
947.0,0.0182
946.0,0.0182
945.0,0.0184
944.0,0.0185
943.0,0.0188
942.0,0.019
941.0,0.0192
940.0,0.0193
939.0,0.0193
938.0,0.0191
937.0,0.0189
936.0,0.0186
935.0,0.0184
934.0,0.0181
933.0,0.0179
932.0,0.0178
931.0,0.0178
930.0,0.0178
929.0,0.0177
928.0,0.0177
927.0,0.0176
926.0,0.0176
925.0,0.0176
924.0,0.0176
923.0,0.0176
922.0,0.0176
921.0,0.0176
920.0,0.0175
919.0,0.0174
918.0,0.0173
917.0,0.0173
916.0,0.0174
915.0,0.0174
914.0,0.0173
913.0,0.0173
912.0,0.0172
911.0,0.0173
910.0,0.0174
909.0,0.0176
908.0,0.0178
907.0,0.018
906.0,0.0184
905.0,0.0189
904.0,0.0196
903.0,0.0205
902.0,0.0217
901.0,0.0229
900.0,0.0239
899.0,0.0245
898.0,0.0244
897.0,0.0239
896.0,0.0231
895.0,0.0223
894.0,0.0215
893.0,0.0208
892.0,0.0203
891.0,0.02
890.0,0.0197
889.0,0.0196
888.0,0.0194
887.0,0.0193
886.0,0.0192
885.0,0.019
884.0,0.0189
883.0,0.0189
882.0,0.0189
881.0,0.019
880.0,0.019
879.0,0.019
878.0,0.0189
877.0,0.0188
876.0,0.0188
875.0,0.0188
874.0,0.0189
873.0,0.0189
872.0,0.0188
871.0,0.0188
870.0,0.019
869.0,0.0191
868.0,0.0192
867.0,0.0192
866.0,0.0191
865.0,0.019
864.0,0.0189
863.0,0.019
862.0,0.0191
861.0,0.0192
860.0,0.0192
859.0,0.0193
858.0,0.0193
857.0,0.0194
856.0,0.0195
855.0,0.0196
854.0,0.0197
853.0,0.0199
852.0,0.02
851.0,0.0201
850.0,0.0203
849.0,0.0205
848.0,0.0208
847.0,0.0211
846.0,0.0216
845.0,0.0224
844.0,0.0237
843.0,0.0253
842.0,0.0265
841.0,0.0269
840.0,0.0263
839.0,0.0251
838.0,0.0237
837.0,0.0226
836.0,0.0219
835.0,0.0215
834.0,0.0212
833.0,0.021
832.0,0.0207
831.0,0.0206
830.0,0.0205
829.0,0.0205
828.0,0.0205
827.0,0.0204
826.0,0.0202
825.0,0.02
824.0,0.0199
823.0,0.02
822.0,0.0201
821.0,0.0203
820.0,0.0203
819.0,0.0204
818.0,0.0206
817.0,0.0207
816.0,0.021
815.0,0.0215
814.0,0.0223
813.0,0.0235
812.0,0.0249
811.0,0.0262
810.0,0.0272
809.0,0.0276
808.0,0.0276
807.0,0.0271
806.0,0.0263
805.0,0.0256
804.0,0.0249
803.0,0.0243
802.0,0.0238
801.0,0.0234
800.0,0.023
799.0,0.0227
798.0,0.0224
797.0,0.0221
796.0,0.022
795.0,0.0218
794.0,0.0217
793.0,0.0215
792.0,0.0215
791.0,0.0214
790.0,0.0213
789.0,0.0211
788.0,0.021
787.0,0.0209
786.0,0.0208
785.0,0.0206
784.0,0.0204
783.0,0.0202
782.0,0.0201
781.0,0.02
780.0,0.0201
779.0,0.02
778.0,0.0199
777.0,0.0197
776.0,0.0195
775.0,0.0195
774.0,0.0196
773.0,0.0197
772.0,0.0197
771.0,0.0197
770.0,0.0195
769.0,0.0193
768.0,0.0193
767.0,0.0192
766.0,0.0192
765.0,0.0192
764.0,0.0193
763.0,0.0194
762.0,0.0196
761.0,0.0197
760.0,0.0197
759.0,0.0196
758.0,0.0195
757.0,0.0196
756.0,0.0197
755.0,0.0197
754.0,0.0195
753.0,0.0191
752.0,0.0188
751.0,0.0187
750.0,0.0187
749.0,0.0187
748.0,0.0188
747.0,0.0188
746.0,0.0189
745.0,0.0189
744.0,0.0189
743.0,0.0189
742.0,0.0187
741.0,0.0185
740.0,0.0183
739.0,0.0184
738.0,0.0186
737.0,0.0188
736.0,0.0188
735.0,0.0188
734.0,0.0189
733.0,0.0191
732.0,0.0193
731.0,0.0194
730.0,0.0194
729.0,0.0193
728.0,0.0192
727.0,0.019
726.0,0.0189
725.0,0.0189
724.0,0.0188
723.0,0.0188
722.0,0.0189
721.0,0.0192
720.0,0.0193
719.0,0.0192
718.0,0.0191
717.0,0.019
716.0,0.0191
715.0,0.0192
714.0,0.0192
713.0,0.0192
712.0,0.0193
711.0,0.0196
710.0,0.0197
709.0,0.0195
708.0,0.0191
707.0,0.0189
706.0,0.0189
705.0,0.019
704.0,0.019
703.0,0.0188
702.0,0.0186
701.0,0.0185
700.0,0.0186
699.0,0.019
698.0,0.0193
697.0,0.0194
696.0,0.0196
695.0,0.0199
694.0,0.0198
693.0,0.0192
692.0,0.0184
691.0,0.018
690.0,0.018
689.0,0.0181
688.0,0.0181
687.0,0.0184
686.0,0.0192
685.0,0.0201
684.0,0.0206
683.0,0.0201
682.0,0.0193
681.0,0.0188
680.0,0.0186
679.0,0.0184
678.0,0.0178
677.0,0.0168
676.0,0.016
675.0,0.0156
674.0,0.0155
673.0,0.0154
672.0,0.0149
671.0,0.0136
670.0,0.012
669.0,0.0115
668.0,0.0132
667.0,0.0158
666.0,0.0174
665.0,0.0181
664.0,0.0185
663.0,0.0186
662.0,0.0185
661.0,0.0181
660.0,0.018
659.0,0.0183
658.0,0.0189
657.0,0.0193
656.0,0.019
655.0,0.0184
654.0,0.0177
653.0,0.0174
652.0,0.0173
651.0,0.0177
650.0,0.0182
649.0,0.0188
648.0,0.0192
647.0,0.0195
646.0,0.0197
645.0,0.0198
644.0,0.0197
643.0,0.0195
642.0,0.0196
641.0,0.0199
640.0,0.0202
639.0,0.0203
638.0,0.0205
637.0,0.021
636.0,0.0219
635.0,0.023
634.0,0.0234
633.0,0.0229
632.0,0.0218
631.0,0.0206
630.0,0.0198
629.0,0.0194
628.0,0.0193
627.0,0.0193
626.0,0.0194
625.0,0.0196
624.0,0.0201
623.0,0.0207
622.0,0.0215
621.0,0.0222
620.0,0.0227
619.0,0.0226
618.0,0.0218
617.0,0.0209
616.0,0.0204
615.0,0.0206
614.0,0.0213
613.0,0.022
612.0,0.0228
611.0,0.0236
610.0,0.0238
609.0,0.0234
608.0,0.0224
607.0,0.0214
606.0,0.0206
605.0,0.0201
604.0,0.0202
603.0,0.0213
602.0,0.0231
601.0,0.0247
600.0,0.0254
