cm-1,A
4000.0,-0.004149341900058889
3999.0,-0.004192356259714369
3998.0,-0.004192356259714369
3997.0,-0.0042353663594676405
3996.0,-0.0042353663594676405
3995.0,-0.0042783722001624724
3994.0,-0.004321373782642635
3993.0,-0.004321373782642635
3992.0,-0.0042783722001624724
3991.0,-0.0042353663594676405
3990.0,-0.004149341900058889
3989.0,-0.004106323279658319
3988.0,-0.004063300397667113
3987.0,-0.004020273253241502
3986.0,-0.0039772418455368275
3985.0,-0.003934206173708432
3984.0,-0.0039772418455368275
3983.0,-0.004020273253241502
3982.0,-0.004063300397667113
3981.0,-0.004106323279658319
3980.0,-0.004149341900058889
3979.0,-0.004149341900058889
3978.0,-0.004149341900058889
3977.0,-0.004149341900058889
3976.0,-0.004149341900058889
3975.0,-0.004149341900058889
3974.0,-0.004106323279658319
3973.0,-0.004106323279658319
3972.0,-0.004106323279658319
3971.0,-0.004106323279658319
3970.0,-0.004106323279658319
3969.0,-0.004106323279658319
3968.0,-0.004063300397667113
3967.0,-0.004063300397667113
3966.0,-0.004020273253241502
3965.0,-0.003934206173708432
3964.0,-0.003891166236910326
3963.0,-0.003805073565025019
3962.0,-0.003805073565025019
3961.0,-0.003805073565025019
3960.0,-0.0038481220342978517
3959.0,-0.003891166236910326
3958.0,-0.003891166236910326
3957.0,-0.0039772418455368275
3956.0,-0.004020273253241502
3955.0,-0.004063300397667113
3954.0,-0.004063300397667113
3953.0,-0.004063300397667113
3952.0,-0.004106323279658319
3951.0,-0.004149341900058889
3950.0,-0.004192356259714369
3949.0,-0.0042353663594676405
3948.0,-0.0042783722001624724
3947.0,-0.0042783722001624724
3946.0,-0.0042783722001624724
3945.0,-0.004192356259714369
3944.0,-0.004106323279658319
3943.0,-0.004020273253241502
3942.0,-0.004020273253241502
3941.0,-0.0039772418455368275
3940.0,-0.003934206173708432
3939.0,-0.0038481220342978517
3938.0,-0.003805073565025019
3937.0,-0.003805073565025019
3936.0,-0.0038481220342978517
3935.0,-0.0038481220342978517
3934.0,-0.003762020828246282
3933.0,-0.0037189638231147626
3932.0,-0.0037189638231147626
3931.0,-0.003762020828246282
3930.0,-0.0038481220342978517
3929.0,-0.0038481220342978517
3928.0,-0.003805073565025019
3927.0,-0.003762020828246282
3926.0,-0.003675902548784027
3925.0,-0.003675902548784027
3924.0,-0.003762020828246282
3923.0,-0.0038481220342978517
3922.0,-0.003934206173708432
3921.0,-0.003891166236910326
3920.0,-0.0038481220342978517
3919.0,-0.003762020828246282
3918.0,-0.0037189638231147626
3917.0,-0.003675902548784027
3916.0,-0.0037189638231147626
3915.0,-0.003675902548784027
3914.0,-0.003632837004408529
3913.0,-0.003632837004408529
3912.0,-0.003632837004408529
3911.0,-0.003675902548784027
3910.0,-0.0037189638231147626
3909.0,-0.003805073565025019
3908.0,-0.0038481220342978517
3907.0,-0.003891166236910326
3906.0,-0.003934206173708432
3905.0,-0.003934206173708432
3904.0,-0.004020273253241502
3903.0,-0.004149341900058889
3902.0,-0.004192356259714369
3901.0,-0.004106323279658319
3900.0,-0.003891166236910326
3899.0,-0.003805073565025019
3898.0,-0.003762020828246282
3897.0,-0.0037189638231147626
3896.0,-0.0037189638231147626
3895.0,-0.0037189638231147626
3894.0,-0.003762020828246282
3893.0,-0.0037189638231147626
3892.0,-0.003675902548784027
3891.0,-0.003675902548784027
3890.0,-0.0037189638231147626
3889.0,-0.0037189638231147626
3888.0,-0.0035897671891400584
3887.0,-0.0034174452021935586
3886.0,-0.0034174452021935586
3885.0,-0.0035897671891400584
3884.0,-0.0038481220342978517
3883.0,-0.003934206173708432
3882.0,-0.0038481220342978517
3881.0,-0.0037189638231147626
3880.0,-0.0037189638231147626
3879.0,-0.0038481220342978517
3878.0,-0.003891166236910326
3877.0,-0.003762020828246282
3876.0,-0.003632837004408529
3875.0,-0.003546693102131737
3874.0,-0.003632837004408529
3873.0,-0.003805073565025019
3872.0,-0.003805073565025019
3871.0,-0.0037189638231147626
3870.0,-0.003632837004408529
3869.0,-0.0037189638231147626
3868.0,-0.003891166236910326
3867.0,-0.003805073565025019
3866.0,-0.003632837004408529
3865.0,-0.0034605321095062536
3864.0,-0.0033743540197499478
3863.0,-0.0034174452021935586
3862.0,-0.0034605321095062536
3861.0,-0.003503614742536687
3860.0,-0.003546693102131737
3859.0,-0.003632837004408529
3858.0,-0.003805073565025019
3857.0,-0.003934206173708432
3856.0,-0.004063300397667113
3855.0,-0.004020273253241502
3854.0,-0.0037189638231147626
3853.0,-0.003632837004408529
3852.0,-0.0037189638231147626
3851.0,-0.003632837004408529
3850.0,-0.0033312585613267665
3849.0,-0.003115717099805959
3848.0,-0.003115717099805959
3847.0,-0.003201946521692367
3846.0,-0.0032881588260753603
3845.0,-0.0033743540197499478
3844.0,-0.003503614742536687
3843.0,-0.003632837004408529
3842.0,-0.003762020828246282
3841.0,-0.003805073565025019
3840.0,-0.003762020828246282
3839.0,-0.003675902548784027
3838.0,-0.003632837004408529
3837.0,-0.003632837004408529
3836.0,-0.003546693102131737
3835.0,-0.0034174452021935586
3834.0,-0.0032881588260753603
3833.0,-0.0032450548131470747
3832.0,-0.0032881588260753603
3831.0,-0.0033743540197499478
3830.0,-0.0034174452021935586
3829.0,-0.0034605321095062536
3828.0,-0.0034174452021935586
3827.0,-0.0034174452021935586
3826.0,-0.003546693102131737
3825.0,-0.0037189638231147626
3824.0,-0.0038481220342978517
3823.0,-0.003762020828246282
3822.0,-0.0035897671891400584
3821.0,-0.003503614742536687
3820.0,-0.003632837004408529
3819.0,-0.003762020828246282
3818.0,-0.0035897671891400584
3817.0,-0.0033312585613267665
3816.0,-0.003158833950862139
3815.0,-0.003158833950862139
3814.0,-0.003158833950862139
3813.0,-0.0029863408567849525
3812.0,-0.002900068611387585
3811.0,-0.0029432068763250996
3810.0,-0.003158833950862139
3809.0,-0.0032881588260753603
3808.0,-0.0032881588260753603
3807.0,-0.0032450548131470747
3806.0,-0.0033743540197499478
3805.0,-0.003546693102131737
3804.0,-0.003503614742536687
3803.0,-0.0033312585613267665
3802.0,-0.0030725959676747294
3801.0,-0.0030725959676747294
3800.0,-0.0032881588260753603
3799.0,-0.0033743540197499478
3798.0,-0.0032881588260753603
3797.0,-0.003115717099805959
3796.0,-0.003115717099805959
3795.0,-0.003115717099805959
3794.0,-0.003029470553618019
3793.0,-0.0029432068763250996
3792.0,-0.002856926061120646
3791.0,-0.0028137792246734072
3790.0,-0.002856926061120646
3789.0,-0.002900068611387585
3788.0,-0.0029432068763250996
3787.0,-0.0029863408567849525
3786.0,-0.003029470553618019
3785.0,-0.0030725959676747294
3784.0,-0.003115717099805959
3783.0,-0.003115717099805959
3782.0,-0.003115717099805959
3781.0,-0.0029863408567849525
3780.0,-0.002856926061120646
3779.0,-0.0027706281011936618
3778.0,-0.0027706281011936618
3777.0,-0.0027706281011936618
3776.0,-0.0027274726898296464
3775.0,-0.002684312989729598
3774.0,-0.0027274726898296464
3773.0,-0.0027706281011936618
3772.0,-0.0028137792246734072
3771.0,-0.0028137792246734072
3770.0,-0.0028137792246734072
3769.0,-0.002856926061120646
3768.0,-0.002856926061120646
3767.0,-0.0028137792246734072
3766.0,-0.0027706281011936618
3765.0,-0.0028137792246734072
3764.0,-0.002900068611387585
3763.0,-0.0029863408567849525
3762.0,-0.0029432068763250996
3761.0,-0.002856926061120646
3760.0,-0.002856926061120646
3759.0,-0.002856926061120646
3758.0,-0.0029432068763250996
3757.0,-0.0030725959676747294
3756.0,-0.003158833950862139
3755.0,-0.0032450548131470747
3754.0,-0.0032881588260753603
3753.0,-0.0032450548131470747
3752.0,-0.0029863408567849525
3751.0,-0.002684312989729598
3750.0,-0.0025548081484823015
3749.0,-0.0026411490000399773
3748.0,-0.0027274726898296464
3747.0,-0.002684312989729598
3746.0,-0.0024684501283323
3745.0,-0.0021660617565077978
3744.0,-0.0021660617565077978
3743.0,-0.0023820749327607693
3742.0,-0.0024684501283323
3741.0,-0.0024252646779014952
3740.0,-0.0024684501283323
3739.0,-0.002684312989729598
3738.0,-0.002856926061120646
3737.0,-0.0029432068763250996
3736.0,-0.0029863408567849525
3735.0,-0.003201946521692367
3734.0,-0.0034605321095062536
3733.0,-0.0034605321095062536
3732.0,-0.0032881588260753603
3731.0,-0.0029863408567849525
3730.0,-0.0027706281011936618
3729.0,-0.0026411490000399773
3728.0,-0.002597980719908577
3727.0,-0.0026411490000399773
3726.0,-0.0027706281011936618
3725.0,-0.0029432068763250996
3724.0,-0.0029863408567849525
3723.0,-0.0029432068763250996
3722.0,-0.0028137792246734072
3721.0,-0.002684312989729598
3720.0,-0.0024684501283323
3719.0,-0.0022524799205383417
3718.0,-0.0020364022595291686
3717.0,-0.0018202170383281313
3716.0,-0.0016471913460383014
3715.0,-0.001474096691732818
3714.0,-0.001474096691732818
3713.0,-0.0016471913460383014
3712.0,-0.001776967077439462
3711.0,-0.0019067040408846658
3710.0,-0.0019931738235303698
3709.0,-0.0019499410842680476
3708.0,-0.0018202170383281313
3707.0,-0.0016904542321527494
3706.0,-0.0016471913460383014
3705.0,-0.0016904542321527494
3704.0,-0.0016471913460383014
3703.0,-0.0015606526425728795
3702.0,-0.001474096691732818
3701.0,-0.0014308122463981832
3700.0,-0.0014308122463981832
3699.0,-0.0014308122463981832
3698.0,-0.001344230411601366
3697.0,-0.0013009330204178937
3696.0,-0.001344230411601366
3695.0,-0.0014308122463981832
3694.0,-0.001474096691732818
3693.0,-0.0014308122463981832
3692.0,-0.0013009330204178937
3691.0,-0.0011277002770349043
3690.0,-0.0008677215312267172
3689.0,-0.0006509536295951079
3688.0,-0.0005208409361854294
3687.0,-0.0003472966853634851
3686.0,-0.00013026880522692963
3685.0,4.343161980746579e-05
3684.0,0.0001303078917322953
3683.0,4.343161980746579e-05
3682.0,-4.3427276862573194e-05
3681.0,-8.685021164911433e-05
3680.0,-0.00013026880522692963
3679.0,-0.00021709297223004853
3678.0,-0.00017368305846510168
3677.0,4.343161980746579e-05
3676.0,0.0004779868710962365
3675.0,0.0006519307932786322
3674.0,0.0004779868710962365
3673.0,0.000521466320689834
3672.0,0.0007824344698965646
3671.0,0.0012177301682640973
3670.0,0.001609869681952425
3669.0,0.0018278780605593958
3668.0,0.001915112063444413
3667.0,0.0021332737608552588
3666.0,0.002395212539545666
3665.0,0.002569926202528716
3664.0,0.0026573093983774942
3663.0,0.0027447101798967477
3662.0,0.0028758443407954637
3661.0,0.0030070181092942683
3660.0,0.0030944893043338695
3659.0,0.0031819781204844855
3658.0,0.0033570086445275926
3657.0,0.0036634819042162814
3656.0,0.0038825238627120395
3655.0,0.003970171588923321
3654.0,0.003970171588923321
3653.0,0.003970171588923321
3652.0,0.003970171588923321
3651.0,0.004145520125434121
3650.0,0.0044964297349936455
3649.0,0.00489154225525934
3648.0,0.005243055412371911
3647.0,0.005682847330363394
3646.0,0.00612308505878878
3645.0,0.006607862550997545
3644.0,0.007004901568658406
3643.0,0.007313960837872058
3642.0,0.007534852191956709
3641.0,0.007755855953228474
3640.0,0.007976972236149349
3639.0,0.008242460465651913
3638.0,0.00850811108984062
3637.0,0.0087296108049002
3636.0,0.008951223547323472
3635.0,0.009128595198514056
3634.0,0.009306039320248427
3633.0,0.009306039320248427
3632.0,0.009350411681145587
3631.0,0.009572341514736404
3630.0,0.010194349063173958
3629.0,0.011039929609661936
3628.0,0.011530229790124524
3627.0,0.011708658092512314
3626.0,0.012021084124518078
3625.0,0.012378417874516323
3624.0,0.012557195064198723
3623.0,0.01260190086298274
3622.0,0.01264661126420652
3621.0,0.012825498912458322
3620.0,0.01322826573375524
3619.0,0.013765869865004277
3618.0,0.014214382227394795
3617.0,0.014573525916998342
3616.0,0.014977917890464765
3615.0,0.015517693597737248
3614.0,0.016103208673694303
3613.0,0.016599261819461697
3612.0,0.016870075265299933
3611.0,0.016960383953898095
3610.0,0.017186237868137555
3609.0,0.01759307113620534
3608.0,0.018136109008649592
3607.0,0.018543833477873584
3606.0,0.018861217359339655
3605.0,0.019042683770379876
3604.0,0.019269623464054586
3603.0,0.019451260640229506
3602.0,0.019723858922159776
3601.0,0.02004210665933459
3600.0,0.020406104151069693
3599.0,0.020724852408976924
3598.0,0.021043834782408455
3597.0,0.021363051615525652
3596.0,0.021819483062586187
3595.0,0.022230681908425698
3594.0,0.022642270454698687
3593.0,0.02291687968414724
3592.0,0.02314585342378117
3591.0,0.023374947949272418
3590.0,0.02365002099672653
3589.0,0.024108863598207186
3588.0,0.024660115394541604
3587.0,0.02516604495145991
3586.0,0.025488307262671706
3585.0,0.025764722556973707
3584.0,0.02617967564731627
3583.0,0.026595025589939425
3582.0,0.02696455931306696
3581.0,0.027288159452933503
3580.0,0.027658283674251827
3579.0,0.028028723600243666
3578.0,0.028445846553939003
3577.0,0.028816959143838528
3576.0,0.029188389127482228
3575.0,0.029560137048236124
3574.0,0.029885677714903025
3573.0,0.030071810571884017
3572.0,0.030211462585061133
3571.0,0.030211462585061133
3570.0,0.030211462585061133
3569.0,0.03030458888152676
3568.0,0.030770520137356927
3567.0,0.03142366482450232
3566.0,0.03193753992355086
3565.0,0.032311649546687526
3564.0,0.032686081712916426
3563.0,0.033154576345083564
3562.0,0.03367050483612166
3561.0,0.034187046963396917
3560.0,0.03456310022373987
3559.0,0.03489241415094413
3558.0,0.03517488211661135
3557.0,0.03541041251009669
3556.0,0.035646070707806565
3555.0,0.03592902944204468
3554.0,0.03630659476198117
3553.0,0.036779013477011624
3552.0,0.037251946641359446
3551.0,0.03763066432997886
3550.0,0.03786753070176463
3549.0,0.03810452633214956
3548.0,0.038436537637930535
3547.0,0.038816290187564384
3546.0,0.03924390909822728
3545.0,0.03962436858984186
3544.0,0.040005161671583744
3543.0,0.040338629726504704
3542.0,0.04072004986906119
3541.0,0.04105406750606355
3540.0,0.041340572947066834
3539.0,0.04167506835594681
3538.0,0.04200982159316968
3537.0,0.042392712939904875
3536.0,0.04282386959515394
3535.0,0.04315950984076644
3534.0,0.04344740808260106
3533.0,0.043735497301724546
3532.0,0.044071843103049346
3531.0,0.044360346976747955
3530.0,0.04469717723830824
3529.0,0.04503426894157925
3528.0,0.045323413081356456
3527.0,0.045564513671517703
3526.0,0.04585401117045196
3525.0,0.04624030826677128
3524.0,0.04672366333269573
3523.0,0.04725597598510167
3522.0,0.047691990337874746
3521.0,0.047982909952573705
3520.0,0.04827402457540786
3519.0,0.0486139051197072
3518.0,0.04905128560059957
3517.0,0.04953778109440221
3516.0,0.049927370249842395
3515.0,0.05026854768429301
3514.0,0.05056119896349576
3513.0,0.050805225762017736
3512.0,0.051098239029786274
3511.0,0.05144033789103841
3510.0,0.05188057561946402
3509.0,0.05227227303668425
3508.0,0.05261529831525902
3507.0,0.05286048235717078
3506.0,0.053203972728539606
3505.0,0.05354773498692689
3504.0,0.05403929642243144
3503.0,0.05448217792216048
3502.0,0.054876229877880656
3501.0,0.055270639696704205
3500.0,0.05561604235915585
3499.0,0.05606053552778367
3498.0,0.056456022846545606
3497.0,0.05690137699451481
3496.0,0.05729763111133224
3495.0,0.05769424710410598
3494.0,0.05809122563440061
3493.0,0.05843887976392925
3492.0,0.058737090681050264
3491.0,0.05908526241971446
3490.0,0.05943371350990989
3489.0,0.05983228596592505
3488.0,0.06033101647767336
3487.0,0.06078036414518184
3486.0,0.06123017721688262
3485.0,0.061580354206806964
3484.0,0.06198090252378963
3483.0,0.06243196139961715
3482.0,0.06288348923294618
3481.0,0.06338573802478864
3480.0,0.06378795567975115
3479.0,0.06414020196211956
3478.0,0.06449273417528723
3477.0,0.06479513257341862
3476.0,0.06519865825346338
3475.0,0.06565307326174441
3474.0,0.06610796423578891
3473.0,0.06661395809694559
3472.0,0.06706985716921054
3471.0,0.06747550294945781
3470.0,0.0678307540792078
3469.0,0.0681862960408608
3468.0,0.0684912781333824
3467.0,0.06884736147670667
3466.0,0.06925467168888666
3465.0,0.06966236426227002
3464.0,0.07012147634321675
3463.0,0.07063217075990047
3462.0,0.07114346641808922
3461.0,0.07160414774328627
3460.0,0.07206531825882068
3459.0,0.07247565912497134
3458.0,0.07283502570063005
3457.0,0.07319468988839395
3456.0,0.07350321072677968
3455.0,0.07381195089279391
3454.0,0.07412091069849924
3453.0,0.07448164182257
3452.0,0.0748426728241014
3451.0,0.07525564752005143
3450.0,0.07556563645676939
3449.0,0.0759792995259323
3448.0,0.07649693305789551
3447.0,0.07706704344478843
3446.0,0.07758597585436577
3445.0,0.07805354577058976
3444.0,0.07846958649875768
3443.0,0.07893810920972144
3442.0,0.0794071379151915
3441.0,0.07982447798997727
3440.0,0.08024221949810584
3439.0,0.08060807322614072
3438.0,0.08107890990866418
3437.0,0.08155025759884227
3436.0,0.08196966321511989
3435.0,0.08238947425013277
3434.0,0.08280969148843575
3433.0,0.08317771540408803
3432.0,0.08365134772453975
3431.0,0.08407278830288423
3430.0,0.08454739831152125
3429.0,0.08491689834879956
3428.0,0.08528671302637614
3427.0,0.0856568428805593
3426.0,0.08597434830367123
3425.0,0.0862920860195171
3424.0,0.08661005636824437
3423.0,0.08692825969074924
3422.0,0.0872997918091396
3421.0,0.0877779434675845
3420.0,0.08825662214406838
3419.0,0.08868255767596933
3418.0,0.08910891135547172
3417.0,0.08948231448273347
3416.0,0.08980263003399913
3415.0,0.0900697402471693
3414.0,0.09039048950983108
3413.0,0.09076499663169257
3412.0,0.09113982698272349
3411.0,0.09146136782804049
3410.0,0.0917831469106074
3409.0,0.09205147838772776
3408.0,0.09237369515673355
3407.0,0.09264239186882706
3406.0,0.09296504751658308
3405.0,0.09334178232840018
3404.0,0.09371884422784693
3403.0,0.09409623378338305
3402.0,0.09441997176475758
3401.0,0.09468993788391455
3400.0,0.09490603167212863
3399.0,0.09506817260434741
3398.0,0.09523037409340485
3397.0,0.09539263618455207
3396.0,0.09560907998763835
3395.0,0.09582563171583658
3394.0,0.0960964733098364
3393.0,0.09642170633694569
3392.0,0.09674718310604158
3391.0,0.09701860020249709
3390.0,0.0972358560759139
3389.0,0.09734452478207412
3388.0,0.09750757884139638
3387.0,0.09772507952549825
3386.0,0.0978882765519955
3385.0,0.09799710864927058
3384.0,0.09805153492691598
3383.0,0.09810596802617932
3382.0,0.09816040794877057
3381.0,0.09826930827078129
3380.0,0.09843270997155007
3379.0,0.09865067458435761
3378.0,0.09875969792669093
3377.0,0.09886874864462802
3376.0,0.09892328427374508
3375.0,0.0989778267519208
3374.0,0.0989778267519208
3373.0,0.0989778267519208
3372.0,0.0989778267519208
3371.0,0.09903237608087578
3370.0,0.09903237608087578
3369.0,0.0990869322623309
3368.0,0.09914149529800831
3367.0,0.09914149529800831
3366.0,0.09919606518963042
3365.0,0.09930522554760213
3364.0,0.09935981601739963
3363.0,0.09941441335003853
3362.0,0.09935981601739963
3361.0,0.09930522554760213
3360.0,0.09930522554760213
3359.0,0.09925064193892053
3358.0,0.09925064193892053
3357.0,0.09930522554760213
3356.0,0.09930522554760213
3355.0,0.09930522554760213
3354.0,0.09930522554760213
3353.0,0.09925064193892053
3352.0,0.09919606518963042
3351.0,0.09914149529800831
3350.0,0.09903237608087578
3349.0,0.09892328427374508
3348.0,0.09881421986284966
3347.0,0.09881421986284966
3346.0,0.09881421986284966
3345.0,0.09886874864462802
3344.0,0.09886874864462802
3343.0,0.09881421986284966
3342.0,0.09870518283443275
3341.0,0.09859617317474823
3340.0,0.09848719087006019
3339.0,0.09837823590664274
3338.0,0.09826930827078129
3337.0,0.09810596802617932
3336.0,0.09794268919153337
3335.0,0.09777947172068524
3334.0,0.09767069414168117
3333.0,0.0975619438013351
3332.0,0.09745322068600859
3331.0,0.09739886933346864
3330.0,0.09734452478207412
3329.0,0.09729018703012282
3328.0,0.09718153191774648
3327.0,0.09712721455392082
3326.0,0.09696430321150284
3325.0,0.09680145295702158
3324.0,0.09663866374468144
3323.0,0.0964759355287379
3322.0,0.09636748391576244
3321.0,0.09625905937846135
3320.0,0.0960964733098364
3319.0,0.09593394808549704
3318.0,0.09571734235437201
3317.0,0.09550084460218011
3316.0,0.09533854208447545
3315.0,0.09517630019905599
3314.0,0.09506817260434741
3313.0,0.09496007192378841
3312.0,0.09490603167212863
3311.0,0.09479797133768142
3310.0,0.09468993788391455
3309.0,0.09458193129745807
3308.0,0.09441997176475758
3307.0,0.09431203228814788
3306.0,0.09415017335768128
3305.0,0.09393445524476318
3304.0,0.0937727369476411
3303.0,0.09361107884716913
3302.0,0.09339562827501968
3301.0,0.09323411045927221
3300.0,0.09307265269104414
3299.0,0.09291125492570451
3298.0,0.09285746899685954
3297.0,0.09269615116603047
3296.0,0.09258863922541383
3295.0,0.09237369515673355
3294.0,0.0922125568893839
3293.0,0.09205147838772776
3292.0,0.09183679994445204
3291.0,0.0916222275676053
3290.0,0.09146136782804049
3289.0,0.09130056764777605
3288.0,0.09119340059432579
3287.0,0.09113982698272349
3286.0,0.0910326995816122
3285.0,0.09092559859909577
3284.0,0.0908185240221473
3283.0,0.09071147583774919
3282.0,0.0905509530187334
3281.0,0.09039048950983108
3280.0,0.09023008526723086
3279.0,0.0900697402471693
3278.0,0.08990945440593179
3277.0,0.08980263003399913
3276.0,0.08969583193143116
3275.0,0.08958906008531176
3274.0,0.08948231448273347
3273.0,0.08937559511079884
3272.0,0.08932224525729482
3271.0,0.0892689019566193
3270.0,0.0892155652071629
3269.0,0.08916223500731646
3268.0,0.08905559425002108
3267.0,0.08900228368935714
3266.0,0.08889568219596411
3265.0,0.08884239126002336
3264.0,0.08873582900163002
3263.0,0.08868255767596933
3262.0,0.08857603462370545
3261.0,0.08857603462370545
3260.0,0.0885227828938977
3259.0,0.0884695376928375
3258.0,0.08836306687055773
3257.0,0.08825662214406838
3256.0,0.08820340956274775
3255.0,0.08820340956274775
3254.0,0.08825662214406838
3253.0,0.08825662214406838
3252.0,0.0881502035005799
3251.0,0.08804381092731295
3250.0,0.08783110394037297
3249.0,0.08761850108119962
3248.0,0.08745911720936239
3247.0,0.08735289378168276
3246.0,0.0872997918091396
3245.0,0.08719360733870762
3244.0,0.08708744882390307
3243.0,0.08692825969074924
3242.0,0.0867691288864394
3241.0,0.08661005636824437
3240.0,0.08645104209348209
3239.0,0.0862920860195171
3238.0,0.08608023504853413
3237.0,0.08586848736910624
3236.0,0.0856568428805593
3235.0,0.0854453014823664
3234.0,0.08533956941077814
3233.0,0.08518101955252688
3232.0,0.08502252755566908
3231.0,0.08486409337798806
3230.0,0.08465293767580806
3229.0,0.08444188458847957
3228.0,0.08417821237960132
3227.0,0.0838620168928248
3226.0,0.08354605145007499
3225.0,0.08328292240118751
3224.0,0.0830725338870073
3223.0,0.08286224724355584
3222.0,0.08270459905431071
3221.0,0.08249449044745338
3220.0,0.0823369756726251
3219.0,0.08217951800630297
3218.0,0.08186477383364066
3217.0,0.08149786036382611
3216.0,0.08118360963962057
3215.0,0.08086958613938555
3214.0,0.08066036321258663
3213.0,0.08039897621588898
3212.0,0.08018997982980403
3211.0,0.07992887570247587
3210.0,0.07966792846041071
3209.0,0.07935499859321249
3208.0,0.07904229404455076
3207.0,0.07872981449018734
3206.0,0.07836553894629472
3205.0,0.07810552907089763
3204.0,0.07789763319239285
3203.0,0.07768983678560404
3202.0,0.07743023101428781
3201.0,0.07711890879170658
3200.0,0.07680780957933253
3199.0,0.07649693305789551
3198.0,0.07618627890881036
3197.0,0.0759792995259323
3196.0,0.07572071393811841
3195.0,0.07535895258283709
3194.0,0.07494587968815725
3193.0,0.07448164182257
3192.0,0.07412091069849924
3191.0,0.07381195089279391
3190.0,0.07350321072677968
3189.0,0.07329750581735506
3188.0,0.0729891310243489
3187.0,0.07268097504034388
3186.0,0.07237303755504598
3185.0,0.0720140529005715
3184.0,0.0716553647351379
3183.0,0.0713481533463054
3182.0,0.0709900145060387
3181.0,0.07063217075990047
3180.0,0.0702746216219956
3179.0,0.06996838504902692
3178.0,0.06961138175567827
3177.0,0.06925467168888666
3176.0,0.0688982543673613
3175.0,0.06859298644342648
3174.0,0.06823711151882228
3173.0,0.06793230779927839
3172.0,0.0676277178520861
3171.0,0.06732334137759932
3170.0,0.06696850489759454
3169.0,0.0666645899223488
3168.0,0.0663102910421054
3167.0,0.0659562809644747
3166.0,0.06560255921901192
3165.0,0.06524912533642091
3164.0,0.06489597884855036
3163.0,0.06454311928839007
3162.0,0.06419054619006714
3161.0,0.06383825908884244
3160.0,0.06353652599525317
3159.0,0.06323500239005853
3158.0,0.06288348923294618
3157.0,0.06258241852286206
3156.0,0.062281556382736136
3155.0,0.06198090252378963
3154.0,0.06163040254819374
3153.0,0.06128018521761747
3152.0,0.060880282351513104
3151.0,0.06058059667068294
3150.0,0.060231224546650086
3149.0,0.05988213325228142
3148.0,0.05948351506743288
3147.0,0.05908526241971446
3146.0,0.058737090681050264
3145.0,0.0583891978463662
3144.0,0.05809122563440061
3143.0,0.05784307153250956
3142.0,0.05749589383191922
3141.0,0.057198533682059516
3140.0,0.05685187064143715
3139.0,0.05660442349104544
3138.0,0.05630767289398331
3137.0,0.05601112492622806
3136.0,0.05561604235915585
3135.0,0.05522131887649295
3134.0,0.05482695382609992
3133.0,0.05448217792216048
3132.0,0.054186873412661596
3131.0,0.05394093961487645
3130.0,0.05369514500652506
3129.0,0.053351266093323746
3128.0,0.05305672930217464
3127.0,0.05271335532220167
3126.0,0.05237025261564554
3125.0,0.05212534510230182
3124.0,0.0518316382728683
3123.0,0.05153812993871654
3122.0,0.05119595406718891
3121.0,0.05085404758005607
3120.0,0.05056119896349576
3119.0,0.05026854768429301
3118.0,0.04997609347667353
3117.0,0.04963514562387683
3116.0,0.04934311749548925
3115.0,0.04900266601119507
3114.0,0.04866248120408234
3113.0,0.04832256265669943
3112.0,0.047982909952573705
3111.0,0.047691990337874746
3110.0,0.04740126547022694
3109.0,0.047062332249019345
3108.0,0.04677202844014605
3107.0,0.04643358574299339
3106.0,0.04609540658654021
3105.0,0.04575749056067524
3104.0,0.04541983725624266
3103.0,0.04513062893352182
3102.0,0.04488976902944808
3101.0,0.04469717723830824
3100.0,0.044456557540257124
3099.0,0.044167989767578186
3098.0,0.04387961360698034
3097.0,0.0435434165901003
3096.0,0.04325545471730896
3095.0,0.042967683653061695
3094.0,0.04272802000705722
3093.0,0.04248848854552012
3092.0,0.04224908912272074
3091.0,0.04200982159316968
3090.0,0.04172287445230238
3089.0,0.041436116778032606
3088.0,0.041101805289228244
3087.0,0.04081545726880842
3086.0,0.040529297924893015
3085.0,0.040243327009005014
3084.0,0.03995754427315856
3083.0,0.03967194946985697
3082.0,0.039338992729018196
3081.0,0.03905380426616856
3080.0,0.038816290187564384
3079.0,0.03862637240519895
3078.0,0.03838909190871931
3077.0,0.038151940981675736
3076.0,0.03791491948264003
3075.0,0.03772539537668518
3074.0,0.037488606492403154
3073.0,0.037251946641359446
3072.0,0.0369681249461018
3071.0,0.036731748473764814
3070.0,0.03649550058570927
3069.0,0.03625938114211591
3068.0,0.03602339000339416
3067.0,0.035740369803151095
3066.0,0.03550466044490741
3065.0,0.03522197797762394
3064.0,0.03503362516890207
3063.0,0.03479829897408804
3062.0,0.03456310022373987
3061.0,0.03428102975577918
3060.0,0.034046110897937076
3059.0,0.03376437590141812
3058.0,0.033482823553208085
3057.0,0.0332483359486222
3056.0,0.03301397488206215
3055.0,0.03282657704446046
3054.0,0.032592443402527316
3053.0,0.03235843591698884
3052.0,0.032124554451966825
3051.0,0.03189079887180224
3050.0,0.03170388495374454
3049.0,0.03147035562516054
3048.0,0.03128362253321426
3047.0,0.031096969696171817
3046.0,0.030910397045078586
3045.0,0.0307239045110681
3044.0,0.030537492025363155
3043.0,0.03030458888152676
3042.0,0.030071810571884017
3041.0,0.029839156962686353
3040.0,0.02960662792039992
3039.0,0.02942069428514915
3038.0,0.029188389127482228
3037.0,0.028956208163971375
3036.0,0.02872415126189476
3035.0,0.028445846553939003
3034.0,0.028214062120885508
3033.0,0.028028723600243666
3032.0,0.027889771597169544
3031.0,0.0277045713888604
3030.0,0.02751945012352408
3029.0,0.027334407733889066
3028.0,0.02710321556345563
3027.0,0.026872146400301444
3026.0,0.02664120011360227
3025.0,0.026410376572743033
3024.0,0.026225806029419818
3023.0,0.026041313893296225
3022.0,0.025902996205869
3021.0,0.025718641122169483
3020.0,0.02553436426275746
3019.0,0.025350165561278004
3018.0,0.02512002699306959
3017.0,0.024936003904763915
3016.0,0.024660115394541604
3015.0,0.024430342106337877
3014.0,0.024200690320592466
3013.0,0.023971159908874107
3012.0,0.023741750742954926
3011.0,0.02355831062115543
3010.0,0.023374947949272418
3009.0,0.023191662661933732
3008.0,0.023054249440757957
3007.0,0.02291687968414724
3006.0,0.02277955336461468
3005.0,0.02259651912656535
3004.0,0.022413561996148967
3003.0,0.022230681908425698
3002.0,0.02200219004126036
3001.0,0.021865152601710403
3000.0,0.021636852916117055
2999.0,0.0214542995372613
2998.0,0.021271822861508305
2997.0,0.021089422824428272
2996.0,0.020952673052035298
2995.0,0.02081596632558158
2994.0,0.02067930261797568
2993.0,0.020497151212598652
2992.0,0.020315076172974234
2991.0,0.020087589665283012
2990.0,0.01990568621470623
2989.0,0.019769308608968306
2988.0,0.019678413991243593
2987.0,0.01954210772389997
2986.0,0.019451260640229506
2985.0,0.019360432556262852
2984.0,0.0192242260373785
2983.0,0.019133445417920836
2982.0,0.019042683770379876
2981.0,0.018906576854070378
2980.0,0.018770512579999288
2979.0,0.018679826740892747
2978.0,0.018543833477873584
2977.0,0.01840788278591865
2976.0,0.018271974638383703
2975.0,0.018136109008649592
2974.0,0.01800028587012159
2973.0,0.017864505196230507
2972.0,0.017774008325325275
2971.0,0.01768353030793479
2970.0,0.01759307113620534
2969.0,0.017502630802287644
2968.0,0.017457417697056554
2967.0,0.017412209298337533
2966.0,0.017367005605150476
2965.0,0.017367005605150476
2964.0,0.017321806616515723
2963.0,0.01727661233145472
2962.0,0.017231422748988034
2961.0,0.017186237868137555
2960.0,0.017050711425501408
2959.0,0.016915227262211507
2958.0,0.01677978535189717
2957.0,0.016644385668211692
2956.0,0.016554142658660398
2955.0,0.016509028184833463
2954.0,0.01646391839700767
2953.0,0.01632861713980338
2952.0,0.016193358021584725
2951.0,0.016058141016111804
2950.0,0.015922966097169144
2949.0,0.015832872853011715
2948.0,0.015742798294583915
2947.0,0.015652742414136167
2946.0,0.015562705203923999
2945.0,0.015517693597737248
2944.0,0.015427684378367834
2943.0,0.01538268676325183
2942.0,0.015337693809893471
2941.0,0.015292705517326866
2940.0,0.015292705517326866
2939.0,0.015292705517326866
2938.0,0.015247721884586563
2937.0,0.015202742910707112
2936.0,0.015157768594724175
2935.0,0.015157768594724175
2934.0,0.015157768594724175
2933.0,0.015247721884586563
2932.0,0.015337693809893471
2931.0,0.015427684378367834
2930.0,0.015427684378367834
2929.0,0.015427684378367834
2928.0,0.01538268676325183
2927.0,0.015337693809893471
2926.0,0.015292705517326866
2925.0,0.015292705517326866
2924.0,0.015292705517326866
2923.0,0.015247721884586563
2922.0,0.015157768594724175
2921.0,0.015067833932588037
2920.0,0.014932966849499074
2919.0,0.014753209197138295
2918.0,0.01452861671041239
2917.0,0.014259258949925524
2916.0,0.013945219230304673
2915.0,0.013631406429727155
2914.0,0.013317820220494436
2913.0,0.013049212141483357
2912.0,0.012780770091995297
2911.0,0.012557195064198723
2910.0,0.012378417874516323
2909.0,0.012244383261476699
2908.0,0.012110390002254778
2907.0,0.0119764380713403
2906.0,0.011887159731648111
2905.0,0.011797899741219142
2904.0,0.011664044143949504
2903.0,0.011530229790124524
2902.0,0.011396456654336085
2901.0,0.011307297450183107
2900.0,0.011307297450183107
2899.0,0.011262724711199823
2898.0,0.01117359295472431
2897.0,0.011084479487313281
2896.0,0.010995384301463185
2895.0,0.010906307389674463
2894.0,0.01086177578421088
2893.0,0.010817248744452446
2892.0,0.01077272626946324
2891.0,0.010683695010048622
2890.0,0.010594681998483901
2889.0,0.010505687227290839
2888.0,0.01046119667949763
2887.0,0.01037222925484893
2886.0,0.010283280051895272
2885.0,0.010194349063173958
2884.0,0.010105436281226954
2883.0,0.010105436281226954
2882.0,0.010060986715464404
2881.0,0.010060986715464404
2880.0,0.010060986715464404
2879.0,0.01001654169860089
2878.0,0.009972101229705377
2877.0,0.009972101229705377
2876.0,0.009927665307847056
2875.0,0.009927665307847056
2874.0,0.009883233932095559
2873.0,0.009838807101520963
2872.0,0.00974996707218323
2871.0,0.009616741093766423
2870.0,0.009572341514736404
2869.0,0.009527946474380489
2868.0,0.009483555971770974
2867.0,0.009483555971770974
2866.0,0.009483555971770974
2865.0,0.009483555971770974
2864.0,0.009527946474380489
2863.0,0.009527946474380489
2862.0,0.009527946474380489
2861.0,0.009527946474380489
2860.0,0.009572341514736404
2859.0,0.009616741093766423
2858.0,0.00966114521239847
2857.0,0.00974996707218323
2856.0,0.009838807101520963
2855.0,0.009927665307847056
2854.0,0.009927665307847056
2853.0,0.009927665307847056
2852.0,0.009883233932095559
2851.0,0.00974996707218323
2850.0,0.009616741093766423
2849.0,0.009439170005980158
2848.0,0.009261671492462709
2847.0,0.008995559669244813
2846.0,0.008773924307505121
2845.0,0.008552401996197112
2844.0,0.008330992620051436
2843.0,0.008153946355103248
2842.0,0.008021209005416363
2841.0,0.007888512213050314
2840.0,0.007800070204414977
2839.0,0.007755855953228474
2838.0,0.007711646202907652
2837.0,0.007667440952535687
2836.0,0.007667440952535687
2835.0,0.00762324020119709
2834.0,0.007534852191956709
2833.0,0.007490664932224611
2832.0,0.0074464821678643656
2831.0,0.007358130121602358
2830.0,0.007313960837872058
2829.0,0.007225635744644521
2828.0,0.007181479933320523
2827.0,0.007181479933320523
2826.0,0.007137328610972382
2825.0,0.007137328610972382
2824.0,0.007093181776687496
2823.0,0.007049039429553483
2822.0,0.00696076819309055
2821.0,0.006916639301937977
2820.0,0.006872514894289861
2819.0,0.006872514894289861
2818.0,0.006916639301937977
2817.0,0.006916639301937977
2816.0,0.006872514894289861
2815.0,0.006828394969235152
2814.0,0.006784279525863024
2813.0,0.006740168563263094
2812.0,0.006696062080525422
2811.0,0.006607862550997545
2810.0,0.006519680930003435
2809.0,0.006431517210272464
2808.0,0.006343371384537999
2807.0,0.006299305179649828
2806.0,0.00625524344553785
2805.0,0.006299305179649828
2804.0,0.006299305179649828
2803.0,0.006343371384537999
2802.0,0.006343371384537999
2801.0,0.006343371384537999
2800.0,0.006343371384537999
2799.0,0.006343371384537999
2798.0,0.006299305179649828
2797.0,0.00621118618129457
2796.0,0.00612308505878878
2795.0,0.006035001804881146
2794.0,0.005990966876386672
2793.0,0.005946936412324799
2792.0,0.00590291041179003
2791.0,0.005858888873877532
2790.0,0.005858888873877532
2789.0,0.005858888873877532
2788.0,0.00590291041179003
2787.0,0.00590291041179003
2786.0,0.005858888873877532
2785.0,0.00577085918230158
2784.0,0.005682847330363394
2783.0,0.005638848091999105
2782.0,0.005638848091999105
2781.0,0.005638848091999105
2780.0,0.005638848091999105
2779.0,0.005638848091999105
2778.0,0.005594853310833647
2777.0,0.005506877116487674
2776.0,0.005506877116487674
2775.0,0.005462895701502157
2774.0,0.00541891874010525
2773.0,0.00541891874010525
2772.0,0.00537494623139545
2771.0,0.00537494623139545
2770.0,0.00541891874010525
2769.0,0.00541891874010525
2768.0,0.005462895701502157
2767.0,0.00541891874010525
2766.0,0.00537494623139545
2765.0,0.005330978174470591
2764.0,0.0052870145684298375
2763.0,0.0052870145684298375
2762.0,0.0052870145684298375
2761.0,0.0052870145684298375
2760.0,0.005243055412371911
2759.0,0.005199100705396198
2758.0,0.005155150446602086
2757.0,0.005111204635089406
2756.0,0.005067263269958211
2755.0,0.005067263269958211
2754.0,0.005023326350308999
2753.0,0.004979393875242044
2752.0,0.004935465843858511
2751.0,0.00484762310854614
2750.0,0.004803708402820517
2749.0,0.004803708402820517
2748.0,0.00484762310854614
2747.0,0.00489154225525934
2746.0,0.00489154225525934
2745.0,0.00489154225525934
2744.0,0.00489154225525934
2743.0,0.004803708402820517
2742.0,0.004759798137184523
2741.0,0.004715892310740433
2740.0,0.004715892310740433
2739.0,0.004715892310740433
2738.0,0.004715892310740433
2737.0,0.004715892310740433
2736.0,0.004715892310740433
2735.0,0.004671990922590297
2734.0,0.004671990922590297
2733.0,0.004671990922590297
2732.0,0.004671990922590297
2731.0,0.004671990922590297
2730.0,0.004628093971837721
2729.0,0.00458420145758498
2728.0,0.00458420145758498
2727.0,0.004540313378935901
2726.0,0.004540313378935901
2725.0,0.0044964297349936455
2724.0,0.004452550524862486
2723.0,0.004408675747646695
2722.0,0.004408675747646695
2721.0,0.004408675747646695
2720.0,0.004408675747646695
2719.0,0.004452550524862486
2718.0,0.0044964297349936455
2717.0,0.0044964297349936455
2716.0,0.0044964297349936455
2715.0,0.004408675747646695
2714.0,0.004320939488377862
2713.0,0.004320939488377862
2712.0,0.004320939488377862
2711.0,0.0043648054024501
2710.0,0.0043648054024501
2709.0,0.004320939488377862
2708.0,0.004320939488377862
2707.0,0.004277078004534696
2706.0,0.004277078004534696
2705.0,0.004277078004534696
2704.0,0.004233220950025984
2703.0,0.004233220950025984
2702.0,0.004189368323957332
2701.0,0.004145520125434121
2700.0,0.004145520125434121
2699.0,0.004145520125434121
2698.0,0.004189368323957332
2697.0,0.004145520125434121
2696.0,0.004145520125434121
2695.0,0.004101676353562844
2694.0,0.0040578370074493275
2693.0,0.0040578370074493275
2692.0,0.0040578370074493275
2691.0,0.0040578370074493275
2690.0,0.004101676353562844
2689.0,0.004101676353562844
2688.0,0.0040578370074493275
2687.0,0.00401400208620073
2686.0,0.003970171588923321
2685.0,0.003926345514724705
2684.0,0.0038825238627120395
2683.0,0.0038825238627120395
2682.0,0.003926345514724705
2681.0,0.003926345514724705
2680.0,0.003970171588923321
2679.0,0.003970171588923321
2678.0,0.003926345514724705
2677.0,0.003926345514724705
2676.0,0.0038825238627120395
2675.0,0.003794893821675638
2674.0,0.0037510854308679953
2673.0,0.0037510854308679953
2672.0,0.003794893821675638
2671.0,0.003794893821675638
2670.0,0.0038387066319929275
2669.0,0.0038387066319929275
2668.0,0.0038387066319929275
2667.0,0.003794893821675638
2666.0,0.003794893821675638
2665.0,0.003794893821675638
2664.0,0.0037510854308679953
2663.0,0.0037510854308679953
2662.0,0.003707281458678491
2661.0,0.003707281458678491
2660.0,0.003707281458678491
2659.0,0.0037510854308679953
2658.0,0.003794893821675638
2657.0,0.003794893821675638
2656.0,0.003794893821675638
2655.0,0.0037510854308679953
2654.0,0.0037510854308679953
2653.0,0.0037510854308679953
2652.0,0.0037510854308679953
2651.0,0.0037510854308679953
2650.0,0.0037510854308679953
2649.0,0.003707281458678491
2648.0,0.0036634819042162814
2647.0,0.003619686766589858
2646.0,0.003619686766589858
2645.0,0.0035758960449088217
2644.0,0.0035758960449088217
2643.0,0.0035758960449088217
2642.0,0.0035758960449088217
2641.0,0.0035758960449088217
2640.0,0.003619686766589858
2639.0,0.003619686766589858
2638.0,0.003619686766589858
2637.0,0.0035758960449088217
2636.0,0.0035758960449088217
2635.0,0.0035758960449088217
2634.0,0.003619686766589858
2633.0,0.0036634819042162814
2632.0,0.0036634819042162814
2631.0,0.0036634819042162814
2630.0,0.0036634819042162814
2629.0,0.003707281458678491
2628.0,0.003707281458678491
2627.0,0.003707281458678491
2626.0,0.003707281458678491
2625.0,0.0036634819042162814
2624.0,0.003619686766589858
2623.0,0.0035758960449088217
2622.0,0.0035321097382827737
2621.0,0.0035321097382827737
2620.0,0.0035758960449088217
2619.0,0.0035758960449088217
2618.0,0.0035321097382827737
2617.0,0.0035321097382827737
2616.0,0.0035321097382827737
2615.0,0.003488327845821315
2614.0,0.003488327845821315
2613.0,0.003488327845821315
2612.0,0.0035321097382827737
2611.0,0.0035321097382827737
2610.0,0.0035321097382827737
2609.0,0.0035321097382827737
2608.0,0.003488327845821315
2607.0,0.0034445503666347133
2606.0,0.0034007772998332353
2605.0,0.0034445503666347133
2604.0,0.0035321097382827737
2603.0,0.0035321097382827737
2602.0,0.0035321097382827737
2601.0,0.0035321097382827737
2600.0,0.0035321097382827737
2599.0,0.0035321097382827737
2598.0,0.0035321097382827737
2597.0,0.0035758960449088217
2596.0,0.0035758960449088217
2595.0,0.003619686766589858
2594.0,0.003619686766589858
2593.0,0.003619686766589858
2592.0,0.003619686766589858
2591.0,0.003619686766589858
2590.0,0.0035758960449088217
2589.0,0.0035758960449088217
2588.0,0.0035758960449088217
2587.0,0.0035758960449088217
2586.0,0.0035758960449088217
2585.0,0.0035321097382827737
2584.0,0.0035321097382827737
2583.0,0.0035321097382827737
2582.0,0.0035321097382827737
2581.0,0.0035758960449088217
2580.0,0.003619686766589858
2579.0,0.003619686766589858
2578.0,0.0035758960449088217
2577.0,0.0035758960449088217
2576.0,0.003488327845821315
2575.0,0.0034445503666347133
2574.0,0.0034445503666347133
2573.0,0.0034445503666347133
2572.0,0.0034445503666347133
2571.0,0.003488327845821315
2570.0,0.0035321097382827737
2569.0,0.0035758960449088217
2568.0,0.003619686766589858
2567.0,0.003619686766589858
2566.0,0.003619686766589858
2565.0,0.003619686766589858
2564.0,0.0036634819042162814
2563.0,0.0036634819042162814
2562.0,0.003619686766589858
2561.0,0.003619686766589858
2560.0,0.003619686766589858
2559.0,0.003619686766589858
2558.0,0.0036634819042162814
2557.0,0.0036634819042162814
2556.0,0.0036634819042162814
2555.0,0.0036634819042162814
2554.0,0.0036634819042162814
2553.0,0.0036634819042162814
2552.0,0.003619686766589858
2551.0,0.003619686766589858
2550.0,0.0035758960449088217
2549.0,0.0035758960449088217
2548.0,0.003619686766589858
2547.0,0.003619686766589858
2546.0,0.0036634819042162814
2545.0,0.0036634819042162814
2544.0,0.0036634819042162814
2543.0,0.0036634819042162814
2542.0,0.0036634819042162814
2541.0,0.0036634819042162814
2540.0,0.0036634819042162814
2539.0,0.0036634819042162814
2538.0,0.003707281458678491
2537.0,0.003707281458678491
2536.0,0.003707281458678491
2535.0,0.0036634819042162814
2534.0,0.0036634819042162814
2533.0,0.003707281458678491
2532.0,0.0037510854308679953
2531.0,0.0038387066319929275
2530.0,0.0038825238627120395
2529.0,0.0038825238627120395
2528.0,0.0038825238627120395
2527.0,0.0038825238627120395
2526.0,0.0038825238627120395
2525.0,0.0038825238627120395
2524.0,0.0038825238627120395
2523.0,0.0038387066319929275
2522.0,0.0038387066319929275
2521.0,0.0038387066319929275
2520.0,0.0038825238627120395
2519.0,0.0038825238627120395
2518.0,0.0038825238627120395
2517.0,0.0038825238627120395
2516.0,0.0038825238627120395
2515.0,0.0038825238627120395
2514.0,0.0038387066319929275
2513.0,0.0038387066319929275
2512.0,0.0038387066319929275
2511.0,0.0038825238627120395
2510.0,0.0038825238627120395
2509.0,0.003926345514724705
2508.0,0.00401400208620073
2507.0,0.0040578370074493275
2506.0,0.0040578370074493275
2505.0,0.004101676353562844
2504.0,0.004101676353562844
2503.0,0.004101676353562844
2502.0,0.0040578370074493275
2501.0,0.0040578370074493275
2500.0,0.00401400208620073
2499.0,0.00401400208620073
2498.0,0.00401400208620073
2497.0,0.00401400208620073
2496.0,0.0040578370074493275
2495.0,0.004101676353562844
2494.0,0.004189368323957332
2493.0,0.004233220950025984
2492.0,0.004277078004534696
2491.0,0.004277078004534696
2490.0,0.004277078004534696
2489.0,0.004277078004534696
2488.0,0.004277078004534696
2487.0,0.004277078004534696
2486.0,0.004277078004534696
2485.0,0.004277078004534696
2484.0,0.004277078004534696
2483.0,0.004277078004534696
2482.0,0.004277078004534696
2481.0,0.004320939488377862
2480.0,0.0043648054024501
2479.0,0.004408675747646695
2478.0,0.004408675747646695
2477.0,0.004408675747646695
2476.0,0.0043648054024501
2475.0,0.0043648054024501
2474.0,0.0043648054024501
2473.0,0.004408675747646695
2472.0,0.004452550524862486
2471.0,0.004452550524862486
2470.0,0.0044964297349936455
2469.0,0.0044964297349936455
2468.0,0.0044964297349936455
2467.0,0.0044964297349936455
2466.0,0.004540313378935901
2465.0,0.004540313378935901
2464.0,0.00458420145758498
2463.0,0.00458420145758498
2462.0,0.004628093971837721
2461.0,0.004671990922590297
2460.0,0.004671990922590297
2459.0,0.004715892310740433
2458.0,0.004715892310740433
2457.0,0.004715892310740433
2456.0,0.004715892310740433
2455.0,0.004671990922590297
2454.0,0.004671990922590297
2453.0,0.004671990922590297
2452.0,0.004671990922590297
2451.0,0.004671990922590297
2450.0,0.004671990922590297
2449.0,0.004715892310740433
2448.0,0.004759798137184523
2447.0,0.004803708402820517
2446.0,0.00489154225525934
2445.0,0.004935465843858511
2444.0,0.004979393875242044
2443.0,0.004979393875242044
2442.0,0.004979393875242044
2441.0,0.004979393875242044
2440.0,0.004979393875242044
2439.0,0.004979393875242044
2438.0,0.004979393875242044
2437.0,0.005023326350308999
2436.0,0.005023326350308999
2435.0,0.005067263269958211
2434.0,0.005067263269958211
2433.0,0.005155150446602086
2432.0,0.005199100705396198
2431.0,0.005199100705396198
2430.0,0.005199100705396198
2429.0,0.005199100705396198
2428.0,0.005199100705396198
2427.0,0.005199100705396198
2426.0,0.005199100705396198
2425.0,0.005243055412371911
2424.0,0.005330978174470591
2423.0,0.00537494623139545
2422.0,0.00537494623139545
2421.0,0.00537494623139545
2420.0,0.00537494623139545
2419.0,0.00541891874010525
2418.0,0.00541891874010525
2417.0,0.005462895701502157
2416.0,0.005462895701502157
2415.0,0.005506877116487674
2414.0,0.005506877116487674
2413.0,0.005462895701502157
2412.0,0.005462895701502157
2411.0,0.005462895701502157
2410.0,0.005462895701502157
2409.0,0.005550862985963967
2408.0,0.005594853310833647
2407.0,0.005638848091999105
2406.0,0.005638848091999105
2405.0,0.005682847330363394
2404.0,0.005682847330363394
2403.0,0.005682847330363394
2402.0,0.005682847330363394
2401.0,0.005726851026829571
2400.0,0.00577085918230158
2399.0,0.005814871797682919
2398.0,0.005814871797682919
2397.0,0.005858888873877532
2396.0,0.00590291041179003
2395.0,0.00590291041179003
2394.0,0.005946936412324799
2393.0,0.005946936412324799
2392.0,0.005946936412324799
2391.0,0.005990966876386672
2390.0,0.006035001804881146
2389.0,0.00612308505878878
2388.0,0.00625524344553785
2387.0,0.006343371384537999
2386.0,0.006431517210272464
2385.0,0.006475596832934416
2384.0,0.00656376950238835
2383.0,0.006651960076740071
2382.0,0.006651960076740071
2381.0,0.00656376950238835
2380.0,0.006343371384537999
2379.0,0.006035001804881146
2378.0,0.005726851026829571
2377.0,0.005462895701502157
2376.0,0.00537494623139545
2375.0,0.0052870145684298375
2374.0,0.005199100705396198
2373.0,0.005155150446602086
2372.0,0.005155150446602086
2371.0,0.005462895701502157
2370.0,0.005990966876386672
2369.0,0.006607862550997545
2368.0,0.007004901568658406
2367.0,0.007004901568658406
2366.0,0.006740168563263094
2365.0,0.006519680930003435
2364.0,0.007093181776687496
2363.0,0.008685301823389224
2362.0,0.010149890396819572
2361.0,0.010639186223752484
2360.0,0.009527946474380489
2359.0,0.007932739972333236
2358.0,0.006035001804881146
2357.0,0.005330978174470591
2356.0,0.002569926202528716
2355.0,0.013631406429727155
2354.0,0.015652742414136167
2353.0,0.014079779876432497
2352.0,0.013945219230304673
2351.0,0.012691326268817527
2350.0,0.011887159731648111
2349.0,0.010995384301463185
2348.0,0.010594681998483901
2347.0,0.010728208358306901
2346.0,0.011753276624621556
2345.0,0.013676222949234651
2344.0,0.015292705517326866
2343.0,0.016554142658660398
2342.0,0.016103208673694303
2341.0,0.016689514205884493
2340.0,0.007049039429553483
2339.0,0.00489154225525934
2338.0,0.005462895701502157
2337.0,0.005155150446602086
2336.0,0.005594853310833647
2335.0,0.00590291041179003
2334.0,0.00612308505878878
2333.0,0.00590291041179003
2332.0,0.005111204635089406
2331.0,0.004671990922590297
2330.0,0.004715892310740433
2329.0,0.005638848091999105
2328.0,0.006872514894289861
2327.0,0.007711646202907652
2326.0,0.007976972236149349
2325.0,0.007358130121602358
2324.0,0.006740168563263094
2323.0,0.006079041198713275
2322.0,0.00612308505878878
2321.0,0.005726851026829571
2320.0,0.010550182333308289
2319.0,0.011262724711199823
2318.0,0.010594681998483901
2317.0,0.010594681998483901
2316.0,0.010327752376126709
2315.0,0.01023881228122181
2314.0,0.010149890396819572
2313.0,0.010060986715464404
2312.0,0.01001654169860089
2311.0,0.009883233932095559
2310.0,0.009794384815193347
2309.0,0.00966114521239847
2308.0,0.009483555971770974
2307.0,0.009306039320248427
2306.0,0.008995559669244813
2305.0,0.009039900317800775
2304.0,0.007313960837872058
2303.0,0.007093181776687496
2302.0,0.007225635744644521
2301.0,0.007181479933320523
2300.0,0.007225635744644521
2299.0,0.007269796045857202
2298.0,0.007269796045857202
2297.0,0.007313960837872058
2296.0,0.007358130121602358
2295.0,0.007358130121602358
2294.0,0.007358130121602358
2293.0,0.007313960837872058
2292.0,0.007313960837872058
2291.0,0.007358130121602358
2290.0,0.007402303897961815
2289.0,0.007490664932224611
2288.0,0.0075790439479759275
2287.0,0.00762324020119709
2286.0,0.007667440952535687
2285.0,0.007711646202907652
2284.0,0.007755855953228474
2283.0,0.007755855953228474
2282.0,0.007711646202907652
2281.0,0.007667440952535687
2280.0,0.0075790439479759275
2279.0,0.007534852191956709
2278.0,0.007490664932224611
2277.0,0.0074464821678643656
2276.0,0.007402303897961815
2275.0,0.007402303897961815
2274.0,0.007358130121602358
2273.0,0.007402303897961815
2272.0,0.0074464821678643656
2271.0,0.007490664932224611
2270.0,0.007490664932224611
2269.0,0.007534852191956709
2268.0,0.007534852191956709
2267.0,0.007534852191956709
2266.0,0.007534852191956709
2265.0,0.007534852191956709
2264.0,0.0075790439479759275
2263.0,0.0075790439479759275
2262.0,0.007534852191956709
2261.0,0.007534852191956709
2260.0,0.007534852191956709
2259.0,0.007534852191956709
2258.0,0.007534852191956709
2257.0,0.0075790439479759275
2256.0,0.0075790439479759275
2255.0,0.0075790439479759275
2254.0,0.0075790439479759275
2253.0,0.007534852191956709
2252.0,0.007490664932224611
2251.0,0.007490664932224611
2250.0,0.007490664932224611
2249.0,0.007490664932224611
2248.0,0.007534852191956709
2247.0,0.007534852191956709
2246.0,0.007534852191956709
2245.0,0.007534852191956709
2244.0,0.007534852191956709
2243.0,0.0075790439479759275
2242.0,0.00762324020119709
2241.0,0.00762324020119709
2240.0,0.00762324020119709
2239.0,0.00762324020119709
2238.0,0.0075790439479759275
2237.0,0.0075790439479759275
2236.0,0.0075790439479759275
2235.0,0.0075790439479759275
2234.0,0.00762324020119709
2233.0,0.00762324020119709
2232.0,0.00762324020119709
2231.0,0.00762324020119709
2230.0,0.0075790439479759275
2229.0,0.0075790439479759275
2228.0,0.007534852191956709
2227.0,0.007534852191956709
2226.0,0.0075790439479759275
2225.0,0.0075790439479759275
2224.0,0.0075790439479759275
2223.0,0.0075790439479759275
2222.0,0.0075790439479759275
2221.0,0.0075790439479759275
2220.0,0.007534852191956709
2219.0,0.007534852191956709
2218.0,0.007490664932224611
2217.0,0.007490664932224611
2216.0,0.007490664932224611
2215.0,0.007490664932224611
2214.0,0.0074464821678643656
2213.0,0.0074464821678643656
2212.0,0.007490664932224611
2211.0,0.007490664932224611
2210.0,0.007490664932224611
2209.0,0.0074464821678643656
2208.0,0.0074464821678643656
2207.0,0.0074464821678643656
2206.0,0.0074464821678643656
2205.0,0.0074464821678643656
2204.0,0.0074464821678643656
2203.0,0.0074464821678643656
2202.0,0.007490664932224611
2201.0,0.007490664932224611
2200.0,0.007490664932224611
2199.0,0.007490664932224611
2198.0,0.007490664932224611
2197.0,0.007490664932224611
2196.0,0.007490664932224611
2195.0,0.0074464821678643656
2194.0,0.0074464821678643656
2193.0,0.0074464821678643656
2192.0,0.0074464821678643656
2191.0,0.0074464821678643656
2190.0,0.0074464821678643656
2189.0,0.007402303897961815
2188.0,0.007358130121602358
2187.0,0.007358130121602358
2186.0,0.007358130121602358
2185.0,0.007358130121602358
2184.0,0.007358130121602358
2183.0,0.007358130121602358
2182.0,0.007313960837872058
2181.0,0.007313960837872058
2180.0,0.007313960837872058
2179.0,0.007358130121602358
2178.0,0.007402303897961815
2177.0,0.007402303897961815
2176.0,0.007402303897961815
2175.0,0.007402303897961815
2174.0,0.007402303897961815
2173.0,0.007402303897961815
2172.0,0.007358130121602358
2171.0,0.007313960837872058
2170.0,0.007269796045857202
2169.0,0.007269796045857202
2168.0,0.007313960837872058
2167.0,0.007313960837872058
2166.0,0.007358130121602358
2165.0,0.007358130121602358
2164.0,0.007358130121602358
2163.0,0.007358130121602358
2162.0,0.007358130121602358
2161.0,0.007358130121602358
2160.0,0.007402303897961815
2159.0,0.007358130121602358
2158.0,0.007313960837872058
2157.0,0.007313960837872058
2156.0,0.007313960837872058
2155.0,0.007313960837872058
2154.0,0.007313960837872058
2153.0,0.007358130121602358
2152.0,0.007358130121602358
2151.0,0.007402303897961815
2150.0,0.0074464821678643656
2149.0,0.007490664932224611
2148.0,0.0074464821678643656
2147.0,0.0074464821678643656
2146.0,0.007402303897961815
2145.0,0.007402303897961815
2144.0,0.007358130121602358
2143.0,0.007358130121602358
2142.0,0.007358130121602358
2141.0,0.007358130121602358
2140.0,0.007402303897961815
2139.0,0.0074464821678643656
2138.0,0.0074464821678643656
2137.0,0.0074464821678643656
2136.0,0.0074464821678643656
2135.0,0.007402303897961815
2134.0,0.007358130121602358
2133.0,0.007358130121602358
2132.0,0.007358130121602358
2131.0,0.007402303897961815
2130.0,0.007358130121602358
2129.0,0.007358130121602358
2128.0,0.007358130121602358
2127.0,0.007358130121602358
2126.0,0.007313960837872058
2125.0,0.007269796045857202
2124.0,0.007269796045857202
2123.0,0.007313960837872058
2122.0,0.007358130121602358
2121.0,0.007402303897961815
2120.0,0.0074464821678643656
2119.0,0.0074464821678643656
2118.0,0.0074464821678643656
2117.0,0.007402303897961815
2116.0,0.007402303897961815
2115.0,0.007402303897961815
2114.0,0.007402303897961815
2113.0,0.007402303897961815
2112.0,0.007402303897961815
2111.0,0.007358130121602358
2110.0,0.007358130121602358
2109.0,0.007358130121602358
2108.0,0.007402303897961815
2107.0,0.007402303897961815
2106.0,0.007402303897961815
2105.0,0.0074464821678643656
2104.0,0.0074464821678643656
2103.0,0.0074464821678643656
2102.0,0.0074464821678643656
2101.0,0.0074464821678643656
2100.0,0.0074464821678643656
2099.0,0.007402303897961815
2098.0,0.007402303897961815
2097.0,0.007402303897961815
2096.0,0.0074464821678643656
2095.0,0.0074464821678643656
2094.0,0.007490664932224611
2093.0,0.007490664932224611
2092.0,0.0074464821678643656
2091.0,0.0074464821678643656
2090.0,0.0074464821678643656
2089.0,0.007402303897961815
2088.0,0.007402303897961815
2087.0,0.007402303897961815
2086.0,0.007358130121602358
2085.0,0.007402303897961815
2084.0,0.007402303897961815
2083.0,0.0074464821678643656
2082.0,0.0074464821678643656
2081.0,0.0074464821678643656
2080.0,0.007490664932224611
2079.0,0.0074464821678643656
2078.0,0.007402303897961815
2077.0,0.007358130121602358
2076.0,0.007313960837872058
2075.0,0.007313960837872058
2074.0,0.007313960837872058
2073.0,0.007313960837872058
2072.0,0.007358130121602358
2071.0,0.007358130121602358
2070.0,0.007402303897961815
2069.0,0.007402303897961815
2068.0,0.007402303897961815
2067.0,0.007402303897961815
2066.0,0.007358130121602358
2065.0,0.007313960837872058
2064.0,0.007269796045857202
2063.0,0.007269796045857202
2062.0,0.007313960837872058
2061.0,0.007313960837872058
2060.0,0.007313960837872058
2059.0,0.007313960837872058
2058.0,0.007313960837872058
2057.0,0.007313960837872058
2056.0,0.007269796045857202
2055.0,0.007225635744644521
2054.0,0.007225635744644521
2053.0,0.007225635744644521
2052.0,0.007225635744644521
2051.0,0.007269796045857202
2050.0,0.007269796045857202
2049.0,0.007269796045857202
2048.0,0.007269796045857202
2047.0,0.007225635744644521
2046.0,0.007225635744644521
2045.0,0.007181479933320523
2044.0,0.007181479933320523
2043.0,0.007137328610972382
2042.0,0.007093181776687496
2041.0,0.007049039429553483
2040.0,0.007004901568658406
2039.0,0.007004901568658406
2038.0,0.007004901568658406
2037.0,0.007004901568658406
2036.0,0.007004901568658406
2035.0,0.007004901568658406
2034.0,0.007004901568658406
2033.0,0.007004901568658406
2032.0,0.007004901568658406
2031.0,0.007004901568658406
2030.0,0.007004901568658406
2029.0,0.007004901568658406
2028.0,0.007004901568658406
2027.0,0.007004901568658406
2026.0,0.00696076819309055
2025.0,0.006916639301937977
2024.0,0.006916639301937977
2023.0,0.006916639301937977
2022.0,0.006916639301937977
2021.0,0.006916639301937977
2020.0,0.00696076819309055
2019.0,0.006916639301937977
2018.0,0.006872514894289861
2017.0,0.006872514894289861
2016.0,0.006872514894289861
2015.0,0.006872514894289861
2014.0,0.006828394969235152
2013.0,0.006828394969235152
2012.0,0.006828394969235152
2011.0,0.006784279525863024
2010.0,0.006784279525863024
2009.0,0.006784279525863024
2008.0,0.006740168563263094
2007.0,0.006740168563263094
2006.0,0.006740168563263094
2005.0,0.006784279525863024
2004.0,0.006828394969235152
2003.0,0.006828394969235152
2002.0,0.006784279525863024
2001.0,0.006740168563263094
2000.0,0.006696062080525422
1999.0,0.006651960076740071
1998.0,0.006607862550997545
1997.0,0.006519680930003435
1996.0,0.006519680930003435
1995.0,0.006519680930003435
1994.0,0.00656376950238835
1993.0,0.006607862550997545
1992.0,0.006651960076740071
1991.0,0.006607862550997545
1990.0,0.006519680930003435
1989.0,0.006475596832934416
1988.0,0.006519680930003435
1987.0,0.006519680930003435
1986.0,0.006519680930003435
1985.0,0.006475596832934416
1984.0,0.006475596832934416
1983.0,0.006431517210272464
1982.0,0.006431517210272464
1981.0,0.006431517210272464
1980.0,0.006431517210272464
1979.0,0.006431517210272464
1978.0,0.006431517210272464
1977.0,0.006431517210272464
1976.0,0.006387442061109638
1975.0,0.006387442061109638
1974.0,0.006343371384537999
1973.0,0.006343371384537999
1972.0,0.006343371384537999
1971.0,0.006343371384537999
1970.0,0.006299305179649828
1969.0,0.006299305179649828
1968.0,0.006299305179649828
1967.0,0.006299305179649828
1966.0,0.006299305179649828
1965.0,0.00625524344553785
1964.0,0.00625524344553785
1963.0,0.00625524344553785
1962.0,0.00621118618129457
1961.0,0.006167133386013823
1960.0,0.006167133386013823
1959.0,0.006167133386013823
1958.0,0.006167133386013823
1957.0,0.00621118618129457
1956.0,0.00621118618129457
1955.0,0.006167133386013823
1954.0,0.00612308505878878
1953.0,0.006079041198713275
1952.0,0.00612308505878878
1951.0,0.00612308505878878
1950.0,0.006167133386013823
1949.0,0.006167133386013823
1948.0,0.006167133386013823
1947.0,0.00612308505878878
1946.0,0.00612308505878878
1945.0,0.00612308505878878
1944.0,0.006167133386013823
1943.0,0.006167133386013823
1942.0,0.006167133386013823
1941.0,0.00612308505878878
1940.0,0.00612308505878878
1939.0,0.00612308505878878
1938.0,0.00612308505878878
1937.0,0.006079041198713275
1936.0,0.006079041198713275
1935.0,0.006079041198713275
1934.0,0.00612308505878878
1933.0,0.00612308505878878
1932.0,0.00612308505878878
1931.0,0.00612308505878878
1930.0,0.006079041198713275
1929.0,0.006079041198713275
1928.0,0.006079041198713275
1927.0,0.006079041198713275
1926.0,0.006079041198713275
1925.0,0.006079041198713275
1924.0,0.00612308505878878
1923.0,0.006079041198713275
1922.0,0.006035001804881146
1921.0,0.006035001804881146
1920.0,0.006079041198713275
1919.0,0.006079041198713275
1918.0,0.006035001804881146
1917.0,0.005990966876386672
1916.0,0.005946936412324799
1915.0,0.005990966876386672
1914.0,0.006035001804881146
1913.0,0.006035001804881146
1912.0,0.006035001804881146
1911.0,0.006035001804881146
1910.0,0.006079041198713275
1909.0,0.006079041198713275
1908.0,0.006079041198713275
1907.0,0.006079041198713275
1906.0,0.006079041198713275
1905.0,0.00612308505878878
1904.0,0.00612308505878878
1903.0,0.00612308505878878
1902.0,0.006079041198713275
1901.0,0.006079041198713275
1900.0,0.006079041198713275
1899.0,0.006079041198713275
1898.0,0.006079041198713275
1897.0,0.00612308505878878
1896.0,0.006167133386013823
1895.0,0.00621118618129457
1894.0,0.00621118618129457
1893.0,0.00621118618129457
1892.0,0.00621118618129457
1891.0,0.00621118618129457
1890.0,0.00621118618129457
1889.0,0.006167133386013823
1888.0,0.00612308505878878
1887.0,0.00612308505878878
1886.0,0.006167133386013823
1885.0,0.006167133386013823
1884.0,0.006167133386013823
1883.0,0.006167133386013823
1882.0,0.006167133386013823
1881.0,0.006167133386013823
1880.0,0.006167133386013823
1879.0,0.006167133386013823
1878.0,0.00621118618129457
1877.0,0.00621118618129457
1876.0,0.00625524344553785
1875.0,0.006299305179649828
1874.0,0.006299305179649828
1873.0,0.006299305179649828
1872.0,0.006343371384537999
1871.0,0.006299305179649828
1870.0,0.006299305179649828
1869.0,0.00625524344553785
1868.0,0.00625524344553785
1867.0,0.00625524344553785
1866.0,0.00625524344553785
1865.0,0.006299305179649828
1864.0,0.006343371384537999
1863.0,0.006343371384537999
1862.0,0.006343371384537999
1861.0,0.006343371384537999
1860.0,0.006343371384537999
1859.0,0.006343371384537999
1858.0,0.006299305179649828
1857.0,0.006299305179649828
1856.0,0.006299305179649828
1855.0,0.006299305179649828
1854.0,0.006299305179649828
1853.0,0.006343371384537999
1852.0,0.006343371384537999
1851.0,0.006343371384537999
1850.0,0.006343371384537999
1849.0,0.006299305179649828
1848.0,0.006299305179649828
1847.0,0.006343371384537999
1846.0,0.006387442061109638
1845.0,0.006431517210272464
1844.0,0.006387442061109638
1843.0,0.006299305179649828
1842.0,0.00625524344553785
1841.0,0.006343371384537999
1840.0,0.006431517210272464
1839.0,0.006431517210272464
1838.0,0.006431517210272464
1837.0,0.006431517210272464
1836.0,0.006431517210272464
1835.0,0.006431517210272464
1834.0,0.006431517210272464
1833.0,0.006431517210272464
1832.0,0.006475596832934416
1831.0,0.006475596832934416
1830.0,0.006475596832934416
1829.0,0.006431517210272464
1828.0,0.006431517210272464
1827.0,0.006519680930003435
1826.0,0.00656376950238835
1825.0,0.00656376950238835
1824.0,0.006519680930003435
1823.0,0.006519680930003435
1822.0,0.00656376950238835
1821.0,0.006607862550997545
1820.0,0.006651960076740071
1819.0,0.006651960076740071
1818.0,0.006696062080525422
1817.0,0.006740168563263094
1816.0,0.006740168563263094
1815.0,0.006651960076740071
1814.0,0.006607862550997545
1813.0,0.00656376950238835
1812.0,0.006607862550997545
1811.0,0.006607862550997545
1810.0,0.006607862550997545
1809.0,0.006607862550997545
1808.0,0.006651960076740071
1807.0,0.006651960076740071
1806.0,0.006696062080525422
1805.0,0.006740168563263094
1804.0,0.006784279525863024
1803.0,0.006784279525863024
1802.0,0.006740168563263094
1801.0,0.006784279525863024
1800.0,0.006784279525863024
1799.0,0.006828394969235152
1798.0,0.006828394969235152
1797.0,0.006828394969235152
1796.0,0.006916639301937977
1795.0,0.00696076819309055
1794.0,0.007004901568658406
1793.0,0.007004901568658406
1792.0,0.007049039429553483
1791.0,0.007004901568658406
1790.0,0.00696076819309055
1789.0,0.007049039429553483
1788.0,0.007137328610972382
1787.0,0.007225635744644521
1786.0,0.007225635744644521
1785.0,0.007225635744644521
1784.0,0.007225635744644521
1783.0,0.007225635744644521
1782.0,0.007269796045857202
1781.0,0.007313960837872058
1780.0,0.007358130121602358
1779.0,0.007402303897961815
1778.0,0.0074464821678643656
1777.0,0.007490664932224611
1776.0,0.007534852191956709
1775.0,0.0075790439479759275
1774.0,0.007534852191956709
1773.0,0.007490664932224611
1772.0,0.007534852191956709
1771.0,0.0075790439479759275
1770.0,0.007711646202907652
1769.0,0.007844288957383316
1768.0,0.007932739972333236
1767.0,0.007932739972333236
1766.0,0.007932739972333236
1765.0,0.008021209005416363
1764.0,0.008198201155356077
1763.0,0.008286724286910463
1762.0,0.008286724286910463
1761.0,0.008242460465651913
1760.0,0.008286724286910463
1759.0,0.008419542825660153
1758.0,0.00850811108984062
1757.0,0.008596697419959609
1756.0,0.008640997362049818
1755.0,0.0087296108049002
1754.0,0.008862564879688284
1753.0,0.008995559669244813
1752.0,0.00908424549391551
1751.0,0.009128595198514056
1750.0,0.009128595198514056
1749.0,0.009172949432521227
1748.0,0.009350411681145587
1747.0,0.009483555971770974
1746.0,0.009572341514736404
1745.0,0.009705553871561357
1744.0,0.009883233932095559
1743.0,0.01001654169860089
1742.0,0.010105436281226954
1741.0,0.01023881228122181
1740.0,0.01037222925484893
1739.0,0.010416710688994968
1738.0,0.010505687227290839
1737.0,0.010683695010048622
1736.0,0.010906307389674463
1735.0,0.011039929609661936
1734.0,0.011039929609661936
1733.0,0.010950843561779777
1732.0,0.011039929609661936
1731.0,0.011441043121384498
1730.0,0.011797899741219142
1729.0,0.012065734767841452
1728.0,0.012244383261476699
1727.0,0.012467797270160563
1726.0,0.01264661126420652
1725.0,0.012870232340102872
1724.0,0.013138729709955221
1723.0,0.013362604389846044
1722.0,0.013541787262693505
1721.0,0.013765869865004277
1720.0,0.013990068146738865
1719.0,0.014214382227394795
1718.0,0.01452861671041239
1717.0,0.014932966849499074
1716.0,0.015337693809893471
1715.0,0.015742798294583915
1714.0,0.016148281008528276
1713.0,0.016554142658660398
1712.0,0.016960383953898095
1711.0,0.017367005605150476
1710.0,0.017774008325325275
1709.0,0.018136109008649592
1708.0,0.018543833477873584
1707.0,0.019042683770379876
1706.0,0.01958753839310856
1705.0,0.02013307743509718
1704.0,0.020633757603838898
1703.0,0.021089422824428272
1702.0,0.021499930688540836
1701.0,0.022139270735302752
1700.0,0.022871099419317753
1699.0,0.023374947949272418
1698.0,0.023879381700184332
1697.0,0.02475205875931885
1696.0,0.025810808881832736
1695.0,0.02654885597506529
1694.0,0.027010773144651168
1693.0,0.027612000892527133
1692.0,0.028353117935693284
1691.0,0.029002634427514717
1690.0,0.029746130405213123
1689.0,0.030490901403433135
1688.0,0.031236951802751545
1687.0,0.03184406285002961
1686.0,0.03235843591698884
1685.0,0.033482823553208085
1684.0,0.03526907894637077
1683.0,0.03635381351515665
1682.0,0.03701541568300293
1681.0,0.03782014709123227
1680.0,0.038721320914956836
1679.0,0.03957679292217042
1678.0,0.0402909757535701
1677.0,0.041006334969674096
1676.0,0.042057664554595586
1675.0,0.04315950984076644
1674.0,0.04397571771932274
1673.0,0.04455278942230456
1672.0,0.0451788169482068
1671.0,0.046143701775014145
1670.0,0.04740126547022694
1669.0,0.0486139051197072
1668.0,0.04953778109440221
1667.0,0.050171041064686284
1666.0,0.05065879322950262
1665.0,0.05119595406718891
1664.0,0.05197846685889629
1663.0,0.05305672930217464
1662.0,0.05403929642243144
1661.0,0.05477768336465916
1660.0,0.05536929814372171
1659.0,0.05586292684190197
1658.0,0.05625823416868636
1657.0,0.05650548409389744
1656.0,0.05670338543334519
1655.0,0.05690137699451481
1654.0,0.05794231615860479
1653.0,0.060081579630943294
1652.0,0.060880282351513104
1651.0,0.06108018775522828
1650.0,0.061380218497318895
1649.0,0.06173051653708872
1648.0,0.062381820606176586
1647.0,0.06363708040225546
1646.0,0.06449273417528723
1645.0,0.06474471821595262
1644.0,0.06489597884855036
1643.0,0.06509774167768612
1642.0,0.06519865825346338
1641.0,0.06524912533642091
1640.0,0.06519865825346338
1639.0,0.06504729218214189
1638.0,0.06484555278383164
1637.0,0.06459351024765114
1636.0,0.06449273417528723
1635.0,0.06414020196211956
1634.0,0.06338573802478864
1633.0,0.06268275223750575
1632.0,0.06203099704854709
1631.0,0.061380218497318895
1630.0,0.06063052992534024
1629.0,0.05983228596592505
1628.0,0.059135024033278416
1627.0,0.05843887976392925
1626.0,0.05769424710410598
1625.0,0.05690137699451481
1624.0,0.05625823416868636
1623.0,0.055764156206519866
1622.0,0.055172003656783764
1621.0,0.05448217792216048
1620.0,0.053842605077627725
1619.0,0.0531548860393769
1618.0,0.052419250695677544
1617.0,0.051684859310652254
1616.0,0.05095170768433621
1615.0,0.05036607620073763
1614.0,0.04987865248862655
1613.0,0.04944043838819989
1612.0,0.04885683989244738
1611.0,0.04827402457540786
1610.0,0.047643522676209304
1609.0,0.04701393480294458
1608.0,0.04633693625290869
1607.0,0.04575749056067524
1606.0,0.04508244626504121
1605.0,0.04440844959427559
1604.0,0.043735497301724546
1603.0,0.0431115453499229
1602.0,0.04253638427006878
1601.0,0.041914151478914974
1600.0,0.04129280891271536
1599.0,0.040672354027829094
1598.0,0.0400527842915015
1597.0,0.039338992729018196
1596.0,0.038673844065289176
1595.0,0.038057116858612794
1594.0,0.037488606492403154
1593.0,0.036873558918095295
1592.0,0.03625938114211591
1591.0,0.035646070707806565
1590.0,0.03512779136222477
1589.0,0.03461012978487776
1588.0,0.034046110897937076
1587.0,0.03352973627071565
1586.0,0.0329671178412978
1585.0,0.03240522732811035
1584.0,0.03189079887180224
1583.0,0.03142366482450232
1582.0,0.030910397045078586
1581.0,0.030397735151460825
1580.0,0.029839156962686353
1579.0,0.029374223311705583
1578.0,0.02890978686288448
1577.0,0.02839947976994095
1576.0,0.027889771597169544
1575.0,0.027426919073445077
1574.0,0.027149444152769986
1573.0,0.02696455931306696
1572.0,0.026687379547098322
1571.0,0.026318081496016443
1570.0,0.025949097207122573
1569.0,0.02562649291857677
1568.0,0.025258095499050004
1567.0,0.02498200236711723
1566.0,0.024706084643793647
1565.0,0.02438440203310499
1564.0,0.02406295751688936
1563.0,0.023833499868024743
1562.0,0.023604163388120325
1561.0,0.02314585342378117
1560.0,0.022642270454698687
1559.0,0.02282532397981263
1558.0,0.02259651912656535
1557.0,0.0221849739168134
1556.0,0.02204787879853809
1555.0,0.021956506090037076
1554.0,0.021728158389364705
1553.0,0.02140867317992523
1552.0,0.0211806132671577
1551.0,0.021089422824428272
1550.0,0.020907099361673565
1549.0,0.020724852408976924
1548.0,0.02045162529590483
1547.0,0.02022406727031445
1546.0,0.019996628416253603
1545.0,0.019769308608968306
1544.0,0.01954210772389997
1543.0,0.01940584422377989
1542.0,0.0192242260373785
1541.0,0.019133445417920836
1540.0,0.019042683770379876
1539.0,0.018725167293411005
1538.0,0.01845319495476394
1537.0,0.01845319495476394
1536.0,0.018543833477873584
1535.0,0.018498511851753108
1534.0,0.018362575344230914
1533.0,0.018226681372252695
1532.0,0.018045555530026514
1531.0,0.017955020928509757
1530.0,0.017864505196230507
1529.0,0.017774008325325275
1528.0,0.01768353030793479
1527.0,0.017502630802287644
1526.0,0.017367005605150476
1525.0,0.017186237868137555
1524.0,0.017050711425501408
1523.0,0.016915227262211507
1522.0,0.016870075265299933
1521.0,0.016734647433454652
1520.0,0.016509028184833463
1519.0,0.016373712875465518
1518.0,0.01632861713980338
1517.0,0.01632861713980338
1516.0,0.01628352608625061
1515.0,0.016238439713835096
1514.0,0.016238439713835096
1513.0,0.016193358021584725
1512.0,0.016103208673694303
1511.0,0.01596801972881945
1510.0,0.015922966097169144
1509.0,0.015877917138889863
1508.0,0.016013078034810446
1507.0,0.016193358021584725
1506.0,0.01596801972881945
1505.0,0.015562705203923999
1504.0,0.01547268665620738
1503.0,0.015562705203923999
1502.0,0.015607721475734415
1501.0,0.015562705203923999
1500.0,0.015517693597737248
1499.0,0.015517693597737248
1498.0,0.015607721475734415
1497.0,0.015697768020096703
1496.0,0.015652742414136167
1495.0,0.015517693597737248
1494.0,0.01547268665620738
1493.0,0.015427684378367834
1492.0,0.015292705517326866
1491.0,0.015157768594724175
1490.0,0.015157768594724175
1489.0,0.015292705517326866
1488.0,0.015337693809893471
1487.0,0.015337693809893471
1486.0,0.015337693809893471
1485.0,0.015292705517326866
1484.0,0.015202742910707112
1483.0,0.015202742910707112
1482.0,0.015202742910707112
1481.0,0.015247721884586563
1480.0,0.015247721884586563
1479.0,0.015202742910707112
1478.0,0.015202742910707112
1477.0,0.015202742910707112
1476.0,0.015292705517326866
1475.0,0.01538268676325183
1474.0,0.015517693597737248
1473.0,0.015742798294583915
1472.0,0.015877917138889863
1471.0,0.015922966097169144
1470.0,0.01596801972881945
1469.0,0.016058141016111804
1468.0,0.016103208673694303
1467.0,0.016103208673694303
1466.0,0.016103208673694303
1465.0,0.016148281008528276
1464.0,0.016148281008528276
1463.0,0.016103208673694303
1462.0,0.016103208673694303
1461.0,0.016058141016111804
1460.0,0.016013078034810446
1459.0,0.01596801972881945
1458.0,0.016058141016111804
1457.0,0.016193358021584725
1456.0,0.016058141016111804
1455.0,0.015922966097169144
1454.0,0.01596801972881945
1453.0,0.016013078034810446
1452.0,0.016013078034810446
1451.0,0.015922966097169144
1450.0,0.015877917138889863
1449.0,0.015922966097169144
1448.0,0.015922966097169144
1447.0,0.015877917138889863
1446.0,0.015877917138889863
1445.0,0.015832872853011715
1444.0,0.01578783323856614
1443.0,0.015742798294583915
1442.0,0.015697768020096703
1441.0,0.015697768020096703
1440.0,0.015697768020096703
1439.0,0.015697768020096703
1438.0,0.015697768020096703
1437.0,0.015742798294583915
1436.0,0.015697768020096703
1435.0,0.015607721475734415
1434.0,0.015607721475734415
1433.0,0.015607721475734415
1432.0,0.015562705203923999
1431.0,0.015562705203923999
1430.0,0.015562705203923999
1429.0,0.015517693597737248
1428.0,0.015517693597737248
1427.0,0.01547268665620738
1426.0,0.015427684378367834
1425.0,0.01538268676325183
1424.0,0.01538268676325183
1423.0,0.01538268676325183
1422.0,0.01538268676325183
1421.0,0.015292705517326866
1420.0,0.015292705517326866
1419.0,0.015337693809893471
1418.0,0.015427684378367834
1417.0,0.01547268665620738
1416.0,0.015517693597737248
1415.0,0.015517693597737248
1414.0,0.01547268665620738
1413.0,0.015427684378367834
1412.0,0.015427684378367834
1411.0,0.01547268665620738
1410.0,0.01547268665620738
1409.0,0.01547268665620738
1408.0,0.015517693597737248
1407.0,0.015607721475734415
1406.0,0.015652742414136167
1405.0,0.015742798294583915
1404.0,0.01578783323856614
1403.0,0.01578783323856614
1402.0,0.015832872853011715
1401.0,0.015832872853011715
1400.0,0.015877917138889863
1399.0,0.015922966097169144
1398.0,0.01596801972881945
1397.0,0.01596801972881945
1396.0,0.01596801972881945
1395.0,0.01596801972881945
1394.0,0.01596801972881945
1393.0,0.015922966097169144
1392.0,0.01596801972881945
1391.0,0.01596801972881945
1390.0,0.01596801972881945
1389.0,0.01596801972881945
1388.0,0.01596801972881945
1387.0,0.016013078034810446
1386.0,0.016013078034810446
1385.0,0.016103208673694303
1384.0,0.016148281008528276
1383.0,0.016238439713835096
1382.0,0.016373712875465518
1381.0,0.016554142658660398
1380.0,0.016734647433454652
1379.0,0.016870075265299933
1378.0,0.016960383953898095
1377.0,0.016960383953898095
1376.0,0.016960383953898095
1375.0,0.016960383953898095
1374.0,0.016915227262211507
1373.0,0.016824927962187042
1372.0,0.016644385668211692
1371.0,0.01646391839700767
1370.0,0.01632861713980338
1369.0,0.016193358021584725
1368.0,0.016058141016111804
1367.0,0.015877917138889863
1366.0,0.015697768020096703
1365.0,0.015517693597737248
1364.0,0.01538268676325183
1363.0,0.015247721884586563
1362.0,0.015112798935672522
1361.0,0.015022873584506602
1360.0,0.014888020460646079
1359.0,0.014753209197138295
1358.0,0.014663358264387139
1357.0,0.01452861671041239
1356.0,0.014393916947563534
1355.0,0.014259258949925524
1354.0,0.014169510141607944
1353.0,0.014079779876432497
1352.0,0.013945219230304673
1351.0,0.01385553528947936
1350.0,0.013765869865004277
1349.0,0.01372104409400876
1348.0,0.013676222949234651
1347.0,0.013631406429727155
1346.0,0.013586594534531482
1345.0,0.013541787262693505
1344.0,0.013452186585275916
1343.0,0.013317820220494436
1342.0,0.01322826573375524
1341.0,0.013138729709955221
1340.0,0.013138729709955221
1339.0,0.013138729709955221
1338.0,0.013138729709955221
1337.0,0.013138729709955221
1336.0,0.013138729709955221
1335.0,0.013138729709955221
1334.0,0.013138729709955221
1333.0,0.013093968619278806
1332.0,0.013093968619278806
1331.0,0.013049212141483357
1330.0,0.013049212141483357
1329.0,0.013004460275618523
1328.0,0.013004460275618523
1327.0,0.013004460275618523
1326.0,0.013004460275618523
1325.0,0.013004460275618523
1324.0,0.013004460275618523
1323.0,0.012959713020733288
1322.0,0.012959713020733288
1321.0,0.012914970375878188
1320.0,0.012870232340102872
1319.0,0.012870232340102872
1318.0,0.012914970375878188
1317.0,0.012914970375878188
1316.0,0.012914970375878188
1315.0,0.012914970375878188
1314.0,0.012959713020733288
1313.0,0.012959713020733288
1312.0,0.012914970375878188
1311.0,0.012914970375878188
1310.0,0.012914970375878188
1309.0,0.012914970375878188
1308.0,0.012870232340102872
1307.0,0.012870232340102872
1306.0,0.012825498912458322
1305.0,0.012825498912458322
1304.0,0.012825498912458322
1303.0,0.012825498912458322
1302.0,0.012825498912458322
1301.0,0.012825498912458322
1300.0,0.012825498912458322
1299.0,0.012825498912458322
1298.0,0.012825498912458322
1297.0,0.012870232340102872
1296.0,0.012870232340102872
1295.0,0.012870232340102872
1294.0,0.012870232340102872
1293.0,0.012870232340102872
1292.0,0.012870232340102872
1291.0,0.012870232340102872
1290.0,0.012914970375878188
1289.0,0.012914970375878188
1288.0,0.012914970375878188
1287.0,0.012870232340102872
1286.0,0.012914970375878188
1285.0,0.012914970375878188
1284.0,0.012914970375878188
1283.0,0.012870232340102872
1282.0,0.012870232340102872
1281.0,0.012870232340102872
1280.0,0.012870232340102872
1279.0,0.012914970375878188
1278.0,0.012914970375878188
1277.0,0.012959713020733288
1276.0,0.013004460275618523
1275.0,0.013004460275618523
1274.0,0.013004460275618523
1273.0,0.013004460275618523
1272.0,0.012959713020733288
1271.0,0.012959713020733288
1270.0,0.013004460275618523
1269.0,0.013049212141483357
1268.0,0.013138729709955221
1267.0,0.01322826573375524
1266.0,0.013362604389846044
1265.0,0.013452186585275916
1264.0,0.013541787262693505
1263.0,0.013631406429727155
1262.0,0.013676222949234651
1261.0,0.01372104409400876
1260.0,0.01372104409400876
1259.0,0.01372104409400876
1258.0,0.01372104409400876
1257.0,0.013765869865004277
1256.0,0.013765869865004277
1255.0,0.01372104409400876
1254.0,0.01372104409400876
1253.0,0.01372104409400876
1252.0,0.013676222949234651
1251.0,0.013631406429727155
1250.0,0.013631406429727155
1249.0,0.013631406429727155
1248.0,0.013676222949234651
1247.0,0.013765869865004277
1246.0,0.01381070026317599
1245.0,0.013900374944870508
1244.0,0.013945219230304673
1243.0,0.013945219230304673
1242.0,0.013990068146738865
1241.0,0.01403492169512921
1240.0,0.014124642691606404
1239.0,0.014214382227394795
1238.0,0.014304140310157809
1237.0,0.014438812226654996
1236.0,0.01452861671041239
1235.0,0.014573525916998342
1234.0,0.014663358264387139
1233.0,0.014708281407112
1232.0,0.014798141635428141
1231.0,0.014888020460646079
1230.0,0.015022873584506602
1229.0,0.015157768594724175
1228.0,0.015247721884586563
1227.0,0.01538268676325183
1226.0,0.015517693597737248
1225.0,0.015652742414136167
1224.0,0.015877917138889863
1223.0,0.016103208673694303
1222.0,0.01632861713980338
1221.0,0.016554142658660398
1220.0,0.016734647433454652
1219.0,0.016915227262211507
1218.0,0.017141057687924732
1217.0,0.017367005605150476
1216.0,0.01759307113620534
1215.0,0.017909760704207134
1214.0,0.018226681372252695
1213.0,0.01858915983411169
1212.0,0.018906576854070378
1211.0,0.019178833355664393
1210.0,0.01949668180660491
1209.0,0.019860222254245663
1208.0,0.02026956933771462
1207.0,0.02067930261797568
1206.0,0.021135015652343103
1205.0,0.021636852916117055
1204.0,0.02204787879853809
1203.0,0.02255077261765881
1202.0,0.023054249440757957
1201.0,0.02355831062115543
1200.0,0.02406295751688936
1199.0,0.024568191490736968
1198.0,0.02512002699306959
1197.0,0.025672564576383117
1196.0,0.026318081496016443
1195.0,0.02691835039863255
1194.0,0.027565723042634938
1193.0,0.02826040911222183
1192.0,0.028956208163971375
1191.0,0.029653123769906697
1190.0,0.030397735151460825
1189.0,0.031096969696171817
1188.0,0.03184406285002961
1187.0,0.03263926003405038
1186.0,0.03338901331806565
1185.0,0.03414006319292828
1184.0,0.03484535401307465
1183.0,0.03559892883726867
1182.0,0.03635381351515665
1181.0,0.0371573187987575
1180.0,0.03800971255993524
1179.0,0.038816290187564384
1178.0,0.03962436858984186
1177.0,0.04038628892895613
1176.0,0.04124505013091051
1175.0,0.04210551278710151
1174.0,0.042967683653061695
1173.0,0.0437835307566099
1172.0,0.04460091336073302
1171.0,0.0454680573730859
1170.0,0.04633693625290869
1169.0,0.04720755695590784
1168.0,0.04807992647970649
1167.0,0.048905443158337114
1166.0,0.04968383607539972
1165.0,0.050463626623857394
1164.0,0.05129369109514803
1163.0,0.05212534510230182
1162.0,0.05295859474477971
1161.0,0.05379344615721715
1160.0,0.054679159207724926
1159.0,0.05551732784983132
1158.0,0.05635711724787096
1157.0,0.0571489934456626
1156.0,0.05799194697768684
1155.0,0.058786812414678646
1154.0,0.0595831353183347
1153.0,0.06038092104330195
1152.0,0.06123017721688262
1151.0,0.06203099704854709
1150.0,0.06283329628496737
1149.0,0.06363708040225546
1148.0,0.06444235490698613
1147.0,0.06519865825346338
1146.0,0.06590573164451952
1145.0,0.06661395809694559
1144.0,0.06732334137759932
1143.0,0.0680846829187538
1142.0,0.06879647454924775
1141.0,0.06956040523329987
1140.0,0.07032568205141221
1139.0,0.0710411591191702
1138.0,0.0716553647351379
1137.0,0.07232173586200852
1136.0,0.07304051161972436
1135.0,0.07376047895413773
1134.0,0.07437854520917098
1133.0,0.07499749231902242
1132.0,0.07556563645676939
1131.0,0.07608277688689435
1130.0,0.07660053384128362
1129.0,0.07711890879170658
1128.0,0.07768983678560404
1127.0,0.07826151631540124
1126.0,0.07878187880504961
1125.0,0.07925073872429178
1124.0,0.07977228854307139
1123.0,0.08018997982980403
1122.0,0.0805035121369384
1121.0,0.08081727095749947
1120.0,0.08107890990866418
1119.0,0.08134070657817682
1118.0,0.08149786036382611
1117.0,0.08170748724464438
1116.0,0.08196966321511989
1115.0,0.08223199755224364
1114.0,0.08238947425013277
1113.0,0.08249449044745338
1112.0,0.08259953204474924
1111.0,0.08259953204474924
1110.0,0.08254700807033655
1109.0,0.08249449044745338
1108.0,0.08238947425013277
1107.0,0.08223199755224364
1106.0,0.08196966321511989
1105.0,0.08165507103772507
1104.0,0.0812883346176787
1103.0,0.08092190762392604
1102.0,0.0805035121369384
1101.0,0.08008551934056851
1100.0,0.07977228854307139
1099.0,0.07935499859321249
1098.0,0.07883394936226118
1097.0,0.07820951434181311
1096.0,0.07748213975538865
1095.0,0.07675598136972361
1094.0,0.0759792995259323
1093.0,0.07520400420208784
1092.0,0.07443009045662374
1091.0,0.07355465218161061
1090.0,0.0725783049495814
1089.0,0.07155293679081787
1088.0,0.07052998382251041
1087.0,0.06945847013556561
1086.0,0.068389593637038
1085.0,0.06727263269847072
1084.0,0.06610796423578891
1083.0,0.06499684854634524
1082.0,0.06378795567975115
1081.0,0.06253226035662252
1080.0,0.06128018521761747
1079.0,0.06003170944866376
1078.0,0.058737090681050264
1077.0,0.05749589383191922
1076.0,0.05625823416868636
1075.0,0.0549747987575373
1074.0,0.053646002773725554
1073.0,0.05232126006306337
1072.0,0.05100054597304693
1071.0,0.04968383607539972
1070.0,0.04837110616336182
1069.0,0.04701393480294458
1068.0,0.045660991397539874
1067.0,0.04440844959427559
1066.0,0.04315950984076644
1065.0,0.042057664554595586
1064.0,0.041006334969674096
1063.0,0.039909932095080425
1062.0,0.03886378261277468
1061.0,0.03786753070176463
1060.0,0.03682628362474838
1059.0,0.03583468937826462
1058.0,0.03484535401307465
1057.0,0.033952178923546183
1056.0,0.03310770413286357
1055.0,0.03235843591698884
1054.0,0.03161045815293173
1053.0,0.030910397045078586
1052.0,0.03025802323714588
1051.0,0.029560137048236124
1050.0,0.028956208163971375
1049.0,0.02839947976994095
1048.0,0.027889771597169544
1047.0,0.027426919073445077
1046.0,0.02691835039863255
1045.0,0.026456531467510258
1044.0,0.025995203102585407
1043.0,0.025488307262671706
1042.0,0.025028005701930978
1041.0,0.024568191490736968
1040.0,0.024246610963712723
1039.0,0.023925268380126097
1038.0,0.023741750742954926
1037.0,0.02351246269481
1036.0,0.023237476732539397
1035.0,0.02291687968414724
1034.0,0.02259651912656535
1033.0,0.022322112326006227
1032.0,0.022093572362881675
1031.0,0.021865152601710403
1030.0,0.02159120737696063
1029.0,0.021271822861508305
1028.0,0.0209982515252789
1027.0,0.020770406977844713
1026.0,0.02067930261797568
1025.0,0.020542681902151694
1024.0,0.020406104151069693
1023.0,0.02022406727031445
1022.0,0.020087589665283012
1021.0,0.01995115493504329
1020.0,0.019860222254245663
1019.0,0.019769308608968306
1018.0,0.019678413991243593
1017.0,0.01958753839310856
1016.0,0.01949668180660491
1015.0,0.01940584422377989
1014.0,0.01940584422377989
1013.0,0.019360432556262852
1012.0,0.019315025636685412
1011.0,0.019269623464054586
1010.0,0.0192242260373785
1009.0,0.019178833355664393
1008.0,0.019133445417920836
1007.0,0.0190880622231564
1006.0,0.0190880622231564
1005.0,0.019133445417920836
1004.0,0.019133445417920836
1003.0,0.019133445417920836
1002.0,0.0190880622231564
1001.0,0.0190880622231564
1000.0,0.0190880622231564
999.0,0.019178833355664393
998.0,0.0192242260373785
997.0,0.0192242260373785
996.0,0.0192242260373785
995.0,0.019178833355664393
994.0,0.019178833355664393
993.0,0.0192242260373785
992.0,0.019178833355664393
991.0,0.019133445417920836
990.0,0.019133445417920836
989.0,0.019133445417920836
988.0,0.019133445417920836
987.0,0.0190880622231564
986.0,0.019042683770379876
985.0,0.01899731005860028
984.0,0.018951941086827073
983.0,0.018906576854070378
982.0,0.018906576854070378
981.0,0.018815862601645694
980.0,0.018634490921455527
979.0,0.01845319495476394
978.0,0.018226681372252695
977.0,0.01809082990920774
976.0,0.018045555530026514
975.0,0.01800028587012159
974.0,0.017955020928509757
973.0,0.017864505196230507
972.0,0.017774008325325275
971.0,0.017638298366853045
970.0,0.01759307113620534
969.0,0.017547848615010242
968.0,0.017502630802287644
967.0,0.017502630802287644
966.0,0.017502630802287644
965.0,0.017457417697056554
964.0,0.017457417697056554
963.0,0.017457417697056554
962.0,0.017502630802287644
961.0,0.017547848615010242
960.0,0.017547848615010242
959.0,0.017547848615010242
958.0,0.01759307113620534
957.0,0.017638298366853045
956.0,0.01768353030793479
955.0,0.017728766960431575
954.0,0.017774008325325275
953.0,0.01781925440359733
952.0,0.017864505196230507
951.0,0.017864505196230507
950.0,0.017864505196230507
949.0,0.01781925440359733
948.0,0.01781925440359733
947.0,0.01781925440359733
946.0,0.017955020928509757
945.0,0.01809082990920774
944.0,0.018226681372252695
943.0,0.01831727262871463
942.0,0.01831727262871463
941.0,0.01831727262871463
940.0,0.01831727262871463
939.0,0.01831727262871463
938.0,0.018362575344230914
937.0,0.01845319495476394
936.0,0.018543833477873584
935.0,0.018679826740892747
934.0,0.018815862601645694
933.0,0.018906576854070378
932.0,0.01899731005860028
931.0,0.0190880622231564
930.0,0.019133445417920836
929.0,0.019178833355664393
928.0,0.019315025636685412
927.0,0.019451260640229506
926.0,0.01958753839310856
925.0,0.019678413991243593
924.0,0.019769308608968306
923.0,0.019814763052665052
922.0,0.01990568621470623
921.0,0.019996628416253603
920.0,0.020087589665283012
919.0,0.020178569969774962
918.0,0.02026956933771462
917.0,0.020406104151069693
916.0,0.020542681902151694
915.0,0.02067930261797568
914.0,0.020724852408976924
913.0,0.020770406977844713
912.0,0.020861530453190058
911.0,0.020952673052035298
910.0,0.021089422824428272
909.0,0.0211806132671577
908.0,0.021271822861508305
907.0,0.021363051615525652
906.0,0.0214542995372613
905.0,0.021545566634771474
904.0,0.02168250325324883
903.0,0.021819483062586187
902.0,0.02200219004126036
901.0,0.022139270735302752
900.0,0.022230681908425698
899.0,0.022322112326006227
898.0,0.022413561996148967
897.0,0.02255077261765881
896.0,0.022733787572707387
895.0,0.022871099419317753
894.0,0.02300845469384938
893.0,0.02314585342378117
892.0,0.023329119375188556
891.0,0.023466619608062178
890.0,0.02365002099672653
889.0,0.023787622882622816
888.0,0.023879381700184332
887.0,0.023925268380126097
886.0,0.024108863598207186
885.0,0.024338466818941473
884.0,0.02461415101053266
883.0,0.024890010313838973
882.0,0.025074013910237447
881.0,0.025258095499050004
880.0,0.025488307262671706
879.0,0.025718641122169483
878.0,0.025949097207122573
877.0,0.02617967564731627
876.0,0.026410376572743033
875.0,0.026502691267936695
874.0,0.026595025589939425
873.0,0.026733563891471412
872.0,0.02691835039863255
871.0,0.027149444152769986
870.0,0.02738066094037661
869.0,0.027565723042634938
868.0,0.0277045713888604
867.0,0.027843464140506313
866.0,0.028075050815808744
865.0,0.028353117935693284
864.0,0.028677754757187035
863.0,0.028956208163971375
862.0,0.029234840219232394
861.0,0.029513651152349718
860.0,0.029746130405213123
859.0,0.029978734171634214
858.0,0.030211462585061133
857.0,0.030444315779156517
856.0,0.03063068826647264
855.0,0.03081714076773867
854.0,0.031003673351687855
853.0,0.03128362253321426
852.0,0.03161045815293173
851.0,0.03193753992355086
850.0,0.032218091924200776
849.0,0.03235843591698884
848.0,0.032545631817259224
847.0,0.03273290844021437
846.0,0.0329671178412978
845.0,0.033201453616638954
844.0,0.03338901331806565
843.0,0.03362357691107709
842.0,0.03385826726096752
841.0,0.03409308450480819
840.0,0.03442204208947208
839.0,0.03475124903287918
838.0,0.03503362516890207
837.0,0.03531618502395939
836.0,0.035646070707806565
835.0,0.03602339000339416
834.0,0.036401037402758574
833.0,0.036779013477011624
832.0,0.0371100126082089
831.0,0.03744126420403626
830.0,0.03777276864991497
829.0,0.038151940981675736
828.0,0.03857890593355173
827.0,0.038911280232103884
826.0,0.03924390909822728
825.0,0.03952922246570112
824.0,0.03986232513620536
823.0,0.04019568349166214
822.0,0.04057697805689475
821.0,0.040958607678906356
820.0,0.04129280891271536
819.0,0.04167506835594681
818.0,0.042057664554595586
817.0,0.042392712939904875
816.0,0.042775942156833
815.0,0.04315950984076644
814.0,0.0435434165901003
813.0,0.0439276630048171
812.0,0.04426415772233416
811.0,0.04460091336073302
810.0,0.044937930324967956
809.0,0.04522701031028298
808.0,0.045612749855485024
807.0,0.04599883231842972
806.0,0.046481918555007384
805.0,0.0469171560879138
804.0,0.047352830241056854
803.0,0.04774046340917959
802.0,0.04807992647970649
801.0,0.04851676924770687
800.0,0.048954051864180226
799.0,0.04939177521576932
798.0,0.04978123335813667
797.0,0.050171041064686284
796.0,0.05056119896349576
795.0,0.05100054597304693
794.0,0.05134256785867963
793.0,0.05173378011970464
792.0,0.05212534510230182
791.0,0.05256627811294923
790.0,0.05300765925162776
789.0,0.053449489430144714
788.0,0.05389176956309405
787.0,0.05428528594013993
786.0,0.05462990550969615
785.0,0.05507339001378431
784.0,0.055566682299785564
783.0,0.05610995175152733
782.0,0.05655495097496965
781.0,0.057000406633959555
780.0,0.05749589383191922
779.0,0.05794231615860479
778.0,0.05843887976392925
777.0,0.0588862729628985
776.0,0.05933412752417122
775.0,0.05973260855398799
774.0,0.060081579630943294
773.0,0.060430831344098435
772.0,0.06078036414518184
771.0,0.0611301784870133
770.0,0.06143024377893891
769.0,0.06173051653708872
768.0,0.06203099704854709
767.0,0.062331685600995
766.0,0.06278310913729457
765.0,0.06323500239005853
764.0,0.06373765809652254
763.0,0.06414020196211956
762.0,0.06449273417528723
761.0,0.06484555278383164
760.0,0.0653500770992892
759.0,0.0658551882075229
758.0,0.06620911585658007
757.0,0.06656333217371957
756.0,0.06686717627326577
755.0,0.06727263269847072
754.0,0.06767846801070698
753.0,0.0681862960408608
752.0,0.06869471857832687
751.0,0.06915280831750303
750.0,0.06956040523329987
749.0,0.0699173666076287
748.0,0.07022356719509815
747.0,0.07047889936889606
746.0,0.07088774334533943
745.0,0.07145053299833615
744.0,0.07216786713341827
743.0,0.07273231918911849
742.0,0.07309189829456408
741.0,0.07340034609297241
740.0,0.07370901311513656
739.0,0.07412091069849924
738.0,0.07458476291575367
737.0,0.07515236702446293
736.0,0.07572071393811841
735.0,0.07613452481449845
734.0,0.07644514193245056
733.0,0.07675598136972361
732.0,0.07711890879170658
731.0,0.07753405470158659
730.0,0.07794959783282618
729.0,0.07841755960658348
728.0,0.07883394936226118
727.0,0.07919861817434581
726.0,0.0794592834975203
725.0,0.07982447798997727
724.0,0.08034671768963575
723.0,0.08071265949561734
722.0,0.08092190762392604
721.0,0.08118360963962057
720.0,0.08175990977858505
719.0,0.08244197917456386
718.0,0.08286224724355584
717.0,0.08301995267961781
716.0,0.0830725338870073
715.0,0.08317771540408803
714.0,0.08328292240118751
713.0,0.08344078069888616
712.0,0.08370400543686918
711.0,0.08396738981143059
710.0,0.08423093401631587
709.0,0.08470571697731355
708.0,0.08539243222891946
707.0,0.08592141461088798
706.0,0.08608023504853413
705.0,0.08597434830367123
704.0,0.08597434830367123
703.0,0.08618614761628329
702.0,0.08655704514060414
701.0,0.0870343792958963
700.0,0.08756536662442538
699.0,0.08825662214406838
698.0,0.08894897967187343
697.0,0.08953568400438638
696.0,0.0900163050601559
695.0,0.09033701484598189
694.0,0.09049745859458458
693.0,0.09071147583774919
692.0,0.09108625997902897
691.0,0.09151498112135026
690.0,0.09167586072382083
689.0,0.09151498112135026
688.0,0.09119340059432579
687.0,0.09097914578884403
686.0,0.09124698081546634
685.0,0.0919977988274463
684.0,0.09301884677114591
683.0,0.09388054245443844
682.0,0.09436599867304518
681.0,0.09463593123310776
680.0,0.09474395125154866
679.0,0.09463593123310776
678.0,0.09447395156495153
677.0,0.09463593123310776
676.0,0.09528445472131919
675.0,0.096150661903319
674.0,0.09680145295702158
673.0,0.09745322068600859
672.0,0.09821485469640057
671.0,0.09865067458435761
670.0,0.0978882765519955
669.0,0.09658441423091357
668.0,0.09707290398273716
667.0,0.09979678698310646
666.0,0.10253786198693682
665.0,0.10352889952072264
664.0,0.10325338439259446
663.0,0.1028679566179056
662.0,0.10292299679057959
661.0,0.10330847343711591
660.0,0.10363915453068362
659.0,0.10385974855798041
658.0,0.10391491457671487
657.0,0.10402526764093545
656.0,0.10430127304069425
655.0,0.10446696051592963
654.0,0.10446696051592963
653.0,0.10463271122663809
652.0,0.1052410056281079
651.0,0.1060718734573931
650.0,0.10662666975397506
649.0,0.10707101764479421
648.0,0.10762709260156367
647.0,0.10835105612944096
646.0,0.10902040301031102
645.0,0.10963487855187593
644.0,0.11025022473596224
643.0,0.1106422631110684
642.0,0.11086644403327606
641.0,0.11142740314240007
640.0,0.11272036546997688
639.0,0.11446916681190777
638.0,0.11628179803604044
637.0,0.11821604440661537
636.0,0.12050271275057156
635.0,0.12262865413022594
634.0,0.12378215940835768
633.0,0.12372441132212098
632.0,0.12303203256741524
631.0,0.12205304837081177
630.0,0.12107626603243293
629.0,0.12033079436794658
628.0,0.11992991593593283
627.0,0.11981544717356662
626.0,0.11975822410451964
625.0,0.11992991593593283
624.0,0.1203880929341492
623.0,0.12090412049992727
622.0,0.1213058996038916
621.0,0.12153565465853111
620.0,0.12165057778222454
619.0,0.12176553132495593
618.0,0.12216810850710624
617.0,0.12308968865537295
616.0,0.12395544975390482
615.0,0.12412880927263426
614.0,0.12360893818081231
613.0,0.12303203256741524
612.0,0.12251347193039863
611.0,0.12182301950849372
610.0,0.12096149476276286
609.0,0.12027350336042275
608.0,0.11987267778337518
607.0,0.1190150095132465
606.0,0.11764625361128611
605.0,0.11662251025166115
604.0,0.1165657063169907
603.0,0.1170772093974013
602.0,0.11730473761840288
601.0,0.11713408027837091
600.0,0.11667932161702477
