cm-1,A
4000.0,0.0111
3999.0,0.0111
3998.0,0.0111
3997.0,0.0111
3996.0,0.0111
3995.0,0.0111
3994.0,0.0111
3993.0,0.0112
3992.0,0.0112
3991.0,0.0112
3990.0,0.0112
3989.0,0.0112
3988.0,0.0111
3987.0,0.0111
3986.0,0.0112
3985.0,0.0112
3984.0,0.0112
3983.0,0.0113
3982.0,0.0114
3981.0,0.0115
3980.0,0.0116
3979.0,0.0115
3978.0,0.0114
3977.0,0.0113
3976.0,0.0112
3975.0,0.0111
3974.0,0.011
3973.0,0.011
3972.0,0.0111
3971.0,0.0111
3970.0,0.0112
3969.0,0.0112
3968.0,0.0113
3967.0,0.0113
3966.0,0.0114
3965.0,0.0114
3964.0,0.0114
3963.0,0.0113
3962.0,0.0112
3961.0,0.0112
3960.0,0.0111
3959.0,0.0112
3958.0,0.0113
3957.0,0.0114
3956.0,0.0114
3955.0,0.0113
3954.0,0.0113
3953.0,0.0112
3952.0,0.0112
3951.0,0.0112
3950.0,0.0112
3949.0,0.0111
3948.0,0.0111
3947.0,0.0111
3946.0,0.0111
3945.0,0.0111
3944.0,0.0112
3943.0,0.0112
3942.0,0.0113
3941.0,0.0113
3940.0,0.0112
3939.0,0.0112
3938.0,0.0112
3937.0,0.0112
3936.0,0.0112
3935.0,0.0112
3934.0,0.0112
3933.0,0.0112
3932.0,0.0111
3931.0,0.0111
3930.0,0.011
3929.0,0.011
3928.0,0.0111
3927.0,0.0111
3926.0,0.0111
3925.0,0.0112
3924.0,0.0112
3923.0,0.0112
3922.0,0.0113
3921.0,0.0113
3920.0,0.0113
3919.0,0.0113
3918.0,0.0113
3917.0,0.0113
3916.0,0.0113
3915.0,0.0113
3914.0,0.0114
3913.0,0.0114
3912.0,0.0115
3911.0,0.0115
3910.0,0.0114
3909.0,0.0113
3908.0,0.0112
3907.0,0.011
3906.0,0.0109
3905.0,0.0107
3904.0,0.0106
3903.0,0.0105
3902.0,0.0105
3901.0,0.0107
3900.0,0.011
3899.0,0.0112
3898.0,0.0113
3897.0,0.0114
3896.0,0.0114
3895.0,0.0114
3894.0,0.0113
3893.0,0.0113
3892.0,0.0113
3891.0,0.0112
3890.0,0.0111
3889.0,0.0111
3888.0,0.0112
3887.0,0.0113
3886.0,0.0114
3885.0,0.0114
3884.0,0.0113
3883.0,0.0112
3882.0,0.0111
3881.0,0.0112
3880.0,0.0113
3879.0,0.0113
3878.0,0.0113
3877.0,0.0112
3876.0,0.011
3875.0,0.0108
3874.0,0.0107
3873.0,0.0107
3872.0,0.0108
3871.0,0.011
3870.0,0.0111
3869.0,0.0111
3868.0,0.011
3867.0,0.011
3866.0,0.0109
3865.0,0.0109
3864.0,0.0109
3863.0,0.011
3862.0,0.0111
3861.0,0.0112
3860.0,0.0113
3859.0,0.0113
3858.0,0.0112
3857.0,0.011
3856.0,0.011
3855.0,0.0111
3854.0,0.0114
3853.0,0.0114
3852.0,0.0112
3851.0,0.0113
3850.0,0.0114
3849.0,0.0115
3848.0,0.0116
3847.0,0.0115
3846.0,0.0115
3845.0,0.0113
3844.0,0.0112
3843.0,0.011
3842.0,0.0108
3841.0,0.0107
3840.0,0.0107
3839.0,0.0108
3838.0,0.0109
3837.0,0.011
3836.0,0.011
3835.0,0.0111
3834.0,0.0112
3833.0,0.0113
3832.0,0.0113
3831.0,0.0113
3830.0,0.0113
3829.0,0.0113
3828.0,0.0113
3827.0,0.0112
3826.0,0.0111
3825.0,0.011
3824.0,0.0109
3823.0,0.0109
3822.0,0.0109
3821.0,0.011
3820.0,0.011
3819.0,0.011
3818.0,0.0112
3817.0,0.0114
3816.0,0.0114
3815.0,0.0114
3814.0,0.0115
3813.0,0.0116
3812.0,0.0116
3811.0,0.0115
3810.0,0.0114
3809.0,0.0113
3808.0,0.0114
3807.0,0.0114
3806.0,0.0113
3805.0,0.0112
3804.0,0.0111
3803.0,0.0111
3802.0,0.0111
3801.0,0.011
3800.0,0.0109
3799.0,0.0109
3798.0,0.0111
3797.0,0.0113
3796.0,0.0115
3795.0,0.0117
3794.0,0.0118
3793.0,0.0118
3792.0,0.0119
3791.0,0.0119
3790.0,0.0119
3789.0,0.0119
3788.0,0.0119
3787.0,0.0119
3786.0,0.0119
3785.0,0.0119
3784.0,0.0117
3783.0,0.0116
3782.0,0.0115
3781.0,0.0116
3780.0,0.0117
3779.0,0.0118
3778.0,0.0119
3777.0,0.0119
3776.0,0.0119
3775.0,0.0118
3774.0,0.0116
3773.0,0.0115
3772.0,0.0114
3771.0,0.0115
3770.0,0.0115
3769.0,0.0116
3768.0,0.0117
3767.0,0.0117
3766.0,0.0118
3765.0,0.0117
3764.0,0.0117
3763.0,0.0117
3762.0,0.0116
3761.0,0.0116
3760.0,0.0115
3759.0,0.0115
3758.0,0.0114
3757.0,0.0113
3756.0,0.0113
3755.0,0.0113
3754.0,0.0112
3753.0,0.0111
3752.0,0.011
3751.0,0.011
3750.0,0.0108
3749.0,0.0107
3748.0,0.0107
3747.0,0.0107
3746.0,0.0107
3745.0,0.0106
3744.0,0.0104
3743.0,0.0102
3742.0,0.0102
3741.0,0.01
3740.0,0.0098
3739.0,0.0096
3738.0,0.0093
3737.0,0.009
3736.0,0.0086
3735.0,0.0082
3734.0,0.0079
3733.0,0.0078
3732.0,0.0079
3731.0,0.0079
3730.0,0.0078
3729.0,0.0078
3728.0,0.0077
3727.0,0.0076
3726.0,0.0077
3725.0,0.0078
3724.0,0.008
3723.0,0.0083
3722.0,0.0087
3721.0,0.009
3720.0,0.0094
3719.0,0.0099
3718.0,0.0102
3717.0,0.0106
3716.0,0.0109
3715.0,0.0111
3714.0,0.011
3713.0,0.0107
3712.0,0.0104
3711.0,0.0102
3710.0,0.01
3709.0,0.0099
3708.0,0.0098
3707.0,0.0096
3706.0,0.0095
3705.0,0.0093
3704.0,0.0093
3703.0,0.0093
3702.0,0.0094
3701.0,0.0095
3700.0,0.0095
3699.0,0.0096
3698.0,0.0097
3697.0,0.0099
3696.0,0.01
3695.0,0.01
3694.0,0.0101
3693.0,0.0101
3692.0,0.0102
3691.0,0.0104
3690.0,0.0106
3689.0,0.0108
3688.0,0.0108
3687.0,0.011
3686.0,0.0112
3685.0,0.0114
3684.0,0.0115
3683.0,0.0115
3682.0,0.0116
3681.0,0.0116
3680.0,0.0116
3679.0,0.0115
3678.0,0.0114
3677.0,0.0115
3676.0,0.0116
3675.0,0.0116
3674.0,0.0116
3673.0,0.0116
3672.0,0.0118
3671.0,0.0119
3670.0,0.0121
3669.0,0.0122
3668.0,0.0123
3667.0,0.0124
3666.0,0.0126
3665.0,0.0127
3664.0,0.0129
3663.0,0.0129
3662.0,0.0129
3661.0,0.0129
3660.0,0.0128
3659.0,0.0127
3658.0,0.0127
3657.0,0.0127
3656.0,0.0128
3655.0,0.0127
3654.0,0.0126
3653.0,0.0124
3652.0,0.0122
3651.0,0.0122
3650.0,0.0124
3649.0,0.0126
3648.0,0.0126
3647.0,0.0127
3646.0,0.0128
3645.0,0.0129
3644.0,0.013
3643.0,0.013
3642.0,0.0129
3641.0,0.0129
3640.0,0.0128
3639.0,0.0127
3638.0,0.0126
3637.0,0.0124
3636.0,0.0123
3635.0,0.0121
3634.0,0.0119
3633.0,0.0117
3632.0,0.0115
3631.0,0.0113
3630.0,0.0113
3629.0,0.0115
3628.0,0.0114
3627.0,0.0114
3626.0,0.0115
3625.0,0.0116
3624.0,0.0117
3623.0,0.0117
3622.0,0.0118
3621.0,0.012
3620.0,0.0122
3619.0,0.0124
3618.0,0.0126
3617.0,0.0129
3616.0,0.0133
3615.0,0.0137
3614.0,0.014
3613.0,0.0142
3612.0,0.0142
3611.0,0.0141
3610.0,0.0139
3609.0,0.0138
3608.0,0.0137
3607.0,0.0137
3606.0,0.0136
3605.0,0.0135
3604.0,0.0134
3603.0,0.0133
3602.0,0.0132
3601.0,0.0132
3600.0,0.0133
3599.0,0.0133
3598.0,0.0134
3597.0,0.0134
3596.0,0.0135
3595.0,0.0136
3594.0,0.0138
3593.0,0.0139
3592.0,0.0139
3591.0,0.0138
3590.0,0.0138
3589.0,0.0139
3588.0,0.0142
3587.0,0.0144
3586.0,0.0145
3585.0,0.0145
3584.0,0.0147
3583.0,0.0148
3582.0,0.015
3581.0,0.0152
3580.0,0.0154
3579.0,0.0155
3578.0,0.0156
3577.0,0.0156
3576.0,0.0156
3575.0,0.0156
3574.0,0.0156
3573.0,0.0155
3572.0,0.0155
3571.0,0.0154
3570.0,0.0154
3569.0,0.0154
3568.0,0.0155
3567.0,0.0156
3566.0,0.0155
3565.0,0.0155
3564.0,0.0156
3563.0,0.0157
3562.0,0.0158
3561.0,0.0158
3560.0,0.0159
3559.0,0.016
3558.0,0.0161
3557.0,0.0162
3556.0,0.0163
3555.0,0.0163
3554.0,0.0164
3553.0,0.0165
3552.0,0.0165
3551.0,0.0164
3550.0,0.0163
3549.0,0.0162
3548.0,0.0162
3547.0,0.0161
3546.0,0.0162
3545.0,0.0163
3544.0,0.0165
3543.0,0.0167
3542.0,0.0168
3541.0,0.0168
3540.0,0.0168
3539.0,0.0167
3538.0,0.0167
3537.0,0.0167
3536.0,0.0168
3535.0,0.0169
3534.0,0.0171
3533.0,0.0171
3532.0,0.017
3531.0,0.0169
3530.0,0.0168
3529.0,0.0167
3528.0,0.0167
3527.0,0.0167
3526.0,0.0167
3525.0,0.0167
3524.0,0.0168
3523.0,0.0168
3522.0,0.0169
3521.0,0.0169
3520.0,0.017
3519.0,0.017
3518.0,0.0171
3517.0,0.0171
3516.0,0.0172
3515.0,0.0172
3514.0,0.0172
3513.0,0.0172
3512.0,0.0173
3511.0,0.0173
3510.0,0.0173
3509.0,0.0172
3508.0,0.0172
3507.0,0.0172
3506.0,0.0172
3505.0,0.0173
3504.0,0.0174
3503.0,0.0175
3502.0,0.0175
3501.0,0.0174
3500.0,0.0173
3499.0,0.0173
3498.0,0.0174
3497.0,0.0174
3496.0,0.0175
3495.0,0.0176
3494.0,0.0176
3493.0,0.0176
3492.0,0.0176
3491.0,0.0176
3490.0,0.0176
3489.0,0.0177
3488.0,0.0177
3487.0,0.0177
3486.0,0.0177
3485.0,0.0176
3484.0,0.0175
3483.0,0.0175
3482.0,0.0175
3481.0,0.0175
3480.0,0.0176
3479.0,0.0176
3478.0,0.0176
3477.0,0.0177
3476.0,0.0177
3475.0,0.0178
3474.0,0.0179
3473.0,0.0179
3472.0,0.0179
3471.0,0.0179
3470.0,0.0179
3469.0,0.0179
3468.0,0.0179
3467.0,0.018
3466.0,0.018
3465.0,0.0179
3464.0,0.0178
3463.0,0.0178
3462.0,0.0178
3461.0,0.0178
3460.0,0.0178
3459.0,0.0178
3458.0,0.0178
3457.0,0.0178
3456.0,0.0177
3455.0,0.0177
3454.0,0.0177
3453.0,0.0177
3452.0,0.0178
3451.0,0.0178
3450.0,0.0179
3449.0,0.0178
3448.0,0.0178
3447.0,0.0177
3446.0,0.0177
3445.0,0.0176
3444.0,0.0177
3443.0,0.0178
3442.0,0.018
3441.0,0.0181
3440.0,0.0181
3439.0,0.0181
3438.0,0.018
3437.0,0.0179
3436.0,0.0179
3435.0,0.018
3434.0,0.018
3433.0,0.018
3432.0,0.018
3431.0,0.0181
3430.0,0.0181
3429.0,0.0181
3428.0,0.018
3427.0,0.018
3426.0,0.018
3425.0,0.0179
3424.0,0.0179
3423.0,0.0179
3422.0,0.0179
3421.0,0.0179
3420.0,0.0179
3419.0,0.0179
3418.0,0.0179
3417.0,0.0179
3416.0,0.018
3415.0,0.018
3414.0,0.018
3413.0,0.018
3412.0,0.0179
3411.0,0.0178
3410.0,0.0179
3409.0,0.0179
3408.0,0.0179
3407.0,0.018
3406.0,0.018
3405.0,0.0179
3404.0,0.0179
3403.0,0.0178
3402.0,0.0178
3401.0,0.0179
3400.0,0.0179
3399.0,0.0179
3398.0,0.0179
3397.0,0.0179
3396.0,0.0179
3395.0,0.0179
3394.0,0.0179
3393.0,0.018
3392.0,0.0179
3391.0,0.0179
3390.0,0.0179
3389.0,0.0179
3388.0,0.0178
3387.0,0.0178
3386.0,0.0178
3385.0,0.0178
3384.0,0.0177
3383.0,0.0178
3382.0,0.0178
3381.0,0.0178
3380.0,0.0177
3379.0,0.0177
3378.0,0.0178
3377.0,0.0179
3376.0,0.018
3375.0,0.018
3374.0,0.0179
3373.0,0.0178
3372.0,0.0177
3371.0,0.0177
3370.0,0.0176
3369.0,0.0177
3368.0,0.0177
3367.0,0.0177
3366.0,0.0177
3365.0,0.0177
3364.0,0.0176
3363.0,0.0174
3362.0,0.0173
3361.0,0.0173
3360.0,0.0174
3359.0,0.0175
3358.0,0.0176
3357.0,0.0177
3356.0,0.0178
3355.0,0.0179
3354.0,0.0179
3353.0,0.0178
3352.0,0.0176
3351.0,0.0175
3350.0,0.0174
3349.0,0.0174
3348.0,0.0175
3347.0,0.0175
3346.0,0.0174
3345.0,0.0173
3344.0,0.0173
3343.0,0.0173
3342.0,0.0173
3341.0,0.0173
3340.0,0.0172
3339.0,0.0172
3338.0,0.0171
3337.0,0.0171
3336.0,0.0171
3335.0,0.0171
3334.0,0.017
3333.0,0.017
3332.0,0.0169
3331.0,0.017
3330.0,0.017
3329.0,0.017
3328.0,0.017
3327.0,0.017
3326.0,0.017
3325.0,0.017
3324.0,0.017
3323.0,0.017
3322.0,0.0169
3321.0,0.0169
3320.0,0.0168
3319.0,0.0168
3318.0,0.0167
3317.0,0.0167
3316.0,0.0167
3315.0,0.0168
3314.0,0.0169
3313.0,0.0169
3312.0,0.0169
3311.0,0.0168
3310.0,0.0167
3309.0,0.0167
3308.0,0.0167
3307.0,0.0168
3306.0,0.0168
3305.0,0.0167
3304.0,0.0166
3303.0,0.0165
3302.0,0.0164
3301.0,0.0164
3300.0,0.0165
3299.0,0.0165
3298.0,0.0166
3297.0,0.0166
3296.0,0.0166
3295.0,0.0165
3294.0,0.0166
3293.0,0.0166
3292.0,0.0166
3291.0,0.0165
3290.0,0.0164
3289.0,0.0163
3288.0,0.0163
3287.0,0.0163
3286.0,0.0163
3285.0,0.0163
3284.0,0.0163
3283.0,0.0163
3282.0,0.0161
3281.0,0.016
3280.0,0.0159
3279.0,0.0159
3278.0,0.0159
3277.0,0.0159
3276.0,0.0159
3275.0,0.016
3274.0,0.016
3273.0,0.016
3272.0,0.0159
3271.0,0.0158
3270.0,0.0158
3269.0,0.0158
3268.0,0.0158
3267.0,0.0159
3266.0,0.016
3265.0,0.016
3264.0,0.016
3263.0,0.016
3262.0,0.016
3261.0,0.016
3260.0,0.016
3259.0,0.0159
3258.0,0.0159
3257.0,0.0158
3256.0,0.0157
3255.0,0.0157
3254.0,0.0156
3253.0,0.0156
3252.0,0.0156
3251.0,0.0155
3250.0,0.0155
3249.0,0.0154
3248.0,0.0154
3247.0,0.0154
3246.0,0.0154
3245.0,0.0154
3244.0,0.0154
3243.0,0.0154
3242.0,0.0154
3241.0,0.0154
3240.0,0.0154
3239.0,0.0154
3238.0,0.0154
3237.0,0.0154
3236.0,0.0154
3235.0,0.0154
3234.0,0.0154
3233.0,0.0154
3232.0,0.0153
3231.0,0.0152
3230.0,0.0151
3229.0,0.015
3228.0,0.015
3227.0,0.0151
3226.0,0.0151
3225.0,0.0151
3224.0,0.0151
3223.0,0.0151
3222.0,0.0151
3221.0,0.015
3220.0,0.0149
3219.0,0.0149
3218.0,0.0149
3217.0,0.0148
3216.0,0.0148
3215.0,0.0147
3214.0,0.0146
3213.0,0.0145
3212.0,0.0145
3211.0,0.0144
3210.0,0.0144
3209.0,0.0145
3208.0,0.0145
3207.0,0.0144
3206.0,0.0144
3205.0,0.0143
3204.0,0.0143
3203.0,0.0143
3202.0,0.0143
3201.0,0.0143
3200.0,0.0143
3199.0,0.0144
3198.0,0.0144
3197.0,0.0144
3196.0,0.0144
3195.0,0.0144
3194.0,0.0143
3193.0,0.0142
3192.0,0.0142
3191.0,0.0142
3190.0,0.0141
3189.0,0.0141
3188.0,0.0141
3187.0,0.0141
3186.0,0.014
3185.0,0.0139
3184.0,0.0138
3183.0,0.0138
3182.0,0.0138
3181.0,0.0138
3180.0,0.0138
3179.0,0.0138
3178.0,0.0138
3177.0,0.0137
3176.0,0.0137
3175.0,0.0136
3174.0,0.0137
3173.0,0.0137
3172.0,0.0137
3171.0,0.0136
3170.0,0.0135
3169.0,0.0134
3168.0,0.0133
3167.0,0.0132
3166.0,0.0132
3165.0,0.0132
3164.0,0.0132
3163.0,0.0132
3162.0,0.0131
3161.0,0.013
3160.0,0.0129
3159.0,0.0129
3158.0,0.0129
3157.0,0.0129
3156.0,0.0129
3155.0,0.0128
3154.0,0.0127
3153.0,0.0126
3152.0,0.0126
3151.0,0.0126
3150.0,0.0126
3149.0,0.0127
3148.0,0.0127
3147.0,0.0127
3146.0,0.0127
3145.0,0.0127
3144.0,0.0126
3143.0,0.0126
3142.0,0.0126
3141.0,0.0126
3140.0,0.0125
3139.0,0.0125
3138.0,0.0124
3137.0,0.0123
3136.0,0.0122
3135.0,0.0121
3134.0,0.012
3133.0,0.012
3132.0,0.012
3131.0,0.012
3130.0,0.0119
3129.0,0.0119
3128.0,0.0118
3127.0,0.0118
3126.0,0.0118
3125.0,0.0118
3124.0,0.0118
3123.0,0.0117
3122.0,0.0117
3121.0,0.0117
3120.0,0.0117
3119.0,0.0116
3118.0,0.0116
3117.0,0.0115
3116.0,0.0115
3115.0,0.0114
3114.0,0.0114
3113.0,0.0114
3112.0,0.0114
3111.0,0.0113
3110.0,0.0112
3109.0,0.0112
3108.0,0.0112
3107.0,0.0112
3106.0,0.0111
3105.0,0.0111
3104.0,0.0111
3103.0,0.0111
3102.0,0.0111
3101.0,0.0111
3100.0,0.011
3099.0,0.011
3098.0,0.0111
3097.0,0.0111
3096.0,0.0111
3095.0,0.0111
3094.0,0.0111
3093.0,0.011
3092.0,0.011
3091.0,0.011
3090.0,0.011
3089.0,0.0109
3088.0,0.0109
3087.0,0.0108
3086.0,0.0108
3085.0,0.0108
3084.0,0.0108
3083.0,0.0108
3082.0,0.0107
3081.0,0.0107
3080.0,0.0106
3079.0,0.0105
3078.0,0.0104
3077.0,0.0103
3076.0,0.0103
3075.0,0.0104
3074.0,0.0104
3073.0,0.0105
3072.0,0.0105
3071.0,0.0105
3070.0,0.0104
3069.0,0.0104
3068.0,0.0103
3067.0,0.0103
3066.0,0.0102
3065.0,0.0101
3064.0,0.01
3063.0,0.01
3062.0,0.0099
3061.0,0.0098
3060.0,0.0098
3059.0,0.0098
3058.0,0.0098
3057.0,0.0097
3056.0,0.0097
3055.0,0.0097
3054.0,0.0096
3053.0,0.0096
3052.0,0.0096
3051.0,0.0097
3050.0,0.0096
3049.0,0.0096
3048.0,0.0096
3047.0,0.0095
3046.0,0.0095
3045.0,0.0095
3044.0,0.0094
3043.0,0.0093
3042.0,0.0092
3041.0,0.0091
3040.0,0.009
3039.0,0.009
3038.0,0.0089
3037.0,0.0089
3036.0,0.0088
3035.0,0.0088
3034.0,0.0087
3033.0,0.0087
3032.0,0.0087
3031.0,0.0087
3030.0,0.0087
3029.0,0.0087
3028.0,0.0086
3027.0,0.0085
3026.0,0.0084
3025.0,0.0083
3024.0,0.0082
3023.0,0.0081
3022.0,0.008
3021.0,0.0079
3020.0,0.0079
3019.0,0.0079
3018.0,0.0079
3017.0,0.0079
3016.0,0.0079
3015.0,0.0079
3014.0,0.0078
3013.0,0.0076
3012.0,0.0075
3011.0,0.0074
3010.0,0.0073
3009.0,0.0073
3008.0,0.0072
3007.0,0.0072
3006.0,0.0071
3005.0,0.0071
3004.0,0.007
3003.0,0.007
3002.0,0.0069
3001.0,0.0069
3000.0,0.0069
2999.0,0.0069
2998.0,0.0068
2997.0,0.0067
2996.0,0.0067
2995.0,0.0066
2994.0,0.0066
2993.0,0.0066
2992.0,0.0065
2991.0,0.0065
2990.0,0.0064
2989.0,0.0064
2988.0,0.0064
2987.0,0.0065
2986.0,0.0065
2985.0,0.0065
2984.0,0.0066
2983.0,0.0067
2982.0,0.0069
2981.0,0.007
2980.0,0.0072
2979.0,0.0074
2978.0,0.0077
2977.0,0.0081
2976.0,0.0085
2975.0,0.009
2974.0,0.0096
2973.0,0.0102
2972.0,0.0108
2971.0,0.0115
2970.0,0.0122
2969.0,0.0131
2968.0,0.014
2967.0,0.015
2966.0,0.016
2965.0,0.017
2964.0,0.018
2963.0,0.019
2962.0,0.0199
2961.0,0.0207
2960.0,0.0214
2959.0,0.022
2958.0,0.0226
2957.0,0.0231
2956.0,0.0236
2955.0,0.024
2954.0,0.0243
2953.0,0.0247
2952.0,0.025
2951.0,0.0255
2950.0,0.026
2949.0,0.0268
2948.0,0.028
2947.0,0.0295
2946.0,0.0315
2945.0,0.0338
2944.0,0.0365
2943.0,0.0396
2942.0,0.0432
2941.0,0.047
2940.0,0.0513
2939.0,0.0558
2938.0,0.0608
2937.0,0.0662
2936.0,0.072
2935.0,0.0783
2934.0,0.085
2933.0,0.0922
2932.0,0.0999
2931.0,0.1083
2930.0,0.1173
2929.0,0.1271
2928.0,0.1378
2927.0,0.1493
2926.0,0.162
2925.0,0.1762
2924.0,0.1919
2923.0,0.2093
2922.0,0.2284
2921.0,0.2488
2920.0,0.2696
2919.0,0.2893
2918.0,0.3054
2917.0,0.3154
2916.0,0.3169
2915.0,0.3099
2914.0,0.2961
2913.0,0.2784
2912.0,0.2598
2911.0,0.2422
2910.0,0.2265
2909.0,0.213
2908.0,0.2015
2907.0,0.1917
2906.0,0.1834
2905.0,0.1762
2904.0,0.17
2903.0,0.1645
2902.0,0.1596
2901.0,0.1553
2900.0,0.1513
2899.0,0.1476
2898.0,0.144
2897.0,0.1405
2896.0,0.1371
2895.0,0.1337
2894.0,0.1302
2893.0,0.1267
2892.0,0.1232
2891.0,0.1196
2890.0,0.1159
2889.0,0.1122
2888.0,0.1085
2887.0,0.1049
2886.0,0.1014
2885.0,0.0979
2884.0,0.0946
2883.0,0.0912
2882.0,0.088
2881.0,0.0849
2880.0,0.0819
2879.0,0.0791
2878.0,0.0766
2877.0,0.0743
2876.0,0.0723
2875.0,0.0706
2874.0,0.0691
2873.0,0.0677
2872.0,0.0666
2871.0,0.0657
2870.0,0.0649
2869.0,0.0644
2868.0,0.0642
2867.0,0.0645
2866.0,0.0653
2865.0,0.0668
2864.0,0.069
2863.0,0.0721
2862.0,0.0762
2861.0,0.0814
2860.0,0.0879
2859.0,0.0958
2858.0,0.1054
2857.0,0.1171
2856.0,0.1311
2855.0,0.1481
2854.0,0.1687
2853.0,0.1929
2852.0,0.2199
2851.0,0.2469
2850.0,0.269
2849.0,0.2805
2848.0,0.278
2847.0,0.2629
2846.0,0.2401
2845.0,0.2151
2844.0,0.1915
2843.0,0.1708
2842.0,0.1532
2841.0,0.1385
2840.0,0.1264
2839.0,0.1163
2838.0,0.1078
2837.0,0.1007
2836.0,0.0947
2835.0,0.0895
2834.0,0.0851
2833.0,0.0813
2832.0,0.0779
2831.0,0.0749
2830.0,0.0722
2829.0,0.0698
2828.0,0.0676
2827.0,0.0656
2826.0,0.0638
2825.0,0.0622
2824.0,0.0608
2823.0,0.0594
2822.0,0.0582
2821.0,0.057
2820.0,0.0559
2819.0,0.0549
2818.0,0.0539
2817.0,0.053
2816.0,0.0521
2815.0,0.0513
2814.0,0.0505
2813.0,0.0497
2812.0,0.0489
2811.0,0.0482
2810.0,0.0475
2809.0,0.0469
2808.0,0.0463
2807.0,0.0456
2806.0,0.045
2805.0,0.0445
2804.0,0.044
2803.0,0.0436
2802.0,0.0431
2801.0,0.0427
2800.0,0.0423
2799.0,0.0419
2798.0,0.0415
2797.0,0.0411
2796.0,0.0407
2795.0,0.0403
2794.0,0.0399
2793.0,0.0395
2792.0,0.039
2791.0,0.0385
2790.0,0.0381
2789.0,0.0378
2788.0,0.0374
2787.0,0.0371
2786.0,0.0368
2785.0,0.0365
2784.0,0.0362
2783.0,0.0359
2782.0,0.0355
2781.0,0.0352
2780.0,0.035
2779.0,0.0347
2778.0,0.0345
2777.0,0.0343
2776.0,0.0341
2775.0,0.0339
2774.0,0.0338
2773.0,0.0336
2772.0,0.0333
2771.0,0.0331
2770.0,0.0328
2769.0,0.0325
2768.0,0.0323
2767.0,0.0321
2766.0,0.032
2765.0,0.0318
2764.0,0.0317
2763.0,0.0315
2762.0,0.0313
2761.0,0.0312
2760.0,0.031
2759.0,0.0308
2758.0,0.0307
2757.0,0.0306
2756.0,0.0305
2755.0,0.0305
2754.0,0.0304
2753.0,0.0303
2752.0,0.0301
2751.0,0.0299
2750.0,0.0298
2749.0,0.0297
2748.0,0.0297
2747.0,0.0296
2746.0,0.0295
2745.0,0.0294
2744.0,0.0293
2743.0,0.0292
2742.0,0.0292
2741.0,0.0292
2740.0,0.0291
2739.0,0.029
2738.0,0.029
2737.0,0.0289
2736.0,0.0288
2735.0,0.0288
2734.0,0.0287
2733.0,0.0285
2732.0,0.0284
2731.0,0.0283
2730.0,0.0282
2729.0,0.0282
2728.0,0.028
2727.0,0.0279
2726.0,0.0278
2725.0,0.0278
2724.0,0.0277
2723.0,0.0276
2722.0,0.0275
2721.0,0.0274
2720.0,0.0273
2719.0,0.0272
2718.0,0.0271
2717.0,0.027
2716.0,0.0269
2715.0,0.0269
2714.0,0.0269
2713.0,0.0268
2712.0,0.0267
2711.0,0.0266
2710.0,0.0265
2709.0,0.0264
2708.0,0.0264
2707.0,0.0263
2706.0,0.0263
2705.0,0.0263
2704.0,0.0263
2703.0,0.0262
2702.0,0.0261
2701.0,0.026
2700.0,0.0258
2699.0,0.0257
2698.0,0.0256
2697.0,0.0257
2696.0,0.0257
2695.0,0.0257
2694.0,0.0256
2693.0,0.0256
2692.0,0.0255
2691.0,0.0255
2690.0,0.0254
2689.0,0.0254
2688.0,0.0254
2687.0,0.0255
2686.0,0.0255
2685.0,0.0254
2684.0,0.0254
2683.0,0.0254
2682.0,0.0254
2681.0,0.0253
2680.0,0.0253
2679.0,0.0253
2678.0,0.0253
2677.0,0.0253
2676.0,0.0253
2675.0,0.0253
2674.0,0.0253
2673.0,0.0254
2672.0,0.0254
2671.0,0.0253
2670.0,0.0253
2669.0,0.0252
2668.0,0.0251
2667.0,0.0251
2666.0,0.0251
2665.0,0.0252
2664.0,0.0252
2663.0,0.0252
2662.0,0.0251
2661.0,0.025
2660.0,0.0249
2659.0,0.0248
2658.0,0.0248
2657.0,0.0248
2656.0,0.0248
2655.0,0.0248
2654.0,0.0247
2653.0,0.0247
2652.0,0.0247
2651.0,0.0247
2650.0,0.0247
2649.0,0.0246
2648.0,0.0247
2647.0,0.0247
2646.0,0.0246
2645.0,0.0246
2644.0,0.0245
2643.0,0.0245
2642.0,0.0245
2641.0,0.0245
2640.0,0.0245
2639.0,0.0245
2638.0,0.0244
2637.0,0.0243
2636.0,0.0242
2635.0,0.0242
2634.0,0.0241
2633.0,0.0241
2632.0,0.0241
2631.0,0.024
2630.0,0.024
2629.0,0.0239
2628.0,0.0239
2627.0,0.0238
2626.0,0.0238
2625.0,0.0237
2624.0,0.0237
2623.0,0.0236
2622.0,0.0235
2621.0,0.0234
2620.0,0.0233
2619.0,0.0233
2618.0,0.0232
2617.0,0.0231
2616.0,0.0231
2615.0,0.0231
2614.0,0.0231
2613.0,0.023
2612.0,0.0229
2611.0,0.0228
2610.0,0.0227
2609.0,0.0227
2608.0,0.0227
2607.0,0.0227
2606.0,0.0227
2605.0,0.0227
2604.0,0.0226
2603.0,0.0224
2602.0,0.0223
2601.0,0.0223
2600.0,0.0222
2599.0,0.0222
2598.0,0.0222
2597.0,0.0222
2596.0,0.0222
2595.0,0.0221
2594.0,0.0221
2593.0,0.0221
2592.0,0.022
2591.0,0.022
2590.0,0.0219
2589.0,0.0218
2588.0,0.0217
2587.0,0.0216
2586.0,0.0215
2585.0,0.0215
2584.0,0.0215
2583.0,0.0215
2582.0,0.0214
2581.0,0.0214
2580.0,0.0213
2579.0,0.0213
2578.0,0.0213
2577.0,0.0213
2576.0,0.0213
2575.0,0.0212
2574.0,0.0211
2573.0,0.0211
2572.0,0.021
2571.0,0.021
2570.0,0.0209
2569.0,0.0208
2568.0,0.0208
2567.0,0.0207
2566.0,0.0207
2565.0,0.0207
2564.0,0.0207
2563.0,0.0206
2562.0,0.0206
2561.0,0.0206
2560.0,0.0206
2559.0,0.0206
2558.0,0.0205
2557.0,0.0205
2556.0,0.0205
2555.0,0.0205
2554.0,0.0205
2553.0,0.0204
2552.0,0.0204
2551.0,0.0204
2550.0,0.0203
2549.0,0.0202
2548.0,0.0202
2547.0,0.0201
2546.0,0.0201
2545.0,0.0201
2544.0,0.02
2543.0,0.0199
2542.0,0.0199
2541.0,0.0199
2540.0,0.0199
2539.0,0.0199
2538.0,0.0199
2537.0,0.0199
2536.0,0.0199
2535.0,0.0199
2534.0,0.0199
2533.0,0.0199
2532.0,0.0199
2531.0,0.0198
2530.0,0.0198
2529.0,0.0197
2528.0,0.0196
2527.0,0.0196
2526.0,0.0196
2525.0,0.0196
2524.0,0.0196
2523.0,0.0196
2522.0,0.0195
2521.0,0.0195
2520.0,0.0195
2519.0,0.0195
2518.0,0.0195
2517.0,0.0195
2516.0,0.0195
2515.0,0.0194
2514.0,0.0193
2513.0,0.0193
2512.0,0.0192
2511.0,0.0192
2510.0,0.0192
2509.0,0.0192
2508.0,0.0192
2507.0,0.0191
2506.0,0.019
2505.0,0.019
2504.0,0.0189
2503.0,0.0189
2502.0,0.0189
2501.0,0.0189
2500.0,0.0189
2499.0,0.0189
2498.0,0.0189
2497.0,0.0189
2496.0,0.0189
2495.0,0.0189
2494.0,0.0189
2493.0,0.0189
2492.0,0.0188
2491.0,0.0188
2490.0,0.0187
2489.0,0.0187
2488.0,0.0188
2487.0,0.0188
2486.0,0.0188
2485.0,0.0188
2484.0,0.0187
2483.0,0.0187
2482.0,0.0187
2481.0,0.0187
2480.0,0.0186
2479.0,0.0186
2478.0,0.0185
2477.0,0.0185
2476.0,0.0186
2475.0,0.0186
2474.0,0.0187
2473.0,0.0187
2472.0,0.0187
2471.0,0.0187
2470.0,0.0186
2469.0,0.0186
2468.0,0.0185
2467.0,0.0185
2466.0,0.0184
2465.0,0.0184
2464.0,0.0184
2463.0,0.0184
2462.0,0.0183
2461.0,0.0182
2460.0,0.0182
2459.0,0.0182
2458.0,0.0182
2457.0,0.0182
2456.0,0.0182
2455.0,0.0181
2454.0,0.0181
2453.0,0.0181
2452.0,0.0181
2451.0,0.0181
2450.0,0.0181
2449.0,0.0181
2448.0,0.018
2447.0,0.018
2446.0,0.018
2445.0,0.018
2444.0,0.018
2443.0,0.018
2442.0,0.018
2441.0,0.018
2440.0,0.018
2439.0,0.018
2438.0,0.018
2437.0,0.0179
2436.0,0.0179
2435.0,0.0178
2434.0,0.0178
2433.0,0.0179
2432.0,0.0179
2431.0,0.018
2430.0,0.018
2429.0,0.018
2428.0,0.018
2427.0,0.0179
2426.0,0.0179
2425.0,0.0179
2424.0,0.0179
2423.0,0.0179
2422.0,0.0179
2421.0,0.0179
2420.0,0.0179
2419.0,0.0179
2418.0,0.0179
2417.0,0.0179
2416.0,0.0179
2415.0,0.0178
2414.0,0.0178
2413.0,0.0178
2412.0,0.0178
2411.0,0.0178
2410.0,0.0178
2409.0,0.0178
2408.0,0.0178
2407.0,0.0178
2406.0,0.0178
2405.0,0.0178
2404.0,0.0178
2403.0,0.0178
2402.0,0.0178
2401.0,0.0178
2400.0,0.0177
2399.0,0.0177
2398.0,0.0176
2397.0,0.0176
2396.0,0.0176
2395.0,0.0176
2394.0,0.0176
2393.0,0.0175
2392.0,0.0175
2391.0,0.0174
2390.0,0.0173
2389.0,0.0172
2388.0,0.0169
2387.0,0.0164
2386.0,0.0158
2385.0,0.015
2384.0,0.0141
2383.0,0.0128
2382.0,0.0113
2381.0,0.0096
2380.0,0.0077
2379.0,0.006
2378.0,0.0047
2377.0,0.0039
2376.0,0.0039
2375.0,0.0042
2374.0,0.0048
2373.0,0.0053
2372.0,0.0055
2371.0,0.0049
2370.0,0.0035
2369.0,0.002
2368.0,0.0014
2367.0,0.0018
2366.0,0.0022
2365.0,0.0024
2364.0,0.0031
2363.0,0.0045
2362.0,0.0053
2361.0,0.0047
2360.0,0.0028
2359.0,0.0006
2358.0,-0.0015
2357.0,-0.0032
2356.0,-0.0042
2355.0,-0.0048
2354.0,-0.0056
2353.0,-0.0065
2352.0,-0.0069
2351.0,-0.0059
2350.0,-0.004
2349.0,-0.0024
2348.0,-0.0019
2347.0,-0.0028
2346.0,-0.0038
2345.0,-0.0036
2344.0,-0.002
2343.0,-0.0005
2342.0,-0.0004
2341.0,-0.0016
2340.0,-0.003
2339.0,-0.0038
2338.0,-0.0037
2337.0,-0.0029
2336.0,-0.0021
2335.0,-0.0017
2334.0,-0.002
2333.0,-0.0026
2332.0,-0.0031
2331.0,-0.0032
2330.0,-0.003
2329.0,-0.0025
2328.0,-0.0016
2327.0,-0.0006
2326.0,0.0004
2325.0,0.0011
2324.0,0.0017
2323.0,0.0023
2322.0,0.0031
2321.0,0.0038
2320.0,0.0044
2319.0,0.005
2318.0,0.0056
2317.0,0.0062
2316.0,0.0066
2315.0,0.0065
2314.0,0.0058
2313.0,0.0049
2312.0,0.0042
2311.0,0.0038
2310.0,0.0038
2309.0,0.0042
2308.0,0.0049
2307.0,0.0057
2306.0,0.0066
2305.0,0.0074
2304.0,0.008
2303.0,0.0084
2302.0,0.0087
2301.0,0.009
2300.0,0.0093
2299.0,0.0097
2298.0,0.0102
2297.0,0.0106
2296.0,0.0111
2295.0,0.0115
2294.0,0.0119
2293.0,0.0122
2292.0,0.0127
2291.0,0.0131
2290.0,0.0136
2289.0,0.0141
2288.0,0.0145
2287.0,0.0149
2286.0,0.0153
2285.0,0.0157
2284.0,0.0159
2283.0,0.016
2282.0,0.0159
2281.0,0.0157
2280.0,0.0155
2279.0,0.0154
2278.0,0.0153
2277.0,0.0152
2276.0,0.0151
2275.0,0.0151
2274.0,0.0151
2273.0,0.015
2272.0,0.015
2271.0,0.0149
2270.0,0.0149
2269.0,0.0149
2268.0,0.0149
2267.0,0.0149
2266.0,0.015
2265.0,0.015
2264.0,0.0151
2263.0,0.0152
2262.0,0.0153
2261.0,0.0154
2260.0,0.0154
2259.0,0.0155
2258.0,0.0156
2257.0,0.0156
2256.0,0.0156
2255.0,0.0157
2254.0,0.0157
2253.0,0.0158
2252.0,0.0158
2251.0,0.0159
2250.0,0.016
2249.0,0.016
2248.0,0.0161
2247.0,0.0161
2246.0,0.0162
2245.0,0.0162
2244.0,0.0163
2243.0,0.0163
2242.0,0.0164
2241.0,0.0164
2240.0,0.0163
2239.0,0.0163
2238.0,0.0163
2237.0,0.0163
2236.0,0.0163
2235.0,0.0163
2234.0,0.0164
2233.0,0.0163
2232.0,0.0163
2231.0,0.0163
2230.0,0.0163
2229.0,0.0163
2228.0,0.0163
2227.0,0.0162
2226.0,0.0163
2225.0,0.0163
2224.0,0.0164
2223.0,0.0164
2222.0,0.0163
2221.0,0.0163
2220.0,0.0163
2219.0,0.0163
2218.0,0.0163
2217.0,0.0163
2216.0,0.0163
2215.0,0.0163
2214.0,0.0163
2213.0,0.0163
2212.0,0.0162
2211.0,0.0162
2210.0,0.0162
2209.0,0.0162
2208.0,0.0162
2207.0,0.0162
2206.0,0.0162
2205.0,0.0161
2204.0,0.0161
2203.0,0.016
2202.0,0.016
2201.0,0.016
2200.0,0.0161
2199.0,0.0161
2198.0,0.0161
2197.0,0.0161
2196.0,0.0161
2195.0,0.0162
2194.0,0.0162
2193.0,0.0163
2192.0,0.0163
2191.0,0.0163
2190.0,0.0163
2189.0,0.0163
2188.0,0.0163
2187.0,0.0162
2186.0,0.0162
2185.0,0.0162
2184.0,0.0162
2183.0,0.0161
2182.0,0.0161
2181.0,0.0161
2180.0,0.0162
2179.0,0.0162
2178.0,0.0162
2177.0,0.0162
2176.0,0.0162
2175.0,0.0161
2174.0,0.0161
2173.0,0.0161
2172.0,0.0161
2171.0,0.0161
2170.0,0.0161
2169.0,0.0161
2168.0,0.0161
2167.0,0.0161
2166.0,0.0161
2165.0,0.0161
2164.0,0.0162
2163.0,0.0162
2162.0,0.0162
2161.0,0.0162
2160.0,0.0162
2159.0,0.0162
2158.0,0.0161
2157.0,0.0161
2156.0,0.0161
2155.0,0.0162
2154.0,0.0162
2153.0,0.0162
2152.0,0.0162
2151.0,0.0163
2150.0,0.0163
2149.0,0.0163
2148.0,0.0163
2147.0,0.0163
2146.0,0.0162
2145.0,0.0162
2144.0,0.0162
2143.0,0.0162
2142.0,0.0161
2141.0,0.0161
2140.0,0.0161
2139.0,0.0161
2138.0,0.0161
2137.0,0.0161
2136.0,0.0161
2135.0,0.0161
2134.0,0.0161
2133.0,0.016
2132.0,0.016
2131.0,0.016
2130.0,0.016
2129.0,0.016
2128.0,0.016
2127.0,0.0159
2126.0,0.0159
2125.0,0.0159
2124.0,0.0159
2123.0,0.016
2122.0,0.016
2121.0,0.016
2120.0,0.016
2119.0,0.0159
2118.0,0.0159
2117.0,0.0159
2116.0,0.016
2115.0,0.016
2114.0,0.016
2113.0,0.016
2112.0,0.016
2111.0,0.016
2110.0,0.0159
2109.0,0.0159
2108.0,0.0158
2107.0,0.0158
2106.0,0.0158
2105.0,0.0159
2104.0,0.0159
2103.0,0.0159
2102.0,0.0159
2101.0,0.0159
2100.0,0.0159
2099.0,0.0159
2098.0,0.0159
2097.0,0.0159
2096.0,0.0158
2095.0,0.0158
2094.0,0.0158
2093.0,0.0158
2092.0,0.0158
2091.0,0.0158
2090.0,0.0159
2089.0,0.0159
2088.0,0.0158
2087.0,0.0158
2086.0,0.0158
2085.0,0.0158
2084.0,0.0158
2083.0,0.0159
2082.0,0.0159
2081.0,0.0159
2080.0,0.0159
2079.0,0.0158
2078.0,0.0158
2077.0,0.0158
2076.0,0.0157
2075.0,0.0158
2074.0,0.0158
2073.0,0.0158
2072.0,0.0158
2071.0,0.0157
2070.0,0.0157
2069.0,0.0157
2068.0,0.0158
2067.0,0.0158
2066.0,0.0157
2065.0,0.0158
2064.0,0.0158
2063.0,0.0158
2062.0,0.0158
2061.0,0.0159
2060.0,0.0159
2059.0,0.0159
2058.0,0.0158
2057.0,0.0158
2056.0,0.0159
2055.0,0.0159
2054.0,0.0159
2053.0,0.0159
2052.0,0.0159
2051.0,0.0159
2050.0,0.0158
2049.0,0.0158
2048.0,0.0158
2047.0,0.0157
2046.0,0.0157
2045.0,0.0158
2044.0,0.0158
2043.0,0.0159
2042.0,0.0159
2041.0,0.0159
2040.0,0.0159
2039.0,0.0158
2038.0,0.0158
2037.0,0.0159
2036.0,0.0159
2035.0,0.0159
2034.0,0.0159
2033.0,0.0159
2032.0,0.0159
2031.0,0.016
2030.0,0.016
2029.0,0.0161
2028.0,0.0161
2027.0,0.0161
2026.0,0.0161
2025.0,0.0161
2024.0,0.0161
2023.0,0.0162
2022.0,0.0162
2021.0,0.0162
2020.0,0.0162
2019.0,0.0162
2018.0,0.0162
2017.0,0.0162
2016.0,0.0162
2015.0,0.0161
2014.0,0.0161
2013.0,0.0161
2012.0,0.016
2011.0,0.0159
2010.0,0.0159
2009.0,0.0158
2008.0,0.0158
2007.0,0.0158
2006.0,0.0158
2005.0,0.0158
2004.0,0.0158
2003.0,0.0158
2002.0,0.0158
2001.0,0.0158
2000.0,0.0157
1999.0,0.0157
1998.0,0.0157
1997.0,0.0157
1996.0,0.0156
1995.0,0.0155
1994.0,0.0155
1993.0,0.0155
1992.0,0.0155
1991.0,0.0156
1990.0,0.0156
1989.0,0.0156
1988.0,0.0157
1987.0,0.0157
1986.0,0.0157
1985.0,0.0156
1984.0,0.0155
1983.0,0.0155
1982.0,0.0155
1981.0,0.0155
1980.0,0.0155
1979.0,0.0155
1978.0,0.0155
1977.0,0.0155
1976.0,0.0155
1975.0,0.0155
1974.0,0.0155
1973.0,0.0155
1972.0,0.0155
1971.0,0.0155
1970.0,0.0155
1969.0,0.0155
1968.0,0.0155
1967.0,0.0155
1966.0,0.0155
1965.0,0.0156
1964.0,0.0156
1963.0,0.0156
1962.0,0.0156
1961.0,0.0156
1960.0,0.0156
1959.0,0.0155
1958.0,0.0155
1957.0,0.0154
1956.0,0.0155
1955.0,0.0155
1954.0,0.0155
1953.0,0.0155
1952.0,0.0155
1951.0,0.0155
1950.0,0.0155
1949.0,0.0155
1948.0,0.0155
1947.0,0.0155
1946.0,0.0155
1945.0,0.0154
1944.0,0.0155
1943.0,0.0155
1942.0,0.0156
1941.0,0.0157
1940.0,0.0157
1939.0,0.0157
1938.0,0.0157
1937.0,0.0157
1936.0,0.0157
1935.0,0.0157
1934.0,0.0156
1933.0,0.0156
1932.0,0.0156
1931.0,0.0156
1930.0,0.0155
1929.0,0.0155
1928.0,0.0155
1927.0,0.0156
1926.0,0.0156
1925.0,0.0156
1924.0,0.0156
1923.0,0.0156
1922.0,0.0156
1921.0,0.0155
1920.0,0.0155
1919.0,0.0155
1918.0,0.0156
1917.0,0.0156
1916.0,0.0156
1915.0,0.0157
1914.0,0.0157
1913.0,0.0156
1912.0,0.0156
1911.0,0.0156
1910.0,0.0156
1909.0,0.0157
1908.0,0.0157
1907.0,0.0157
1906.0,0.0157
1905.0,0.0157
1904.0,0.0158
1903.0,0.0158
1902.0,0.0159
1901.0,0.0159
1900.0,0.0159
1899.0,0.0159
1898.0,0.0159
1897.0,0.0159
1896.0,0.0159
1895.0,0.016
1894.0,0.016
1893.0,0.0159
1892.0,0.0158
1891.0,0.0157
1890.0,0.0157
1889.0,0.0157
1888.0,0.0156
1887.0,0.0156
1886.0,0.0156
1885.0,0.0156
1884.0,0.0156
1883.0,0.0156
1882.0,0.0156
1881.0,0.0156
1880.0,0.0156
1879.0,0.0156
1878.0,0.0156
1877.0,0.0156
1876.0,0.0156
1875.0,0.0155
1874.0,0.0154
1873.0,0.0154
1872.0,0.0154
1871.0,0.0155
1870.0,0.0155
1869.0,0.0154
1868.0,0.0154
1867.0,0.0154
1866.0,0.0154
1865.0,0.0154
1864.0,0.0154
1863.0,0.0154
1862.0,0.0155
1861.0,0.0155
1860.0,0.0155
1859.0,0.0155
1858.0,0.0155
1857.0,0.0154
1856.0,0.0154
1855.0,0.0154
1854.0,0.0154
1853.0,0.0154
1852.0,0.0153
1851.0,0.0153
1850.0,0.0152
1849.0,0.0152
1848.0,0.0153
1847.0,0.0154
1846.0,0.0154
1845.0,0.0154
1844.0,0.0154
1843.0,0.0153
1842.0,0.0153
1841.0,0.0153
1840.0,0.0153
1839.0,0.0153
1838.0,0.0154
1837.0,0.0154
1836.0,0.0155
1835.0,0.0155
1834.0,0.0154
1833.0,0.0154
1832.0,0.0154
1831.0,0.0154
1830.0,0.0154
1829.0,0.0154
1828.0,0.0154
1827.0,0.0154
1826.0,0.0154
1825.0,0.0155
1824.0,0.0155
1823.0,0.0155
1822.0,0.0155
1821.0,0.0155
1820.0,0.0155
1819.0,0.0155
1818.0,0.0155
1817.0,0.0155
1816.0,0.0155
1815.0,0.0155
1814.0,0.0155
1813.0,0.0155
1812.0,0.0155
1811.0,0.0155
1810.0,0.0155
1809.0,0.0155
1808.0,0.0155
1807.0,0.0155
1806.0,0.0155
1805.0,0.0155
1804.0,0.0155
1803.0,0.0155
1802.0,0.0155
1801.0,0.0155
1800.0,0.0155
1799.0,0.0155
1798.0,0.0154
1797.0,0.0154
1796.0,0.0154
1795.0,0.0154
1794.0,0.0153
1793.0,0.0154
1792.0,0.0155
1791.0,0.0155
1790.0,0.0156
1789.0,0.0156
1788.0,0.0156
1787.0,0.0156
1786.0,0.0156
1785.0,0.0156
1784.0,0.0155
1783.0,0.0155
1782.0,0.0155
1781.0,0.0155
1780.0,0.0155
1779.0,0.0155
1778.0,0.0155
1777.0,0.0155
1776.0,0.0155
1775.0,0.0155
1774.0,0.0155
1773.0,0.0155
1772.0,0.0156
1771.0,0.0156
1770.0,0.0157
1769.0,0.0158
1768.0,0.0158
1767.0,0.0157
1766.0,0.0157
1765.0,0.0157
1764.0,0.0157
1763.0,0.0157
1762.0,0.0156
1761.0,0.0156
1760.0,0.0156
1759.0,0.0157
1758.0,0.0157
1757.0,0.0158
1756.0,0.0159
1755.0,0.0159
1754.0,0.0159
1753.0,0.0159
1752.0,0.0159
1751.0,0.016
1750.0,0.016
1749.0,0.0161
1748.0,0.0162
1747.0,0.0162
1746.0,0.0162
1745.0,0.0162
1744.0,0.0162
1743.0,0.0163
1742.0,0.0163
1741.0,0.0164
1740.0,0.0165
1739.0,0.0166
1738.0,0.0166
1737.0,0.0167
1736.0,0.0168
1735.0,0.0168
1734.0,0.0169
1733.0,0.0168
1732.0,0.0168
1731.0,0.0169
1730.0,0.017
1729.0,0.0171
1728.0,0.0172
1727.0,0.0173
1726.0,0.0174
1725.0,0.0175
1724.0,0.0176
1723.0,0.0177
1722.0,0.0178
1721.0,0.0179
1720.0,0.0179
1719.0,0.0179
1718.0,0.018
1717.0,0.018
1716.0,0.0181
1715.0,0.0181
1714.0,0.018
1713.0,0.018
1712.0,0.0179
1711.0,0.0178
1710.0,0.0177
1709.0,0.0177
1708.0,0.0176
1707.0,0.0175
1706.0,0.0175
1705.0,0.0175
1704.0,0.0175
1703.0,0.0175
1702.0,0.0175
1701.0,0.0175
1700.0,0.0174
1699.0,0.0173
1698.0,0.0174
1697.0,0.0176
1696.0,0.0177
1695.0,0.0176
1694.0,0.0175
1693.0,0.0175
1692.0,0.0175
1691.0,0.0175
1690.0,0.0174
1689.0,0.0175
1688.0,0.0176
1687.0,0.0176
1686.0,0.0176
1685.0,0.0177
1684.0,0.0178
1683.0,0.0178
1682.0,0.0178
1681.0,0.018
1680.0,0.0181
1679.0,0.0181
1678.0,0.0182
1677.0,0.0183
1676.0,0.0184
1675.0,0.0184
1674.0,0.0183
1673.0,0.0183
1672.0,0.0183
1671.0,0.0183
1670.0,0.0184
1669.0,0.0186
1668.0,0.0187
1667.0,0.0187
1666.0,0.0188
1665.0,0.0188
1664.0,0.0189
1663.0,0.0189
1662.0,0.019
1661.0,0.0191
1660.0,0.0191
1659.0,0.0192
1658.0,0.0191
1657.0,0.0191
1656.0,0.0192
1655.0,0.0193
1654.0,0.0196
1653.0,0.0198
1652.0,0.0195
1651.0,0.0194
1650.0,0.0194
1649.0,0.0194
1648.0,0.0195
1647.0,0.0197
1646.0,0.0198
1645.0,0.0198
1644.0,0.0198
1643.0,0.0198
1642.0,0.0198
1641.0,0.0198
1640.0,0.0198
1639.0,0.0198
1638.0,0.0198
1637.0,0.02
1636.0,0.0203
1635.0,0.0204
1634.0,0.0203
1633.0,0.0202
1632.0,0.0202
1631.0,0.0201
1630.0,0.02
1629.0,0.0201
1628.0,0.0201
1627.0,0.0202
1626.0,0.0202
1625.0,0.0201
1624.0,0.0201
1623.0,0.0201
1622.0,0.0201
1621.0,0.0201
1620.0,0.0201
1619.0,0.02
1618.0,0.0199
1617.0,0.0198
1616.0,0.0197
1615.0,0.0196
1614.0,0.0195
1613.0,0.0194
1612.0,0.0193
1611.0,0.0191
1610.0,0.0191
1609.0,0.019
1608.0,0.019
1607.0,0.0189
1606.0,0.0189
1605.0,0.0188
1604.0,0.0187
1603.0,0.0187
1602.0,0.0186
1601.0,0.0185
1600.0,0.0184
1599.0,0.0183
1598.0,0.0182
1597.0,0.0181
1596.0,0.0181
1595.0,0.0181
1594.0,0.0181
1593.0,0.0181
1592.0,0.0181
1591.0,0.018
1590.0,0.018
1589.0,0.018
1588.0,0.018
1587.0,0.0179
1586.0,0.0179
1585.0,0.0179
1584.0,0.0178
1583.0,0.0178
1582.0,0.0178
1581.0,0.0177
1580.0,0.0177
1579.0,0.0176
1578.0,0.0175
1577.0,0.0174
1576.0,0.0174
1575.0,0.0173
1574.0,0.0173
1573.0,0.0174
1572.0,0.0173
1571.0,0.0173
1570.0,0.0172
1569.0,0.0173
1568.0,0.0173
1567.0,0.0173
1566.0,0.0173
1565.0,0.0172
1564.0,0.0172
1563.0,0.0172
1562.0,0.0172
1561.0,0.017
1560.0,0.0171
1559.0,0.0175
1558.0,0.0174
1557.0,0.0173
1556.0,0.0174
1555.0,0.0174
1554.0,0.0174
1553.0,0.0173
1552.0,0.0173
1551.0,0.0172
1550.0,0.0172
1549.0,0.0173
1548.0,0.0173
1547.0,0.0173
1546.0,0.0171
1545.0,0.0169
1544.0,0.0168
1543.0,0.0168
1542.0,0.0167
1541.0,0.0168
1540.0,0.017
1539.0,0.0168
1538.0,0.0166
1537.0,0.0167
1536.0,0.0168
1535.0,0.0167
1534.0,0.0167
1533.0,0.0167
1532.0,0.0167
1531.0,0.0167
1530.0,0.0165
1529.0,0.0165
1528.0,0.0164
1527.0,0.0164
1526.0,0.0163
1525.0,0.0163
1524.0,0.0163
1523.0,0.0162
1522.0,0.0162
1521.0,0.0162
1520.0,0.0162
1519.0,0.0161
1518.0,0.016
1517.0,0.016
1516.0,0.0161
1515.0,0.016
1514.0,0.0159
1513.0,0.0159
1512.0,0.0159
1511.0,0.0157
1510.0,0.0156
1509.0,0.0156
1508.0,0.0158
1507.0,0.0159
1506.0,0.0158
1505.0,0.0157
1504.0,0.0158
1503.0,0.0158
1502.0,0.0157
1501.0,0.0156
1500.0,0.0156
1499.0,0.0156
1498.0,0.0156
1497.0,0.0157
1496.0,0.0158
1495.0,0.0156
1494.0,0.0155
1493.0,0.0155
1492.0,0.0155
1491.0,0.0153
1490.0,0.0152
1489.0,0.0153
1488.0,0.0155
1487.0,0.0154
1486.0,0.0153
1485.0,0.0154
1484.0,0.0155
1483.0,0.0156
1482.0,0.0158
1481.0,0.0163
1480.0,0.0171
1479.0,0.0184
1478.0,0.0213
1477.0,0.0272
1476.0,0.0369
1475.0,0.0496
1474.0,0.0643
1473.0,0.0769
1472.0,0.0816
1471.0,0.0807
1470.0,0.0797
1469.0,0.0801
1468.0,0.0817
1467.0,0.0848
1466.0,0.0912
1465.0,0.1008
1464.0,0.1087
1463.0,0.1105
1462.0,0.1067
1461.0,0.0993
1460.0,0.0902
1459.0,0.0807
1458.0,0.0724
1457.0,0.0665
1456.0,0.0626
1455.0,0.0599
1454.0,0.0574
1453.0,0.0547
1452.0,0.0519
1451.0,0.0496
1450.0,0.0477
1449.0,0.0461
1448.0,0.0447
1447.0,0.0437
1446.0,0.0429
1445.0,0.0422
1444.0,0.0415
1443.0,0.0408
1442.0,0.0402
1441.0,0.0396
1440.0,0.039
1439.0,0.0384
1438.0,0.0377
1437.0,0.0369
1436.0,0.036
1435.0,0.0352
1434.0,0.0346
1433.0,0.0338
1432.0,0.0329
1431.0,0.0319
1430.0,0.031
1429.0,0.0301
1428.0,0.0293
1427.0,0.0287
1426.0,0.0281
1425.0,0.0275
1424.0,0.0269
1423.0,0.0266
1422.0,0.0263
1421.0,0.026
1420.0,0.0256
1419.0,0.0254
1418.0,0.0252
1417.0,0.0251
1416.0,0.0249
1415.0,0.0248
1414.0,0.0247
1413.0,0.0246
1412.0,0.0245
1411.0,0.0244
1410.0,0.0243
1409.0,0.0241
1408.0,0.0239
1407.0,0.0238
1406.0,0.0237
1405.0,0.0236
1404.0,0.0235
1403.0,0.0234
1402.0,0.0234
1401.0,0.0232
1400.0,0.023
1399.0,0.0229
1398.0,0.0229
1397.0,0.0228
1396.0,0.0227
1395.0,0.0227
1394.0,0.0228
1393.0,0.0227
1392.0,0.0226
1391.0,0.0226
1390.0,0.0226
1389.0,0.0226
1388.0,0.0227
1387.0,0.023
1386.0,0.0233
1385.0,0.0237
1384.0,0.0241
1383.0,0.0248
1382.0,0.0257
1381.0,0.0268
1380.0,0.0279
1379.0,0.0289
1378.0,0.0295
1377.0,0.0296
1376.0,0.0293
1375.0,0.029
1374.0,0.0287
1373.0,0.0286
1372.0,0.0287
1371.0,0.0288
1370.0,0.0289
1369.0,0.029
1368.0,0.029
1367.0,0.0288
1366.0,0.0286
1365.0,0.0283
1364.0,0.028
1363.0,0.0277
1362.0,0.0275
1361.0,0.0272
1360.0,0.027
1359.0,0.0268
1358.0,0.0267
1357.0,0.0266
1356.0,0.0266
1355.0,0.0267
1354.0,0.0268
1353.0,0.0268
1352.0,0.0268
1351.0,0.0268
1350.0,0.0267
1349.0,0.0265
1348.0,0.0264
1347.0,0.0262
1346.0,0.0261
1345.0,0.0259
1344.0,0.0258
1343.0,0.0256
1342.0,0.0254
1341.0,0.0252
1340.0,0.025
1339.0,0.0249
1338.0,0.0248
1337.0,0.0246
1336.0,0.0244
1335.0,0.0242
1334.0,0.0241
1333.0,0.0239
1332.0,0.0238
1331.0,0.0238
1330.0,0.0238
1329.0,0.0238
1328.0,0.0237
1327.0,0.0237
1326.0,0.0237
1325.0,0.0237
1324.0,0.0237
1323.0,0.0238
1322.0,0.0238
1321.0,0.0239
1320.0,0.024
1319.0,0.0242
1318.0,0.0244
1317.0,0.0245
1316.0,0.0246
1315.0,0.0247
1314.0,0.0248
1313.0,0.025
1312.0,0.0252
1311.0,0.0253
1310.0,0.0255
1309.0,0.0256
1308.0,0.0257
1307.0,0.0257
1306.0,0.0258
1305.0,0.0258
1304.0,0.0258
1303.0,0.0259
1302.0,0.026
1301.0,0.026
1300.0,0.0259
1299.0,0.0259
1298.0,0.0258
1297.0,0.0258
1296.0,0.0258
1295.0,0.0257
1294.0,0.0257
1293.0,0.0256
1292.0,0.0255
1291.0,0.0254
1290.0,0.0253
1289.0,0.0253
1288.0,0.0252
1287.0,0.0252
1286.0,0.0251
1285.0,0.025
1284.0,0.025
1283.0,0.025
1282.0,0.025
1281.0,0.025
1280.0,0.025
1279.0,0.025
1278.0,0.025
1277.0,0.025
1276.0,0.0251
1275.0,0.0251
1274.0,0.0251
1273.0,0.0251
1272.0,0.0252
1271.0,0.0252
1270.0,0.0252
1269.0,0.0252
1268.0,0.0252
1267.0,0.0252
1266.0,0.0252
1265.0,0.0253
1264.0,0.0254
1263.0,0.0254
1262.0,0.0255
1261.0,0.0255
1260.0,0.0255
1259.0,0.0255
1258.0,0.0255
1257.0,0.0255
1256.0,0.0255
1255.0,0.0255
1254.0,0.0255
1253.0,0.0255
1252.0,0.0256
1251.0,0.0256
1250.0,0.0257
1249.0,0.0257
1248.0,0.0257
1247.0,0.0258
1246.0,0.0258
1245.0,0.0259
1244.0,0.0259
1243.0,0.0259
1242.0,0.026
1241.0,0.026
1240.0,0.0261
1239.0,0.0262
1238.0,0.0263
1237.0,0.0264
1236.0,0.0264
1235.0,0.0265
1234.0,0.0266
1233.0,0.0267
1232.0,0.0268
1231.0,0.0269
1230.0,0.0271
1229.0,0.0272
1228.0,0.0273
1227.0,0.0274
1226.0,0.0275
1225.0,0.0276
1224.0,0.0277
1223.0,0.0278
1222.0,0.0279
1221.0,0.028
1220.0,0.0281
1219.0,0.0283
1218.0,0.0285
1217.0,0.0287
1216.0,0.0288
1215.0,0.029
1214.0,0.0291
1213.0,0.0292
1212.0,0.0293
1211.0,0.0294
1210.0,0.0296
1209.0,0.0298
1208.0,0.0299
1207.0,0.0301
1206.0,0.0303
1205.0,0.0304
1204.0,0.0305
1203.0,0.0307
1202.0,0.0309
1201.0,0.0311
1200.0,0.0313
1199.0,0.0315
1198.0,0.0318
1197.0,0.0319
1196.0,0.0321
1195.0,0.0323
1194.0,0.0324
1193.0,0.0326
1192.0,0.0328
1191.0,0.033
1190.0,0.0332
1189.0,0.0334
1188.0,0.0336
1187.0,0.0339
1186.0,0.0341
1185.0,0.0343
1184.0,0.0345
1183.0,0.0347
1182.0,0.0349
1181.0,0.0351
1180.0,0.0353
1179.0,0.0355
1178.0,0.0357
1177.0,0.0359
1176.0,0.0361
1175.0,0.0363
1174.0,0.0364
1173.0,0.0366
1172.0,0.0367
1171.0,0.0369
1170.0,0.037
1169.0,0.0371
1168.0,0.0372
1167.0,0.0373
1166.0,0.0374
1165.0,0.0375
1164.0,0.0376
1163.0,0.0377
1162.0,0.0378
1161.0,0.0378
1160.0,0.0379
1159.0,0.038
1158.0,0.0382
1157.0,0.0383
1156.0,0.0384
1155.0,0.0384
1154.0,0.0385
1153.0,0.0385
1152.0,0.0385
1151.0,0.0386
1150.0,0.0387
1149.0,0.0388
1148.0,0.0389
1147.0,0.0389
1146.0,0.0389
1145.0,0.0389
1144.0,0.0389
1143.0,0.0389
1142.0,0.0389
1141.0,0.039
1140.0,0.0391
1139.0,0.0392
1138.0,0.0391
1137.0,0.0391
1136.0,0.0391
1135.0,0.0391
1134.0,0.0392
1133.0,0.0392
1132.0,0.0392
1131.0,0.0392
1130.0,0.0392
1129.0,0.0392
1128.0,0.0392
1127.0,0.0392
1126.0,0.0391
1125.0,0.0391
1124.0,0.0392
1123.0,0.0393
1122.0,0.0393
1121.0,0.0393
1120.0,0.0393
1119.0,0.0393
1118.0,0.0393
1117.0,0.0393
1116.0,0.0393
1115.0,0.0393
1114.0,0.0393
1113.0,0.0394
1112.0,0.0395
1111.0,0.0396
1110.0,0.0397
1109.0,0.0397
1108.0,0.0398
1107.0,0.0399
1106.0,0.0399
1105.0,0.0399
1104.0,0.0399
1103.0,0.0399
1102.0,0.0399
1101.0,0.04
1100.0,0.0401
1099.0,0.0401
1098.0,0.0401
1097.0,0.0401
1096.0,0.0401
1095.0,0.04
1094.0,0.04
1093.0,0.0399
1092.0,0.0399
1091.0,0.0398
1090.0,0.0397
1089.0,0.0396
1088.0,0.0396
1087.0,0.0395
1086.0,0.0394
1085.0,0.0392
1084.0,0.0389
1083.0,0.0387
1082.0,0.0385
1081.0,0.0382
1080.0,0.038
1079.0,0.0377
1078.0,0.0374
1077.0,0.0371
1076.0,0.0367
1075.0,0.0363
1074.0,0.036
1073.0,0.0356
1072.0,0.0353
1071.0,0.035
1070.0,0.0347
1069.0,0.0344
1068.0,0.0342
1067.0,0.0339
1066.0,0.0336
1065.0,0.0333
1064.0,0.033
1063.0,0.0327
1062.0,0.0325
1061.0,0.0323
1060.0,0.0321
1059.0,0.0318
1058.0,0.0315
1057.0,0.0313
1056.0,0.0311
1055.0,0.0309
1054.0,0.0307
1053.0,0.0307
1052.0,0.0306
1051.0,0.0305
1050.0,0.0303
1049.0,0.0301
1048.0,0.0299
1047.0,0.0296
1046.0,0.0294
1045.0,0.0293
1044.0,0.0291
1043.0,0.029
1042.0,0.0288
1041.0,0.0286
1040.0,0.0284
1039.0,0.0282
1038.0,0.028
1037.0,0.0279
1036.0,0.0279
1035.0,0.0278
1034.0,0.0277
1033.0,0.0276
1032.0,0.0275
1031.0,0.0274
1030.0,0.0273
1029.0,0.0272
1028.0,0.0271
1027.0,0.027
1026.0,0.0269
1025.0,0.0268
1024.0,0.0268
1023.0,0.0268
1022.0,0.0268
1021.0,0.0268
1020.0,0.0268
1019.0,0.0268
1018.0,0.0268
1017.0,0.0267
1016.0,0.0267
1015.0,0.0268
1014.0,0.0269
1013.0,0.0269
1012.0,0.0269
1011.0,0.0269
1010.0,0.0269
1009.0,0.027
1008.0,0.027
1007.0,0.027
1006.0,0.0269
1005.0,0.0268
1004.0,0.0267
1003.0,0.0266
1002.0,0.0265
1001.0,0.0263
1000.0,0.0262
999.0,0.026
998.0,0.0259
997.0,0.0258
996.0,0.0256
995.0,0.0255
994.0,0.0253
993.0,0.0252
992.0,0.0251
991.0,0.0249
990.0,0.0249
989.0,0.0248
988.0,0.0247
987.0,0.0246
986.0,0.0246
985.0,0.0245
984.0,0.0244
983.0,0.0243
982.0,0.0243
981.0,0.0243
980.0,0.0243
979.0,0.0242
978.0,0.0242
977.0,0.0242
976.0,0.0242
975.0,0.0242
974.0,0.0241
973.0,0.0241
972.0,0.0241
971.0,0.024
970.0,0.024
969.0,0.024
968.0,0.024
967.0,0.0239
966.0,0.0239
965.0,0.024
964.0,0.024
963.0,0.0241
962.0,0.024
961.0,0.024
960.0,0.0239
959.0,0.0239
958.0,0.0238
957.0,0.0238
956.0,0.0238
955.0,0.0238
954.0,0.0238
953.0,0.0238
952.0,0.0238
951.0,0.0237
950.0,0.0237
949.0,0.0237
948.0,0.0238
947.0,0.0238
946.0,0.0238
945.0,0.0238
944.0,0.0238
943.0,0.0237
942.0,0.0237
941.0,0.0237
940.0,0.0238
939.0,0.0239
938.0,0.0239
937.0,0.024
936.0,0.0241
935.0,0.024
934.0,0.024
933.0,0.0239
932.0,0.0239
931.0,0.0239
930.0,0.0239
929.0,0.024
928.0,0.0241
927.0,0.0241
926.0,0.0241
925.0,0.0241
924.0,0.024
923.0,0.024
922.0,0.0239
921.0,0.0239
920.0,0.0238
919.0,0.0238
918.0,0.0238
917.0,0.0239
916.0,0.024
915.0,0.024
914.0,0.0241
913.0,0.0242
912.0,0.0242
911.0,0.0243
910.0,0.0244
909.0,0.0244
908.0,0.0244
907.0,0.0244
906.0,0.0245
905.0,0.0246
904.0,0.0246
903.0,0.0246
902.0,0.0246
901.0,0.0246
900.0,0.0247
899.0,0.0247
898.0,0.0247
897.0,0.0247
896.0,0.0247
895.0,0.0248
894.0,0.0248
893.0,0.0248
892.0,0.0249
891.0,0.025
890.0,0.0252
889.0,0.0253
888.0,0.0253
887.0,0.0253
886.0,0.0253
885.0,0.0252
884.0,0.0251
883.0,0.025
882.0,0.025
881.0,0.025
880.0,0.025
879.0,0.025
878.0,0.025
877.0,0.025
876.0,0.025
875.0,0.025
874.0,0.0249
873.0,0.0248
872.0,0.0248
871.0,0.0248
870.0,0.0247
869.0,0.0247
868.0,0.0246
867.0,0.0246
866.0,0.0246
865.0,0.0246
864.0,0.0246
863.0,0.0245
862.0,0.0244
861.0,0.0244
860.0,0.0244
859.0,0.0244
858.0,0.0245
857.0,0.0245
856.0,0.0246
855.0,0.0246
854.0,0.0246
853.0,0.0246
852.0,0.0247
851.0,0.0247
850.0,0.0247
849.0,0.0246
848.0,0.0246
847.0,0.0245
846.0,0.0244
845.0,0.0243
844.0,0.0242
843.0,0.0242
842.0,0.0242
841.0,0.0243
840.0,0.0242
839.0,0.0242
838.0,0.0241
837.0,0.024
836.0,0.0241
835.0,0.0242
834.0,0.0243
833.0,0.0244
832.0,0.0244
831.0,0.0243
830.0,0.0241
829.0,0.024
828.0,0.0241
827.0,0.0241
826.0,0.0242
825.0,0.0242
824.0,0.0242
823.0,0.0241
822.0,0.0241
821.0,0.0242
820.0,0.0242
819.0,0.0243
818.0,0.0243
817.0,0.0243
816.0,0.0243
815.0,0.0244
814.0,0.0245
813.0,0.0246
812.0,0.0247
811.0,0.0247
810.0,0.0247
809.0,0.0246
808.0,0.0245
807.0,0.0245
806.0,0.0246
805.0,0.0248
804.0,0.025
803.0,0.025
802.0,0.025
801.0,0.025
800.0,0.0251
799.0,0.025
798.0,0.0249
797.0,0.0249
796.0,0.0248
795.0,0.0248
794.0,0.0249
793.0,0.0251
792.0,0.0252
791.0,0.0252
790.0,0.0252
789.0,0.0251
788.0,0.0251
787.0,0.025
786.0,0.0249
785.0,0.0249
784.0,0.025
783.0,0.0251
782.0,0.025
781.0,0.0251
780.0,0.0253
779.0,0.0256
778.0,0.0257
777.0,0.0256
776.0,0.0254
775.0,0.0252
774.0,0.0252
773.0,0.0254
772.0,0.0257
771.0,0.0259
770.0,0.026
769.0,0.0259
768.0,0.0258
767.0,0.0258
766.0,0.0257
765.0,0.0256
764.0,0.0256
763.0,0.0257
762.0,0.0259
761.0,0.026
760.0,0.0261
759.0,0.026
758.0,0.0259
757.0,0.0259
756.0,0.026
755.0,0.026
754.0,0.0259
753.0,0.0257
752.0,0.0256
751.0,0.0256
750.0,0.0258
749.0,0.0261
748.0,0.0263
747.0,0.0262
746.0,0.026
745.0,0.0258
744.0,0.0258
743.0,0.0258
742.0,0.0259
741.0,0.0263
740.0,0.0268
739.0,0.0273
738.0,0.0278
737.0,0.0287
736.0,0.0302
735.0,0.033
734.0,0.0386
733.0,0.048
732.0,0.0605
731.0,0.0723
730.0,0.0793
729.0,0.0798
728.0,0.0758
727.0,0.0711
726.0,0.0684
725.0,0.0687
724.0,0.072
723.0,0.0789
722.0,0.0901
721.0,0.105
720.0,0.1188
719.0,0.1247
718.0,0.1203
717.0,0.109
716.0,0.0955
715.0,0.083
714.0,0.0729
713.0,0.0652
712.0,0.0594
711.0,0.0552
710.0,0.0521
709.0,0.0496
708.0,0.0474
707.0,0.0454
706.0,0.0436
705.0,0.0419
704.0,0.0406
703.0,0.0394
702.0,0.0381
701.0,0.0368
700.0,0.0357
699.0,0.0349
698.0,0.0341
697.0,0.0331
696.0,0.0323
695.0,0.032
694.0,0.0321
693.0,0.0322
692.0,0.0319
691.0,0.0313
690.0,0.0307
689.0,0.03
688.0,0.0289
687.0,0.0273
686.0,0.0255
685.0,0.0239
684.0,0.0233
683.0,0.0238
682.0,0.0249
681.0,0.026
680.0,0.0266
679.0,0.0264
678.0,0.0265
677.0,0.0257
676.0,0.0311
675.0,0.0319
674.0,0.031
673.0,0.0308
672.0,0.0303
671.0,0.0298
670.0,0.0289
669.0,0.0284
668.0,0.0295
667.0,0.031
666.0,0.0317
665.0,0.0317
664.0,0.0312
663.0,0.0305
662.0,0.0301
661.0,0.0302
660.0,0.0308
659.0,0.0314
658.0,0.0318
657.0,0.0315
656.0,0.0321
655.0,0.0274
654.0,0.0269
653.0,0.0274
652.0,0.0271
651.0,0.0267
650.0,0.026
649.0,0.0258
648.0,0.0261
647.0,0.0265
646.0,0.0269
645.0,0.0271
644.0,0.0272
643.0,0.0272
642.0,0.0272
641.0,0.0274
640.0,0.028
639.0,0.0291
638.0,0.0303
637.0,0.0316
636.0,0.0329
635.0,0.034
634.0,0.0347
633.0,0.0352
632.0,0.0353
631.0,0.0349
630.0,0.0339
629.0,0.0331
628.0,0.0327
627.0,0.0327
626.0,0.0325
625.0,0.0321
624.0,0.0316
623.0,0.0316
622.0,0.0319
621.0,0.0323
620.0,0.0324
619.0,0.0321
618.0,0.0318
617.0,0.0319
616.0,0.0325
615.0,0.0334
614.0,0.0341
613.0,0.0344
612.0,0.0345
611.0,0.0347
610.0,0.0349
609.0,0.0355
608.0,0.0363
607.0,0.0371
606.0,0.0379
605.0,0.0387
604.0,0.0396
603.0,0.0402
602.0,0.0406
601.0,0.0409
600.0,0.0413
