cm-1,A
4000.0,0.0005649501236701937
3999.0,0.0005649501236701937
3998.0,0.000521466320689834
3997.0,0.000521466320689834
3996.0,0.000521466320689834
3995.0,0.0005649501236701937
3994.0,0.0006084382809090627
3993.0,0.0006084382809090627
3992.0,0.0006084382809090627
3991.0,0.0006519307932786322
3990.0,0.0006519307932786322
3989.0,0.0006519307932786322
3988.0,0.0006519307932786322
3987.0,0.0006519307932786322
3986.0,0.0006084382809090627
3985.0,0.0005649501236701937
3984.0,0.0005649501236701937
3983.0,0.0006084382809090627
3982.0,0.0006084382809090627
3981.0,0.0006519307932786322
3980.0,0.0006519307932786322
3979.0,0.0006519307932786322
3978.0,0.0006519307932786322
3977.0,0.0006519307932786322
3976.0,0.0006519307932786322
3975.0,0.0006519307932786322
3974.0,0.0006084382809090627
3973.0,0.0005649501236701937
3972.0,0.000521466320689834
3971.0,0.0004779868710962365
3970.0,0.0004779868710962365
3969.0,0.00043451177401765406
3968.0,0.00043451177401765406
3967.0,0.0003910410285830057
3966.0,0.0003910410285830057
3965.0,0.00043451177401765406
3964.0,0.0004779868710962365
3963.0,0.0004779868710962365
3962.0,0.000521466320689834
3961.0,0.000521466320689834
3960.0,0.0005649501236701937
3959.0,0.0006084382809090627
3958.0,0.0006084382809090627
3957.0,0.0006084382809090627
3956.0,0.0006084382809090627
3955.0,0.0006084382809090627
3954.0,0.0005649501236701937
3953.0,0.000521466320689834
3952.0,0.0004779868710962365
3951.0,0.0004779868710962365
3950.0,0.0004779868710962365
3949.0,0.000521466320689834
3948.0,0.0006084382809090627
3947.0,0.0006519307932786322
3946.0,0.0006519307932786322
3945.0,0.0006954276616513155
3944.0,0.0006954276616513155
3943.0,0.0006954276616513155
3942.0,0.0006084382809090627
3941.0,0.0005649501236701937
3940.0,0.0006084382809090627
3939.0,0.0006084382809090627
3938.0,0.0006519307932786322
3937.0,0.0006519307932786322
3936.0,0.0006519307932786322
3935.0,0.0006954276616513155
3934.0,0.0007389288868995258
3933.0,0.0007389288868995258
3932.0,0.0007389288868995258
3931.0,0.0006954276616513155
3930.0,0.0006519307932786322
3929.0,0.0006084382809090627
3928.0,0.0005649501236701937
3927.0,0.0006084382809090627
3926.0,0.0006519307932786322
3925.0,0.0006954276616513155
3924.0,0.0006954276616513155
3923.0,0.0007389288868995258
3922.0,0.0007389288868995258
3921.0,0.0006954276616513155
3920.0,0.0006954276616513155
3919.0,0.0006519307932786322
3918.0,0.0006954276616513155
3917.0,0.0006954276616513155
3916.0,0.0007389288868995258
3915.0,0.0007824344698965646
3914.0,0.000869458712629001
3913.0,0.0009129773741116676
3912.0,0.000869458712629001
3911.0,0.0008259444115150671
3910.0,0.0007824344698965646
3909.0,0.0007389288868995258
3908.0,0.0007389288868995258
3907.0,0.0007824344698965646
3906.0,0.0008259444115150671
3905.0,0.0009129773741116676
3904.0,0.0009565003968372565
3903.0,0.0009129773741116676
3902.0,0.000869458712629001
3901.0,0.000869458712629001
3900.0,0.000869458712629001
3899.0,0.0009129773741116676
3898.0,0.0009565003968372565
3897.0,0.0010000277816797354
3896.0,0.0010435595295137379
3895.0,0.0010435595295137379
3894.0,0.0010000277816797354
3893.0,0.0009565003968372565
3892.0,0.0009129773741116676
3891.0,0.0007824344698965646
3890.0,0.0006954276616513155
3889.0,0.0006519307932786322
3888.0,0.0007389288868995258
3887.0,0.0007824344698965646
3886.0,0.0008259444115150671
3885.0,0.0008259444115150671
3884.0,0.000869458712629001
3883.0,0.0009565003968372565
3882.0,0.0009565003968372565
3881.0,0.0009565003968372565
3880.0,0.0009129773741116676
3879.0,0.0009129773741116676
3878.0,0.0009565003968372565
3877.0,0.0010000277816797354
3876.0,0.0009565003968372565
3875.0,0.000869458712629001
3874.0,0.0008259444115150671
3873.0,0.0008259444115150671
3872.0,0.0009565003968372565
3871.0,0.0010000277816797354
3870.0,0.0009565003968372565
3869.0,0.0008259444115150671
3868.0,0.0008259444115150671
3867.0,0.0009129773741116676
3866.0,0.0009565003968372565
3865.0,0.0009565003968372565
3864.0,0.000869458712629001
3863.0,0.0007824344698965646
3862.0,0.0006954276616513155
3861.0,0.0006519307932786322
3860.0,0.0006519307932786322
3859.0,0.0006954276616513155
3858.0,0.0007389288868995258
3857.0,0.0007824344698965646
3856.0,0.0008259444115150671
3855.0,0.0009129773741116676
3854.0,0.0010435595295137379
3853.0,0.0010000277816797354
3852.0,0.0009565003968372565
3851.0,0.0010000277816797354
3850.0,0.0010435595295137379
3849.0,0.0010435595295137379
3848.0,0.0009565003968372565
3847.0,0.0009129773741116676
3846.0,0.000869458712629001
3845.0,0.000869458712629001
3844.0,0.000869458712629001
3843.0,0.0008259444115150671
3842.0,0.0008259444115150671
3841.0,0.0008259444115150671
3840.0,0.0009129773741116676
3839.0,0.0009565003968372565
3838.0,0.0010000277816797354
3837.0,0.0010000277816797354
3836.0,0.0010435595295137379
3835.0,0.0010870956412141197
3834.0,0.0011306361176557367
3833.0,0.0010870956412141197
3832.0,0.0010870956412141197
3831.0,0.0010870956412141197
3830.0,0.0010870956412141197
3829.0,0.0010870956412141197
3828.0,0.0010870956412141197
3827.0,0.0009565003968372565
3826.0,0.000869458712629001
3825.0,0.0008259444115150671
3824.0,0.0009129773741116676
3823.0,0.0010870956412141197
3822.0,0.0012177301682640973
3821.0,0.0012177301682640973
3820.0,0.0010435595295137379
3819.0,0.0009565003968372565
3818.0,0.0010000277816797354
3817.0,0.0009565003968372565
3816.0,0.0009129773741116676
3815.0,0.000869458712629001
3814.0,0.0009129773741116676
3813.0,0.0010000277816797354
3812.0,0.0010000277816797354
3811.0,0.0009565003968372565
3810.0,0.0009129773741116676
3809.0,0.0009565003968372565
3808.0,0.0010000277816797354
3807.0,0.0009565003968372565
3806.0,0.0009129773741116676
3805.0,0.000869458712629001
3804.0,0.0009129773741116676
3803.0,0.0009565003968372565
3802.0,0.000869458712629001
3801.0,0.0007824344698965646
3800.0,0.0006954276616513155
3799.0,0.0007824344698965646
3798.0,0.0009565003968372565
3797.0,0.0010435595295137379
3796.0,0.0010870956412141197
3795.0,0.0010870956412141197
3794.0,0.0010870956412141197
3793.0,0.0011306361176557367
3792.0,0.0011741809597138886
3791.0,0.0011741809597138886
3790.0,0.0011306361176557367
3789.0,0.0010870956412141197
3788.0,0.0010435595295137379
3787.0,0.0010000277816797354
3786.0,0.0010000277816797354
3785.0,0.0009565003968372565
3784.0,0.0009129773741116676
3783.0,0.0009129773741116676
3782.0,0.0009129773741116676
3781.0,0.0010000277816797354
3780.0,0.0010435595295137379
3779.0,0.0010870956412141197
3778.0,0.0011306361176557367
3777.0,0.0010870956412141197
3776.0,0.0010435595295137379
3775.0,0.0010000277816797354
3774.0,0.0009565003968372565
3773.0,0.0009129773741116676
3772.0,0.0009565003968372565
3771.0,0.0010000277816797354
3770.0,0.0010000277816797354
3769.0,0.0010000277816797354
3768.0,0.0010435595295137379
3767.0,0.0011306361176557367
3766.0,0.0011741809597138886
3765.0,0.0011741809597138886
3764.0,0.0010870956412141197
3763.0,0.0010435595295137379
3762.0,0.0010000277816797354
3761.0,0.0010000277816797354
3760.0,0.0010000277816797354
3759.0,0.0009565003968372565
3758.0,0.0009565003968372565
3757.0,0.0009129773741116676
3756.0,0.0009565003968372565
3755.0,0.0010000277816797354
3754.0,0.0010870956412141197
3753.0,0.0011741809597138886
3752.0,0.0012612837441823288
3751.0,0.0012612837441823288
3750.0,0.0011741809597138886
3749.0,0.0010870956412141197
3748.0,0.0010870956412141197
3747.0,0.0011741809597138886
3746.0,0.001304841688344327
3745.0,0.001304841688344327
3744.0,0.0011306361176557367
3743.0,0.0009565003968372565
3742.0,0.0009565003968372565
3741.0,0.0010000277816797354
3740.0,0.0009129773741116676
3739.0,0.0008259444115150671
3738.0,0.0008259444115150671
3737.0,0.000869458712629001
3736.0,0.0009129773741116676
3735.0,0.0009129773741116676
3734.0,0.000869458712629001
3733.0,0.0007824344698965646
3732.0,0.0007389288868995258
3731.0,0.0006519307932786322
3730.0,0.000521466320689834
3729.0,0.00043451177401765406
3728.0,0.0003475746339209884
3727.0,0.00030411258916074324
3726.0,0.0003475746339209884
3725.0,0.0003910410285830057
3724.0,0.0004779868710962365
3723.0,0.000521466320689834
3722.0,0.0006084382809090627
3721.0,0.0006954276616513155
3720.0,0.0007824344698965646
3719.0,0.000869458712629001
3718.0,0.0009129773741116676
3717.0,0.0009129773741116676
3716.0,0.000869458712629001
3715.0,0.0008259444115150671
3714.0,0.0007824344698965646
3713.0,0.0006954276616513155
3712.0,0.0006519307932786322
3711.0,0.0005649501236701937
3710.0,0.000521466320689834
3709.0,0.0004779868710962365
3708.0,0.0004779868710962365
3707.0,0.000521466320689834
3706.0,0.0005649501236701937
3705.0,0.0006084382809090627
3704.0,0.0006954276616513155
3703.0,0.0007389288868995258
3702.0,0.0007389288868995258
3701.0,0.0006954276616513155
3700.0,0.0006519307932786322
3699.0,0.0006519307932786322
3698.0,0.0006954276616513155
3697.0,0.0006519307932786322
3696.0,0.0006084382809090627
3695.0,0.0005649501236701937
3694.0,0.0004779868710962365
3693.0,0.0004779868710962365
3692.0,0.0004779868710962365
3691.0,0.0005649501236701937
3690.0,0.0006954276616513155
3689.0,0.0007824344698965646
3688.0,0.0007389288868995258
3687.0,0.0006954276616513155
3686.0,0.0006519307932786322
3685.0,0.0006954276616513155
3684.0,0.0006954276616513155
3683.0,0.0006954276616513155
3682.0,0.0007389288868995258
3681.0,0.0007824344698965646
3680.0,0.0007824344698965646
3679.0,0.0007389288868995258
3678.0,0.0007389288868995258
3677.0,0.0007824344698965646
3676.0,0.000869458712629001
3675.0,0.0007824344698965646
3674.0,0.0006954276616513155
3673.0,0.0007389288868995258
3672.0,0.0008259444115150671
3671.0,0.0008259444115150671
3670.0,0.0007824344698965646
3669.0,0.0007389288868995258
3668.0,0.0007824344698965646
3667.0,0.0008259444115150671
3666.0,0.0008259444115150671
3665.0,0.0008259444115150671
3664.0,0.0007824344698965646
3663.0,0.0007389288868995258
3662.0,0.0007389288868995258
3661.0,0.0007389288868995258
3660.0,0.0007389288868995258
3659.0,0.0007389288868995258
3658.0,0.0007389288868995258
3657.0,0.0007824344698965646
3656.0,0.0007389288868995258
3655.0,0.0006954276616513155
3654.0,0.0006954276616513155
3653.0,0.0007389288868995258
3652.0,0.0007389288868995258
3651.0,0.0007824344698965646
3650.0,0.0009129773741116676
3649.0,0.0010435595295137379
3648.0,0.0011306361176557367
3647.0,0.0011741809597138886
3646.0,0.0012177301682640973
3645.0,0.0012177301682640973
3644.0,0.0012177301682640973
3643.0,0.0011306361176557367
3642.0,0.0010435595295137379
3641.0,0.0010000277816797354
3640.0,0.0010000277816797354
3639.0,0.0010000277816797354
3638.0,0.0010000277816797354
3637.0,0.0010435595295137379
3636.0,0.0010435595295137379
3635.0,0.0010870956412141197
3634.0,0.0010870956412141197
3633.0,0.0010870956412141197
3632.0,0.0010870956412141197
3631.0,0.0011306361176557367
3630.0,0.0012177301682640973
3629.0,0.0012612837441823288
3628.0,0.0012177301682640973
3627.0,0.0011741809597138886
3626.0,0.0012612837441823288
3625.0,0.0012612837441823288
3624.0,0.0012177301682640973
3623.0,0.0011741809597138886
3622.0,0.0011741809597138886
3621.0,0.0012177301682640973
3620.0,0.0012612837441823288
3619.0,0.001304841688344327
3618.0,0.001304841688344327
3617.0,0.001348404001626502
3616.0,0.0014791171649619628
3615.0,0.001609869681952425
3614.0,0.0016970599014589638
3613.0,0.0016970599014589638
3612.0,0.0016534626036355249
3611.0,0.001609869681952425
3610.0,0.001609869681952425
3609.0,0.0016534626036355249
3608.0,0.0016534626036355249
3607.0,0.001609869681952425
3606.0,0.001609869681952425
3605.0,0.0015662811355310335
3604.0,0.0015226969634936083
3603.0,0.0014791171649619628
3602.0,0.0013919706849057079
3601.0,0.001348404001626502
3600.0,0.001304841688344327
3599.0,0.001304841688344327
3598.0,0.001304841688344327
3597.0,0.001304841688344327
3596.0,0.001304841688344327
3595.0,0.001348404001626502
3594.0,0.0014355417390583547
3593.0,0.0015226969634936083
3592.0,0.001609869681952425
3591.0,0.0016534626036355249
3590.0,0.0016970599014589638
3589.0,0.0017842676290416026
3588.0,0.0018278780605593958
3587.0,0.0018714928717336043
3586.0,0.001915112063444413
3585.0,0.0020023635919956817
3584.0,0.002089632653256679
3583.0,0.0021332737608552588
3582.0,0.0021769192542746563
3581.0,0.0021769192542746563
3580.0,0.0021332737608552588
3579.0,0.0021332737608552588
3578.0,0.002089632653256679
3577.0,0.0020459959305969555
3576.0,0.0020459959305969555
3575.0,0.0020459959305969555
3574.0,0.0020459959305969555
3573.0,0.002089632653256679
3572.0,0.002089632653256679
3571.0,0.002089632653256679
3570.0,0.0020459959305969555
3569.0,0.0020459959305969555
3568.0,0.0020459959305969555
3567.0,0.0020459959305969555
3566.0,0.002089632653256679
3565.0,0.0021332737608552588
3564.0,0.0022205691343961664
3563.0,0.0023078820582733695
3562.0,0.002351545103793873
3561.0,0.002351545103793873
3560.0,0.002351545103793873
3559.0,0.002395212539545666
3558.0,0.0024388843664115978
3557.0,0.002482560585275184
3556.0,0.002482560585275184
3555.0,0.002482560585275184
3554.0,0.0025262411970197185
3553.0,0.002569926202528716
3552.0,0.002613615602686581
3551.0,0.002613615602686581
3550.0,0.002613615602686581
3549.0,0.0026573093983774942
3548.0,0.0026573093983774942
3547.0,0.0026573093983774942
3546.0,0.002613615602686581
3545.0,0.0025262411970197185
3544.0,0.0025262411970197185
3543.0,0.002569926202528716
3542.0,0.002613615602686581
3541.0,0.0026573093983774942
3540.0,0.002701007590486082
3539.0,0.0026573093983774942
3538.0,0.002613615602686581
3537.0,0.002613615602686581
3536.0,0.002613615602686581
3535.0,0.0026573093983774942
3534.0,0.002701007590486082
3533.0,0.002701007590486082
3532.0,0.0026573093983774942
3531.0,0.002613615602686581
3530.0,0.002613615602686581
3529.0,0.0026573093983774942
3528.0,0.0027447101798967477
3527.0,0.0027884171674950053
3526.0,0.0027884171674950053
3525.0,0.0028321285541661467
3524.0,0.0028758443407954637
3523.0,0.0029195645282691363
3522.0,0.0029632891174733444
3521.0,0.0029632891174733444
3520.0,0.0029632891174733444
3519.0,0.0030070181092942683
3518.0,0.003050751504618754
3517.0,0.0030944893043338695
3516.0,0.0031382315093266833
3515.0,0.0031819781204844855
3514.0,0.0031819781204844855
3513.0,0.0031819781204844855
3512.0,0.0031819781204844855
3511.0,0.0031819781204844855
3510.0,0.0032257291386954545
3509.0,0.0032694845648473247
3508.0,0.0032694845648473247
3507.0,0.0032694845648473247
3506.0,0.0033570086445275926
3505.0,0.0034007772998332353
3504.0,0.003488327845821315
3503.0,0.003488327845821315
3502.0,0.0034445503666347133
3501.0,0.0033570086445275926
3500.0,0.0033570086445275926
3499.0,0.0033570086445275926
3498.0,0.0034007772998332353
3497.0,0.0034445503666347133
3496.0,0.003488327845821315
3495.0,0.003488327845821315
3494.0,0.003488327845821315
3493.0,0.003488327845821315
3492.0,0.003488327845821315
3491.0,0.0035321097382827737
3490.0,0.0035758960449088217
3489.0,0.003619686766589858
3488.0,0.003619686766589858
3487.0,0.0035758960449088217
3486.0,0.0035758960449088217
3485.0,0.0035758960449088217
3484.0,0.0035758960449088217
3483.0,0.003619686766589858
3482.0,0.0036634819042162814
3481.0,0.003707281458678491
3480.0,0.0036634819042162814
3479.0,0.0035758960449088217
3478.0,0.0035321097382827737
3477.0,0.0035321097382827737
3476.0,0.0035758960449088217
3475.0,0.0036634819042162814
3474.0,0.003707281458678491
3473.0,0.0037510854308679953
3472.0,0.0037510854308679953
3471.0,0.003794893821675638
3470.0,0.0038387066319929275
3469.0,0.0038387066319929275
3468.0,0.0038387066319929275
3467.0,0.003794893821675638
3466.0,0.003794893821675638
3465.0,0.0038387066319929275
3464.0,0.0038825238627120395
3463.0,0.0038825238627120395
3462.0,0.0038825238627120395
3461.0,0.0038825238627120395
3460.0,0.0038825238627120395
3459.0,0.003926345514724705
3458.0,0.003970171588923321
3457.0,0.00401400208620073
3456.0,0.00401400208620073
3455.0,0.0040578370074493275
3454.0,0.004101676353562844
3453.0,0.004145520125434121
3452.0,0.004101676353562844
3451.0,0.004101676353562844
3450.0,0.0040578370074493275
3449.0,0.00401400208620073
3448.0,0.0040578370074493275
3447.0,0.004101676353562844
3446.0,0.004101676353562844
3445.0,0.004145520125434121
3444.0,0.004101676353562844
3443.0,0.0040578370074493275
3442.0,0.003970171588923321
3441.0,0.003926345514724705
3440.0,0.0038825238627120395
3439.0,0.0038825238627120395
3438.0,0.003970171588923321
3437.0,0.0040578370074493275
3436.0,0.004101676353562844
3435.0,0.004101676353562844
3434.0,0.004101676353562844
3433.0,0.004101676353562844
3432.0,0.004189368323957332
3431.0,0.004233220950025984
3430.0,0.004277078004534696
3429.0,0.004233220950025984
3428.0,0.004189368323957332
3427.0,0.004101676353562844
3426.0,0.004101676353562844
3425.0,0.004145520125434121
3424.0,0.004189368323957332
3423.0,0.004233220950025984
3422.0,0.004189368323957332
3421.0,0.004101676353562844
3420.0,0.0040578370074493275
3419.0,0.0040578370074493275
3418.0,0.004101676353562844
3417.0,0.004189368323957332
3416.0,0.004233220950025984
3415.0,0.004277078004534696
3414.0,0.004277078004534696
3413.0,0.004277078004534696
3412.0,0.004233220950025984
3411.0,0.004189368323957332
3410.0,0.004145520125434121
3409.0,0.004145520125434121
3408.0,0.004145520125434121
3407.0,0.004145520125434121
3406.0,0.004101676353562844
3405.0,0.0040578370074493275
3404.0,0.004101676353562844
3403.0,0.004101676353562844
3402.0,0.0040578370074493275
3401.0,0.00401400208620073
3400.0,0.003970171588923321
3399.0,0.003970171588923321
3398.0,0.00401400208620073
3397.0,0.00401400208620073
3396.0,0.00401400208620073
3395.0,0.00401400208620073
3394.0,0.00401400208620073
3393.0,0.00401400208620073
3392.0,0.0040578370074493275
3391.0,0.004101676353562844
3390.0,0.004145520125434121
3389.0,0.004189368323957332
3388.0,0.004189368323957332
3387.0,0.004145520125434121
3386.0,0.004145520125434121
3385.0,0.004101676353562844
3384.0,0.004145520125434121
3383.0,0.004233220950025984
3382.0,0.004233220950025984
3381.0,0.004277078004534696
3380.0,0.004277078004534696
3379.0,0.004277078004534696
3378.0,0.004277078004534696
3377.0,0.004233220950025984
3376.0,0.004233220950025984
3375.0,0.004277078004534696
3374.0,0.004320939488377862
3373.0,0.0043648054024501
3372.0,0.004408675747646695
3371.0,0.004408675747646695
3370.0,0.004452550524862486
3369.0,0.004408675747646695
3368.0,0.004408675747646695
3367.0,0.004408675747646695
3366.0,0.004408675747646695
3365.0,0.004408675747646695
3364.0,0.0043648054024501
3363.0,0.004320939488377862
3362.0,0.004277078004534696
3361.0,0.004277078004534696
3360.0,0.004320939488377862
3359.0,0.0043648054024501
3358.0,0.004452550524862486
3357.0,0.0044964297349936455
3356.0,0.0044964297349936455
3355.0,0.0044964297349936455
3354.0,0.004452550524862486
3353.0,0.004452550524862486
3352.0,0.004408675747646695
3351.0,0.0043648054024501
3350.0,0.004320939488377862
3349.0,0.004320939488377862
3348.0,0.004320939488377862
3347.0,0.004320939488377862
3346.0,0.004277078004534696
3345.0,0.004277078004534696
3344.0,0.004189368323957332
3343.0,0.004145520125434121
3342.0,0.004101676353562844
3341.0,0.004101676353562844
3340.0,0.0040578370074493275
3339.0,0.00401400208620073
3338.0,0.00401400208620073
3337.0,0.0040578370074493275
3336.0,0.004101676353562844
3335.0,0.004101676353562844
3334.0,0.004145520125434121
3333.0,0.004145520125434121
3332.0,0.004145520125434121
3331.0,0.004101676353562844
3330.0,0.0040578370074493275
3329.0,0.00401400208620073
3328.0,0.003970171588923321
3327.0,0.003926345514724705
3326.0,0.003926345514724705
3325.0,0.0038825238627120395
3324.0,0.003794893821675638
3323.0,0.003794893821675638
3322.0,0.0038387066319929275
3321.0,0.0038387066319929275
3320.0,0.0038387066319929275
3319.0,0.0038387066319929275
3318.0,0.0038825238627120395
3317.0,0.0038825238627120395
3316.0,0.003926345514724705
3315.0,0.003970171588923321
3314.0,0.003970171588923321
3313.0,0.003970171588923321
3312.0,0.003926345514724705
3311.0,0.0038825238627120395
3310.0,0.0038387066319929275
3309.0,0.003794893821675638
3308.0,0.003794893821675638
3307.0,0.003794893821675638
3306.0,0.003794893821675638
3305.0,0.0038387066319929275
3304.0,0.0038825238627120395
3303.0,0.0038825238627120395
3302.0,0.0038825238627120395
3301.0,0.0038825238627120395
3300.0,0.0038387066319929275
3299.0,0.0038825238627120395
3298.0,0.003926345514724705
3297.0,0.003970171588923321
3296.0,0.003970171588923321
3295.0,0.003926345514724705
3294.0,0.0038387066319929275
3293.0,0.003707281458678491
3292.0,0.003619686766589858
3291.0,0.003619686766589858
3290.0,0.003619686766589858
3289.0,0.003619686766589858
3288.0,0.003707281458678491
3287.0,0.003707281458678491
3286.0,0.0037510854308679953
3285.0,0.0037510854308679953
3284.0,0.0037510854308679953
3283.0,0.0037510854308679953
3282.0,0.0037510854308679953
3281.0,0.003707281458678491
3280.0,0.0036634819042162814
3279.0,0.003619686766589858
3278.0,0.0036634819042162814
3277.0,0.003707281458678491
3276.0,0.003707281458678491
3275.0,0.003707281458678491
3274.0,0.003619686766589858
3273.0,0.0035758960449088217
3272.0,0.0035758960449088217
3271.0,0.0035758960449088217
3270.0,0.003619686766589858
3269.0,0.003619686766589858
3268.0,0.0035758960449088217
3267.0,0.0035758960449088217
3266.0,0.0035758960449088217
3265.0,0.0035758960449088217
3264.0,0.003619686766589858
3263.0,0.003619686766589858
3262.0,0.003619686766589858
3261.0,0.003619686766589858
3260.0,0.003619686766589858
3259.0,0.003619686766589858
3258.0,0.003619686766589858
3257.0,0.0035758960449088217
3256.0,0.0035321097382827737
3255.0,0.003488327845821315
3254.0,0.0034445503666347133
3253.0,0.0034445503666347133
3252.0,0.0034445503666347133
3251.0,0.003488327845821315
3250.0,0.003488327845821315
3249.0,0.003488327845821315
3248.0,0.0034445503666347133
3247.0,0.0034445503666347133
3246.0,0.0034445503666347133
3245.0,0.003488327845821315
3244.0,0.003488327845821315
3243.0,0.0035321097382827737
3242.0,0.003488327845821315
3241.0,0.003488327845821315
3240.0,0.0034445503666347133
3239.0,0.0034007772998332353
3238.0,0.0034007772998332353
3237.0,0.0034007772998332353
3236.0,0.0034007772998332353
3235.0,0.0033570086445275926
3234.0,0.0033132443998284966
3233.0,0.0033132443998284966
3232.0,0.0033570086445275926
3231.0,0.0034007772998332353
3230.0,0.0034445503666347133
3229.0,0.003488327845821315
3228.0,0.0035321097382827737
3227.0,0.0035758960449088217
3226.0,0.003619686766589858
3225.0,0.0036634819042162814
3224.0,0.003707281458678491
3223.0,0.003707281458678491
3222.0,0.0036634819042162814
3221.0,0.003619686766589858
3220.0,0.0035321097382827737
3219.0,0.003488327845821315
3218.0,0.0034007772998332353
3217.0,0.0034007772998332353
3216.0,0.003488327845821315
3215.0,0.0035321097382827737
3214.0,0.003619686766589858
3213.0,0.003707281458678491
3212.0,0.0037510854308679953
3211.0,0.0037510854308679953
3210.0,0.003707281458678491
3209.0,0.0036634819042162814
3208.0,0.003619686766589858
3207.0,0.0035758960449088217
3206.0,0.003619686766589858
3205.0,0.0036634819042162814
3204.0,0.0036634819042162814
3203.0,0.003707281458678491
3202.0,0.0036634819042162814
3201.0,0.0036634819042162814
3200.0,0.003619686766589858
3199.0,0.0036634819042162814
3198.0,0.003707281458678491
3197.0,0.0037510854308679953
3196.0,0.0037510854308679953
3195.0,0.0036634819042162814
3194.0,0.0035758960449088217
3193.0,0.003488327845821315
3192.0,0.0034445503666347133
3191.0,0.0034445503666347133
3190.0,0.0034007772998332353
3189.0,0.0033570086445275926
3188.0,0.0033132443998284966
3187.0,0.0032694845648473247
3186.0,0.0032257291386954545
3185.0,0.0032257291386954545
3184.0,0.0032257291386954545
3183.0,0.0032257291386954545
3182.0,0.0032257291386954545
3181.0,0.0032257291386954545
3180.0,0.0031819781204844855
3179.0,0.0031382315093266833
3178.0,0.0031382315093266833
3177.0,0.0030944893043338695
3176.0,0.0030944893043338695
3175.0,0.0030944893043338695
3174.0,0.0030944893043338695
3173.0,0.0030944893043338695
3172.0,0.003050751504618754
3171.0,0.003050751504618754
3170.0,0.0030070181092942683
3169.0,0.0029195645282691363
3168.0,0.0027884171674950053
3167.0,0.0027447101798967477
3166.0,0.002701007590486082
3165.0,0.0026573093983774942
3164.0,0.0026573093983774942
3163.0,0.0026573093983774942
3162.0,0.0026573093983774942
3161.0,0.0026573093983774942
3160.0,0.0026573093983774942
3159.0,0.0026573093983774942
3158.0,0.002613615602686581
3157.0,0.002569926202528716
3156.0,0.0025262411970197185
3155.0,0.002482560585275184
3154.0,0.002482560585275184
3153.0,0.0025262411970197185
3152.0,0.0025262411970197185
3151.0,0.002569926202528716
3150.0,0.002613615602686581
3149.0,0.0026573093983774942
3148.0,0.0026573093983774942
3147.0,0.002613615602686581
3146.0,0.002613615602686581
3145.0,0.002613615602686581
3144.0,0.002613615602686581
3143.0,0.002613615602686581
3142.0,0.002569926202528716
3141.0,0.002482560585275184
3140.0,0.002395212539545666
3139.0,0.0023078820582733695
3138.0,0.0022642234021015284
3137.0,0.0022205691343961664
3136.0,0.0021769192542746563
3135.0,0.0021332737608552588
3134.0,0.0021332737608552588
3133.0,0.0021332737608552588
3132.0,0.0021769192542746563
3131.0,0.0021769192542746563
3130.0,0.0021332737608552588
3129.0,0.0020459959305969555
3128.0,0.0020023635919956817
3127.0,0.0020023635919956817
3126.0,0.0020023635919956817
3125.0,0.0020023635919956817
3124.0,0.0020023635919956817
3123.0,0.0019587356365717845
3122.0,0.0019587356365717845
3121.0,0.0019587356365717845
3120.0,0.0019587356365717845
3119.0,0.001915112063444413
3118.0,0.0018278780605593958
3117.0,0.0017406615763013722
3116.0,0.0016534626036355249
3115.0,0.001609869681952425
3114.0,0.0015226969634936083
3113.0,0.0014791171649619628
3112.0,0.0014791171649619628
3111.0,0.0014791171649619628
3110.0,0.0014791171649619628
3109.0,0.0014355417390583547
3108.0,0.0013919706849057079
3107.0,0.0013919706849057079
3106.0,0.001348404001626502
3105.0,0.0013919706849057079
3104.0,0.001348404001626502
3103.0,0.001304841688344327
3102.0,0.0012612837441823288
3101.0,0.0012177301682640973
3100.0,0.0011741809597138886
3099.0,0.0011741809597138886
3098.0,0.0011741809597138886
3097.0,0.0011741809597138886
3096.0,0.0011741809597138886
3095.0,0.0011741809597138886
3094.0,0.0011741809597138886
3093.0,0.0011741809597138886
3092.0,0.0011741809597138886
3091.0,0.0011306361176557367
3090.0,0.0010870956412141197
3089.0,0.0010870956412141197
3088.0,0.0011306361176557367
3087.0,0.0011306361176557367
3086.0,0.0010870956412141197
3085.0,0.0010435595295137379
3084.0,0.0009565003968372565
3083.0,0.0009129773741116676
3082.0,0.000869458712629001
3081.0,0.0008259444115150671
3080.0,0.0008259444115150671
3079.0,0.0007824344698965646
3078.0,0.0007389288868995258
3077.0,0.0006954276616513155
3076.0,0.0006519307932786322
3075.0,0.0006519307932786322
3074.0,0.0006519307932786322
3073.0,0.0006084382809090627
3072.0,0.0005649501236701937
3071.0,0.000521466320689834
3070.0,0.000521466320689834
3069.0,0.000521466320689834
3068.0,0.000521466320689834
3067.0,0.0005649501236701937
3066.0,0.0005649501236701937
3065.0,0.0005649501236701937
3064.0,0.0005649501236701937
3063.0,0.000521466320689834
3062.0,0.0004779868710962365
3061.0,0.00043451177401765406
3060.0,0.0003910410285830057
3059.0,0.0003475746339209884
3058.0,0.00030411258916074324
3057.0,0.00030411258916074324
3056.0,0.00026065489343207737
3055.0,0.00021720154586435392
3054.0,0.0001303078917322953
3053.0,8.686758342868472e-05
3052.0,0.0
3051.0,-4.3427276862573194e-05
3050.0,-4.3427276862573194e-05
3049.0,-4.3427276862573194e-05
3048.0,-8.685021164911433e-05
3047.0,-8.685021164911433e-05
3046.0,-0.00013026880522692963
3045.0,-0.00021709297223004853
3044.0,-0.0003472966853634851
3043.0,-0.00043407747931878404
3042.0,-0.0004774613744551459
3041.0,-0.0004774613744551459
3040.0,-0.0004774613744551459
3039.0,-0.0004774613744551459
3038.0,-0.0005642161653756084
3037.0,-0.0006075870628903246
3036.0,-0.0006509536295951079
3035.0,-0.0006509536295951079
3034.0,-0.0006509536295951079
3033.0,-0.0006509536295951079
3032.0,-0.0006509536295951079
3031.0,-0.0006509536295951079
3030.0,-0.0006509536295951079
3029.0,-0.0006509536295951079
3028.0,-0.0006509536295951079
3027.0,-0.0006943158663546001
3026.0,-0.0007810273534953893
3025.0,-0.0008243766056055257
3024.0,-0.0009110621312231615
3023.0,-0.0009543984064577238
3022.0,-0.001041057986093552
3021.0,-0.0011710149414008164
3020.0,-0.001257631312230778
3019.0,-0.001344230411601366
3018.0,-0.0013875234866409514
3017.0,-0.001474096691732818
3016.0,-0.0016039241497978196
3015.0,-0.0016904542321527494
3014.0,-0.0018202170383281313
3013.0,-0.0019067040408846658
3012.0,-0.0019067040408846658
3011.0,-0.0019499410842680476
3010.0,-0.0019067040408846658
3009.0,-0.0019067040408846658
3008.0,-0.0019499410842680476
3007.0,-0.0019499410842680476
3006.0,-0.0019499410842680476
3005.0,-0.0019931738235303698
3004.0,-0.0020364022595291686
3003.0,-0.0020796263931210923
3002.0,-0.0020796263931210923
3001.0,-0.0020796263931210923
3000.0,-0.0020364022595291686
2999.0,-0.0019931738235303698
2998.0,-0.0019067040408846658
2997.0,-0.0018634626925240205
2996.0,-0.001776967077439462
2995.0,-0.0016471913460383014
2994.0,-0.0015173768235041685
2993.0,-0.001344230411601366
2992.0,-0.0011710149414008164
2991.0,-0.0009977303577937136
2990.0,-0.0007376737740329986
2989.0,-0.0003472966853634851
2988.0,8.686758342868472e-05
2987.0,0.0006084382809090627
2986.0,0.0012177301682640973
2985.0,0.001915112063444413
2984.0,0.002701007590486082
2983.0,0.003619686766589858
2982.0,0.004671990922590297
2981.0,0.00590291041179003
2980.0,0.007269796045857202
2979.0,0.008818242332126802
2978.0,0.010550182333308289
2977.0,0.012467797270160563
2976.0,0.014708281407112
2975.0,0.01727661233145472
2974.0,0.02026956933771462
2973.0,0.02365002099672653
2972.0,0.027426919073445077
2971.0,0.031657169041054534
2970.0,0.03630659476198117
2969.0,0.04129280891271536
2968.0,0.04662694927330402
2967.0,0.05222329153526162
2966.0,0.05794231615860479
2965.0,0.0636873663378068
2964.0,0.0691018855898955
2963.0,0.07391491307485598
2962.0,0.07784567476894111
2961.0,0.08081727095749947
2960.0,0.0830725338870073
2959.0,0.08496970974083906
2958.0,0.0870343792958963
2957.0,0.08980263003399913
2956.0,0.09366495819490939
2955.0,0.09865067458435761
2954.0,0.10457745396059215
2953.0,0.11092250734993603
2952.0,0.11679296664760996
2951.0,0.12119106764079435
2950.0,0.12314735239865637
2949.0,0.12205304837081177
2948.0,0.11810202642698875
2947.0,0.11176432672943282
2946.0,0.10397008760377302
2945.0,0.09560907998763835
2944.0,0.08756536662442538
2943.0,0.08055578953476306
2942.0,0.07489427319033615
2941.0,0.07078549626260622
2940.0,0.06823711151882228
2939.0,0.06712054217620067
2938.0,0.06732334137759932
2937.0,0.06864384953207203
2936.0,0.07114346641808922
2935.0,0.07463633264589853
2934.0,0.07914650387874067
2933.0,0.08454739831152125
2932.0,0.09076499663169257
2931.0,0.09772507952549825
2930.0,0.10518567091669917
2929.0,0.1130019543289007
2928.0,0.12101887660626365
2927.0,0.12895273869450063
2926.0,0.1369151746796402
2925.0,0.1447838052666366
2924.0,0.1527358982292355
2923.0,0.16089921729284673
2922.0,0.16915480769138846
2921.0,0.17724366704860928
2920.0,0.18455508375564977
2919.0,0.19017103893211385
2918.0,0.19327749692381868
2917.0,0.19314197048118253
2916.0,0.189767482004916
2915.0,0.18369240056806024
2914.0,0.17593928258134706
2913.0,0.167618839752959
2912.0,0.15970566838856382
2911.0,0.15261244897260462
2910.0,0.1465451586319333
2909.0,0.14128238513970826
2908.0,0.13655817138629134
2907.0,0.132179091954427
2906.0,0.12790202572577325
2905.0,0.12360893818081231
2904.0,0.11930071078129845
2903.0,0.11503480179926728
2902.0,0.11086644403327606
2901.0,0.10679324694015202
2900.0,0.10297804393963661
2899.0,0.09935981601739963
2898.0,0.09593394808549704
2897.0,0.09274991711867164
2896.0,0.08985603893548699
2895.0,0.0872997918091396
2894.0,0.08518101955252688
2893.0,0.0833881548906541
2892.0,0.08196966321511989
2891.0,0.08092190762392604
2890.0,0.08018997982980403
2889.0,0.07972010536705154
2888.0,0.07951143534170213
2887.0,0.0794592834975203
2886.0,0.07961575782164254
2885.0,0.07998108397108505
2884.0,0.08055578953476306
2883.0,0.08134070657817682
2882.0,0.08238947425013277
2881.0,0.08365134772453975
2880.0,0.08486409337798806
2879.0,0.08597434830367123
2878.0,0.08655704514060414
2877.0,0.08666307406737683
2876.0,0.086239113587677
2875.0,0.0856568428805593
2874.0,0.08512818245994969
2873.0,0.08507535179485148
2872.0,0.08555105930144569
2871.0,0.08655704514060414
2870.0,0.08788427092114603
2869.0,0.08932224525729482
2868.0,0.09039048950983108
2867.0,0.09071147583774919
2866.0,0.08969583193143116
2865.0,0.0872466963286771
2864.0,0.08344078069888616
2863.0,0.07883394936226118
2862.0,0.07406940213152868
2861.0,0.06981534770138009
2860.0,0.06641148980334699
2859.0,0.06408986356949264
2858.0,0.06278310913729457
2857.0,0.06253226035662252
2856.0,0.06328524178879635
2855.0,0.06489597884855036
2854.0,0.06732334137759932
2853.0,0.07032568205141221
2852.0,0.07355465218161061
2851.0,0.07634157820669385
2850.0,0.07820951434181311
2849.0,0.07872981449018734
2848.0,0.07826151631540124
2847.0,0.07748213975538865
2846.0,0.07727454200674
2845.0,0.07805354577058976
2844.0,0.07982447798997727
2843.0,0.0823369756726251
2842.0,0.08523386307414738
2841.0,0.08804381092731295
2840.0,0.09028354676565531
2839.0,0.09146136782804049
2838.0,0.09113982698272349
2837.0,0.0892155652071629
2836.0,0.08560394787021397
2835.0,0.08060807322614072
2834.0,0.07479107858799638
2833.0,0.06869471857832687
2832.0,0.06288348923294618
2831.0,0.05764465029232335
2830.0,0.0531548860393769
2829.0,0.04944043838819989
2828.0,0.04633693625290869
2827.0,0.0437835307566099
2826.0,0.041627267521392675
2825.0,0.03986232513620536
2824.0,0.038341651362284734
2823.0,0.03701541568300293
2822.0,0.03583468937826462
2821.0,0.03479829897408804
2820.0,0.03385826726096752
2819.0,0.03301397488206215
2818.0,0.032218091924200776
2817.0,0.03151705144606498
2816.0,0.030863766403287585
2815.0,0.03030458888152676
2814.0,0.029746130405213123
2813.0,0.029281296279810798
2812.0,0.028770552723758724
2811.0,0.02826040911222183
2810.0,0.027750864037404455
2809.0,0.02724191609646076
2808.0,0.02677975314776626
2807.0,0.026271941311972746
2806.0,0.025764722556973707
2805.0,0.025304128090317013
2804.0,0.02484402159331056
2803.0,0.024338466818941473
2802.0,0.023833499868024743
2801.0,0.023374947949272418
2800.0,0.02296266477531872
2799.0,0.02259651912656535
2798.0,0.022322112326006227
2797.0,0.022093572362881675
2796.0,0.021865152601710403
2795.0,0.02159120737696063
2794.0,0.021363051615525652
2793.0,0.021089422824428272
2792.0,0.020724852408976924
2791.0,0.020406104151069693
2790.0,0.02004210665933459
2789.0,0.019723858922159776
2788.0,0.01949668180660491
2787.0,0.0192242260373785
2786.0,0.01899731005860028
2785.0,0.018815862601645694
2784.0,0.01858915983411169
2783.0,0.01840788278591865
2782.0,0.018181392829336396
2781.0,0.017955020928509757
2780.0,0.017728766960431575
2779.0,0.017457417697056554
2778.0,0.017231422748988034
2777.0,0.017095882207371904
2776.0,0.016960383953898095
2775.0,0.016870075265299933
2774.0,0.016734647433454652
2773.0,0.016644385668211692
2772.0,0.016554142658660398
2771.0,0.016418813294209356
2770.0,0.01628352608625061
2769.0,0.016193358021584725
2768.0,0.016058141016111804
2767.0,0.01596801972881945
2766.0,0.015877917138889863
2765.0,0.01578783323856614
2764.0,0.015742798294583915
2763.0,0.015652742414136167
2762.0,0.015562705203923999
2761.0,0.01547268665620738
2760.0,0.01538268676325183
2759.0,0.015292705517326866
2758.0,0.015202742910707112
2757.0,0.015112798935672522
2756.0,0.015022873584506602
2755.0,0.014977917890464765
2754.0,0.014932966849499074
2753.0,0.014888020460646079
2752.0,0.014843078722943437
2751.0,0.014753209197138295
2750.0,0.014663358264387139
2749.0,0.014618439768003144
2748.0,0.01452861671041239
2747.0,0.01452861671041239
2746.0,0.01452861671041239
2745.0,0.014573525916998342
2744.0,0.014618439768003144
2743.0,0.014618439768003144
2742.0,0.014708281407112
2741.0,0.014753209197138295
2740.0,0.014843078722943437
2739.0,0.014843078722943437
2738.0,0.014888020460646079
2737.0,0.014888020460646079
2736.0,0.014977917890464765
2735.0,0.015067833932588037
2734.0,0.015157768594724175
2733.0,0.015247721884586563
2732.0,0.015337693809893471
2731.0,0.01547268665620738
2730.0,0.015607721475734415
2729.0,0.015832872853011715
2728.0,0.016058141016111804
2727.0,0.016238439713835096
2726.0,0.01646391839700767
2725.0,0.016644385668211692
2724.0,0.016734647433454652
2723.0,0.01677978535189717
2722.0,0.016734647433454652
2721.0,0.016644385668211692
2720.0,0.01646391839700767
2719.0,0.016238439713835096
2718.0,0.01596801972881945
2717.0,0.015697768020096703
2716.0,0.01547268665620738
2715.0,0.015247721884586563
2714.0,0.015067833932588037
2713.0,0.014888020460646079
2712.0,0.014753209197138295
2711.0,0.014573525916998342
2710.0,0.014393916947563534
2709.0,0.014259258949925524
2708.0,0.014124642691606404
2707.0,0.013990068146738865
2706.0,0.013900374944870508
2705.0,0.01381070026317599
2704.0,0.013676222949234651
2703.0,0.013586594534531482
2702.0,0.013496984613259544
2701.0,0.013452186585275916
2700.0,0.013407393177789162
2699.0,0.013317820220494436
2698.0,0.013273040668781544
2697.0,0.01322826573375524
2696.0,0.01318349541446362
2695.0,0.013093968619278806
2694.0,0.013049212141483357
2693.0,0.013004460275618523
2692.0,0.012959713020733288
2691.0,0.013004460275618523
2690.0,0.013004460275618523
2689.0,0.013004460275618523
2688.0,0.013004460275618523
2687.0,0.012959713020733288
2686.0,0.012959713020733288
2685.0,0.012959713020733288
2684.0,0.012914970375878188
2683.0,0.012914970375878188
2682.0,0.012914970375878188
2681.0,0.012914970375878188
2680.0,0.012914970375878188
2679.0,0.012914970375878188
2678.0,0.012914970375878188
2677.0,0.012914970375878188
2676.0,0.012914970375878188
2675.0,0.012870232340102872
2674.0,0.012780770091995297
2673.0,0.012691326268817527
2672.0,0.01260190086298274
2671.0,0.01260190086298274
2670.0,0.01260190086298274
2669.0,0.01264661126420652
2668.0,0.012691326268817527
2667.0,0.012736045877764557
2666.0,0.012736045877764557
2665.0,0.012736045877764557
2664.0,0.012780770091995297
2663.0,0.012780770091995297
2662.0,0.012780770091995297
2661.0,0.012825498912458322
2660.0,0.012825498912458322
2659.0,0.012780770091995297
2658.0,0.012736045877764557
2657.0,0.012691326268817527
2656.0,0.01264661126420652
2655.0,0.012557195064198723
2654.0,0.012467797270160563
2653.0,0.012423105273012602
2652.0,0.012333735073725371
2651.0,0.012289056869694281
2650.0,0.012244383261476699
2649.0,0.012199714248127602
2648.0,0.01215504982870197
2647.0,0.012110390002254778
2646.0,0.012110390002254778
2645.0,0.012065734767841452
2644.0,0.0119764380713403
2643.0,0.011887159731648111
2642.0,0.011842527443247208
2641.0,0.011797899741219142
2640.0,0.011753276624621556
2639.0,0.011708658092512314
2638.0,0.011708658092512314
2637.0,0.011664044143949504
2636.0,0.011708658092512314
2635.0,0.011708658092512314
2634.0,0.011753276624621556
2633.0,0.011753276624621556
2632.0,0.011753276624621556
2631.0,0.011753276624621556
2630.0,0.011797899741219142
2629.0,0.011797899741219142
2628.0,0.011842527443247208
2627.0,0.011797899741219142
2626.0,0.011797899741219142
2625.0,0.011753276624621556
2624.0,0.011708658092512314
2623.0,0.011708658092512314
2622.0,0.011708658092512314
2621.0,0.011708658092512314
2620.0,0.011708658092512314
2619.0,0.011708658092512314
2618.0,0.011753276624621556
2617.0,0.011753276624621556
2616.0,0.011753276624621556
2615.0,0.011753276624621556
2614.0,0.011708658092512314
2613.0,0.011664044143949504
2612.0,0.011619434777991433
2611.0,0.011574829993696856
2610.0,0.011574829993696856
2609.0,0.011574829993696856
2608.0,0.011574829993696856
2607.0,0.011530229790124524
2606.0,0.011441043121384498
2605.0,0.011351874764248926
2604.0,0.011307297450183107
2603.0,0.011218156546359825
2602.0,0.011218156546359825
2601.0,0.01117359295472431
2600.0,0.01117359295472431
2599.0,0.01117359295472431
2598.0,0.011129033935354915
2597.0,0.011129033935354915
2596.0,0.011129033935354915
2595.0,0.011129033935354915
2594.0,0.011129033935354915
2593.0,0.011129033935354915
2592.0,0.011129033935354915
2591.0,0.01117359295472431
2590.0,0.011262724711199823
2589.0,0.011351874764248926
2588.0,0.011441043121384498
2587.0,0.011530229790124524
2586.0,0.011619434777991433
2585.0,0.011708658092512314
2584.0,0.011753276624621556
2583.0,0.011753276624621556
2582.0,0.011797899741219142
2581.0,0.011797899741219142
2580.0,0.011753276624621556
2579.0,0.011753276624621556
2578.0,0.011708658092512314
2577.0,0.011619434777991433
2576.0,0.011574829993696856
2575.0,0.011441043121384498
2574.0,0.011262724711199823
2573.0,0.011129033935354915
2572.0,0.011039929609661936
2571.0,0.010995384301463185
2570.0,0.010950843561779777
2569.0,0.010950843561779777
2568.0,0.010906307389674463
2567.0,0.01086177578421088
2566.0,0.01077272626946324
2565.0,0.010683695010048622
2564.0,0.010594681998483901
2563.0,0.010550182333308289
2562.0,0.010550182333308289
2561.0,0.010550182333308289
2560.0,0.010550182333308289
2559.0,0.010550182333308289
2558.0,0.010505687227290839
2557.0,0.01046119667949763
2556.0,0.010416710688994968
2555.0,0.01046119667949763
2554.0,0.01046119667949763
2553.0,0.01046119667949763
2552.0,0.010416710688994968
2551.0,0.01037222925484893
2550.0,0.010327752376126709
2549.0,0.010283280051895272
2548.0,0.010283280051895272
2547.0,0.010283280051895272
2546.0,0.010283280051895272
2545.0,0.010283280051895272
2544.0,0.010194349063173958
2543.0,0.010149890396819572
2542.0,0.010105436281226954
2541.0,0.010105436281226954
2540.0,0.010060986715464404
2539.0,0.010060986715464404
2538.0,0.01001654169860089
2537.0,0.01001654169860089
2536.0,0.009972101229705377
2535.0,0.009927665307847056
2534.0,0.009883233932095559
2533.0,0.009883233932095559
2532.0,0.009883233932095559
2531.0,0.009883233932095559
2530.0,0.009838807101520963
2529.0,0.009794384815193347
2528.0,0.009794384815193347
2527.0,0.009794384815193347
2526.0,0.009794384815193347
2525.0,0.009794384815193347
2524.0,0.009794384815193347
2523.0,0.00974996707218323
2522.0,0.009705553871561357
2521.0,0.009616741093766423
2520.0,0.009572341514736404
2519.0,0.009527946474380489
2518.0,0.009483555971770974
2517.0,0.009439170005980158
2516.0,0.00939478857608056
2515.0,0.00939478857608056
2514.0,0.009350411681145587
2513.0,0.009350411681145587
2512.0,0.00939478857608056
2511.0,0.00939478857608056
2510.0,0.00939478857608056
2509.0,0.00939478857608056
2508.0,0.00939478857608056
2507.0,0.00939478857608056
2506.0,0.009350411681145587
2505.0,0.009350411681145587
2504.0,0.009350411681145587
2503.0,0.009350411681145587
2502.0,0.009350411681145587
2501.0,0.009350411681145587
2500.0,0.009350411681145587
2499.0,0.00939478857608056
2498.0,0.009350411681145587
2497.0,0.009350411681145587
2496.0,0.009306039320248427
2495.0,0.009306039320248427
2494.0,0.009261671492462709
2493.0,0.009261671492462709
2492.0,0.009261671492462709
2491.0,0.009217308196862062
2490.0,0.009217308196862062
2489.0,0.009217308196862062
2488.0,0.009261671492462709
2487.0,0.009306039320248427
2486.0,0.009306039320248427
2485.0,0.009306039320248427
2484.0,0.009261671492462709
2483.0,0.009261671492462709
2482.0,0.009261671492462709
2481.0,0.009261671492462709
2480.0,0.009217308196862062
2479.0,0.009172949432521227
2478.0,0.009128595198514056
2477.0,0.009039900317800775
2476.0,0.009039900317800775
2475.0,0.009039900317800775
2474.0,0.00908424549391551
2473.0,0.00908424549391551
2472.0,0.009128595198514056
2471.0,0.009128595198514056
2470.0,0.009128595198514056
2469.0,0.009128595198514056
2468.0,0.009128595198514056
2467.0,0.00908424549391551
2466.0,0.00908424549391551
2465.0,0.009039900317800775
2464.0,0.009039900317800775
2463.0,0.009039900317800775
2462.0,0.009039900317800775
2461.0,0.008995559669244813
2460.0,0.009039900317800775
2459.0,0.009039900317800775
2458.0,0.00908424549391551
2457.0,0.00908424549391551
2456.0,0.00908424549391551
2455.0,0.00908424549391551
2454.0,0.00908424549391551
2453.0,0.009039900317800775
2452.0,0.008995559669244813
2451.0,0.008951223547323472
2450.0,0.008906891951112605
2449.0,0.008951223547323472
2448.0,0.008995559669244813
2447.0,0.009039900317800775
2446.0,0.009039900317800775
2445.0,0.009039900317800775
2444.0,0.008995559669244813
2443.0,0.008995559669244813
2442.0,0.008951223547323472
2441.0,0.008951223547323472
2440.0,0.008951223547323472
2439.0,0.008951223547323472
2438.0,0.008951223547323472
2437.0,0.008995559669244813
2436.0,0.009039900317800775
2435.0,0.009039900317800775
2434.0,0.009039900317800775
2433.0,0.009039900317800775
2432.0,0.00908424549391551
2431.0,0.009172949432521227
2430.0,0.009172949432521227
2429.0,0.009172949432521227
2428.0,0.009128595198514056
2427.0,0.009128595198514056
2426.0,0.00908424549391551
2425.0,0.009128595198514056
2424.0,0.009172949432521227
2423.0,0.009128595198514056
2422.0,0.009128595198514056
2421.0,0.00908424549391551
2420.0,0.009039900317800775
2419.0,0.008995559669244813
2418.0,0.008951223547323472
2417.0,0.008951223547323472
2416.0,0.008951223547323472
2415.0,0.008995559669244813
2414.0,0.008995559669244813
2413.0,0.008995559669244813
2412.0,0.008995559669244813
2411.0,0.008951223547323472
2410.0,0.008906891951112605
2409.0,0.008906891951112605
2408.0,0.008906891951112605
2407.0,0.008906891951112605
2406.0,0.008951223547323472
2405.0,0.008951223547323472
2404.0,0.008951223547323472
2403.0,0.008951223547323472
2402.0,0.008951223547323472
2401.0,0.008951223547323472
2400.0,0.008906891951112605
2399.0,0.008906891951112605
2398.0,0.008862564879688284
2397.0,0.008862564879688284
2396.0,0.008906891951112605
2395.0,0.008951223547323472
2394.0,0.008995559669244813
2393.0,0.009039900317800775
2392.0,0.009039900317800775
2391.0,0.008995559669244813
2390.0,0.008951223547323472
2389.0,0.008906891951112605
2388.0,0.008818242332126802
2387.0,0.008685301823389224
2386.0,0.00850811108984062
2385.0,0.008286724286910463
2384.0,0.008065450281052211
2383.0,0.007932739972333236
2382.0,0.007844288957383316
2381.0,0.007844288957383316
2380.0,0.007932739972333236
2379.0,0.008021209005416363
2378.0,0.008065450281052211
2377.0,0.008021209005416363
2376.0,0.007888512213050314
2375.0,0.007755855953228474
2374.0,0.007667440952535687
2373.0,0.00762324020119709
2372.0,0.007534852191956709
2371.0,0.007313960837872058
2370.0,0.00696076819309055
2369.0,0.006607862550997545
2368.0,0.006387442061109638
2367.0,0.00621118618129457
2366.0,0.00612308505878878
2365.0,0.00612308505878878
2364.0,0.006299305179649828
2363.0,0.006607862550997545
2362.0,0.007049039429553483
2361.0,0.0075790439479759275
2360.0,0.007976972236149349
2359.0,0.008065450281052211
2358.0,0.007888512213050314
2357.0,0.0075790439479759275
2356.0,0.007269796045857202
2355.0,0.006916639301937977
2354.0,0.006651960076740071
2353.0,0.006651960076740071
2352.0,0.006740168563263094
2351.0,0.006784279525863024
2350.0,0.006784279525863024
2349.0,0.006740168563263094
2348.0,0.006740168563263094
2347.0,0.006696062080525422
2346.0,0.006519680930003435
2345.0,0.006343371384537999
2344.0,0.00621118618129457
2343.0,0.00612308505878878
2342.0,0.00621118618129457
2341.0,0.006475596832934416
2340.0,0.006696062080525422
2339.0,0.006740168563263094
2338.0,0.006784279525863024
2337.0,0.006916639301937977
2336.0,0.007004901568658406
2335.0,0.006872514894289861
2334.0,0.006651960076740071
2333.0,0.006519680930003435
2332.0,0.006607862550997545
2331.0,0.006651960076740071
2330.0,0.006607862550997545
2329.0,0.006431517210272464
2328.0,0.006299305179649828
2327.0,0.006299305179649828
2326.0,0.006475596832934416
2325.0,0.006784279525863024
2324.0,0.007049039429553483
2323.0,0.007269796045857202
2322.0,0.007358130121602358
2321.0,0.007402303897961815
2320.0,0.007402303897961815
2319.0,0.007313960837872058
2318.0,0.007225635744644521
2317.0,0.007137328610972382
2316.0,0.007049039429553483
2315.0,0.007004901568658406
2314.0,0.00696076819309055
2313.0,0.006916639301937977
2312.0,0.006784279525863024
2311.0,0.006696062080525422
2310.0,0.006651960076740071
2309.0,0.006651960076740071
2308.0,0.006784279525863024
2307.0,0.007004901568658406
2306.0,0.007137328610972382
2305.0,0.007225635744644521
2304.0,0.007225635744644521
2303.0,0.007181479933320523
2302.0,0.007181479933320523
2301.0,0.007181479933320523
2300.0,0.007181479933320523
2299.0,0.007225635744644521
2298.0,0.007358130121602358
2297.0,0.0074464821678643656
2296.0,0.007534852191956709
2295.0,0.0075790439479759275
2294.0,0.0075790439479759275
2293.0,0.00762324020119709
2292.0,0.007711646202907652
2291.0,0.007755855953228474
2290.0,0.007844288957383316
2289.0,0.007932739972333236
2288.0,0.008021209005416363
2287.0,0.008065450281052211
2286.0,0.008153946355103248
2285.0,0.008242460465651913
2284.0,0.008286724286910463
2283.0,0.008286724286910463
2282.0,0.008286724286910463
2281.0,0.008286724286910463
2280.0,0.008286724286910463
2279.0,0.008286724286910463
2278.0,0.008286724286910463
2277.0,0.008286724286910463
2276.0,0.008286724286910463
2275.0,0.008242460465651913
2274.0,0.008242460465651913
2273.0,0.008198201155356077
2272.0,0.008242460465651913
2271.0,0.008242460465651913
2270.0,0.008286724286910463
2269.0,0.008286724286910463
2268.0,0.008330992620051436
2267.0,0.008330992620051436
2266.0,0.008330992620051436
2265.0,0.008375265465994541
2264.0,0.008375265465994541
2263.0,0.008375265465994541
2262.0,0.008375265465994541
2261.0,0.008419542825660153
2260.0,0.008463824699968647
2259.0,0.008463824699968647
2258.0,0.008463824699968647
2257.0,0.008419542825660153
2256.0,0.008375265465994541
2255.0,0.008330992620051436
2254.0,0.008375265465994541
2253.0,0.008419542825660153
2252.0,0.008463824699968647
2251.0,0.00850811108984062
2250.0,0.008463824699968647
2249.0,0.008419542825660153
2248.0,0.008375265465994541
2247.0,0.008375265465994541
2246.0,0.008375265465994541
2245.0,0.008419542825660153
2244.0,0.008463824699968647
2243.0,0.008463824699968647
2242.0,0.008463824699968647
2241.0,0.008463824699968647
2240.0,0.00850811108984062
2239.0,0.00850811108984062
2238.0,0.008463824699968647
2237.0,0.008463824699968647
2236.0,0.008463824699968647
2235.0,0.008463824699968647
2234.0,0.008463824699968647
2233.0,0.008419542825660153
2232.0,0.008375265465994541
2231.0,0.008375265465994541
2230.0,0.008375265465994541
2229.0,0.008419542825660153
2228.0,0.008463824699968647
2227.0,0.00850811108984062
2226.0,0.008463824699968647
2225.0,0.008463824699968647
2224.0,0.008463824699968647
2223.0,0.008463824699968647
2222.0,0.00850811108984062
2221.0,0.008552401996197112
2220.0,0.008552401996197112
2219.0,0.008552401996197112
2218.0,0.008552401996197112
2217.0,0.00850811108984062
2216.0,0.008463824699968647
2215.0,0.008463824699968647
2214.0,0.008419542825660153
2213.0,0.008419542825660153
2212.0,0.008463824699968647
2211.0,0.00850811108984062
2210.0,0.00850811108984062
2209.0,0.00850811108984062
2208.0,0.00850811108984062
2207.0,0.00850811108984062
2206.0,0.00850811108984062
2205.0,0.008552401996197112
2204.0,0.008596697419959609
2203.0,0.008596697419959609
2202.0,0.008552401996197112
2201.0,0.008552401996197112
2200.0,0.008596697419959609
2199.0,0.008596697419959609
2198.0,0.008640997362049818
2197.0,0.008640997362049818
2196.0,0.008640997362049818
2195.0,0.008596697419959609
2194.0,0.008552401996197112
2193.0,0.008552401996197112
2192.0,0.008552401996197112
2191.0,0.008552401996197112
2190.0,0.008552401996197112
2189.0,0.008552401996197112
2188.0,0.008552401996197112
2187.0,0.008552401996197112
2186.0,0.008596697419959609
2185.0,0.008596697419959609
2184.0,0.008596697419959609
2183.0,0.008596697419959609
2182.0,0.008552401996197112
2181.0,0.00850811108984062
2180.0,0.00850811108984062
2179.0,0.00850811108984062
2178.0,0.00850811108984062
2177.0,0.008552401996197112
2176.0,0.008640997362049818
2175.0,0.008685301823389224
2174.0,0.0087296108049002
2173.0,0.0087296108049002
2172.0,0.008685301823389224
2171.0,0.008640997362049818
2170.0,0.008640997362049818
2169.0,0.008685301823389224
2168.0,0.008685301823389224
2167.0,0.008685301823389224
2166.0,0.008685301823389224
2165.0,0.008640997362049818
2164.0,0.008640997362049818
2163.0,0.008596697419959609
2162.0,0.008640997362049818
2161.0,0.008640997362049818
2160.0,0.008640997362049818
2159.0,0.008596697419959609
2158.0,0.008596697419959609
2157.0,0.008552401996197112
2156.0,0.00850811108984062
2155.0,0.008463824699968647
2154.0,0.008463824699968647
2153.0,0.008463824699968647
2152.0,0.00850811108984062
2151.0,0.00850811108984062
2150.0,0.00850811108984062
2149.0,0.00850811108984062
2148.0,0.00850811108984062
2147.0,0.008552401996197112
2146.0,0.008552401996197112
2145.0,0.008552401996197112
2144.0,0.008552401996197112
2143.0,0.00850811108984062
2142.0,0.00850811108984062
2141.0,0.00850811108984062
2140.0,0.00850811108984062
2139.0,0.008552401996197112
2138.0,0.008596697419959609
2137.0,0.008640997362049818
2136.0,0.008640997362049818
2135.0,0.008640997362049818
2134.0,0.008596697419959609
2133.0,0.008596697419959609
2132.0,0.008596697419959609
2131.0,0.008552401996197112
2130.0,0.008552401996197112
2129.0,0.008596697419959609
2128.0,0.008640997362049818
2127.0,0.008640997362049818
2126.0,0.008640997362049818
2125.0,0.008596697419959609
2124.0,0.008596697419959609
2123.0,0.008552401996197112
2122.0,0.008552401996197112
2121.0,0.00850811108984062
2120.0,0.00850811108984062
2119.0,0.008463824699968647
2118.0,0.008419542825660153
2117.0,0.008375265465994541
2116.0,0.008375265465994541
2115.0,0.008375265465994541
2114.0,0.008419542825660153
2113.0,0.008419542825660153
2112.0,0.008463824699968647
2111.0,0.008463824699968647
2110.0,0.00850811108984062
2109.0,0.00850811108984062
2108.0,0.00850811108984062
2107.0,0.00850811108984062
2106.0,0.008463824699968647
2105.0,0.008463824699968647
2104.0,0.008419542825660153
2103.0,0.008463824699968647
2102.0,0.008463824699968647
2101.0,0.008463824699968647
2100.0,0.008463824699968647
2099.0,0.008463824699968647
2098.0,0.008463824699968647
2097.0,0.008463824699968647
2096.0,0.008463824699968647
2095.0,0.008463824699968647
2094.0,0.008419542825660153
2093.0,0.008419542825660153
2092.0,0.008419542825660153
2091.0,0.008463824699968647
2090.0,0.008463824699968647
2089.0,0.00850811108984062
2088.0,0.00850811108984062
2087.0,0.00850811108984062
2086.0,0.00850811108984062
2085.0,0.008463824699968647
2084.0,0.008463824699968647
2083.0,0.008463824699968647
2082.0,0.008463824699968647
2081.0,0.008463824699968647
2080.0,0.008463824699968647
2079.0,0.008463824699968647
2078.0,0.008463824699968647
2077.0,0.00850811108984062
2076.0,0.008552401996197112
2075.0,0.008552401996197112
2074.0,0.008552401996197112
2073.0,0.00850811108984062
2072.0,0.00850811108984062
2071.0,0.008463824699968647
2070.0,0.008463824699968647
2069.0,0.008463824699968647
2068.0,0.008463824699968647
2067.0,0.00850811108984062
2066.0,0.00850811108984062
2065.0,0.00850811108984062
2064.0,0.008552401996197112
2063.0,0.00850811108984062
2062.0,0.00850811108984062
2061.0,0.00850811108984062
2060.0,0.00850811108984062
2059.0,0.008552401996197112
2058.0,0.008552401996197112
2057.0,0.008596697419959609
2056.0,0.008640997362049818
2055.0,0.008640997362049818
2054.0,0.008596697419959609
2053.0,0.008552401996197112
2052.0,0.00850811108984062
2051.0,0.00850811108984062
2050.0,0.00850811108984062
2049.0,0.008552401996197112
2048.0,0.008552401996197112
2047.0,0.008552401996197112
2046.0,0.008552401996197112
2045.0,0.008552401996197112
2044.0,0.008552401996197112
2043.0,0.008596697419959609
2042.0,0.008596697419959609
2041.0,0.008640997362049818
2040.0,0.008596697419959609
2039.0,0.008596697419959609
2038.0,0.008552401996197112
2037.0,0.008596697419959609
2036.0,0.008596697419959609
2035.0,0.008640997362049818
2034.0,0.008640997362049818
2033.0,0.008685301823389224
2032.0,0.008685301823389224
2031.0,0.008685301823389224
2030.0,0.008640997362049818
2029.0,0.008640997362049818
2028.0,0.008640997362049818
2027.0,0.008640997362049818
2026.0,0.008685301823389224
2025.0,0.008685301823389224
2024.0,0.0087296108049002
2023.0,0.0087296108049002
2022.0,0.008685301823389224
2021.0,0.008685301823389224
2020.0,0.008685301823389224
2019.0,0.008640997362049818
2018.0,0.008640997362049818
2017.0,0.008640997362049818
2016.0,0.008640997362049818
2015.0,0.008640997362049818
2014.0,0.008640997362049818
2013.0,0.008640997362049818
2012.0,0.008640997362049818
2011.0,0.008640997362049818
2010.0,0.008640997362049818
2009.0,0.008640997362049818
2008.0,0.008640997362049818
2007.0,0.008640997362049818
2006.0,0.008640997362049818
2005.0,0.008640997362049818
2004.0,0.008640997362049818
2003.0,0.008685301823389224
2002.0,0.008685301823389224
2001.0,0.008640997362049818
2000.0,0.008640997362049818
1999.0,0.008596697419959609
1998.0,0.008640997362049818
1997.0,0.008685301823389224
1996.0,0.0087296108049002
1995.0,0.008773924307505121
1994.0,0.0087296108049002
1993.0,0.0087296108049002
1992.0,0.0087296108049002
1991.0,0.008685301823389224
1990.0,0.008685301823389224
1989.0,0.008685301823389224
1988.0,0.008685301823389224
1987.0,0.008685301823389224
1986.0,0.008685301823389224
1985.0,0.008640997362049818
1984.0,0.008640997362049818
1983.0,0.008685301823389224
1982.0,0.008685301823389224
1981.0,0.008685301823389224
1980.0,0.008685301823389224
1979.0,0.008685301823389224
1978.0,0.008685301823389224
1977.0,0.008685301823389224
1976.0,0.008640997362049818
1975.0,0.008640997362049818
1974.0,0.008640997362049818
1973.0,0.008640997362049818
1972.0,0.008640997362049818
1971.0,0.008640997362049818
1970.0,0.008685301823389224
1969.0,0.008685301823389224
1968.0,0.008685301823389224
1967.0,0.0087296108049002
1966.0,0.0087296108049002
1965.0,0.0087296108049002
1964.0,0.0087296108049002
1963.0,0.0087296108049002
1962.0,0.0087296108049002
1961.0,0.008773924307505121
1960.0,0.008773924307505121
1959.0,0.008773924307505121
1958.0,0.008818242332126802
1957.0,0.008818242332126802
1956.0,0.008818242332126802
1955.0,0.008818242332126802
1954.0,0.008818242332126802
1953.0,0.008818242332126802
1952.0,0.008818242332126802
1951.0,0.008818242332126802
1950.0,0.008773924307505121
1949.0,0.008818242332126802
1948.0,0.008818242332126802
1947.0,0.008862564879688284
1946.0,0.008862564879688284
1945.0,0.008862564879688284
1944.0,0.008862564879688284
1943.0,0.008862564879688284
1942.0,0.008818242332126802
1941.0,0.008818242332126802
1940.0,0.008818242332126802
1939.0,0.008818242332126802
1938.0,0.008773924307505121
1937.0,0.008773924307505121
1936.0,0.008773924307505121
1935.0,0.008773924307505121
1934.0,0.008773924307505121
1933.0,0.008773924307505121
1932.0,0.008773924307505121
1931.0,0.008773924307505121
1930.0,0.008773924307505121
1929.0,0.0087296108049002
1928.0,0.008685301823389224
1927.0,0.008685301823389224
1926.0,0.008640997362049818
1925.0,0.008685301823389224
1924.0,0.0087296108049002
1923.0,0.008773924307505121
1922.0,0.008818242332126802
1921.0,0.008862564879688284
1920.0,0.008862564879688284
1919.0,0.008906891951112605
1918.0,0.008862564879688284
1917.0,0.008862564879688284
1916.0,0.008862564879688284
1915.0,0.008862564879688284
1914.0,0.008862564879688284
1913.0,0.008906891951112605
1912.0,0.008906891951112605
1911.0,0.008906891951112605
1910.0,0.008951223547323472
1909.0,0.008951223547323472
1908.0,0.008951223547323472
1907.0,0.008906891951112605
1906.0,0.008862564879688284
1905.0,0.008862564879688284
1904.0,0.008906891951112605
1903.0,0.008906891951112605
1902.0,0.008951223547323472
1901.0,0.008951223547323472
1900.0,0.008995559669244813
1899.0,0.008995559669244813
1898.0,0.009039900317800775
1897.0,0.009039900317800775
1896.0,0.009039900317800775
1895.0,0.00908424549391551
1894.0,0.00908424549391551
1893.0,0.009128595198514056
1892.0,0.00908424549391551
1891.0,0.009039900317800775
1890.0,0.009039900317800775
1889.0,0.009039900317800775
1888.0,0.009039900317800775
1887.0,0.009039900317800775
1886.0,0.008995559669244813
1885.0,0.008995559669244813
1884.0,0.008995559669244813
1883.0,0.008995559669244813
1882.0,0.008951223547323472
1881.0,0.008951223547323472
1880.0,0.008995559669244813
1879.0,0.008995559669244813
1878.0,0.008995559669244813
1877.0,0.008995559669244813
1876.0,0.008995559669244813
1875.0,0.008995559669244813
1874.0,0.008951223547323472
1873.0,0.008906891951112605
1872.0,0.008906891951112605
1871.0,0.008906891951112605
1870.0,0.008951223547323472
1869.0,0.008995559669244813
1868.0,0.008995559669244813
1867.0,0.008995559669244813
1866.0,0.008995559669244813
1865.0,0.009039900317800775
1864.0,0.009039900317800775
1863.0,0.009039900317800775
1862.0,0.00908424549391551
1861.0,0.009128595198514056
1860.0,0.009128595198514056
1859.0,0.00908424549391551
1858.0,0.009039900317800775
1857.0,0.009039900317800775
1856.0,0.009039900317800775
1855.0,0.009039900317800775
1854.0,0.009039900317800775
1853.0,0.009039900317800775
1852.0,0.009039900317800775
1851.0,0.00908424549391551
1850.0,0.00908424549391551
1849.0,0.00908424549391551
1848.0,0.009039900317800775
1847.0,0.008995559669244813
1846.0,0.008995559669244813
1845.0,0.008995559669244813
1844.0,0.008995559669244813
1843.0,0.009039900317800775
1842.0,0.00908424549391551
1841.0,0.00908424549391551
1840.0,0.00908424549391551
1839.0,0.00908424549391551
1838.0,0.00908424549391551
1837.0,0.009128595198514056
1836.0,0.009128595198514056
1835.0,0.00908424549391551
1834.0,0.00908424549391551
1833.0,0.00908424549391551
1832.0,0.00908424549391551
1831.0,0.00908424549391551
1830.0,0.00908424549391551
1829.0,0.009128595198514056
1828.0,0.009217308196862062
1827.0,0.009261671492462709
1826.0,0.009261671492462709
1825.0,0.009261671492462709
1824.0,0.009217308196862062
1823.0,0.009172949432521227
1822.0,0.009128595198514056
1821.0,0.009128595198514056
1820.0,0.009128595198514056
1819.0,0.00908424549391551
1818.0,0.00908424549391551
1817.0,0.00908424549391551
1816.0,0.009039900317800775
1815.0,0.008995559669244813
1814.0,0.008951223547323472
1813.0,0.008906891951112605
1812.0,0.008906891951112605
1811.0,0.008951223547323472
1810.0,0.008995559669244813
1809.0,0.00908424549391551
1808.0,0.009128595198514056
1807.0,0.009128595198514056
1806.0,0.009128595198514056
1805.0,0.00908424549391551
1804.0,0.00908424549391551
1803.0,0.009128595198514056
1802.0,0.009128595198514056
1801.0,0.009128595198514056
1800.0,0.009128595198514056
1799.0,0.00908424549391551
1798.0,0.00908424549391551
1797.0,0.00908424549391551
1796.0,0.009128595198514056
1795.0,0.009128595198514056
1794.0,0.009128595198514056
1793.0,0.009128595198514056
1792.0,0.009217308196862062
1791.0,0.009261671492462709
1790.0,0.009261671492462709
1789.0,0.009306039320248427
1788.0,0.009306039320248427
1787.0,0.009261671492462709
1786.0,0.009261671492462709
1785.0,0.009306039320248427
1784.0,0.009306039320248427
1783.0,0.009306039320248427
1782.0,0.009261671492462709
1781.0,0.009261671492462709
1780.0,0.009261671492462709
1779.0,0.009261671492462709
1778.0,0.009261671492462709
1777.0,0.009217308196862062
1776.0,0.009217308196862062
1775.0,0.009217308196862062
1774.0,0.009217308196862062
1773.0,0.009217308196862062
1772.0,0.009261671492462709
1771.0,0.009350411681145587
1770.0,0.009483555971770974
1769.0,0.009572341514736404
1768.0,0.00966114521239847
1767.0,0.00966114521239847
1766.0,0.00966114521239847
1765.0,0.009705553871561357
1764.0,0.009705553871561357
1763.0,0.009794384815193347
1762.0,0.009883233932095559
1761.0,0.01001654169860089
1760.0,0.010105436281226954
1759.0,0.010194349063173958
1758.0,0.010283280051895272
1757.0,0.010416710688994968
1756.0,0.010639186223752484
1755.0,0.01086177578421088
1754.0,0.011039929609661936
1753.0,0.011218156546359825
1752.0,0.011485634166333858
1751.0,0.011797899741219142
1750.0,0.012021084124518078
1749.0,0.012244383261476699
1748.0,0.012423105273012602
1747.0,0.01260190086298274
1746.0,0.012780770091995297
1745.0,0.012914970375878188
1744.0,0.013138729709955221
1743.0,0.013273040668781544
1742.0,0.013362604389846044
1741.0,0.013362604389846044
1740.0,0.013273040668781544
1739.0,0.013138729709955221
1738.0,0.013093968619278806
1737.0,0.013049212141483357
1736.0,0.012959713020733288
1735.0,0.012780770091995297
1734.0,0.01260190086298274
1733.0,0.012423105273012602
1732.0,0.012378417874516323
1731.0,0.012378417874516323
1730.0,0.012333735073725371
1729.0,0.012333735073725371
1728.0,0.012289056869694281
1727.0,0.012289056869694281
1726.0,0.012244383261476699
1725.0,0.012199714248127602
1724.0,0.012199714248127602
1723.0,0.01215504982870197
1722.0,0.012199714248127602
1721.0,0.012199714248127602
1720.0,0.012199714248127602
1719.0,0.01215504982870197
1718.0,0.01215504982870197
1717.0,0.012244383261476699
1716.0,0.012333735073725371
1715.0,0.012333735073725371
1714.0,0.012378417874516323
1713.0,0.012423105273012602
1712.0,0.012378417874516323
1711.0,0.012333735073725371
1710.0,0.012244383261476699
1709.0,0.012199714248127602
1708.0,0.012065734767841452
1707.0,0.0119764380713403
1706.0,0.011887159731648111
1705.0,0.011887159731648111
1704.0,0.0119764380713403
1703.0,0.012065734767841452
1702.0,0.012110390002254778
1701.0,0.012110390002254778
1700.0,0.012110390002254778
1699.0,0.012110390002254778
1698.0,0.01215504982870197
1697.0,0.012199714248127602
1696.0,0.012199714248127602
1695.0,0.01215504982870197
1694.0,0.01215504982870197
1693.0,0.012244383261476699
1692.0,0.012244383261476699
1691.0,0.012199714248127602
1690.0,0.012199714248127602
1689.0,0.012289056869694281
1688.0,0.012423105273012602
1687.0,0.012467797270160563
1686.0,0.012423105273012602
1685.0,0.012467797270160563
1684.0,0.01264661126420652
1683.0,0.012780770091995297
1682.0,0.012914970375878188
1681.0,0.012959713020733288
1680.0,0.012959713020733288
1679.0,0.013004460275618523
1678.0,0.013004460275618523
1677.0,0.013004460275618523
1676.0,0.013049212141483357
1675.0,0.013093968619278806
1674.0,0.013138729709955221
1673.0,0.013138729709955221
1672.0,0.013093968619278806
1671.0,0.013049212141483357
1670.0,0.013004460275618523
1669.0,0.013004460275618523
1668.0,0.013049212141483357
1667.0,0.013093968619278806
1666.0,0.013138729709955221
1665.0,0.013138729709955221
1664.0,0.013093968619278806
1663.0,0.013138729709955221
1662.0,0.01318349541446362
1661.0,0.01322826573375524
1660.0,0.01322826573375524
1659.0,0.013138729709955221
1658.0,0.013093968619278806
1657.0,0.013093968619278806
1656.0,0.013138729709955221
1655.0,0.013138729709955221
1654.0,0.01322826573375524
1653.0,0.013273040668781544
1652.0,0.013138729709955221
1651.0,0.013049212141483357
1650.0,0.013049212141483357
1649.0,0.013004460275618523
1648.0,0.013004460275618523
1647.0,0.013049212141483357
1646.0,0.013049212141483357
1645.0,0.013004460275618523
1644.0,0.013004460275618523
1643.0,0.013004460275618523
1642.0,0.013004460275618523
1641.0,0.013004460275618523
1640.0,0.012959713020733288
1639.0,0.012914970375878188
1638.0,0.012825498912458322
1637.0,0.012825498912458322
1636.0,0.012914970375878188
1635.0,0.013004460275618523
1634.0,0.013004460275618523
1633.0,0.013004460275618523
1632.0,0.013004460275618523
1631.0,0.012959713020733288
1630.0,0.012870232340102872
1629.0,0.012780770091995297
1628.0,0.012780770091995297
1627.0,0.012736045877764557
1626.0,0.012691326268817527
1625.0,0.01264661126420652
1624.0,0.01260190086298274
1623.0,0.012512493866907004
1622.0,0.012467797270160563
1621.0,0.012378417874516323
1620.0,0.012333735073725371
1619.0,0.012289056869694281
1618.0,0.01215504982870197
1617.0,0.012065734767841452
1616.0,0.0119764380713403
1615.0,0.011931796607364653
1614.0,0.011931796607364653
1613.0,0.011931796607364653
1612.0,0.011887159731648111
1611.0,0.011842527443247208
1610.0,0.011797899741219142
1609.0,0.011797899741219142
1608.0,0.011797899741219142
1607.0,0.011797899741219142
1606.0,0.011797899741219142
1605.0,0.011797899741219142
1604.0,0.011842527443247208
1603.0,0.011887159731648111
1602.0,0.011887159731648111
1601.0,0.011887159731648111
1600.0,0.011842527443247208
1599.0,0.011797899741219142
1598.0,0.011664044143949504
1597.0,0.011574829993696856
1596.0,0.011441043121384498
1595.0,0.011396456654336085
1594.0,0.011351874764248926
1593.0,0.011307297450183107
1592.0,0.011307297450183107
1591.0,0.011262724711199823
1590.0,0.011218156546359825
1589.0,0.011218156546359825
1588.0,0.011218156546359825
1587.0,0.011262724711199823
1586.0,0.011307297450183107
1585.0,0.011351874764248926
1584.0,0.011351874764248926
1583.0,0.011351874764248926
1582.0,0.011351874764248926
1581.0,0.011351874764248926
1580.0,0.011396456654336085
1579.0,0.011441043121384498
1578.0,0.011396456654336085
1577.0,0.011307297450183107
1576.0,0.011218156546359825
1575.0,0.011129033935354915
1574.0,0.011129033935354915
1573.0,0.011129033935354915
1572.0,0.011084479487313281
1571.0,0.010950843561779777
1570.0,0.010817248744452446
1569.0,0.01077272626946324
1568.0,0.010728208358306901
1567.0,0.010728208358306901
1566.0,0.010683695010048622
1565.0,0.010683695010048622
1564.0,0.010683695010048622
1563.0,0.010683695010048622
1562.0,0.010683695010048622
1561.0,0.010550182333308289
1560.0,0.010550182333308289
1559.0,0.01077272626946324
1558.0,0.010817248744452446
1557.0,0.010728208358306901
1556.0,0.01077272626946324
1555.0,0.01077272626946324
1554.0,0.010728208358306901
1553.0,0.010728208358306901
1552.0,0.010728208358306901
1551.0,0.010728208358306901
1550.0,0.010728208358306901
1549.0,0.01077272626946324
1548.0,0.010817248744452446
1547.0,0.010817248744452446
1546.0,0.01077272626946324
1545.0,0.01077272626946324
1544.0,0.01086177578421088
1543.0,0.010906307389674463
1542.0,0.01086177578421088
1541.0,0.010950843561779777
1540.0,0.010906307389674463
1539.0,0.010639186223752484
1538.0,0.010416710688994968
1537.0,0.01037222925484893
1536.0,0.010327752376126709
1535.0,0.010149890396819572
1534.0,0.009972101229705377
1533.0,0.009838807101520963
1532.0,0.009838807101520963
1531.0,0.00974996707218323
1530.0,0.00966114521239847
1529.0,0.009616741093766423
1528.0,0.009616741093766423
1527.0,0.009572341514736404
1526.0,0.009483555971770974
1525.0,0.009439170005980158
1524.0,0.009439170005980158
1523.0,0.00939478857608056
1522.0,0.009350411681145587
1521.0,0.00939478857608056
1520.0,0.00939478857608056
1519.0,0.009350411681145587
1518.0,0.009217308196862062
1517.0,0.009217308196862062
1516.0,0.009306039320248427
1515.0,0.009350411681145587
1514.0,0.009306039320248427
1513.0,0.009261671492462709
1512.0,0.009261671492462709
1511.0,0.009217308196862062
1510.0,0.009217308196862062
1509.0,0.009261671492462709
1508.0,0.00939478857608056
1507.0,0.009483555971770974
1506.0,0.009261671492462709
1505.0,0.009128595198514056
1504.0,0.009128595198514056
1503.0,0.009172949432521227
1502.0,0.009172949432521227
1501.0,0.009261671492462709
1500.0,0.00939478857608056
1499.0,0.009572341514736404
1498.0,0.00974996707218323
1497.0,0.010149890396819572
1496.0,0.010639186223752484
1495.0,0.010950843561779777
1494.0,0.011084479487313281
1493.0,0.011218156546359825
1492.0,0.011307297450183107
1491.0,0.011218156546359825
1490.0,0.011084479487313281
1489.0,0.011129033935354915
1488.0,0.011262724711199823
1487.0,0.011307297450183107
1486.0,0.011441043121384498
1485.0,0.011664044143949504
1484.0,0.0119764380713403
1483.0,0.012333735073725371
1482.0,0.012780770091995297
1481.0,0.013452186585275916
1480.0,0.014259258949925524
1479.0,0.015067833932588037
1478.0,0.016193358021584725
1477.0,0.018045555530026514
1476.0,0.02067930261797568
1475.0,0.023833499868024743
1474.0,0.027658283674251827
1473.0,0.03245202378113787
1472.0,0.037251946641359446
1471.0,0.041197296600497646
1470.0,0.04484161307420642
1469.0,0.048954051864180226
1468.0,0.053646002773725554
1467.0,0.058936011780097886
1466.0,0.06550154875643233
1465.0,0.07319468988839395
1464.0,0.08013774644446192
1463.0,0.08454739831152125
1462.0,0.08692825969074924
1461.0,0.0881502035005799
1460.0,0.08873582900163002
1459.0,0.08894897967187343
1458.0,0.08948231448273347
1457.0,0.09060445403289452
1456.0,0.09130056764777605
1455.0,0.09124698081546634
1454.0,0.0908185240221473
1453.0,0.0900697402471693
1452.0,0.08873582900163002
1451.0,0.0867160982395816
1450.0,0.0838620168928248
1449.0,0.07982447798997727
1448.0,0.07437854520917098
1447.0,0.068389593637038
1446.0,0.06298389253518577
1445.0,0.058190526991161784
1444.0,0.05394093961487645
1443.0,0.05026854768429301
1442.0,0.04744970610179822
1441.0,0.0454680573730859
1440.0,0.04411991377462465
1439.0,0.043495409683302455
1438.0,0.04363944632667782
1437.0,0.044167989767578186
1436.0,0.04411991377462465
1435.0,0.042775942156833
1434.0,0.04043395336207234
1433.0,0.03739392707587297
1432.0,0.034046110897937076
1431.0,0.03081714076773867
1430.0,0.028214062120885508
1429.0,0.026225806029419818
1428.0,0.024706084643793647
1427.0,0.02365002099672653
1426.0,0.022871099419317753
1425.0,0.022093572362881675
1424.0,0.021363051615525652
1423.0,0.02081596632558158
1422.0,0.020497151212598652
1421.0,0.020087589665283012
1420.0,0.019632973815224997
1419.0,0.019315025636685412
1418.0,0.019042683770379876
1417.0,0.018634490921455527
1416.0,0.018226681372252695
1415.0,0.017864505196230507
1414.0,0.017547848615010242
1413.0,0.017186237868137555
1412.0,0.01677978535189717
1411.0,0.016509028184833463
1410.0,0.01628352608625061
1409.0,0.016013078034810446
1408.0,0.015742798294583915
1407.0,0.015562705203923999
1406.0,0.01547268665620738
1405.0,0.015337693809893471
1404.0,0.015202742910707112
1403.0,0.015112798935672522
1402.0,0.015022873584506602
1401.0,0.014888020460646079
1400.0,0.014753209197138295
1399.0,0.014753209197138295
1398.0,0.014753209197138295
1397.0,0.014573525916998342
1396.0,0.014349026309051105
1395.0,0.014304140310157809
1394.0,0.014393916947563534
1393.0,0.0144837121472845
1392.0,0.014573525916998342
1391.0,0.014843078722943437
1390.0,0.015247721884586563
1389.0,0.01578783323856614
1388.0,0.016734647433454652
1387.0,0.018498511851753108
1386.0,0.021135015652343103
1385.0,0.02461415101053266
1384.0,0.02960662792039992
1383.0,0.03692083935817303
1382.0,0.04686877481655505
1381.0,0.05978244440026481
1380.0,0.0760310351245288
1379.0,0.09506817260434741
1378.0,0.11407366019856902
1377.0,0.12889429901441463
1376.0,0.13578566953867033
1375.0,0.13229686672990226
1374.0,0.11947222180119477
1373.0,0.10297804393963661
1372.0,0.08767164203958999
1371.0,0.07458476291575367
1370.0,0.06358680028852026
1369.0,0.054679159207724926
1368.0,0.04817696468408794
1367.0,0.04397571771932274
1366.0,0.041436116778032606
1365.0,0.04010041213405646
1364.0,0.039909932095080425
1363.0,0.040672354027829094
1362.0,0.04215336629184985
1361.0,0.04383156952463674
1360.0,0.04513062893352182
1359.0,0.045564513671517703
1358.0,0.044937930324967956
1357.0,0.04325545471730896
1356.0,0.04076775094900409
1355.0,0.03786753070176463
1354.0,0.03503362516890207
1353.0,0.032592443402527316
1352.0,0.03058408764601861
1351.0,0.028863370523193765
1350.0,0.02738066094037661
1349.0,0.02613355016462182
1348.0,0.02512002699306959
1347.0,0.024200690320592466
1346.0,0.02342078135989012
1345.0,0.022733787572707387
1344.0,0.022139270735302752
1343.0,0.021636852916117055
1342.0,0.021135015652343103
1341.0,0.020770406977844713
1340.0,0.020542681902151694
1339.0,0.020315076172974234
1338.0,0.02013307743509718
1337.0,0.019996628416253603
1336.0,0.01990568621470623
1335.0,0.01990568621470623
1334.0,0.02004210665933459
1333.0,0.020315076172974234
1332.0,0.02058821736556471
1331.0,0.020861530453190058
1330.0,0.0209982515252789
1329.0,0.020907099361673565
1328.0,0.02067930261797568
1327.0,0.020315076172974234
1326.0,0.019860222254245663
1325.0,0.019360432556262852
1324.0,0.018861217359339655
1323.0,0.01840788278591865
1322.0,0.01809082990920774
1321.0,0.01781925440359733
1320.0,0.01759307113620534
1319.0,0.017412209298337533
1318.0,0.01727661233145472
1317.0,0.017095882207371904
1316.0,0.016915227262211507
1315.0,0.01677978535189717
1314.0,0.016689514205884493
1313.0,0.016644385668211692
1312.0,0.016644385668211692
1311.0,0.016734647433454652
1310.0,0.016870075265299933
1309.0,0.017186237868137555
1308.0,0.01768353030793479
1307.0,0.018362575344230914
1306.0,0.019042683770379876
1305.0,0.01958753839310856
1304.0,0.019814763052665052
1303.0,0.019678413991243593
1302.0,0.01940584422377989
1301.0,0.019178833355664393
1300.0,0.0190880622231564
1299.0,0.019133445417920836
1298.0,0.0192242260373785
1297.0,0.019315025636685412
1296.0,0.019360432556262852
1295.0,0.0192242260373785
1294.0,0.019042683770379876
1293.0,0.018725167293411005
1292.0,0.018362575344230914
1291.0,0.01800028587012159
1290.0,0.017638298366853045
1289.0,0.017367005605150476
1288.0,0.017095882207371904
1287.0,0.016915227262211507
1286.0,0.016734647433454652
1285.0,0.016554142658660398
1284.0,0.016418813294209356
1283.0,0.01628352608625061
1282.0,0.016148281008528276
1281.0,0.016058141016111804
1280.0,0.01596801972881945
1279.0,0.015877917138889863
1278.0,0.01578783323856614
1277.0,0.015742798294583915
1276.0,0.015652742414136167
1275.0,0.015607721475734415
1274.0,0.015517693597737248
1273.0,0.015517693597737248
1272.0,0.01547268665620738
1271.0,0.01547268665620738
1270.0,0.015517693597737248
1269.0,0.015562705203923999
1268.0,0.015652742414136167
1267.0,0.01578783323856614
1266.0,0.01596801972881945
1265.0,0.016148281008528276
1264.0,0.016418813294209356
1263.0,0.016644385668211692
1262.0,0.016870075265299933
1261.0,0.017186237868137555
1260.0,0.017502630802287644
1259.0,0.017864505196230507
1258.0,0.018271974638383703
1257.0,0.018634490921455527
1256.0,0.018770512579999288
1255.0,0.018679826740892747
1254.0,0.018271974638383703
1253.0,0.017728766960431575
1252.0,0.017141057687924732
1251.0,0.016644385668211692
1250.0,0.01628352608625061
1249.0,0.016013078034810446
1248.0,0.015832872853011715
1247.0,0.015697768020096703
1246.0,0.015562705203923999
1245.0,0.015427684378367834
1244.0,0.015292705517326866
1243.0,0.015202742910707112
1242.0,0.015067833932588037
1241.0,0.014977917890464765
1240.0,0.014932966849499074
1239.0,0.014888020460646079
1238.0,0.014798141635428141
1237.0,0.014708281407112
1236.0,0.014618439768003144
1235.0,0.014573525916998342
1234.0,0.01452861671041239
1233.0,0.014438812226654996
1232.0,0.014349026309051105
1231.0,0.014304140310157809
1230.0,0.014304140310157809
1229.0,0.014349026309051105
1228.0,0.014393916947563534
1227.0,0.01452861671041239
1226.0,0.014663358264387139
1225.0,0.014798141635428141
1224.0,0.015022873584506602
1223.0,0.015247721884586563
1222.0,0.015517693597737248
1221.0,0.015742798294583915
1220.0,0.015877917138889863
1219.0,0.015922966097169144
1218.0,0.015877917138889863
1217.0,0.015742798294583915
1216.0,0.015517693597737248
1215.0,0.015247721884586563
1214.0,0.015022873584506602
1213.0,0.014798141635428141
1212.0,0.014618439768003144
1211.0,0.014438812226654996
1210.0,0.014349026309051105
1209.0,0.014259258949925524
1208.0,0.014214382227394795
1207.0,0.014169510141607944
1206.0,0.014124642691606404
1205.0,0.014079779876432497
1204.0,0.013990068146738865
1203.0,0.013990068146738865
1202.0,0.013945219230304673
1201.0,0.013900374944870508
1200.0,0.01381070026317599
1199.0,0.013765869865004277
1198.0,0.013676222949234651
1197.0,0.013631406429727155
1196.0,0.013631406429727155
1195.0,0.013586594534531482
1194.0,0.013586594534531482
1193.0,0.013586594534531482
1192.0,0.013631406429727155
1191.0,0.013631406429727155
1190.0,0.013676222949234651
1189.0,0.013676222949234651
1188.0,0.01372104409400876
1187.0,0.013765869865004277
1186.0,0.01381070026317599
1185.0,0.01381070026317599
1184.0,0.01385553528947936
1183.0,0.013990068146738865
1182.0,0.014079779876432497
1181.0,0.014259258949925524
1180.0,0.014393916947563534
1179.0,0.014663358264387139
1178.0,0.015022873584506602
1177.0,0.015562705203923999
1176.0,0.016238439713835096
1175.0,0.017186237868137555
1174.0,0.01845319495476394
1173.0,0.02013307743509718
1172.0,0.022139270735302752
1171.0,0.024430342106337877
1170.0,0.026595025589939425
1169.0,0.02839947976994095
1168.0,0.029513651152349718
1167.0,0.029839156962686353
1166.0,0.029467170231675777
1165.0,0.02863136320857662
1164.0,0.027658283674251827
1163.0,0.02664120011360227
1162.0,0.025764722556973707
1161.0,0.025028005701930978
1160.0,0.024476287039668643
1159.0,0.024017056287453542
1158.0,0.023695883447997224
1157.0,0.023466619608062178
1156.0,0.023374947949272418
1155.0,0.023329119375188556
1154.0,0.023329119375188556
1153.0,0.023237476732539397
1152.0,0.02296266477531872
1151.0,0.02245929405346514
1150.0,0.021819483062586187
1149.0,0.021089422824428272
1148.0,0.02036058777709271
1147.0,0.019632973815224997
1146.0,0.018951941086827073
1145.0,0.01831727262871463
1144.0,0.01768353030793479
1143.0,0.017141057687924732
1142.0,0.016599261819461697
1141.0,0.016103208673694303
1140.0,0.015652742414136167
1139.0,0.015292705517326866
1138.0,0.014977917890464765
1137.0,0.014708281407112
1136.0,0.014438812226654996
1135.0,0.014259258949925524
1134.0,0.014124642691606404
1133.0,0.01403492169512921
1132.0,0.013945219230304673
1131.0,0.01381070026317599
1130.0,0.01372104409400876
1129.0,0.013676222949234651
1128.0,0.013631406429727155
1127.0,0.013631406429727155
1126.0,0.013631406429727155
1125.0,0.013631406429727155
1124.0,0.013586594534531482
1123.0,0.013586594534531482
1122.0,0.013631406429727155
1121.0,0.01372104409400876
1120.0,0.013765869865004277
1119.0,0.01381070026317599
1118.0,0.013900374944870508
1117.0,0.013900374944870508
1116.0,0.013945219230304673
1115.0,0.013945219230304673
1114.0,0.01403492169512921
1113.0,0.014079779876432497
1112.0,0.014214382227394795
1111.0,0.014349026309051105
1110.0,0.014573525916998342
1109.0,0.014843078722943437
1108.0,0.015202742910707112
1107.0,0.015652742414136167
1106.0,0.016193358021584725
1105.0,0.016734647433454652
1104.0,0.017231422748988034
1103.0,0.017547848615010242
1102.0,0.017638298366853045
1101.0,0.017457417697056554
1100.0,0.017050711425501408
1099.0,0.016554142658660398
1098.0,0.016013078034810446
1097.0,0.015562705203923999
1096.0,0.015157768594724175
1095.0,0.014843078722943437
1094.0,0.014618439768003144
1093.0,0.014393916947563534
1092.0,0.014124642691606404
1091.0,0.01381070026317599
1090.0,0.013496984613259544
1089.0,0.013273040668781544
1088.0,0.013093968619278806
1087.0,0.012914970375878188
1086.0,0.012736045877764557
1085.0,0.012557195064198723
1084.0,0.012423105273012602
1083.0,0.012333735073725371
1082.0,0.012244383261476699
1081.0,0.012065734767841452
1080.0,0.011931796607364653
1079.0,0.011753276624621556
1078.0,0.011619434777991433
1077.0,0.011530229790124524
1076.0,0.011441043121384498
1075.0,0.011351874764248926
1074.0,0.011351874764248926
1073.0,0.011307297450183107
1072.0,0.011307297450183107
1071.0,0.011307297450183107
1070.0,0.011262724711199823
1069.0,0.011218156546359825
1068.0,0.011129033935354915
1067.0,0.011039929609661936
1066.0,0.010995384301463185
1065.0,0.011039929609661936
1064.0,0.01117359295472431
1063.0,0.011307297450183107
1062.0,0.011351874764248926
1061.0,0.011351874764248926
1060.0,0.011307297450183107
1059.0,0.011262724711199823
1058.0,0.011262724711199823
1057.0,0.011351874764248926
1056.0,0.011441043121384498
1055.0,0.011574829993696856
1054.0,0.011664044143949504
1053.0,0.011797899741219142
1052.0,0.0119764380713403
1051.0,0.012199714248127602
1050.0,0.012512493866907004
1049.0,0.012825498912458322
1048.0,0.01318349541446362
1047.0,0.013586594534531482
1046.0,0.013945219230304673
1045.0,0.014214382227394795
1044.0,0.014304140310157809
1043.0,0.014304140310157809
1042.0,0.014169510141607944
1041.0,0.01403492169512921
1040.0,0.01381070026317599
1039.0,0.013586594534531482
1038.0,0.013407393177789162
1037.0,0.013273040668781544
1036.0,0.01318349541446362
1035.0,0.013138729709955221
1034.0,0.01318349541446362
1033.0,0.01322826573375524
1032.0,0.013317820220494436
1031.0,0.013407393177789162
1030.0,0.013452186585275916
1029.0,0.013496984613259544
1028.0,0.013586594534531482
1027.0,0.013765869865004277
1026.0,0.013945219230304673
1025.0,0.014169510141607944
1024.0,0.014349026309051105
1023.0,0.01452861671041239
1022.0,0.014663358264387139
1021.0,0.014753209197138295
1020.0,0.014708281407112
1019.0,0.014663358264387139
1018.0,0.014573525916998342
1017.0,0.01452861671041239
1016.0,0.014438812226654996
1015.0,0.014349026309051105
1014.0,0.014214382227394795
1013.0,0.014079779876432497
1012.0,0.013900374944870508
1011.0,0.01385553528947936
1010.0,0.013900374944870508
1009.0,0.013990068146738865
1008.0,0.014214382227394795
1007.0,0.01452861671041239
1006.0,0.015022873584506602
1005.0,0.01578783323856614
1004.0,0.016870075265299933
1003.0,0.018362575344230914
1002.0,0.020406104151069693
1001.0,0.02296266477531872
1000.0,0.025764722556973707
999.0,0.02812138297373412
998.0,0.02942069428514915
997.0,0.029188389127482228
996.0,0.027565723042634938
995.0,0.02516604495145991
994.0,0.022642270454698687
993.0,0.020406104151069693
992.0,0.018634490921455527
991.0,0.017321806616515723
990.0,0.01632861713980338
989.0,0.015607721475734415
988.0,0.015112798935672522
987.0,0.014798141635428141
986.0,0.014753209197138295
985.0,0.014798141635428141
984.0,0.015022873584506602
983.0,0.015427684378367834
982.0,0.016148281008528276
981.0,0.017231422748988034
980.0,0.018770512579999288
979.0,0.02081596632558158
978.0,0.023374947949272418
977.0,0.026318081496016443
976.0,0.029513651152349718
975.0,0.03249882527715853
974.0,0.03479829897408804
973.0,0.035740369803151095
972.0,0.03503362516890207
971.0,0.03277974021703267
970.0,0.02960662792039992
969.0,0.026318081496016443
968.0,0.023466619608062178
967.0,0.0211806132671577
966.0,0.01949668180660491
965.0,0.018226681372252695
964.0,0.01727661233145472
963.0,0.016509028184833463
962.0,0.015922966097169144
961.0,0.015427684378367834
960.0,0.015067833932588037
959.0,0.014708281407112
958.0,0.014393916947563534
957.0,0.014124642691606404
956.0,0.013900374944870508
955.0,0.01381070026317599
954.0,0.01372104409400876
953.0,0.013631406429727155
952.0,0.013496984613259544
951.0,0.013407393177789162
950.0,0.013317820220494436
949.0,0.01322826573375524
948.0,0.01318349541446362
947.0,0.01318349541446362
946.0,0.013273040668781544
945.0,0.013452186585275916
944.0,0.013676222949234651
943.0,0.013945219230304673
942.0,0.014259258949925524
941.0,0.014438812226654996
940.0,0.014438812226654996
939.0,0.014214382227394795
938.0,0.01385553528947936
937.0,0.013407393177789162
936.0,0.013004460275618523
935.0,0.012691326268817527
934.0,0.012423105273012602
933.0,0.012199714248127602
932.0,0.0119764380713403
931.0,0.011842527443247208
930.0,0.011797899741219142
929.0,0.011708658092512314
928.0,0.011664044143949504
927.0,0.011574829993696856
926.0,0.011530229790124524
925.0,0.011530229790124524
924.0,0.011530229790124524
923.0,0.011530229790124524
922.0,0.011530229790124524
921.0,0.011530229790124524
920.0,0.011485634166333858
919.0,0.011530229790124524
918.0,0.011574829993696856
917.0,0.011619434777991433
916.0,0.011619434777991433
915.0,0.011619434777991433
914.0,0.011708658092512314
913.0,0.011797899741219142
912.0,0.011931796607364653
911.0,0.012065734767841452
910.0,0.012199714248127602
909.0,0.012378417874516323
908.0,0.01260190086298274
907.0,0.012914970375878188
906.0,0.013362604389846044
905.0,0.014124642691606404
904.0,0.015202742910707112
903.0,0.016644385668211692
902.0,0.01831727262871463
901.0,0.01995115493504329
900.0,0.02122621566987748
899.0,0.021773818325474092
898.0,0.0214542995372613
897.0,0.020406104151069693
896.0,0.018951941086827073
895.0,0.017457417697056554
894.0,0.016148281008528276
893.0,0.015067833932588037
892.0,0.014214382227394795
891.0,0.013631406429727155
890.0,0.013317820220494436
889.0,0.013093968619278806
888.0,0.012914970375878188
887.0,0.012780770091995297
886.0,0.01264661126420652
885.0,0.012557195064198723
884.0,0.012512493866907004
883.0,0.012467797270160563
882.0,0.012423105273012602
881.0,0.012423105273012602
880.0,0.012467797270160563
879.0,0.01260190086298274
878.0,0.012736045877764557
877.0,0.012914970375878188
876.0,0.013093968619278806
875.0,0.013273040668781544
874.0,0.013317820220494436
873.0,0.01322826573375524
872.0,0.013004460275618523
871.0,0.012780770091995297
870.0,0.01264661126420652
869.0,0.01260190086298274
868.0,0.01260190086298274
867.0,0.01264661126420652
866.0,0.012691326268817527
865.0,0.012736045877764557
864.0,0.012780770091995297
863.0,0.012825498912458322
862.0,0.012870232340102872
861.0,0.012870232340102872
860.0,0.012914970375878188
859.0,0.012959713020733288
858.0,0.013093968619278806
857.0,0.01322826573375524
856.0,0.013317820220494436
855.0,0.013452186585275916
854.0,0.013586594534531482
853.0,0.013765869865004277
852.0,0.013945219230304673
851.0,0.014124642691606404
850.0,0.014393916947563534
849.0,0.014753209197138295
848.0,0.015292705517326866
847.0,0.016103208673694303
846.0,0.017412209298337533
845.0,0.019360432556262852
844.0,0.022230681908425698
843.0,0.02562649291857677
842.0,0.028445846553939003
841.0,0.029513651152349718
840.0,0.028306761050139073
839.0,0.02553436426275746
838.0,0.022413561996148967
837.0,0.019860222254245663
836.0,0.01809082990920774
835.0,0.016960383953898095
834.0,0.016238439713835096
833.0,0.015742798294583915
832.0,0.01538268676325183
831.0,0.015067833932588037
830.0,0.014798141635428141
829.0,0.014618439768003144
828.0,0.01452861671041239
827.0,0.0144837121472845
826.0,0.014573525916998342
825.0,0.014663358264387139
824.0,0.014708281407112
823.0,0.014663358264387139
822.0,0.014618439768003144
821.0,0.014573525916998342
820.0,0.014663358264387139
819.0,0.014798141635428141
818.0,0.015022873584506602
817.0,0.01547268665620738
816.0,0.016103208673694303
815.0,0.017050711425501408
814.0,0.01840788278591865
813.0,0.02004210665933459
812.0,0.021728158389364705
811.0,0.023191662661933732
810.0,0.024246610963712723
809.0,0.02475205875931885
808.0,0.024568191490736968
807.0,0.023787622882622816
806.0,0.02259651912656535
805.0,0.02122621566987748
804.0,0.02004210665933459
803.0,0.0190880622231564
802.0,0.018362575344230914
801.0,0.017728766960431575
800.0,0.017186237868137555
799.0,0.016644385668211692
798.0,0.016193358021584725
797.0,0.015832872853011715
796.0,0.015607721475734415
795.0,0.01538268676325183
794.0,0.015202742910707112
793.0,0.014977917890464765
792.0,0.014753209197138295
791.0,0.014438812226654996
790.0,0.014169510141607944
789.0,0.013990068146738865
788.0,0.013900374944870508
787.0,0.013900374944870508
786.0,0.013900374944870508
785.0,0.01381070026317599
784.0,0.013676222949234651
783.0,0.013452186585275916
782.0,0.013362604389846044
781.0,0.013362604389846044
780.0,0.013452186585275916
779.0,0.013541787262693505
778.0,0.013631406429727155
777.0,0.013631406429727155
776.0,0.013586594534531482
775.0,0.013541787262693505
774.0,0.013676222949234651
773.0,0.013945219230304673
772.0,0.014214382227394795
771.0,0.014438812226654996
770.0,0.01452861671041239
769.0,0.014573525916998342
768.0,0.01452861671041239
767.0,0.01452861671041239
766.0,0.014573525916998342
765.0,0.014753209197138295
764.0,0.014977917890464765
763.0,0.015202742910707112
762.0,0.015427684378367834
761.0,0.015607721475734415
760.0,0.015742798294583915
759.0,0.015877917138889863
758.0,0.01596801972881945
757.0,0.016148281008528276
756.0,0.016238439713835096
755.0,0.01628352608625061
754.0,0.01632861713980338
753.0,0.01646391839700767
752.0,0.016644385668211692
751.0,0.016824927962187042
750.0,0.016870075265299933
749.0,0.016870075265299933
748.0,0.016824927962187042
747.0,0.016734647433454652
746.0,0.016734647433454652
745.0,0.01677978535189717
744.0,0.016824927962187042
743.0,0.016824927962187042
742.0,0.016824927962187042
741.0,0.016824927962187042
740.0,0.016870075265299933
739.0,0.016960383953898095
738.0,0.01727661233145472
737.0,0.017864505196230507
736.0,0.018634490921455527
735.0,0.019632973815224997
734.0,0.020907099361673565
733.0,0.02259651912656535
732.0,0.024338466818941473
731.0,0.02558042614771394
730.0,0.025902996205869
729.0,0.02539620791296726
728.0,0.024476287039668643
727.0,0.02365002099672653
726.0,0.023191662661933732
725.0,0.023100049017062307
724.0,0.023329119375188556
723.0,0.024017056287453542
722.0,0.025258095499050004
721.0,0.026872146400301444
720.0,0.028214062120885508
719.0,0.028445846553939003
718.0,0.02751945012352408
717.0,0.025949097207122573
716.0,0.024430342106337877
715.0,0.023329119375188556
714.0,0.02259651912656535
713.0,0.02204787879853809
712.0,0.021728158389364705
711.0,0.02159120737696063
710.0,0.021773818325474092
709.0,0.02227639471115217
708.0,0.022871099419317753
707.0,0.023466619608062178
706.0,0.023971159908874107
705.0,0.02461415101053266
704.0,0.02558042614771394
703.0,0.02677975314776626
702.0,0.028028723600243666
701.0,0.029281296279810798
700.0,0.03058408764601861
699.0,0.03151705144606498
698.0,0.03151705144606498
697.0,0.030211462585061133
696.0,0.027936083991977778
695.0,0.02544225514642018
694.0,0.02355831062115543
693.0,0.022688026603074007
692.0,0.02282532397981263
691.0,0.02355831062115543
690.0,0.02438440203310499
689.0,0.02461415101053266
688.0,0.023925268380126097
687.0,0.02227639471115217
686.0,0.02026956933771462
685.0,0.018498511851753108
684.0,0.017774008325325275
683.0,0.018271974638383703
682.0,0.019451260640229506
681.0,0.020497151212598652
680.0,0.020952673052035298
679.0,0.0209982515252789
678.0,0.021043834782408455
677.0,0.021089422824428272
676.0,0.020907099361673565
675.0,0.020406104151069693
674.0,0.019860222254245663
673.0,0.01949668180660491
672.0,0.019451260640229506
671.0,0.019996628416253603
670.0,0.021545566634771474
669.0,0.02438440203310499
668.0,0.026733563891471412
667.0,0.025995203102585407
666.0,0.023329119375188556
665.0,0.020952673052035298
664.0,0.01958753839310856
663.0,0.019178833355664393
662.0,0.019451260640229506
661.0,0.019860222254245663
660.0,0.01995115493504329
659.0,0.019769308608968306
658.0,0.01954210772389997
657.0,0.019269623464054586
656.0,0.01899731005860028
655.0,0.018815862601645694
654.0,0.018634490921455527
653.0,0.018362575344230914
652.0,0.017955020928509757
651.0,0.01768353030793479
650.0,0.017955020928509757
649.0,0.01858915983411169
648.0,0.0190880622231564
647.0,0.0192242260373785
646.0,0.019042683770379876
645.0,0.018770512579999288
644.0,0.01840788278591865
643.0,0.018045555530026514
642.0,0.01781925440359733
641.0,0.017864505196230507
640.0,0.018271974638383703
639.0,0.018815862601645694
638.0,0.01954210772389997
637.0,0.02026956933771462
636.0,0.020952673052035298
635.0,0.021636852916117055
634.0,0.02204787879853809
633.0,0.02200219004126036
632.0,0.021363051615525652
631.0,0.020406104151069693
630.0,0.01958753839310856
629.0,0.019178833355664393
628.0,0.018951941086827073
627.0,0.018906576854070378
626.0,0.01899731005860028
625.0,0.019178833355664393
624.0,0.019133445417920836
623.0,0.018906576854070378
622.0,0.018634490921455527
621.0,0.018543833477873584
620.0,0.018634490921455527
619.0,0.018815862601645694
618.0,0.018951941086827073
617.0,0.019042683770379876
616.0,0.0190880622231564
615.0,0.0192242260373785
614.0,0.019315025636685412
613.0,0.01940584422377989
612.0,0.01954210772389997
611.0,0.01990568621470623
610.0,0.02036058777709271
609.0,0.02067930261797568
608.0,0.020724852408976924
607.0,0.020633757603838898
606.0,0.020724852408976924
605.0,0.020861530453190058
604.0,0.02067930261797568
603.0,0.02013307743509718
602.0,0.01954210772389997
601.0,0.0192242260373785
600.0,0.019269623464054586
