cm-1,A
4000.0,0.0016534626036355249
3999.0,0.0016534626036355249
3998.0,0.0016534626036355249
3997.0,0.0016534626036355249
3996.0,0.0016534626036355249
3995.0,0.0016534626036355249
3994.0,0.001609869681952425
3993.0,0.001609869681952425
3992.0,0.0015662811355310335
3991.0,0.0015662811355310335
3990.0,0.001609869681952425
3989.0,0.001609869681952425
3988.0,0.001609869681952425
3987.0,0.0016534626036355249
3986.0,0.0016534626036355249
3985.0,0.001609869681952425
3984.0,0.001609869681952425
3983.0,0.0015662811355310335
3982.0,0.0015226969634936083
3981.0,0.0014355417390583547
3980.0,0.001348404001626502
3979.0,0.001304841688344327
3978.0,0.0012612837441823288
3977.0,0.0012612837441823288
3976.0,0.001348404001626502
3975.0,0.0014355417390583547
3974.0,0.0015226969634936083
3973.0,0.0015662811355310335
3972.0,0.0015662811355310335
3971.0,0.0015226969634936083
3970.0,0.0015226969634936083
3969.0,0.0014791171649619628
3968.0,0.0013919706849057079
3967.0,0.001304841688344327
3966.0,0.001304841688344327
3965.0,0.0013919706849057079
3964.0,0.0015662811355310335
3963.0,0.0016970599014589638
3962.0,0.0017406615763013722
3961.0,0.0016970599014589638
3960.0,0.001609869681952425
3959.0,0.0015226969634936083
3958.0,0.0014791171649619628
3957.0,0.0014791171649619628
3956.0,0.0014355417390583547
3955.0,0.001348404001626502
3954.0,0.0012612837441823288
3953.0,0.0012177301682640973
3952.0,0.0012177301682640973
3951.0,0.0012612837441823288
3950.0,0.001348404001626502
3949.0,0.0013919706849057079
3948.0,0.001304841688344327
3947.0,0.0011741809597138886
3946.0,0.0010870956412141197
3945.0,0.0010435595295137379
3944.0,0.0010870956412141197
3943.0,0.0011306361176557367
3942.0,0.0011306361176557367
3941.0,0.0011306361176557367
3940.0,0.0011306361176557367
3939.0,0.0011306361176557367
3938.0,0.0011741809597138886
3937.0,0.0012177301682640973
3936.0,0.001304841688344327
3935.0,0.001348404001626502
3934.0,0.0013919706849057079
3933.0,0.001304841688344327
3932.0,0.0012177301682640973
3931.0,0.0011306361176557367
3930.0,0.0011306361176557367
3929.0,0.0011741809597138886
3928.0,0.0012612837441823288
3927.0,0.001348404001626502
3926.0,0.0013919706849057079
3925.0,0.0013919706849057079
3924.0,0.001304841688344327
3923.0,0.0012612837441823288
3922.0,0.001304841688344327
3921.0,0.001348404001626502
3920.0,0.001348404001626502
3919.0,0.001348404001626502
3918.0,0.0013919706849057079
3917.0,0.0014355417390583547
3916.0,0.0014791171649619628
3915.0,0.0015662811355310335
3914.0,0.0016534626036355249
3913.0,0.0016970599014589638
3912.0,0.0016970599014589638
3911.0,0.0016534626036355249
3910.0,0.0015662811355310335
3909.0,0.0014355417390583547
3908.0,0.0013919706849057079
3907.0,0.001348404001626502
3906.0,0.001304841688344327
3905.0,0.0012177301682640973
3904.0,0.0010870956412141197
3903.0,0.000869458712629001
3902.0,0.0007389288868995258
3901.0,0.0007389288868995258
3900.0,0.0007824344698965646
3899.0,0.0008259444115150671
3898.0,0.0009565003968372565
3897.0,0.0011306361176557367
3896.0,0.001304841688344327
3895.0,0.0013919706849057079
3894.0,0.0014355417390583547
3893.0,0.0014791171649619628
3892.0,0.0015662811355310335
3891.0,0.0015226969634936083
3890.0,0.001348404001626502
3889.0,0.001304841688344327
3888.0,0.0014355417390583547
3887.0,0.0015226969634936083
3886.0,0.0014355417390583547
3885.0,0.0011741809597138886
3884.0,0.0010000277816797354
3883.0,0.0010000277816797354
3882.0,0.0011306361176557367
3881.0,0.0011741809597138886
3880.0,0.0010870956412141197
3879.0,0.0009565003968372565
3878.0,0.0010000277816797354
3877.0,0.0011741809597138886
3876.0,0.0012612837441823288
3875.0,0.0010870956412141197
3874.0,0.0008259444115150671
3873.0,0.0006954276616513155
3872.0,0.0008259444115150671
3871.0,0.0010870956412141197
3870.0,0.0010870956412141197
3869.0,0.000869458712629001
3868.0,0.0007824344698965646
3867.0,0.0009565003968372565
3866.0,0.0012177301682640973
3865.0,0.0012612837441823288
3864.0,0.0011741809597138886
3863.0,0.0010870956412141197
3862.0,0.0010870956412141197
3861.0,0.0010870956412141197
3860.0,0.0011741809597138886
3859.0,0.0011741809597138886
3858.0,0.0011306361176557367
3857.0,0.0010000277816797354
3856.0,0.0010000277816797354
3855.0,0.0011306361176557367
3854.0,0.0013919706849057079
3853.0,0.0013919706849057079
3852.0,0.0011741809597138886
3851.0,0.001304841688344327
3850.0,0.0015662811355310335
3849.0,0.0016534626036355249
3848.0,0.0015226969634936083
3847.0,0.0013919706849057079
3846.0,0.0012612837441823288
3845.0,0.0011741809597138886
3844.0,0.0010000277816797354
3843.0,0.0008259444115150671
3842.0,0.0006519307932786322
3841.0,0.0006954276616513155
3840.0,0.000869458712629001
3839.0,0.0010870956412141197
3838.0,0.0012177301682640973
3837.0,0.0011741809597138886
3836.0,0.0011306361176557367
3835.0,0.0011306361176557367
3834.0,0.0012177301682640973
3833.0,0.001304841688344327
3832.0,0.0012612837441823288
3831.0,0.0011306361176557367
3830.0,0.0010000277816797354
3829.0,0.0010000277816797354
3828.0,0.0010870956412141197
3827.0,0.0010435595295137379
3826.0,0.0009129773741116676
3825.0,0.0007389288868995258
3824.0,0.0006954276616513155
3823.0,0.0008259444115150671
3822.0,0.0010435595295137379
3821.0,0.0010435595295137379
3820.0,0.0007824344698965646
3819.0,0.0007824344698965646
3818.0,0.0011306361176557367
3817.0,0.0015662811355310335
3816.0,0.0016970599014589638
3815.0,0.001609869681952425
3814.0,0.0015662811355310335
3813.0,0.0016534626036355249
3812.0,0.0016534626036355249
3811.0,0.0014791171649619628
3810.0,0.001348404001626502
3809.0,0.001348404001626502
3808.0,0.0014791171649619628
3807.0,0.0014355417390583547
3806.0,0.0012612837441823288
3805.0,0.0011306361176557367
3804.0,0.0012612837441823288
3803.0,0.0014791171649619628
3802.0,0.0015226969634936083
3801.0,0.001304841688344327
3800.0,0.0010435595295137379
3799.0,0.0011741809597138886
3798.0,0.0014791171649619628
3797.0,0.0016534626036355249
3796.0,0.0015226969634936083
3795.0,0.001348404001626502
3794.0,0.001304841688344327
3793.0,0.001348404001626502
3792.0,0.0014355417390583547
3791.0,0.0014355417390583547
3790.0,0.0014355417390583547
3789.0,0.0014791171649619628
3788.0,0.0014791171649619628
3787.0,0.0015226969634936083
3786.0,0.0015226969634936083
3785.0,0.0014791171649619628
3784.0,0.001348404001626502
3783.0,0.0012612837441823288
3782.0,0.0012177301682640973
3781.0,0.0012177301682640973
3780.0,0.0012177301682640973
3779.0,0.0011741809597138886
3778.0,0.0011306361176557367
3777.0,0.0011741809597138886
3776.0,0.001304841688344327
3775.0,0.0013919706849057079
3774.0,0.0013919706849057079
3773.0,0.0014355417390583547
3772.0,0.0015226969634936083
3771.0,0.0016534626036355249
3770.0,0.0015662811355310335
3769.0,0.0013919706849057079
3768.0,0.001304841688344327
3767.0,0.001304841688344327
3766.0,0.001348404001626502
3765.0,0.0012177301682640973
3764.0,0.0010870956412141197
3763.0,0.0010000277816797354
3762.0,0.0010000277816797354
3761.0,0.0010000277816797354
3760.0,0.0009129773741116676
3759.0,0.0008259444115150671
3758.0,0.0007389288868995258
3757.0,0.0006519307932786322
3756.0,0.0006084382809090627
3755.0,0.0005649501236701937
3754.0,0.0005649501236701937
3753.0,0.0006084382809090627
3752.0,0.0007824344698965646
3751.0,0.0011306361176557367
3750.0,0.0012612837441823288
3749.0,0.0012177301682640973
3748.0,0.0012177301682640973
3747.0,0.0013919706849057079
3746.0,0.001609869681952425
3745.0,0.0017406615763013722
3744.0,0.0015226969634936083
3743.0,0.0012177301682640973
3742.0,0.0012177301682640973
3741.0,0.001348404001626502
3740.0,0.0011306361176557367
3739.0,0.0007389288868995258
3738.0,0.0003910410285830057
3737.0,0.00017375254558760211
3736.0,0.0001303078917322953
3735.0,0.0001303078917322953
3734.0,0.00026065489343207737
3733.0,0.00043451177401765406
3732.0,0.0006084382809090627
3731.0,0.0006954276616513155
3730.0,0.000869458712629001
3729.0,0.0010870956412141197
3728.0,0.0012612837441823288
3727.0,0.001348404001626502
3726.0,0.001304841688344327
3725.0,0.0012612837441823288
3724.0,0.0011741809597138886
3723.0,0.0010870956412141197
3722.0,0.0010000277816797354
3721.0,0.0009129773741116676
3720.0,0.0009129773741116676
3719.0,0.0009565003968372565
3718.0,0.0010000277816797354
3717.0,0.0010435595295137379
3716.0,0.0010435595295137379
3715.0,0.0010870956412141197
3714.0,0.0011306361176557367
3713.0,0.0012177301682640973
3712.0,0.0012612837441823288
3711.0,0.0011741809597138886
3710.0,0.0010870956412141197
3709.0,0.0010435595295137379
3708.0,0.0010870956412141197
3707.0,0.0011306361176557367
3706.0,0.0010870956412141197
3705.0,0.0010870956412141197
3704.0,0.0010870956412141197
3703.0,0.0011741809597138886
3702.0,0.0012612837441823288
3701.0,0.001304841688344327
3700.0,0.001304841688344327
3699.0,0.0013919706849057079
3698.0,0.0014355417390583547
3697.0,0.0013919706849057079
3696.0,0.001304841688344327
3695.0,0.0012612837441823288
3694.0,0.0012612837441823288
3693.0,0.0012612837441823288
3692.0,0.0012177301682640973
3691.0,0.0011741809597138886
3690.0,0.0012177301682640973
3689.0,0.0012177301682640973
3688.0,0.0012177301682640973
3687.0,0.0013919706849057079
3686.0,0.001609869681952425
3685.0,0.0017842676290416026
3684.0,0.0017842676290416026
3683.0,0.001609869681952425
3682.0,0.0014791171649619628
3681.0,0.0013919706849057079
3680.0,0.0012612837441823288
3679.0,0.0010435595295137379
3678.0,0.0010000277816797354
3677.0,0.0011741809597138886
3676.0,0.0013919706849057079
3675.0,0.0012177301682640973
3674.0,0.000869458712629001
3673.0,0.0009129773741116676
3672.0,0.0011741809597138886
3671.0,0.0013919706849057079
3670.0,0.0014791171649619628
3669.0,0.0014791171649619628
3668.0,0.001609869681952425
3667.0,0.0018714928717336043
3666.0,0.002089632653256679
3665.0,0.0021769192542746563
3664.0,0.0021332737608552588
3663.0,0.002089632653256679
3662.0,0.0020023635919956817
3661.0,0.0019587356365717845
3660.0,0.0020023635919956817
3659.0,0.002089632653256679
3658.0,0.0022642234021015284
3657.0,0.0023078820582733695
3656.0,0.0021769192542746563
3655.0,0.001915112063444413
3654.0,0.0017842676290416026
3653.0,0.0017406615763013722
3652.0,0.0016534626036355249
3651.0,0.001609869681952425
3650.0,0.001609869681952425
3649.0,0.001609869681952425
3648.0,0.0015226969634936083
3647.0,0.0014791171649619628
3646.0,0.0015662811355310335
3645.0,0.0017406615763013722
3644.0,0.001915112063444413
3643.0,0.0020459959305969555
3642.0,0.0021769192542746563
3641.0,0.0023078820582733695
3640.0,0.002482560585275184
3639.0,0.002613615602686581
3638.0,0.0026573093983774942
3637.0,0.002569926202528716
3636.0,0.0024388843664115978
3635.0,0.0023078820582733695
3634.0,0.0021769192542746563
3633.0,0.0019587356365717845
3632.0,0.0017842676290416026
3631.0,0.0017406615763013722
3630.0,0.0019587356365717845
3629.0,0.002351545103793873
3628.0,0.002482560585275184
3627.0,0.002569926202528716
3626.0,0.0027884171674950053
3625.0,0.0029632891174733444
3624.0,0.0029632891174733444
3623.0,0.0028758443407954637
3622.0,0.0028321285541661467
3621.0,0.0028321285541661467
3620.0,0.0028321285541661467
3619.0,0.0027884171674950053
3618.0,0.0026573093983774942
3617.0,0.002569926202528716
3616.0,0.002613615602686581
3615.0,0.002701007590486082
3614.0,0.0027447101798967477
3613.0,0.002701007590486082
3612.0,0.0026573093983774942
3611.0,0.002701007590486082
3610.0,0.0028758443407954637
3609.0,0.0030944893043338695
3608.0,0.0031819781204844855
3607.0,0.0031819781204844855
3606.0,0.0031819781204844855
3605.0,0.0032694845648473247
3604.0,0.0034007772998332353
3603.0,0.0035758960449088217
3602.0,0.003707281458678491
3601.0,0.003794893821675638
3600.0,0.003707281458678491
3599.0,0.003619686766589858
3598.0,0.0035321097382827737
3597.0,0.003488327845821315
3596.0,0.0035758960449088217
3595.0,0.0036634819042162814
3594.0,0.003707281458678491
3593.0,0.003707281458678491
3592.0,0.0037510854308679953
3591.0,0.003794893821675638
3590.0,0.003926345514724705
3589.0,0.004189368323957332
3588.0,0.004408675747646695
3587.0,0.0044964297349936455
3586.0,0.004452550524862486
3585.0,0.0044964297349936455
3584.0,0.004628093971837721
3583.0,0.004759798137184523
3582.0,0.00489154225525934
3581.0,0.004979393875242044
3580.0,0.005067263269958211
3579.0,0.005067263269958211
3578.0,0.005067263269958211
3577.0,0.005023326350308999
3576.0,0.005067263269958211
3575.0,0.005111204635089406
3574.0,0.005111204635089406
3573.0,0.005111204635089406
3572.0,0.005023326350308999
3571.0,0.004935465843858511
3570.0,0.00484762310854614
3569.0,0.00489154225525934
3568.0,0.004979393875242044
3567.0,0.005023326350308999
3566.0,0.004979393875242044
3565.0,0.00489154225525934
3564.0,0.004979393875242044
3563.0,0.005155150446602086
3562.0,0.00541891874010525
3561.0,0.005638848091999105
3560.0,0.00590291041179003
3559.0,0.006079041198713275
3558.0,0.006167133386013823
3557.0,0.00612308505878878
3556.0,0.005990966876386672
3555.0,0.005814871797682919
3554.0,0.005682847330363394
3553.0,0.005638848091999105
3552.0,0.005682847330363394
3551.0,0.005814871797682919
3550.0,0.005990966876386672
3549.0,0.006167133386013823
3548.0,0.00625524344553785
3547.0,0.00625524344553785
3546.0,0.00621118618129457
3545.0,0.00625524344553785
3544.0,0.006343371384537999
3543.0,0.006475596832934416
3542.0,0.006607862550997545
3541.0,0.006696062080525422
3540.0,0.006740168563263094
3539.0,0.006784279525863024
3538.0,0.006872514894289861
3537.0,0.007004901568658406
3536.0,0.007137328610972382
3535.0,0.007137328610972382
3534.0,0.007049039429553483
3533.0,0.007004901568658406
3532.0,0.007004901568658406
3531.0,0.007093181776687496
3530.0,0.007137328610972382
3529.0,0.007093181776687496
3528.0,0.007049039429553483
3527.0,0.00696076819309055
3526.0,0.00696076819309055
3525.0,0.007004901568658406
3524.0,0.007137328610972382
3523.0,0.007225635744644521
3522.0,0.007313960837872058
3521.0,0.007490664932224611
3520.0,0.007667440952535687
3519.0,0.007755855953228474
3518.0,0.007755855953228474
3517.0,0.007711646202907652
3516.0,0.007711646202907652
3515.0,0.007755855953228474
3514.0,0.007888512213050314
3513.0,0.007976972236149349
3512.0,0.008065450281052211
3511.0,0.008065450281052211
3510.0,0.008021209005416363
3509.0,0.007976972236149349
3508.0,0.008109696063975047
3507.0,0.008286724286910463
3506.0,0.00850811108984062
3505.0,0.008552401996197112
3504.0,0.008463824699968647
3503.0,0.008330992620051436
3502.0,0.008286724286910463
3501.0,0.008375265465994541
3500.0,0.00850811108984062
3499.0,0.008552401996197112
3498.0,0.00850811108984062
3497.0,0.00850811108984062
3496.0,0.008552401996197112
3495.0,0.008640997362049818
3494.0,0.008773924307505121
3493.0,0.008818242332126802
3492.0,0.008818242332126802
3491.0,0.008773924307505121
3490.0,0.0087296108049002
3489.0,0.0087296108049002
3488.0,0.008773924307505121
3487.0,0.008773924307505121
3486.0,0.0087296108049002
3485.0,0.0087296108049002
3484.0,0.008773924307505121
3483.0,0.008862564879688284
3482.0,0.008995559669244813
3481.0,0.009172949432521227
3480.0,0.009350411681145587
3479.0,0.009439170005980158
3478.0,0.009527946474380489
3477.0,0.009483555971770974
3476.0,0.009483555971770974
3475.0,0.009483555971770974
3474.0,0.009527946474380489
3473.0,0.009572341514736404
3472.0,0.009616741093766423
3471.0,0.00966114521239847
3470.0,0.00974996707218323
3469.0,0.009838807101520963
3468.0,0.009883233932095559
3467.0,0.009927665307847056
3466.0,0.009927665307847056
3465.0,0.009972101229705377
3464.0,0.010060986715464404
3463.0,0.010194349063173958
3462.0,0.01037222925484893
3461.0,0.010505687227290839
3460.0,0.010550182333308289
3459.0,0.010550182333308289
3458.0,0.01046119667949763
3457.0,0.010327752376126709
3456.0,0.01023881228122181
3455.0,0.01023881228122181
3454.0,0.010283280051895272
3453.0,0.010327752376126709
3452.0,0.01037222925484893
3451.0,0.010327752376126709
3450.0,0.010327752376126709
3449.0,0.01037222925484893
3448.0,0.01046119667949763
3447.0,0.010639186223752484
3446.0,0.01077272626946324
3445.0,0.01086177578421088
3444.0,0.010950843561779777
3443.0,0.010995384301463185
3442.0,0.01086177578421088
3441.0,0.010683695010048622
3440.0,0.010550182333308289
3439.0,0.010505687227290839
3438.0,0.010639186223752484
3437.0,0.010817248744452446
3436.0,0.010995384301463185
3435.0,0.010995384301463185
3434.0,0.010950843561779777
3433.0,0.01086177578421088
3432.0,0.01086177578421088
3431.0,0.010906307389674463
3430.0,0.010995384301463185
3429.0,0.011084479487313281
3428.0,0.011129033935354915
3427.0,0.011084479487313281
3426.0,0.011084479487313281
3425.0,0.011039929609661936
3424.0,0.010995384301463185
3423.0,0.010995384301463185
3422.0,0.010995384301463185
3421.0,0.011039929609661936
3420.0,0.011129033935354915
3419.0,0.011218156546359825
3418.0,0.011351874764248926
3417.0,0.011441043121384498
3416.0,0.011485634166333858
3415.0,0.011485634166333858
3414.0,0.011530229790124524
3413.0,0.011485634166333858
3412.0,0.011485634166333858
3411.0,0.011485634166333858
3410.0,0.011485634166333858
3409.0,0.011485634166333858
3408.0,0.011530229790124524
3407.0,0.011574829993696856
3406.0,0.011619434777991433
3405.0,0.011619434777991433
3404.0,0.011664044143949504
3403.0,0.011664044143949504
3402.0,0.011753276624621556
3401.0,0.011842527443247208
3400.0,0.011931796607364653
3399.0,0.012021084124518078
3398.0,0.0119764380713403
3397.0,0.011931796607364653
3396.0,0.011931796607364653
3395.0,0.011931796607364653
3394.0,0.012021084124518078
3393.0,0.012065734767841452
3392.0,0.012065734767841452
3391.0,0.012021084124518078
3390.0,0.012021084124518078
3389.0,0.0119764380713403
3388.0,0.0119764380713403
3387.0,0.0119764380713403
3386.0,0.012021084124518078
3385.0,0.012021084124518078
3384.0,0.012065734767841452
3383.0,0.012065734767841452
3382.0,0.012110390002254778
3381.0,0.012199714248127602
3380.0,0.012244383261476699
3379.0,0.012244383261476699
3378.0,0.01215504982870197
3377.0,0.012065734767841452
3376.0,0.0119764380713403
3375.0,0.0119764380713403
3374.0,0.012021084124518078
3373.0,0.01215504982870197
3372.0,0.012289056869694281
3371.0,0.012333735073725371
3370.0,0.012333735073725371
3369.0,0.012333735073725371
3368.0,0.012423105273012602
3367.0,0.012512493866907004
3366.0,0.01260190086298274
3365.0,0.01260190086298274
3364.0,0.012512493866907004
3363.0,0.012378417874516323
3362.0,0.012289056869694281
3361.0,0.012333735073725371
3360.0,0.012333735073725371
3359.0,0.012289056869694281
3358.0,0.012244383261476699
3357.0,0.012244383261476699
3356.0,0.012378417874516323
3355.0,0.012512493866907004
3354.0,0.01260190086298274
3353.0,0.01260190086298274
3352.0,0.012557195064198723
3351.0,0.012467797270160563
3350.0,0.012378417874516323
3349.0,0.012378417874516323
3348.0,0.012467797270160563
3347.0,0.012557195064198723
3346.0,0.01264661126420652
3345.0,0.01260190086298274
3344.0,0.012467797270160563
3343.0,0.012333735073725371
3342.0,0.012289056869694281
3341.0,0.012289056869694281
3340.0,0.012289056869694281
3339.0,0.012289056869694281
3338.0,0.012289056869694281
3337.0,0.012289056869694281
3336.0,0.012244383261476699
3335.0,0.01215504982870197
3334.0,0.012110390002254778
3333.0,0.012110390002254778
3332.0,0.01215504982870197
3331.0,0.012199714248127602
3330.0,0.012244383261476699
3329.0,0.012199714248127602
3328.0,0.012199714248127602
3327.0,0.012199714248127602
3326.0,0.012244383261476699
3325.0,0.012244383261476699
3324.0,0.012199714248127602
3323.0,0.01215504982870197
3322.0,0.01215504982870197
3321.0,0.012110390002254778
3320.0,0.012065734767841452
3319.0,0.012021084124518078
3318.0,0.011931796607364653
3317.0,0.011931796607364653
3316.0,0.011931796607364653
3315.0,0.0119764380713403
3314.0,0.012021084124518078
3313.0,0.012110390002254778
3312.0,0.012199714248127602
3311.0,0.012244383261476699
3310.0,0.012244383261476699
3309.0,0.012199714248127602
3308.0,0.01215504982870197
3307.0,0.012110390002254778
3306.0,0.01215504982870197
3305.0,0.012199714248127602
3304.0,0.012199714248127602
3303.0,0.012110390002254778
3302.0,0.012021084124518078
3301.0,0.011931796607364653
3300.0,0.011887159731648111
3299.0,0.011797899741219142
3298.0,0.011753276624621556
3297.0,0.011708658092512314
3296.0,0.011753276624621556
3295.0,0.011842527443247208
3294.0,0.011887159731648111
3293.0,0.011887159731648111
3292.0,0.011842527443247208
3291.0,0.011708658092512314
3290.0,0.011574829993696856
3289.0,0.011574829993696856
3288.0,0.011664044143949504
3287.0,0.011842527443247208
3286.0,0.012021084124518078
3285.0,0.012065734767841452
3284.0,0.012021084124518078
3283.0,0.012021084124518078
3282.0,0.0119764380713403
3281.0,0.0119764380713403
3280.0,0.0119764380713403
3279.0,0.011887159731648111
3278.0,0.011842527443247208
3277.0,0.011753276624621556
3276.0,0.011708658092512314
3275.0,0.011708658092512314
3274.0,0.011753276624621556
3273.0,0.011842527443247208
3272.0,0.011887159731648111
3271.0,0.011931796607364653
3270.0,0.0119764380713403
3269.0,0.0119764380713403
3268.0,0.0119764380713403
3267.0,0.0119764380713403
3266.0,0.011887159731648111
3265.0,0.011753276624621556
3264.0,0.011708658092512314
3263.0,0.011708658092512314
3262.0,0.011708658092512314
3261.0,0.011753276624621556
3260.0,0.011708658092512314
3259.0,0.011619434777991433
3258.0,0.011574829993696856
3257.0,0.011530229790124524
3256.0,0.011530229790124524
3255.0,0.011574829993696856
3254.0,0.011530229790124524
3253.0,0.011396456654336085
3252.0,0.011262724711199823
3251.0,0.011218156546359825
3250.0,0.011307297450183107
3249.0,0.011396456654336085
3248.0,0.011396456654336085
3247.0,0.011262724711199823
3246.0,0.011129033935354915
3245.0,0.010995384301463185
3244.0,0.010995384301463185
3243.0,0.011084479487313281
3242.0,0.011218156546359825
3241.0,0.011307297450183107
3240.0,0.011351874764248926
3239.0,0.011396456654336085
3238.0,0.011396456654336085
3237.0,0.011396456654336085
3236.0,0.011441043121384498
3235.0,0.011485634166333858
3234.0,0.011485634166333858
3233.0,0.011441043121384498
3232.0,0.011396456654336085
3231.0,0.011396456654336085
3230.0,0.011396456654336085
3229.0,0.011351874764248926
3228.0,0.011307297450183107
3227.0,0.011262724711199823
3226.0,0.011218156546359825
3225.0,0.011262724711199823
3224.0,0.011262724711199823
3223.0,0.011307297450183107
3222.0,0.011351874764248926
3221.0,0.011351874764248926
3220.0,0.011307297450183107
3219.0,0.011262724711199823
3218.0,0.011218156546359825
3217.0,0.011218156546359825
3216.0,0.01117359295472431
3215.0,0.011084479487313281
3214.0,0.010950843561779777
3213.0,0.01086177578421088
3212.0,0.01086177578421088
3211.0,0.010995384301463185
3210.0,0.011129033935354915
3209.0,0.011218156546359825
3208.0,0.011262724711199823
3207.0,0.011307297450183107
3206.0,0.011307297450183107
3205.0,0.011262724711199823
3204.0,0.011218156546359825
3203.0,0.011084479487313281
3202.0,0.010995384301463185
3201.0,0.010995384301463185
3200.0,0.010995384301463185
3199.0,0.010950843561779777
3198.0,0.01086177578421088
3197.0,0.010817248744452446
3196.0,0.01086177578421088
3195.0,0.010995384301463185
3194.0,0.01117359295472431
3193.0,0.011307297450183107
3192.0,0.011307297450183107
3191.0,0.011218156546359825
3190.0,0.011039929609661936
3189.0,0.010817248744452446
3188.0,0.010728208358306901
3187.0,0.010728208358306901
3186.0,0.010728208358306901
3185.0,0.010728208358306901
3184.0,0.010728208358306901
3183.0,0.010683695010048622
3182.0,0.010594681998483901
3181.0,0.010505687227290839
3180.0,0.01037222925484893
3179.0,0.010194349063173958
3178.0,0.010105436281226954
3177.0,0.010060986715464404
3176.0,0.010105436281226954
3175.0,0.01023881228122181
3174.0,0.010327752376126709
3173.0,0.010416710688994968
3172.0,0.010416710688994968
3171.0,0.010327752376126709
3170.0,0.01023881228122181
3169.0,0.010060986715464404
3168.0,0.009883233932095559
3167.0,0.009838807101520963
3166.0,0.009838807101520963
3165.0,0.009838807101520963
3164.0,0.009794384815193347
3163.0,0.00974996707218323
3162.0,0.00974996707218323
3161.0,0.00974996707218323
3160.0,0.009794384815193347
3159.0,0.009794384815193347
3158.0,0.00974996707218323
3157.0,0.00974996707218323
3156.0,0.009705553871561357
3155.0,0.00974996707218323
3154.0,0.009794384815193347
3153.0,0.009838807101520963
3152.0,0.009883233932095559
3151.0,0.009794384815193347
3150.0,0.00966114521239847
3149.0,0.009572341514736404
3148.0,0.009572341514736404
3147.0,0.009616741093766423
3146.0,0.009616741093766423
3145.0,0.009572341514736404
3144.0,0.00939478857608056
3143.0,0.009261671492462709
3142.0,0.009217308196862062
3141.0,0.009172949432521227
3140.0,0.009128595198514056
3139.0,0.00908424549391551
3138.0,0.00908424549391551
3137.0,0.009128595198514056
3136.0,0.009217308196862062
3135.0,0.009217308196862062
3134.0,0.009128595198514056
3133.0,0.008995559669244813
3132.0,0.008862564879688284
3131.0,0.008773924307505121
3130.0,0.0087296108049002
3129.0,0.0087296108049002
3128.0,0.0087296108049002
3127.0,0.008640997362049818
3126.0,0.008552401996197112
3125.0,0.008419542825660153
3124.0,0.008375265465994541
3123.0,0.008330992620051436
3122.0,0.008286724286910463
3121.0,0.008242460465651913
3120.0,0.008198201155356077
3119.0,0.008198201155356077
3118.0,0.008198201155356077
3117.0,0.008198201155356077
3116.0,0.008153946355103248
3115.0,0.008109696063975047
3114.0,0.008021209005416363
3113.0,0.007976972236149349
3112.0,0.007932739972333236
3111.0,0.007976972236149349
3110.0,0.008021209005416363
3109.0,0.008065450281052211
3108.0,0.008021209005416363
3107.0,0.007932739972333236
3106.0,0.007800070204414977
3105.0,0.007711646202907652
3104.0,0.007711646202907652
3103.0,0.007711646202907652
3102.0,0.007711646202907652
3101.0,0.007711646202907652
3100.0,0.007711646202907652
3099.0,0.007711646202907652
3098.0,0.007667440952535687
3097.0,0.0075790439479759275
3096.0,0.007534852191956709
3095.0,0.007490664932224611
3094.0,0.007402303897961815
3093.0,0.007402303897961815
3092.0,0.007313960837872058
3091.0,0.007269796045857202
3090.0,0.007181479933320523
3089.0,0.007137328610972382
3088.0,0.007137328610972382
3087.0,0.007137328610972382
3086.0,0.007049039429553483
3085.0,0.007004901568658406
3084.0,0.006916639301937977
3083.0,0.006872514894289861
3082.0,0.006916639301937977
3081.0,0.006916639301937977
3080.0,0.006916639301937977
3079.0,0.006828394969235152
3078.0,0.006740168563263094
3077.0,0.006607862550997545
3076.0,0.00656376950238835
3075.0,0.00656376950238835
3074.0,0.00656376950238835
3073.0,0.006519680930003435
3072.0,0.006519680930003435
3071.0,0.006519680930003435
3070.0,0.006519680930003435
3069.0,0.006475596832934416
3068.0,0.006387442061109638
3067.0,0.006343371384537999
3066.0,0.006299305179649828
3065.0,0.006299305179649828
3064.0,0.006299305179649828
3063.0,0.006343371384537999
3062.0,0.006387442061109638
3061.0,0.006387442061109638
3060.0,0.006387442061109638
3059.0,0.006343371384537999
3058.0,0.006343371384537999
3057.0,0.006299305179649828
3056.0,0.00621118618129457
3055.0,0.00612308505878878
3054.0,0.005990966876386672
3053.0,0.005946936412324799
3052.0,0.005858888873877532
3051.0,0.005814871797682919
3050.0,0.005726851026829571
3049.0,0.005638848091999105
3048.0,0.005550862985963967
3047.0,0.005506877116487674
3046.0,0.005550862985963967
3045.0,0.005550862985963967
3044.0,0.005550862985963967
3043.0,0.005506877116487674
3042.0,0.005506877116487674
3041.0,0.005506877116487674
3040.0,0.005506877116487674
3039.0,0.005506877116487674
3038.0,0.00541891874010525
3037.0,0.0052870145684298375
3036.0,0.005243055412371911
3035.0,0.005243055412371911
3034.0,0.005243055412371911
3033.0,0.005243055412371911
3032.0,0.005199100705396198
3031.0,0.005199100705396198
3030.0,0.005243055412371911
3029.0,0.005243055412371911
3028.0,0.005243055412371911
3027.0,0.005243055412371911
3026.0,0.005243055412371911
3025.0,0.005199100705396198
3024.0,0.005155150446602086
3023.0,0.005111204635089406
3022.0,0.005067263269958211
3021.0,0.005023326350308999
3020.0,0.004979393875242044
3019.0,0.004979393875242044
3018.0,0.004935465843858511
3017.0,0.00489154225525934
3016.0,0.00484762310854614
3015.0,0.00484762310854614
3014.0,0.00489154225525934
3013.0,0.00489154225525934
3012.0,0.00484762310854614
3011.0,0.004759798137184523
3010.0,0.004671990922590297
3009.0,0.004671990922590297
3008.0,0.004671990922590297
3007.0,0.004671990922590297
3006.0,0.004628093971837721
3005.0,0.004671990922590297
3004.0,0.004803708402820517
3003.0,0.004935465843858511
3002.0,0.005111204635089406
3001.0,0.005243055412371911
3000.0,0.00537494623139545
2999.0,0.005506877116487674
2998.0,0.005638848091999105
2997.0,0.00577085918230158
2996.0,0.005858888873877532
2995.0,0.005990966876386672
2994.0,0.006079041198713275
2993.0,0.00621118618129457
2992.0,0.006475596832934416
2991.0,0.006828394969235152
2990.0,0.007225635744644521
2989.0,0.00762324020119709
2988.0,0.007976972236149349
2987.0,0.008463824699968647
2986.0,0.008995559669244813
2985.0,0.00966114521239847
2984.0,0.010416710688994968
2983.0,0.01117359295472431
2982.0,0.012021084124518078
2981.0,0.012914970375878188
2980.0,0.013945219230304673
2979.0,0.015157768594724175
2978.0,0.016554142658660398
2977.0,0.018271974638383703
2976.0,0.020315076172974234
2975.0,0.022688026603074007
2974.0,0.02539620791296726
2973.0,0.028353117935693284
2972.0,0.03151705144606498
2971.0,0.0349394793888016
2970.0,0.038721320914956836
2969.0,0.04282386959515394
2968.0,0.047352830241056854
2967.0,0.05212534510230182
2966.0,0.05709945885970602
2965.0,0.06218131530164395
2964.0,0.06696850489759454
2963.0,0.07129697256940304
2962.0,0.07489427319033615
2961.0,0.07758597585436577
2960.0,0.0794071379151915
2959.0,0.08066036321258663
2958.0,0.08170748724464438
2957.0,0.08296737783760655
2956.0,0.08475850269380558
2955.0,0.08719360733870762
2954.0,0.09012318200960712
2953.0,0.09312646527792956
2952.0,0.09566320779750503
2951.0,0.0972358560759139
2950.0,0.09734452478207412
2949.0,0.09582563171583658
2948.0,0.09269615116603047
2947.0,0.08825662214406838
2946.0,0.08286224724355584
2945.0,0.07711890879170658
2944.0,0.07155293679081787
2943.0,0.06661395809694559
2942.0,0.06263258248271053
2941.0,0.05978244440026481
2940.0,0.05809122563440061
2939.0,0.05749589383191922
2938.0,0.05789269101064454
2937.0,0.059135024033278416
2936.0,0.0611301784870133
2935.0,0.06378795567975115
2934.0,0.06706985716921054
2933.0,0.07093887591523451
2932.0,0.07525564752005143
2931.0,0.07992887570247587
2930.0,0.08486409337798806
2929.0,0.08990945440593179
2928.0,0.09496007192378841
2927.0,0.09990609845660159
2926.0,0.1047432468551055
2925.0,0.10941133229451272
2924.0,0.11407366019856902
2923.0,0.11878658374498086
2922.0,0.12343578601615435
2921.0,0.12784372725170723
2920.0,0.1318847946727828
2919.0,0.1350738084609946
2918.0,0.1370342410222376
2917.0,0.1373320497714121
2916.0,0.1360232160956132
2915.0,0.13341732293645103
2914.0,0.12994741830645506
2913.0,0.12621453918179926
2912.0,0.12262865413022594
2911.0,0.11941504393502012
2910.0,0.1165657063169907
2909.0,0.11396072443355765
2908.0,0.1114835389250548
2907.0,0.10907622851098608
2906.0,0.10662666975397506
2905.0,0.10408045468998406
2904.0,0.10138450258381404
2903.0,0.09865067458435761
2902.0,0.09587978652380036
2901.0,0.09307265269104414
2900.0,0.09033701484598189
2899.0,0.08767164203958999
2898.0,0.08502252755566908
2897.0,0.08249449044745338
2896.0,0.08018997982980403
2895.0,0.07810552907089763
2894.0,0.07628980560343712
2893.0,0.07473949048056472
2892.0,0.0734517753643813
2891.0,0.07247565912497134
2890.0,0.07175781684269089
2889.0,0.07124579782334672
2888.0,0.07093887591523451
2887.0,0.07073438174693436
2886.0,0.07068327324650436
2885.0,0.07073438174693436
2884.0,0.0709900145060387
2883.0,0.07145053299833615
2882.0,0.07211658966929302
2881.0,0.07293775650699996
2880.0,0.07376047895413773
2879.0,0.07448164182257
2878.0,0.07479107858799638
2877.0,0.07473949048056472
2876.0,0.07432700607875953
2875.0,0.07376047895413773
2874.0,0.07340034609297241
2873.0,0.07334892291111106
2872.0,0.07370901311513656
2871.0,0.07443009045662374
2870.0,0.07535895258283709
2869.0,0.07634157820669385
2868.0,0.07706704344478843
2867.0,0.07711890879170658
2866.0,0.07623803917129979
2865.0,0.07422394616325367
2864.0,0.07124579782334672
2863.0,0.06767846801070698
2862.0,0.06414020196211956
2861.0,0.06098022355133348
2860.0,0.05858795962645047
2859.0,0.057000406633959555
2858.0,0.05630767289398331
2857.0,0.05635711724787096
2856.0,0.0571489934456626
2855.0,0.058538260652670315
2854.0,0.06048074738138154
2853.0,0.0627329277885873
2852.0,0.06484555278383164
2851.0,0.06646209802829528
2850.0,0.06732334137759932
2849.0,0.06732334137759932
2848.0,0.06696850489759454
2847.0,0.0666645899223488
2846.0,0.06701917807680191
2845.0,0.06813548650796819
2844.0,0.07007043991541217
2843.0,0.07262963696097646
2842.0,0.07541061433058172
2841.0,0.07805354577058976
2840.0,0.08008551934056851
2839.0,0.08118360963962057
2838.0,0.08107890990866418
2837.0,0.07956359344924135
2836.0,0.07675598136972361
2835.0,0.07278366940873537
2834.0,0.0681862960408608
2833.0,0.06338573802478864
2832.0,0.058786812414678646
2831.0,0.05462990550969615
2830.0,0.05100054597304693
2829.0,0.04778894189133087
2828.0,0.04503426894157925
2827.0,0.04272802000705722
2826.0,0.04072004986906119
2825.0,0.03905380426616856
2824.0,0.03767802727041558
2823.0,0.03644826642590382
2822.0,0.035363296211498474
2821.0,0.03432802877989327
2820.0,0.03343591590268957
2819.0,0.03263926003405038
2818.0,0.03193753992355086
2817.0,0.03128362253321426
2816.0,0.03067729388779794
2815.0,0.030071810571884017
2814.0,0.029513651152349718
2813.0,0.029002634427514717
2812.0,0.028538594975413334
2811.0,0.02812138297373412
2810.0,0.027658283674251827
2809.0,0.02724191609646076
2808.0,0.02677975314776626
2807.0,0.026271941311972746
2806.0,0.025718641122169483
2805.0,0.02512002699306959
2804.0,0.024568191490736968
2803.0,0.024108863598207186
2802.0,0.023695883447997224
2801.0,0.023374947949272418
2800.0,0.023054249440757957
2799.0,0.022688026603074007
2798.0,0.022367834754000393
2797.0,0.02204787879853809
2796.0,0.021773818325474092
2795.0,0.021499930688540836
2794.0,0.021271822861508305
2793.0,0.021043834782408455
2792.0,0.02081596632558158
2791.0,0.020497151212598652
2790.0,0.020178569969774962
2789.0,0.019860222254245663
2788.0,0.01958753839310856
2787.0,0.019315025636685412
2786.0,0.019042683770379876
2785.0,0.018815862601645694
2784.0,0.01858915983411169
2783.0,0.01840788278591865
2782.0,0.018136109008649592
2781.0,0.017909760704207134
2780.0,0.01768353030793479
2779.0,0.017457417697056554
2778.0,0.01727661233145472
2777.0,0.017095882207371904
2776.0,0.016915227262211507
2775.0,0.01677978535189717
2774.0,0.016644385668211692
2773.0,0.016554142658660398
2772.0,0.016509028184833463
2771.0,0.016509028184833463
2770.0,0.016418813294209356
2769.0,0.01632861713980338
2768.0,0.016193358021584725
2767.0,0.016013078034810446
2766.0,0.015832872853011715
2765.0,0.015652742414136167
2764.0,0.01547268665620738
2763.0,0.015337693809893471
2762.0,0.015202742910707112
2761.0,0.015157768594724175
2760.0,0.015112798935672522
2759.0,0.015022873584506602
2758.0,0.014888020460646079
2757.0,0.014798141635428141
2756.0,0.014663358264387139
2755.0,0.014573525916998342
2754.0,0.0144837121472845
2753.0,0.014438812226654996
2752.0,0.014349026309051105
2751.0,0.014259258949925524
2750.0,0.014169510141607944
2749.0,0.014124642691606404
2748.0,0.014124642691606404
2747.0,0.014214382227394795
2746.0,0.014304140310157809
2745.0,0.014259258949925524
2744.0,0.014214382227394795
2743.0,0.014169510141607944
2742.0,0.014124642691606404
2741.0,0.014124642691606404
2740.0,0.014169510141607944
2739.0,0.014169510141607944
2738.0,0.014169510141607944
2737.0,0.014169510141607944
2736.0,0.014214382227394795
2735.0,0.014304140310157809
2734.0,0.014349026309051105
2733.0,0.014393916947563534
2732.0,0.014393916947563534
2731.0,0.0144837121472845
2730.0,0.014618439768003144
2729.0,0.014753209197138295
2728.0,0.014888020460646079
2727.0,0.015067833932588037
2726.0,0.015247721884586563
2725.0,0.015427684378367834
2724.0,0.015562705203923999
2723.0,0.015607721475734415
2722.0,0.015607721475734415
2721.0,0.015517693597737248
2720.0,0.01538268676325183
2719.0,0.015112798935672522
2718.0,0.014888020460646079
2717.0,0.014618439768003144
2716.0,0.014393916947563534
2715.0,0.014214382227394795
2714.0,0.013990068146738865
2713.0,0.01381070026317599
2712.0,0.01372104409400876
2711.0,0.013631406429727155
2710.0,0.013586594534531482
2709.0,0.013541787262693505
2708.0,0.013407393177789162
2707.0,0.013273040668781544
2706.0,0.013138729709955221
2705.0,0.013004460275618523
2704.0,0.012914970375878188
2703.0,0.012780770091995297
2702.0,0.01264661126420652
2701.0,0.012512493866907004
2700.0,0.012423105273012602
2699.0,0.012289056869694281
2698.0,0.012244383261476699
2697.0,0.012199714248127602
2696.0,0.012199714248127602
2695.0,0.012199714248127602
2694.0,0.012199714248127602
2693.0,0.012199714248127602
2692.0,0.012199714248127602
2691.0,0.01215504982870197
2690.0,0.01215504982870197
2689.0,0.01215504982870197
2688.0,0.012110390002254778
2687.0,0.012065734767841452
2686.0,0.0119764380713403
2685.0,0.011931796607364653
2684.0,0.0119764380713403
2683.0,0.012021084124518078
2682.0,0.012021084124518078
2681.0,0.012065734767841452
2680.0,0.012065734767841452
2679.0,0.012021084124518078
2678.0,0.012021084124518078
2677.0,0.0119764380713403
2676.0,0.011887159731648111
2675.0,0.011797899741219142
2674.0,0.011753276624621556
2673.0,0.011708658092512314
2672.0,0.011708658092512314
2671.0,0.011619434777991433
2670.0,0.011574829993696856
2669.0,0.011530229790124524
2668.0,0.011485634166333858
2667.0,0.011485634166333858
2666.0,0.011485634166333858
2665.0,0.011530229790124524
2664.0,0.011485634166333858
2663.0,0.011485634166333858
2662.0,0.011530229790124524
2661.0,0.011530229790124524
2660.0,0.011485634166333858
2659.0,0.011441043121384498
2658.0,0.011351874764248926
2657.0,0.011262724711199823
2656.0,0.011218156546359825
2655.0,0.01117359295472431
2654.0,0.01117359295472431
2653.0,0.011129033935354915
2652.0,0.011084479487313281
2651.0,0.011039929609661936
2650.0,0.010950843561779777
2649.0,0.01086177578421088
2648.0,0.01077272626946324
2647.0,0.010728208358306901
2646.0,0.01077272626946324
2645.0,0.01077272626946324
2644.0,0.010728208358306901
2643.0,0.010594681998483901
2642.0,0.01046119667949763
2641.0,0.01037222925484893
2640.0,0.010283280051895272
2639.0,0.01023881228122181
2638.0,0.010283280051895272
2637.0,0.010327752376126709
2636.0,0.01037222925484893
2635.0,0.010327752376126709
2634.0,0.01023881228122181
2633.0,0.010194349063173958
2632.0,0.010149890396819572
2631.0,0.010149890396819572
2630.0,0.010105436281226954
2629.0,0.010060986715464404
2628.0,0.009972101229705377
2627.0,0.009927665307847056
2626.0,0.009927665307847056
2625.0,0.009972101229705377
2624.0,0.01001654169860089
2623.0,0.010060986715464404
2622.0,0.010105436281226954
2621.0,0.010194349063173958
2620.0,0.01023881228122181
2619.0,0.010283280051895272
2618.0,0.01023881228122181
2617.0,0.010194349063173958
2616.0,0.010149890396819572
2615.0,0.010105436281226954
2614.0,0.010060986715464404
2613.0,0.010060986715464404
2612.0,0.010105436281226954
2611.0,0.010060986715464404
2610.0,0.01001654169860089
2609.0,0.009927665307847056
2608.0,0.009838807101520963
2607.0,0.009794384815193347
2606.0,0.00974996707218323
2605.0,0.00966114521239847
2604.0,0.009527946474380489
2603.0,0.00939478857608056
2602.0,0.009306039320248427
2601.0,0.009261671492462709
2600.0,0.009261671492462709
2599.0,0.009261671492462709
2598.0,0.009261671492462709
2597.0,0.009306039320248427
2596.0,0.009306039320248427
2595.0,0.009306039320248427
2594.0,0.009217308196862062
2593.0,0.009172949432521227
2592.0,0.009128595198514056
2591.0,0.009217308196862062
2590.0,0.00939478857608056
2589.0,0.009527946474380489
2588.0,0.009616741093766423
2587.0,0.00966114521239847
2586.0,0.00966114521239847
2585.0,0.009705553871561357
2584.0,0.009794384815193347
2583.0,0.009838807101520963
2582.0,0.009838807101520963
2581.0,0.009794384815193347
2580.0,0.009705553871561357
2579.0,0.009616741093766423
2578.0,0.009527946474380489
2577.0,0.009483555971770974
2576.0,0.009439170005980158
2575.0,0.00939478857608056
2574.0,0.009306039320248427
2573.0,0.009172949432521227
2572.0,0.00908424549391551
2571.0,0.008995559669244813
2570.0,0.008951223547323472
2569.0,0.008951223547323472
2568.0,0.008906891951112605
2567.0,0.008818242332126802
2566.0,0.008773924307505121
2565.0,0.0087296108049002
2564.0,0.008685301823389224
2563.0,0.008596697419959609
2562.0,0.008552401996197112
2561.0,0.00850811108984062
2560.0,0.008463824699968647
2559.0,0.008419542825660153
2558.0,0.008375265465994541
2557.0,0.008375265465994541
2556.0,0.008419542825660153
2555.0,0.008463824699968647
2554.0,0.00850811108984062
2553.0,0.008463824699968647
2552.0,0.008419542825660153
2551.0,0.008330992620051436
2550.0,0.008242460465651913
2549.0,0.008198201155356077
2548.0,0.008242460465651913
2547.0,0.008286724286910463
2546.0,0.008242460465651913
2545.0,0.008198201155356077
2544.0,0.008109696063975047
2543.0,0.008065450281052211
2542.0,0.008021209005416363
2541.0,0.008021209005416363
2540.0,0.007932739972333236
2539.0,0.007888512213050314
2538.0,0.007800070204414977
2537.0,0.007755855953228474
2536.0,0.007711646202907652
2535.0,0.007667440952535687
2534.0,0.007711646202907652
2533.0,0.007800070204414977
2532.0,0.007888512213050314
2531.0,0.007932739972333236
2530.0,0.007932739972333236
2529.0,0.007844288957383316
2528.0,0.007800070204414977
2527.0,0.007800070204414977
2526.0,0.007800070204414977
2525.0,0.007800070204414977
2524.0,0.007800070204414977
2523.0,0.007755855953228474
2522.0,0.007755855953228474
2521.0,0.007800070204414977
2520.0,0.007755855953228474
2519.0,0.007711646202907652
2518.0,0.0075790439479759275
2517.0,0.0074464821678643656
2516.0,0.007358130121602358
2515.0,0.007358130121602358
2514.0,0.007358130121602358
2513.0,0.007358130121602358
2512.0,0.007358130121602358
2511.0,0.007358130121602358
2510.0,0.007358130121602358
2509.0,0.007402303897961815
2508.0,0.007402303897961815
2507.0,0.007358130121602358
2506.0,0.007269796045857202
2505.0,0.007225635744644521
2504.0,0.007181479933320523
2503.0,0.007137328610972382
2502.0,0.007137328610972382
2501.0,0.007137328610972382
2500.0,0.007093181776687496
2499.0,0.007049039429553483
2498.0,0.007093181776687496
2497.0,0.007137328610972382
2496.0,0.007225635744644521
2495.0,0.007269796045857202
2494.0,0.007313960837872058
2493.0,0.007313960837872058
2492.0,0.007313960837872058
2491.0,0.007269796045857202
2490.0,0.007269796045857202
2489.0,0.007225635744644521
2488.0,0.007181479933320523
2487.0,0.007093181776687496
2486.0,0.007049039429553483
2485.0,0.007004901568658406
2484.0,0.007004901568658406
2483.0,0.007004901568658406
2482.0,0.007004901568658406
2481.0,0.00696076819309055
2480.0,0.00696076819309055
2479.0,0.006916639301937977
2478.0,0.006916639301937977
2477.0,0.006872514894289861
2476.0,0.006828394969235152
2475.0,0.006740168563263094
2474.0,0.006696062080525422
2473.0,0.006651960076740071
2472.0,0.006651960076740071
2471.0,0.006651960076740071
2470.0,0.006651960076740071
2469.0,0.006696062080525422
2468.0,0.006740168563263094
2467.0,0.006740168563263094
2466.0,0.006740168563263094
2465.0,0.006740168563263094
2464.0,0.006740168563263094
2463.0,0.006740168563263094
2462.0,0.006784279525863024
2461.0,0.006828394969235152
2460.0,0.006828394969235152
2459.0,0.006784279525863024
2458.0,0.006740168563263094
2457.0,0.006740168563263094
2456.0,0.006740168563263094
2455.0,0.006740168563263094
2454.0,0.006740168563263094
2453.0,0.006784279525863024
2452.0,0.006784279525863024
2451.0,0.006740168563263094
2450.0,0.006696062080525422
2449.0,0.006607862550997545
2448.0,0.00656376950238835
2447.0,0.00656376950238835
2446.0,0.006651960076740071
2445.0,0.006696062080525422
2444.0,0.006740168563263094
2443.0,0.006740168563263094
2442.0,0.006696062080525422
2441.0,0.006651960076740071
2440.0,0.006651960076740071
2439.0,0.006651960076740071
2438.0,0.006651960076740071
2437.0,0.006651960076740071
2436.0,0.006696062080525422
2435.0,0.006696062080525422
2434.0,0.006740168563263094
2433.0,0.006696062080525422
2432.0,0.006651960076740071
2431.0,0.006607862550997545
2430.0,0.006607862550997545
2429.0,0.006651960076740071
2428.0,0.006696062080525422
2427.0,0.006784279525863024
2426.0,0.006828394969235152
2425.0,0.006784279525863024
2424.0,0.006740168563263094
2423.0,0.006651960076740071
2422.0,0.006651960076740071
2421.0,0.006607862550997545
2420.0,0.00656376950238835
2419.0,0.006519680930003435
2418.0,0.006519680930003435
2417.0,0.006519680930003435
2416.0,0.00656376950238835
2415.0,0.00656376950238835
2414.0,0.00656376950238835
2413.0,0.00656376950238835
2412.0,0.006519680930003435
2411.0,0.006475596832934416
2410.0,0.006475596832934416
2409.0,0.006475596832934416
2408.0,0.006519680930003435
2407.0,0.00656376950238835
2406.0,0.006607862550997545
2405.0,0.006607862550997545
2404.0,0.00656376950238835
2403.0,0.006519680930003435
2402.0,0.006475596832934416
2401.0,0.006475596832934416
2400.0,0.006475596832934416
2399.0,0.006475596832934416
2398.0,0.006475596832934416
2397.0,0.006475596832934416
2396.0,0.006387442061109638
2395.0,0.006299305179649828
2394.0,0.006299305179649828
2393.0,0.006343371384537999
2392.0,0.006431517210272464
2391.0,0.006475596832934416
2390.0,0.006475596832934416
2389.0,0.006431517210272464
2388.0,0.006343371384537999
2387.0,0.006299305179649828
2386.0,0.00621118618129457
2385.0,0.00612308505878878
2384.0,0.006035001804881146
2383.0,0.00590291041179003
2382.0,0.005726851026829571
2381.0,0.005594853310833647
2380.0,0.005506877116487674
2379.0,0.00541891874010525
2378.0,0.005243055412371911
2377.0,0.005111204635089406
2376.0,0.004979393875242044
2375.0,0.004803708402820517
2374.0,0.004540313378935901
2373.0,0.004320939488377862
2372.0,0.0043648054024501
2371.0,0.004628093971837721
2370.0,0.00489154225525934
2369.0,0.004715892310740433
2368.0,0.004189368323957332
2367.0,0.0038387066319929275
2366.0,0.00401400208620073
2365.0,0.004540313378935901
2364.0,0.005023326350308999
2363.0,0.005243055412371911
2362.0,0.005199100705396198
2361.0,0.004979393875242044
2360.0,0.004715892310740433
2359.0,0.0043648054024501
2358.0,0.004101676353562844
2357.0,0.00401400208620073
2356.0,0.0040578370074493275
2355.0,0.0043648054024501
2354.0,0.00484762310854614
2353.0,0.005330978174470591
2352.0,0.005638848091999105
2351.0,0.005594853310833647
2350.0,0.005330978174470591
2349.0,0.004935465843858511
2348.0,0.004671990922590297
2347.0,0.004540313378935901
2346.0,0.004671990922590297
2345.0,0.004935465843858511
2344.0,0.004935465843858511
2343.0,0.004715892310740433
2342.0,0.004540313378935901
2341.0,0.0044964297349936455
2340.0,0.004452550524862486
2339.0,0.0043648054024501
2338.0,0.004233220950025984
2337.0,0.004101676353562844
2336.0,0.0038825238627120395
2335.0,0.0036634819042162814
2334.0,0.0036634819042162814
2333.0,0.003926345514724705
2332.0,0.0043648054024501
2331.0,0.004715892310740433
2330.0,0.00489154225525934
2329.0,0.00484762310854614
2328.0,0.004671990922590297
2327.0,0.004540313378935901
2326.0,0.0044964297349936455
2325.0,0.004540313378935901
2324.0,0.004540313378935901
2323.0,0.0043648054024501
2322.0,0.004101676353562844
2321.0,0.003970171588923321
2320.0,0.00401400208620073
2319.0,0.004277078004534696
2318.0,0.004540313378935901
2317.0,0.004759798137184523
2316.0,0.00489154225525934
2315.0,0.004935465843858511
2314.0,0.004935465843858511
2313.0,0.004935465843858511
2312.0,0.004935465843858511
2311.0,0.004935465843858511
2310.0,0.00489154225525934
2309.0,0.00484762310854614
2308.0,0.00484762310854614
2307.0,0.004979393875242044
2306.0,0.005111204635089406
2305.0,0.005199100705396198
2304.0,0.005243055412371911
2303.0,0.005243055412371911
2302.0,0.005243055412371911
2301.0,0.005243055412371911
2300.0,0.005243055412371911
2299.0,0.005243055412371911
2298.0,0.005243055412371911
2297.0,0.0052870145684298375
2296.0,0.00537494623139545
2295.0,0.00541891874010525
2294.0,0.005462895701502157
2293.0,0.005506877116487674
2292.0,0.005506877116487674
2291.0,0.005462895701502157
2290.0,0.005462895701502157
2289.0,0.005462895701502157
2288.0,0.005550862985963967
2287.0,0.005682847330363394
2286.0,0.00577085918230158
2285.0,0.005814871797682919
2284.0,0.00577085918230158
2283.0,0.005682847330363394
2282.0,0.005638848091999105
2281.0,0.005638848091999105
2280.0,0.005682847330363394
2279.0,0.005726851026829571
2278.0,0.00577085918230158
2277.0,0.00577085918230158
2276.0,0.00577085918230158
2275.0,0.00577085918230158
2274.0,0.005814871797682919
2273.0,0.005858888873877532
2272.0,0.00590291041179003
2271.0,0.005946936412324799
2270.0,0.005946936412324799
2269.0,0.005946936412324799
2268.0,0.005946936412324799
2267.0,0.00590291041179003
2266.0,0.005946936412324799
2265.0,0.005946936412324799
2264.0,0.00590291041179003
2263.0,0.00590291041179003
2262.0,0.00590291041179003
2261.0,0.00590291041179003
2260.0,0.005858888873877532
2259.0,0.005814871797682919
2258.0,0.005858888873877532
2257.0,0.00590291041179003
2256.0,0.005946936412324799
2255.0,0.005990966876386672
2254.0,0.005990966876386672
2253.0,0.005946936412324799
2252.0,0.005946936412324799
2251.0,0.005946936412324799
2250.0,0.005946936412324799
2249.0,0.005946936412324799
2248.0,0.00590291041179003
2247.0,0.005858888873877532
2246.0,0.005858888873877532
2245.0,0.005858888873877532
2244.0,0.00590291041179003
2243.0,0.00590291041179003
2242.0,0.00590291041179003
2241.0,0.005814871797682919
2240.0,0.00577085918230158
2239.0,0.005682847330363394
2238.0,0.005682847330363394
2237.0,0.005682847330363394
2236.0,0.005682847330363394
2235.0,0.005726851026829571
2234.0,0.005726851026829571
2233.0,0.00577085918230158
2232.0,0.005814871797682919
2231.0,0.005814871797682919
2230.0,0.005814871797682919
2229.0,0.00577085918230158
2228.0,0.00577085918230158
2227.0,0.005814871797682919
2226.0,0.005858888873877532
2225.0,0.005946936412324799
2224.0,0.005990966876386672
2223.0,0.006035001804881146
2222.0,0.006035001804881146
2221.0,0.006035001804881146
2220.0,0.006079041198713275
2219.0,0.006035001804881146
2218.0,0.005990966876386672
2217.0,0.00590291041179003
2216.0,0.00577085918230158
2215.0,0.005638848091999105
2214.0,0.005594853310833647
2213.0,0.005638848091999105
2212.0,0.005682847330363394
2211.0,0.00577085918230158
2210.0,0.00590291041179003
2209.0,0.005946936412324799
2208.0,0.00590291041179003
2207.0,0.005858888873877532
2206.0,0.005814871797682919
2205.0,0.00577085918230158
2204.0,0.00577085918230158
2203.0,0.00577085918230158
2202.0,0.005814871797682919
2201.0,0.005814871797682919
2200.0,0.00577085918230158
2199.0,0.005726851026829571
2198.0,0.005726851026829571
2197.0,0.00577085918230158
2196.0,0.005858888873877532
2195.0,0.005946936412324799
2194.0,0.005990966876386672
2193.0,0.005990966876386672
2192.0,0.005946936412324799
2191.0,0.00590291041179003
2190.0,0.00590291041179003
2189.0,0.00590291041179003
2188.0,0.00590291041179003
2187.0,0.00590291041179003
2186.0,0.00590291041179003
2185.0,0.00590291041179003
2184.0,0.00590291041179003
2183.0,0.00590291041179003
2182.0,0.005946936412324799
2181.0,0.005946936412324799
2180.0,0.00590291041179003
2179.0,0.00590291041179003
2178.0,0.00590291041179003
2177.0,0.005946936412324799
2176.0,0.005990966876386672
2175.0,0.005946936412324799
2174.0,0.005946936412324799
2173.0,0.005946936412324799
2172.0,0.00590291041179003
2171.0,0.005858888873877532
2170.0,0.005858888873877532
2169.0,0.005858888873877532
2168.0,0.005946936412324799
2167.0,0.006035001804881146
2166.0,0.006079041198713275
2165.0,0.006079041198713275
2164.0,0.006035001804881146
2163.0,0.005946936412324799
2162.0,0.005858888873877532
2161.0,0.00577085918230158
2160.0,0.00577085918230158
2159.0,0.00577085918230158
2158.0,0.005814871797682919
2157.0,0.005814871797682919
2156.0,0.005814871797682919
2155.0,0.00577085918230158
2154.0,0.005726851026829571
2153.0,0.005726851026829571
2152.0,0.00577085918230158
2151.0,0.00577085918230158
2150.0,0.00577085918230158
2149.0,0.00577085918230158
2148.0,0.005726851026829571
2147.0,0.005726851026829571
2146.0,0.005682847330363394
2145.0,0.005726851026829571
2144.0,0.005726851026829571
2143.0,0.005726851026829571
2142.0,0.005726851026829571
2141.0,0.005682847330363394
2140.0,0.005638848091999105
2139.0,0.005638848091999105
2138.0,0.005638848091999105
2137.0,0.005638848091999105
2136.0,0.005594853310833647
2135.0,0.005638848091999105
2134.0,0.005682847330363394
2133.0,0.005726851026829571
2132.0,0.00577085918230158
2131.0,0.005726851026829571
2130.0,0.005682847330363394
2129.0,0.005638848091999105
2128.0,0.005638848091999105
2127.0,0.005594853310833647
2126.0,0.005594853310833647
2125.0,0.005550862985963967
2124.0,0.005550862985963967
2123.0,0.005550862985963967
2122.0,0.005550862985963967
2121.0,0.005550862985963967
2120.0,0.005506877116487674
2119.0,0.005506877116487674
2118.0,0.005462895701502157
2117.0,0.005462895701502157
2116.0,0.00541891874010525
2115.0,0.00537494623139545
2114.0,0.00537494623139545
2113.0,0.005330978174470591
2112.0,0.00537494623139545
2111.0,0.00541891874010525
2110.0,0.005462895701502157
2109.0,0.005506877116487674
2108.0,0.005550862985963967
2107.0,0.005550862985963967
2106.0,0.005550862985963967
2105.0,0.005550862985963967
2104.0,0.005594853310833647
2103.0,0.005638848091999105
2102.0,0.005682847330363394
2101.0,0.005638848091999105
2100.0,0.005638848091999105
2099.0,0.005594853310833647
2098.0,0.005594853310833647
2097.0,0.005594853310833647
2096.0,0.005638848091999105
2095.0,0.005594853310833647
2094.0,0.005594853310833647
2093.0,0.005594853310833647
2092.0,0.005550862985963967
2091.0,0.005550862985963967
2090.0,0.005506877116487674
2089.0,0.005506877116487674
2088.0,0.005462895701502157
2087.0,0.005506877116487674
2086.0,0.005550862985963967
2085.0,0.005594853310833647
2084.0,0.005594853310833647
2083.0,0.005550862985963967
2082.0,0.005506877116487674
2081.0,0.005462895701502157
2080.0,0.005462895701502157
2079.0,0.005462895701502157
2078.0,0.005506877116487674
2077.0,0.005550862985963967
2076.0,0.005550862985963967
2075.0,0.005550862985963967
2074.0,0.005506877116487674
2073.0,0.005506877116487674
2072.0,0.005462895701502157
2071.0,0.005462895701502157
2070.0,0.005462895701502157
2069.0,0.005462895701502157
2068.0,0.00541891874010525
2067.0,0.00537494623139545
2066.0,0.00537494623139545
2065.0,0.00537494623139545
2064.0,0.005462895701502157
2063.0,0.005506877116487674
2062.0,0.005506877116487674
2061.0,0.005506877116487674
2060.0,0.005462895701502157
2059.0,0.005462895701502157
2058.0,0.00541891874010525
2057.0,0.00541891874010525
2056.0,0.00541891874010525
2055.0,0.00541891874010525
2054.0,0.00541891874010525
2053.0,0.005462895701502157
2052.0,0.005462895701502157
2051.0,0.005462895701502157
2050.0,0.005462895701502157
2049.0,0.005462895701502157
2048.0,0.005506877116487674
2047.0,0.005506877116487674
2046.0,0.005550862985963967
2045.0,0.005550862985963967
2044.0,0.005594853310833647
2043.0,0.005638848091999105
2042.0,0.005638848091999105
2041.0,0.005638848091999105
2040.0,0.005638848091999105
2039.0,0.005594853310833647
2038.0,0.005550862985963967
2037.0,0.005506877116487674
2036.0,0.005506877116487674
2035.0,0.005506877116487674
2034.0,0.005550862985963967
2033.0,0.005638848091999105
2032.0,0.005682847330363394
2031.0,0.005682847330363394
2030.0,0.005682847330363394
2029.0,0.005638848091999105
2028.0,0.005594853310833647
2027.0,0.005550862985963967
2026.0,0.005462895701502157
2025.0,0.00541891874010525
2024.0,0.00541891874010525
2023.0,0.005462895701502157
2022.0,0.005506877116487674
2021.0,0.005594853310833647
2020.0,0.005638848091999105
2019.0,0.005682847330363394
2018.0,0.005682847330363394
2017.0,0.005682847330363394
2016.0,0.005638848091999105
2015.0,0.005550862985963967
2014.0,0.005506877116487674
2013.0,0.005462895701502157
2012.0,0.005462895701502157
2011.0,0.00541891874010525
2010.0,0.00541891874010525
2009.0,0.00537494623139545
2008.0,0.00537494623139545
2007.0,0.00537494623139545
2006.0,0.00537494623139545
2005.0,0.00537494623139545
2004.0,0.00537494623139545
2003.0,0.00537494623139545
2002.0,0.00537494623139545
2001.0,0.005330978174470591
2000.0,0.005243055412371911
1999.0,0.005199100705396198
1998.0,0.005199100705396198
1997.0,0.005243055412371911
1996.0,0.0052870145684298375
1995.0,0.005330978174470591
1994.0,0.005462895701502157
1993.0,0.005550862985963967
1992.0,0.005638848091999105
1991.0,0.005682847330363394
1990.0,0.005682847330363394
1989.0,0.005638848091999105
1988.0,0.005594853310833647
1987.0,0.005550862985963967
1986.0,0.005506877116487674
1985.0,0.005462895701502157
1984.0,0.005462895701502157
1983.0,0.005506877116487674
1982.0,0.005506877116487674
1981.0,0.005506877116487674
1980.0,0.00541891874010525
1979.0,0.00537494623139545
1978.0,0.00537494623139545
1977.0,0.00537494623139545
1976.0,0.00537494623139545
1975.0,0.00537494623139545
1974.0,0.005330978174470591
1973.0,0.005330978174470591
1972.0,0.005330978174470591
1971.0,0.0052870145684298375
1970.0,0.005243055412371911
1969.0,0.005199100705396198
1968.0,0.005243055412371911
1967.0,0.0052870145684298375
1966.0,0.005330978174470591
1965.0,0.005330978174470591
1964.0,0.00537494623139545
1963.0,0.00541891874010525
1962.0,0.00541891874010525
1961.0,0.00541891874010525
1960.0,0.00541891874010525
1959.0,0.00537494623139545
1958.0,0.0052870145684298375
1957.0,0.005243055412371911
1956.0,0.005199100705396198
1955.0,0.005243055412371911
1954.0,0.0052870145684298375
1953.0,0.005330978174470591
1952.0,0.0052870145684298375
1951.0,0.005243055412371911
1950.0,0.005155150446602086
1949.0,0.005155150446602086
1948.0,0.005199100705396198
1947.0,0.0052870145684298375
1946.0,0.00537494623139545
1945.0,0.00541891874010525
1944.0,0.00537494623139545
1943.0,0.0052870145684298375
1942.0,0.005243055412371911
1941.0,0.005243055412371911
1940.0,0.0052870145684298375
1939.0,0.005330978174470591
1938.0,0.005330978174470591
1937.0,0.0052870145684298375
1936.0,0.0052870145684298375
1935.0,0.0052870145684298375
1934.0,0.0052870145684298375
1933.0,0.005199100705396198
1932.0,0.005199100705396198
1931.0,0.005199100705396198
1930.0,0.005199100705396198
1929.0,0.005199100705396198
1928.0,0.005199100705396198
1927.0,0.005199100705396198
1926.0,0.005155150446602086
1925.0,0.005111204635089406
1924.0,0.005111204635089406
1923.0,0.005155150446602086
1922.0,0.005199100705396198
1921.0,0.005199100705396198
1920.0,0.005199100705396198
1919.0,0.005243055412371911
1918.0,0.0052870145684298375
1917.0,0.0052870145684298375
1916.0,0.0052870145684298375
1915.0,0.0052870145684298375
1914.0,0.0052870145684298375
1913.0,0.0052870145684298375
1912.0,0.0052870145684298375
1911.0,0.005243055412371911
1910.0,0.005243055412371911
1909.0,0.005243055412371911
1908.0,0.005243055412371911
1907.0,0.005243055412371911
1906.0,0.005243055412371911
1905.0,0.005243055412371911
1904.0,0.005243055412371911
1903.0,0.0052870145684298375
1902.0,0.00537494623139545
1901.0,0.00541891874010525
1900.0,0.00541891874010525
1899.0,0.00537494623139545
1898.0,0.005330978174470591
1897.0,0.0052870145684298375
1896.0,0.005243055412371911
1895.0,0.005243055412371911
1894.0,0.005243055412371911
1893.0,0.0052870145684298375
1892.0,0.0052870145684298375
1891.0,0.0052870145684298375
1890.0,0.005330978174470591
1889.0,0.005330978174470591
1888.0,0.005330978174470591
1887.0,0.0052870145684298375
1886.0,0.0052870145684298375
1885.0,0.0052870145684298375
1884.0,0.0052870145684298375
1883.0,0.0052870145684298375
1882.0,0.005243055412371911
1881.0,0.005199100705396198
1880.0,0.005199100705396198
1879.0,0.005155150446602086
1878.0,0.005155150446602086
1877.0,0.005155150446602086
1876.0,0.005155150446602086
1875.0,0.005155150446602086
1874.0,0.005155150446602086
1873.0,0.005111204635089406
1872.0,0.005023326350308999
1871.0,0.00489154225525934
1870.0,0.00489154225525934
1869.0,0.004979393875242044
1868.0,0.005111204635089406
1867.0,0.005155150446602086
1866.0,0.005243055412371911
1865.0,0.0052870145684298375
1864.0,0.005243055412371911
1863.0,0.005199100705396198
1862.0,0.005067263269958211
1861.0,0.005023326350308999
1860.0,0.004979393875242044
1859.0,0.004979393875242044
1858.0,0.004979393875242044
1857.0,0.005023326350308999
1856.0,0.005067263269958211
1855.0,0.005111204635089406
1854.0,0.005155150446602086
1853.0,0.005199100705396198
1852.0,0.005155150446602086
1851.0,0.005155150446602086
1850.0,0.005155150446602086
1849.0,0.005155150446602086
1848.0,0.005199100705396198
1847.0,0.005243055412371911
1846.0,0.0052870145684298375
1845.0,0.0052870145684298375
1844.0,0.0052870145684298375
1843.0,0.005243055412371911
1842.0,0.005243055412371911
1841.0,0.005243055412371911
1840.0,0.005199100705396198
1839.0,0.005111204635089406
1838.0,0.005023326350308999
1837.0,0.005067263269958211
1836.0,0.005155150446602086
1835.0,0.005199100705396198
1834.0,0.005199100705396198
1833.0,0.005155150446602086
1832.0,0.005155150446602086
1831.0,0.005111204635089406
1830.0,0.005067263269958211
1829.0,0.005023326350308999
1828.0,0.005023326350308999
1827.0,0.005067263269958211
1826.0,0.005067263269958211
1825.0,0.005067263269958211
1824.0,0.005023326350308999
1823.0,0.004979393875242044
1822.0,0.004935465843858511
1821.0,0.00489154225525934
1820.0,0.00489154225525934
1819.0,0.00489154225525934
1818.0,0.00489154225525934
1817.0,0.004935465843858511
1816.0,0.00489154225525934
1815.0,0.00484762310854614
1814.0,0.004803708402820517
1813.0,0.004803708402820517
1812.0,0.004803708402820517
1811.0,0.004759798137184523
1810.0,0.004759798137184523
1809.0,0.004803708402820517
1808.0,0.004803708402820517
1807.0,0.004803708402820517
1806.0,0.004759798137184523
1805.0,0.004715892310740433
1804.0,0.004671990922590297
1803.0,0.004671990922590297
1802.0,0.004759798137184523
1801.0,0.00484762310854614
1800.0,0.004935465843858511
1799.0,0.00489154225525934
1798.0,0.004803708402820517
1797.0,0.004715892310740433
1796.0,0.004671990922590297
1795.0,0.004671990922590297
1794.0,0.004715892310740433
1793.0,0.00489154225525934
1792.0,0.005023326350308999
1791.0,0.005023326350308999
1790.0,0.004979393875242044
1789.0,0.004935465843858511
1788.0,0.004935465843858511
1787.0,0.004979393875242044
1786.0,0.005023326350308999
1785.0,0.005067263269958211
1784.0,0.005067263269958211
1783.0,0.005023326350308999
1782.0,0.005023326350308999
1781.0,0.004979393875242044
1780.0,0.004979393875242044
1779.0,0.004979393875242044
1778.0,0.004935465843858511
1777.0,0.004935465843858511
1776.0,0.004935465843858511
1775.0,0.00489154225525934
1774.0,0.00484762310854614
1773.0,0.004803708402820517
1772.0,0.004803708402820517
1771.0,0.00484762310854614
1770.0,0.004979393875242044
1769.0,0.005111204635089406
1768.0,0.005199100705396198
1767.0,0.005199100705396198
1766.0,0.005155150446602086
1765.0,0.005155150446602086
1764.0,0.005199100705396198
1763.0,0.005243055412371911
1762.0,0.005243055412371911
1761.0,0.005243055412371911
1760.0,0.005243055412371911
1759.0,0.005330978174470591
1758.0,0.00541891874010525
1757.0,0.005550862985963967
1756.0,0.005682847330363394
1755.0,0.00577085918230158
1754.0,0.005858888873877532
1753.0,0.005990966876386672
1752.0,0.00612308505878878
1751.0,0.006299305179649828
1750.0,0.006519680930003435
1749.0,0.006696062080525422
1748.0,0.006828394969235152
1747.0,0.006916639301937977
1746.0,0.00696076819309055
1745.0,0.00696076819309055
1744.0,0.007004901568658406
1743.0,0.007004901568658406
1742.0,0.00696076819309055
1741.0,0.006916639301937977
1740.0,0.006872514894289861
1739.0,0.006872514894289861
1738.0,0.006872514894289861
1737.0,0.006916639301937977
1736.0,0.006916639301937977
1735.0,0.006872514894289861
1734.0,0.006916639301937977
1733.0,0.006872514894289861
1732.0,0.006828394969235152
1731.0,0.006916639301937977
1730.0,0.00696076819309055
1729.0,0.00696076819309055
1728.0,0.006872514894289861
1727.0,0.006828394969235152
1726.0,0.006784279525863024
1725.0,0.006784279525863024
1724.0,0.006872514894289861
1723.0,0.006872514894289861
1722.0,0.006872514894289861
1721.0,0.006872514894289861
1720.0,0.006828394969235152
1719.0,0.006696062080525422
1718.0,0.00656376950238835
1717.0,0.006519680930003435
1716.0,0.00656376950238835
1715.0,0.006651960076740071
1714.0,0.006828394969235152
1713.0,0.00696076819309055
1712.0,0.007004901568658406
1711.0,0.00696076819309055
1710.0,0.006872514894289861
1709.0,0.006828394969235152
1708.0,0.006828394969235152
1707.0,0.006784279525863024
1706.0,0.006784279525863024
1705.0,0.006784279525863024
1704.0,0.006784279525863024
1703.0,0.006828394969235152
1702.0,0.006784279525863024
1701.0,0.006784279525863024
1700.0,0.006740168563263094
1699.0,0.006607862550997545
1698.0,0.006651960076740071
1697.0,0.006916639301937977
1696.0,0.007137328610972382
1695.0,0.007137328610972382
1694.0,0.007093181776687496
1693.0,0.007093181776687496
1692.0,0.007049039429553483
1691.0,0.00696076819309055
1690.0,0.007004901568658406
1689.0,0.007137328610972382
1688.0,0.007313960837872058
1687.0,0.007358130121602358
1686.0,0.007358130121602358
1685.0,0.0074464821678643656
1684.0,0.007711646202907652
1683.0,0.007755855953228474
1682.0,0.007800070204414977
1681.0,0.007932739972333236
1680.0,0.007976972236149349
1679.0,0.008021209005416363
1678.0,0.008021209005416363
1677.0,0.008065450281052211
1676.0,0.008153946355103248
1675.0,0.008242460465651913
1674.0,0.008286724286910463
1673.0,0.008330992620051436
1672.0,0.008375265465994541
1671.0,0.00850811108984062
1670.0,0.008685301823389224
1669.0,0.008862564879688284
1668.0,0.008906891951112605
1667.0,0.008906891951112605
1666.0,0.008906891951112605
1665.0,0.008906891951112605
1664.0,0.008951223547323472
1663.0,0.009128595198514056
1662.0,0.009261671492462709
1661.0,0.009306039320248427
1660.0,0.009350411681145587
1659.0,0.009350411681145587
1658.0,0.009306039320248427
1657.0,0.009306039320248427
1656.0,0.009350411681145587
1655.0,0.009439170005980158
1654.0,0.009794384815193347
1653.0,0.010105436281226954
1652.0,0.009705553871561357
1651.0,0.00939478857608056
1650.0,0.00939478857608056
1649.0,0.00939478857608056
1648.0,0.00939478857608056
1647.0,0.009616741093766423
1646.0,0.00974996707218323
1645.0,0.009794384815193347
1644.0,0.009794384815193347
1643.0,0.009794384815193347
1642.0,0.00974996707218323
1641.0,0.009616741093766423
1640.0,0.009483555971770974
1639.0,0.009350411681145587
1638.0,0.009261671492462709
1637.0,0.00939478857608056
1636.0,0.00966114521239847
1635.0,0.009705553871561357
1634.0,0.009527946474380489
1633.0,0.009350411681145587
1632.0,0.009217308196862062
1631.0,0.008995559669244813
1630.0,0.008818242332126802
1629.0,0.0087296108049002
1628.0,0.008685301823389224
1627.0,0.008640997362049818
1626.0,0.008596697419959609
1625.0,0.00850811108984062
1624.0,0.008375265465994541
1623.0,0.008242460465651913
1622.0,0.008065450281052211
1621.0,0.007976972236149349
1620.0,0.007976972236149349
1619.0,0.007976972236149349
1618.0,0.007976972236149349
1617.0,0.008021209005416363
1616.0,0.007976972236149349
1615.0,0.007888512213050314
1614.0,0.007844288957383316
1613.0,0.007844288957383316
1612.0,0.007711646202907652
1611.0,0.00762324020119709
1610.0,0.0075790439479759275
1609.0,0.0075790439479759275
1608.0,0.0075790439479759275
1607.0,0.00762324020119709
1606.0,0.007711646202907652
1605.0,0.007755855953228474
1604.0,0.007800070204414977
1603.0,0.007888512213050314
1602.0,0.007888512213050314
1601.0,0.007844288957383316
1600.0,0.007800070204414977
1599.0,0.007667440952535687
1598.0,0.007534852191956709
1597.0,0.007402303897961815
1596.0,0.007313960837872058
1595.0,0.007269796045857202
1594.0,0.007137328610972382
1593.0,0.007004901568658406
1592.0,0.006872514894289861
1591.0,0.006784279525863024
1590.0,0.006784279525863024
1589.0,0.006740168563263094
1588.0,0.006740168563263094
1587.0,0.006696062080525422
1586.0,0.006651960076740071
1585.0,0.006607862550997545
1584.0,0.00656376950238835
1583.0,0.00656376950238835
1582.0,0.006519680930003435
1581.0,0.006431517210272464
1580.0,0.006343371384537999
1579.0,0.00621118618129457
1578.0,0.006079041198713275
1577.0,0.006035001804881146
1576.0,0.006035001804881146
1575.0,0.006035001804881146
1574.0,0.00612308505878878
1573.0,0.006167133386013823
1572.0,0.00612308505878878
1571.0,0.006035001804881146
1570.0,0.005990966876386672
1569.0,0.006035001804881146
1568.0,0.006079041198713275
1567.0,0.006167133386013823
1566.0,0.006167133386013823
1565.0,0.00612308505878878
1564.0,0.006079041198713275
1563.0,0.006035001804881146
1562.0,0.005946936412324799
1561.0,0.005726851026829571
1560.0,0.005726851026829571
1559.0,0.006343371384537999
1558.0,0.006475596832934416
1557.0,0.006387442061109638
1556.0,0.006475596832934416
1555.0,0.006519680930003435
1554.0,0.006475596832934416
1553.0,0.006431517210272464
1552.0,0.006387442061109638
1551.0,0.006387442061109638
1550.0,0.006431517210272464
1549.0,0.006475596832934416
1548.0,0.006519680930003435
1547.0,0.006475596832934416
1546.0,0.006299305179649828
1545.0,0.006167133386013823
1544.0,0.006167133386013823
1543.0,0.00621118618129457
1542.0,0.00625524344553785
1541.0,0.006431517210272464
1540.0,0.006475596832934416
1539.0,0.006167133386013823
1538.0,0.005946936412324799
1537.0,0.005990966876386672
1536.0,0.006079041198713275
1535.0,0.006079041198713275
1534.0,0.005946936412324799
1533.0,0.005814871797682919
1532.0,0.005682847330363394
1531.0,0.005506877116487674
1530.0,0.00537494623139545
1529.0,0.0052870145684298375
1528.0,0.0052870145684298375
1527.0,0.0052870145684298375
1526.0,0.005243055412371911
1525.0,0.005243055412371911
1524.0,0.005243055412371911
1523.0,0.005199100705396198
1522.0,0.005155150446602086
1521.0,0.005155150446602086
1520.0,0.005111204635089406
1519.0,0.005023326350308999
1518.0,0.004935465843858511
1517.0,0.004935465843858511
1516.0,0.004979393875242044
1515.0,0.004979393875242044
1514.0,0.004935465843858511
1513.0,0.00489154225525934
1512.0,0.00489154225525934
1511.0,0.004803708402820517
1510.0,0.004759798137184523
1509.0,0.004803708402820517
1508.0,0.005023326350308999
1507.0,0.0052870145684298375
1506.0,0.005199100705396198
1505.0,0.005023326350308999
1504.0,0.004979393875242044
1503.0,0.004979393875242044
1502.0,0.004935465843858511
1501.0,0.005023326350308999
1500.0,0.005111204635089406
1499.0,0.005243055412371911
1498.0,0.00541891874010525
1497.0,0.005814871797682919
1496.0,0.006343371384537999
1495.0,0.006651960076740071
1494.0,0.006828394969235152
1493.0,0.006916639301937977
1492.0,0.006916639301937977
1491.0,0.006784279525863024
1490.0,0.006651960076740071
1489.0,0.006740168563263094
1488.0,0.006828394969235152
1487.0,0.006784279525863024
1486.0,0.006828394969235152
1485.0,0.00696076819309055
1484.0,0.007181479933320523
1483.0,0.007358130121602358
1482.0,0.007667440952535687
1481.0,0.008153946355103248
1480.0,0.008773924307505121
1479.0,0.00939478857608056
1478.0,0.01037222925484893
1477.0,0.011887159731648111
1476.0,0.013900374944870508
1475.0,0.016193358021584725
1474.0,0.019178833355664393
1473.0,0.023237476732539397
1472.0,0.027334407733889066
1471.0,0.030444315779156517
1470.0,0.03310770413286357
1469.0,0.03602339000339416
1468.0,0.03929144831144349
1467.0,0.0431115453499229
1466.0,0.04817696468408794
1465.0,0.05428528594013993
1464.0,0.05953332233647113
1463.0,0.06258241852286206
1462.0,0.06388856832514578
1461.0,0.06434161389936577
1460.0,0.06449273417528723
1459.0,0.06474471821595262
1458.0,0.06641148980334699
1457.0,0.06940751155740177
1456.0,0.07119462910671581
1455.0,0.07129697256940304
1454.0,0.07073438174693436
1453.0,0.07001940948448526
1452.0,0.0688982543673613
1451.0,0.06727263269847072
1450.0,0.06504729218214189
1449.0,0.06198090252378963
1448.0,0.05794231615860479
1447.0,0.0534986094304124
1446.0,0.049294465226138895
1445.0,0.04541983725624266
1444.0,0.041914151478914974
1443.0,0.038911280232103884
1442.0,0.03663723389626394
1441.0,0.0349394793888016
1440.0,0.03371743783253667
1439.0,0.03301397488206215
1438.0,0.0329671178412978
1437.0,0.03343591590268957
1436.0,0.03338901331806565
1435.0,0.03226486821611996
1434.0,0.030211462585061133
1433.0,0.027658283674251827
1432.0,0.024936003904763915
1431.0,0.022505030926963654
1430.0,0.02058821736556471
1429.0,0.0190880622231564
1428.0,0.017955020928509757
1427.0,0.017095882207371904
1426.0,0.016418813294209356
1425.0,0.015742798294583915
1424.0,0.015202742910707112
1423.0,0.014888020460646079
1422.0,0.014663358264387139
1421.0,0.014304140310157809
1420.0,0.013945219230304673
1419.0,0.013765869865004277
1418.0,0.013631406429727155
1417.0,0.013362604389846044
1416.0,0.013049212141483357
1415.0,0.012736045877764557
1414.0,0.012467797270160563
1413.0,0.012110390002254778
1412.0,0.011797899741219142
1411.0,0.011619434777991433
1410.0,0.011485634166333858
1409.0,0.011307297450183107
1408.0,0.011129033935354915
1407.0,0.010995384301463185
1406.0,0.010950843561779777
1405.0,0.010817248744452446
1404.0,0.010683695010048622
1403.0,0.010505687227290839
1402.0,0.01037222925484893
1401.0,0.010105436281226954
1400.0,0.009927665307847056
1399.0,0.009927665307847056
1398.0,0.01001654169860089
1397.0,0.009972101229705377
1396.0,0.009927665307847056
1395.0,0.01001654169860089
1394.0,0.010149890396819572
1393.0,0.010194349063173958
1392.0,0.01023881228122181
1391.0,0.010416710688994968
1390.0,0.01077272626946324
1389.0,0.011351874764248926
1388.0,0.012333735073725371
1387.0,0.01403492169512921
1386.0,0.01632861713980338
1385.0,0.019269623464054586
1384.0,0.023466619608062178
1383.0,0.02942069428514915
1382.0,0.03739392707587297
1381.0,0.04740126547022694
1380.0,0.0595831353183347
1379.0,0.07314329105030759
1378.0,0.08586848736910624
1377.0,0.0950141189006366
1376.0,0.09865067458435761
1375.0,0.09571734235437201
1374.0,0.08708744882390307
1373.0,0.0760310351245288
1372.0,0.06545105233385295
1371.0,0.05601112492622806
1370.0,0.047885915093007325
1369.0,0.04124505013091051
1368.0,0.03644826642590382
1367.0,0.0332483359486222
1366.0,0.031236951802751545
1365.0,0.030164906924202484
1364.0,0.03002526987828502
1363.0,0.030770520137356927
1362.0,0.032031037121307726
1361.0,0.0332483359486222
1360.0,0.03399914237121604
1359.0,0.03414006319292828
1358.0,0.03343591590268957
1357.0,0.032031037121307726
1356.0,0.030118356253500123
1355.0,0.027889771597169544
1354.0,0.025764722556973707
1353.0,0.023833499868024743
1352.0,0.022230681908425698
1351.0,0.020861530453190058
1350.0,0.019723858922159776
1349.0,0.018725167293411005
1348.0,0.017864505196230507
1347.0,0.017141057687924732
1346.0,0.01646391839700767
1345.0,0.015922966097169144
1344.0,0.01547268665620738
1343.0,0.015022873584506602
1342.0,0.014618439768003144
1341.0,0.014304140310157809
1340.0,0.014124642691606404
1339.0,0.01403492169512921
1338.0,0.013990068146738865
1337.0,0.013900374944870508
1336.0,0.01385553528947936
1335.0,0.01381070026317599
1334.0,0.01385553528947936
1333.0,0.01403492169512921
1332.0,0.014259258949925524
1331.0,0.014438812226654996
1330.0,0.014573525916998342
1329.0,0.014573525916998342
1328.0,0.014393916947563534
1327.0,0.014169510141607944
1326.0,0.01385553528947936
1325.0,0.013496984613259544
1324.0,0.013093968619278806
1323.0,0.012780770091995297
1322.0,0.012512493866907004
1321.0,0.012333735073725371
1320.0,0.012244383261476699
1319.0,0.01215504982870197
1318.0,0.012065734767841452
1317.0,0.0119764380713403
1316.0,0.011842527443247208
1315.0,0.011708658092512314
1314.0,0.011574829993696856
1313.0,0.011530229790124524
1312.0,0.011574829993696856
1311.0,0.011664044143949504
1310.0,0.011797899741219142
1309.0,0.012110390002254778
1308.0,0.012557195064198723
1307.0,0.01318349541446362
1306.0,0.01385553528947936
1305.0,0.014349026309051105
1304.0,0.014573525916998342
1303.0,0.0144837121472845
1302.0,0.014214382227394795
1301.0,0.013945219230304673
1300.0,0.013765869865004277
1299.0,0.01372104409400876
1298.0,0.01372104409400876
1297.0,0.013765869865004277
1296.0,0.013676222949234651
1295.0,0.013496984613259544
1294.0,0.01318349541446362
1293.0,0.012780770091995297
1292.0,0.012467797270160563
1291.0,0.012199714248127602
1290.0,0.0119764380713403
1289.0,0.011797899741219142
1288.0,0.011619434777991433
1287.0,0.011441043121384498
1286.0,0.011307297450183107
1285.0,0.01117359295472431
1284.0,0.011084479487313281
1283.0,0.010995384301463185
1282.0,0.010906307389674463
1281.0,0.010817248744452446
1280.0,0.010683695010048622
1279.0,0.010550182333308289
1278.0,0.010505687227290839
1277.0,0.01046119667949763
1276.0,0.010416710688994968
1275.0,0.010416710688994968
1274.0,0.01037222925484893
1273.0,0.01037222925484893
1272.0,0.010416710688994968
1271.0,0.010505687227290839
1270.0,0.010550182333308289
1269.0,0.010594681998483901
1268.0,0.010594681998483901
1267.0,0.010639186223752484
1266.0,0.010683695010048622
1265.0,0.01077272626946324
1264.0,0.010906307389674463
1263.0,0.011039929609661936
1262.0,0.011262724711199823
1261.0,0.011574829993696856
1260.0,0.0119764380713403
1259.0,0.012467797270160563
1258.0,0.013004460275618523
1257.0,0.013452186585275916
1256.0,0.013676222949234651
1255.0,0.013676222949234651
1254.0,0.013407393177789162
1253.0,0.012959713020733288
1252.0,0.012423105273012602
1251.0,0.0119764380713403
1250.0,0.011664044143949504
1249.0,0.011485634166333858
1248.0,0.011307297450183107
1247.0,0.01117359295472431
1246.0,0.010995384301463185
1245.0,0.010906307389674463
1244.0,0.010817248744452446
1243.0,0.010728208358306901
1242.0,0.010639186223752484
1241.0,0.010550182333308289
1240.0,0.01046119667949763
1239.0,0.010416710688994968
1238.0,0.010416710688994968
1237.0,0.010416710688994968
1236.0,0.010416710688994968
1235.0,0.01037222925484893
1234.0,0.01037222925484893
1233.0,0.01037222925484893
1232.0,0.01037222925484893
1231.0,0.010327752376126709
1230.0,0.010327752376126709
1229.0,0.010283280051895272
1228.0,0.010327752376126709
1227.0,0.01037222925484893
1226.0,0.01046119667949763
1225.0,0.010550182333308289
1224.0,0.010728208358306901
1223.0,0.010906307389674463
1222.0,0.011129033935354915
1221.0,0.011307297450183107
1220.0,0.011396456654336085
1219.0,0.011441043121384498
1218.0,0.011441043121384498
1217.0,0.011396456654336085
1216.0,0.011262724711199823
1215.0,0.011084479487313281
1214.0,0.010906307389674463
1213.0,0.01077272626946324
1212.0,0.010639186223752484
1211.0,0.010550182333308289
1210.0,0.01046119667949763
1209.0,0.01037222925484893
1208.0,0.010283280051895272
1207.0,0.01023881228122181
1206.0,0.010149890396819572
1205.0,0.010105436281226954
1204.0,0.010060986715464404
1203.0,0.01001654169860089
1202.0,0.01001654169860089
1201.0,0.01001654169860089
1200.0,0.010105436281226954
1199.0,0.010194349063173958
1198.0,0.01023881228122181
1197.0,0.010283280051895272
1196.0,0.01023881228122181
1195.0,0.010194349063173958
1194.0,0.01023881228122181
1193.0,0.010283280051895272
1192.0,0.010327752376126709
1191.0,0.01037222925484893
1190.0,0.01046119667949763
1189.0,0.010550182333308289
1188.0,0.010639186223752484
1187.0,0.010728208358306901
1186.0,0.010817248744452446
1185.0,0.010906307389674463
1184.0,0.011039929609661936
1183.0,0.011218156546359825
1182.0,0.011396456654336085
1181.0,0.011574829993696856
1180.0,0.011797899741219142
1179.0,0.012065734767841452
1178.0,0.012467797270160563
1177.0,0.013004460275618523
1176.0,0.013765869865004277
1175.0,0.014708281407112
1174.0,0.016058141016111804
1173.0,0.017774008325325275
1172.0,0.019860222254245663
1171.0,0.022139270735302752
1170.0,0.02438440203310499
1169.0,0.026271941311972746
1168.0,0.027426919073445077
1167.0,0.027843464140506313
1166.0,0.02751945012352408
1165.0,0.02682594731702781
1164.0,0.025902996205869
1163.0,0.025028005701930978
1162.0,0.024246610963712723
1161.0,0.02355831062115543
1160.0,0.02296266477531872
1159.0,0.022505030926963654
1158.0,0.022230681908425698
1157.0,0.02204787879853809
1156.0,0.021956506090037076
1155.0,0.021910826943857264
1154.0,0.021819483062586187
1153.0,0.02168250325324883
1152.0,0.021499930688540836
1151.0,0.021135015652343103
1150.0,0.020633757603838898
1149.0,0.019996628416253603
1148.0,0.019360432556262852
1147.0,0.018815862601645694
1146.0,0.01831727262871463
1145.0,0.017864505196230507
1144.0,0.017367005605150476
1143.0,0.016870075265299933
1142.0,0.016418813294209356
1141.0,0.01596801972881945
1140.0,0.015562705203923999
1139.0,0.015202742910707112
1138.0,0.014932966849499074
1137.0,0.014708281407112
1136.0,0.014573525916998342
1135.0,0.014438812226654996
1134.0,0.014349026309051105
1133.0,0.014259258949925524
1132.0,0.014169510141607944
1131.0,0.014124642691606404
1130.0,0.014124642691606404
1129.0,0.014169510141607944
1128.0,0.014214382227394795
1127.0,0.014214382227394795
1126.0,0.014259258949925524
1125.0,0.014259258949925524
1124.0,0.014214382227394795
1123.0,0.014214382227394795
1122.0,0.014214382227394795
1121.0,0.014304140310157809
1120.0,0.014393916947563534
1119.0,0.01452861671041239
1118.0,0.014618439768003144
1117.0,0.014708281407112
1116.0,0.014798141635428141
1115.0,0.014888020460646079
1114.0,0.014977917890464765
1113.0,0.015067833932588037
1112.0,0.015202742910707112
1111.0,0.01538268676325183
1110.0,0.015652742414136167
1109.0,0.015922966097169144
1108.0,0.01628352608625061
1107.0,0.016689514205884493
1106.0,0.017141057687924732
1105.0,0.01759307113620534
1104.0,0.017955020928509757
1103.0,0.018181392829336396
1102.0,0.018271974638383703
1101.0,0.018226681372252695
1100.0,0.01809082990920774
1099.0,0.017864505196230507
1098.0,0.017638298366853045
1097.0,0.017412209298337533
1096.0,0.017231422748988034
1095.0,0.017095882207371904
1094.0,0.017005545341335804
1093.0,0.016915227262211507
1092.0,0.01677978535189717
1091.0,0.016554142658660398
1090.0,0.016373712875465518
1089.0,0.016193358021584725
1088.0,0.016148281008528276
1087.0,0.016193358021584725
1086.0,0.01628352608625061
1085.0,0.01632861713980338
1084.0,0.01632861713980338
1083.0,0.01628352608625061
1082.0,0.016193358021584725
1081.0,0.016103208673694303
1080.0,0.016013078034810446
1079.0,0.016013078034810446
1078.0,0.016013078034810446
1077.0,0.016058141016111804
1076.0,0.016058141016111804
1075.0,0.01596801972881945
1074.0,0.015877917138889863
1073.0,0.01578783323856614
1072.0,0.01578783323856614
1071.0,0.015832872853011715
1070.0,0.015877917138889863
1069.0,0.015922966097169144
1068.0,0.015922966097169144
1067.0,0.015877917138889863
1066.0,0.015877917138889863
1065.0,0.015832872853011715
1064.0,0.015832872853011715
1063.0,0.015832872853011715
1062.0,0.015922966097169144
1061.0,0.016013078034810446
1060.0,0.016103208673694303
1059.0,0.016193358021584725
1058.0,0.016238439713835096
1057.0,0.01632861713980338
1056.0,0.016418813294209356
1055.0,0.016509028184833463
1054.0,0.016689514205884493
1053.0,0.016870075265299933
1052.0,0.017050711425501408
1051.0,0.017321806616515723
1050.0,0.017547848615010242
1049.0,0.01781925440359733
1048.0,0.01809082990920774
1047.0,0.018362575344230914
1046.0,0.01858915983411169
1045.0,0.018815862601645694
1044.0,0.018906576854070378
1043.0,0.018906576854070378
1042.0,0.018770512579999288
1041.0,0.018634490921455527
1040.0,0.01845319495476394
1039.0,0.01831727262871463
1038.0,0.018271974638383703
1037.0,0.018226681372252695
1036.0,0.018271974638383703
1035.0,0.01831727262871463
1034.0,0.018362575344230914
1033.0,0.018362575344230914
1032.0,0.018362575344230914
1031.0,0.018362575344230914
1030.0,0.018362575344230914
1029.0,0.01831727262871463
1028.0,0.018362575344230914
1027.0,0.01845319495476394
1026.0,0.01858915983411169
1025.0,0.018679826740892747
1024.0,0.018770512579999288
1023.0,0.018815862601645694
1022.0,0.018815862601645694
1021.0,0.018815862601645694
1020.0,0.018815862601645694
1019.0,0.018861217359339655
1018.0,0.018815862601645694
1017.0,0.018725167293411005
1016.0,0.018543833477873584
1015.0,0.01831727262871463
1014.0,0.01809082990920774
1013.0,0.017909760704207134
1012.0,0.01781925440359733
1011.0,0.017728766960431575
1010.0,0.01768353030793479
1009.0,0.017638298366853045
1008.0,0.017638298366853045
1007.0,0.01781925440359733
1006.0,0.018226681372252695
1005.0,0.018951941086827073
1004.0,0.02004210665933459
1003.0,0.021499930688540836
1002.0,0.023329119375188556
1001.0,0.02562649291857677
1000.0,0.028075050815808744
999.0,0.03025802323714588
998.0,0.03147035562516054
997.0,0.03137697904301118
996.0,0.03002526987828502
995.0,0.027889771597169544
994.0,0.02553436426275746
993.0,0.023374947949272418
992.0,0.02159120737696063
991.0,0.02026956933771462
990.0,0.019315025636685412
989.0,0.01858915983411169
988.0,0.01800028587012159
987.0,0.01759307113620534
986.0,0.017367005605150476
985.0,0.017367005605150476
984.0,0.017547848615010242
983.0,0.017909760704207134
982.0,0.018498511851753108
981.0,0.01940584422377989
980.0,0.02067930261797568
979.0,0.022413561996148967
978.0,0.024568191490736968
977.0,0.027195677663422346
976.0,0.03002526987828502
975.0,0.03277974021703267
974.0,0.03484535401307465
973.0,0.03578752703018084
972.0,0.03512779136222477
971.0,0.033060836978886954
970.0,0.030118356253500123
969.0,0.02691835039863255
968.0,0.024108863598207186
967.0,0.021865152601710403
966.0,0.020178569969774962
965.0,0.01899731005860028
964.0,0.018181392829336396
963.0,0.017502630802287644
962.0,0.016915227262211507
961.0,0.016373712875465518
960.0,0.015877917138889863
959.0,0.01547268665620738
958.0,0.015112798935672522
957.0,0.014843078722943437
956.0,0.014618439768003144
955.0,0.014438812226654996
954.0,0.014259258949925524
953.0,0.014124642691606404
952.0,0.013990068146738865
951.0,0.01381070026317599
950.0,0.01372104409400876
949.0,0.013631406429727155
948.0,0.013631406429727155
947.0,0.013676222949234651
946.0,0.01381070026317599
945.0,0.01403492169512921
944.0,0.014259258949925524
943.0,0.0144837121472845
942.0,0.014708281407112
941.0,0.014843078722943437
940.0,0.014843078722943437
939.0,0.014798141635428141
938.0,0.014618439768003144
937.0,0.014393916947563534
936.0,0.014169510141607944
935.0,0.013945219230304673
934.0,0.013765869865004277
933.0,0.013676222949234651
932.0,0.013676222949234651
931.0,0.01372104409400876
930.0,0.01372104409400876
929.0,0.01372104409400876
928.0,0.013631406429727155
927.0,0.013541787262693505
926.0,0.013496984613259544
925.0,0.013496984613259544
924.0,0.013541787262693505
923.0,0.013496984613259544
922.0,0.013452186585275916
921.0,0.013452186585275916
920.0,0.013452186585275916
919.0,0.013541787262693505
918.0,0.013541787262693505
917.0,0.013496984613259544
916.0,0.013407393177789162
915.0,0.013362604389846044
914.0,0.013452186585275916
913.0,0.013541787262693505
912.0,0.013631406429727155
911.0,0.013586594534531482
910.0,0.013496984613259544
909.0,0.013452186585275916
908.0,0.013496984613259544
907.0,0.013676222949234651
906.0,0.013990068146738865
905.0,0.014438812226654996
904.0,0.015157768594724175
903.0,0.016238439713835096
902.0,0.017502630802287644
901.0,0.01858915983411169
900.0,0.019269623464054586
899.0,0.019269623464054586
898.0,0.018725167293411005
897.0,0.01781925440359733
896.0,0.016734647433454652
895.0,0.015742798294583915
894.0,0.014932966849499074
893.0,0.014349026309051105
892.0,0.013900374944870508
891.0,0.013541787262693505
890.0,0.01318349541446362
889.0,0.012825498912458322
888.0,0.012512493866907004
887.0,0.012289056869694281
886.0,0.012199714248127602
885.0,0.012244383261476699
884.0,0.012244383261476699
883.0,0.012199714248127602
882.0,0.012021084124518078
881.0,0.011887159731648111
880.0,0.011887159731648111
879.0,0.0119764380713403
878.0,0.012199714248127602
877.0,0.012423105273012602
876.0,0.01260190086298274
875.0,0.012691326268817527
874.0,0.012736045877764557
873.0,0.012691326268817527
872.0,0.01264661126420652
871.0,0.01260190086298274
870.0,0.01260190086298274
869.0,0.01264661126420652
868.0,0.012691326268817527
867.0,0.01264661126420652
866.0,0.01264661126420652
865.0,0.012691326268817527
864.0,0.012914970375878188
863.0,0.013138729709955221
862.0,0.013407393177789162
861.0,0.013586594534531482
860.0,0.013765869865004277
859.0,0.01381070026317599
858.0,0.013765869865004277
857.0,0.013631406429727155
856.0,0.013541787262693505
855.0,0.013496984613259544
854.0,0.013496984613259544
853.0,0.013631406429727155
852.0,0.01381070026317599
851.0,0.01403492169512921
850.0,0.014304140310157809
849.0,0.01452861671041239
848.0,0.014843078722943437
847.0,0.01538268676325183
846.0,0.01646391839700767
845.0,0.018362575344230914
844.0,0.021135015652343103
843.0,0.024338466818941473
842.0,0.02696455931306696
841.0,0.027843464140506313
840.0,0.02664120011360227
839.0,0.023971159908874107
838.0,0.020907099361673565
837.0,0.018362575344230914
836.0,0.016734647433454652
835.0,0.015697768020096703
834.0,0.015067833932588037
833.0,0.01452861671041239
832.0,0.01403492169512921
831.0,0.013586594534531482
830.0,0.01318349541446362
829.0,0.012870232340102872
828.0,0.01260190086298274
827.0,0.012378417874516323
826.0,0.01215504982870197
825.0,0.012021084124518078
824.0,0.011887159731648111
823.0,0.011753276624621556
822.0,0.011619434777991433
821.0,0.011574829993696856
820.0,0.011708658092512314
819.0,0.012021084124518078
818.0,0.012378417874516323
817.0,0.012870232340102872
816.0,0.013541787262693505
815.0,0.014393916947563534
814.0,0.01547268665620738
813.0,0.016734647433454652
812.0,0.01800028587012159
811.0,0.019178833355664393
810.0,0.02004210665933459
809.0,0.020542681902151694
808.0,0.020724852408976924
807.0,0.02045162529590483
806.0,0.019769308608968306
805.0,0.018906576854070378
804.0,0.018045555530026514
803.0,0.017457417697056554
802.0,0.017141057687924732
801.0,0.017005545341335804
800.0,0.016915227262211507
799.0,0.01677978535189717
798.0,0.016644385668211692
797.0,0.016554142658660398
796.0,0.016599261819461697
795.0,0.016599261819461697
794.0,0.016509028184833463
793.0,0.016373712875465518
792.0,0.01628352608625061
791.0,0.016148281008528276
790.0,0.01596801972881945
789.0,0.015697768020096703
788.0,0.015517693597737248
787.0,0.015517693597737248
786.0,0.015607721475734415
785.0,0.015652742414136167
784.0,0.015562705203923999
783.0,0.015427684378367834
782.0,0.01538268676325183
781.0,0.01547268665620738
780.0,0.015652742414136167
779.0,0.01578783323856614
778.0,0.01578783323856614
777.0,0.015562705203923999
776.0,0.015202742910707112
775.0,0.014843078722943437
774.0,0.014618439768003144
773.0,0.014618439768003144
772.0,0.014888020460646079
771.0,0.015247721884586563
770.0,0.015607721475734415
769.0,0.015922966097169144
768.0,0.016148281008528276
767.0,0.016238439713835096
766.0,0.016193358021584725
765.0,0.016148281008528276
764.0,0.016193358021584725
763.0,0.016418813294209356
762.0,0.016689514205884493
761.0,0.016960383953898095
760.0,0.017141057687924732
759.0,0.01727661233145472
758.0,0.017412209298337533
757.0,0.017547848615010242
756.0,0.01768353030793479
755.0,0.01781925440359733
754.0,0.017864505196230507
753.0,0.017909760704207134
752.0,0.01800028587012159
751.0,0.018181392829336396
750.0,0.018362575344230914
749.0,0.018498511851753108
748.0,0.01858915983411169
747.0,0.018770512579999288
746.0,0.019042683770379876
745.0,0.019269623464054586
744.0,0.01940584422377989
743.0,0.01940584422377989
742.0,0.019451260640229506
741.0,0.019451260640229506
740.0,0.019451260640229506
739.0,0.019451260640229506
738.0,0.01949668180660491
737.0,0.019678413991243593
736.0,0.01990568621470623
735.0,0.02026956933771462
734.0,0.0209982515252789
733.0,0.022139270735302752
732.0,0.023374947949272418
731.0,0.024246610963712723
730.0,0.024430342106337877
729.0,0.02406295751688936
728.0,0.02351246269481
727.0,0.02296266477531872
726.0,0.022505030926963654
725.0,0.0221849739168134
724.0,0.022139270735302752
723.0,0.022505030926963654
722.0,0.023191662661933732
721.0,0.024108863598207186
720.0,0.024890010313838973
719.0,0.025074013910237447
718.0,0.024568191490736968
717.0,0.02365002099672653
716.0,0.02277955336461468
715.0,0.02204787879853809
714.0,0.02140867317992523
713.0,0.020724852408976924
712.0,0.020178569969774962
711.0,0.01995115493504329
710.0,0.020087589665283012
709.0,0.02045162529590483
708.0,0.020907099361673565
707.0,0.0214542995372613
706.0,0.022230681908425698
705.0,0.023283295636617574
704.0,0.024568191490736968
703.0,0.025902996205869
702.0,0.02724191609646076
701.0,0.028445846553939003
700.0,0.029467170231675777
699.0,0.030118356253500123
698.0,0.030444315779156517
697.0,0.030397735151460825
696.0,0.029978734171634214
695.0,0.029095501846216454
694.0,0.027750864037404455
693.0,0.026318081496016443
692.0,0.02512002699306959
691.0,0.024292536462819925
690.0,0.023604163388120325
689.0,0.023054249440757957
688.0,0.02282532397981263
687.0,0.02291687968414724
686.0,0.023100049017062307
685.0,0.023191662661933732
684.0,0.023191662661933732
683.0,0.02314585342378117
682.0,0.02296266477531872
681.0,0.02259651912656535
680.0,0.0221849739168134
679.0,0.021865152601710403
678.0,0.021545566634771474
677.0,0.02122621566987748
676.0,0.020952673052035298
675.0,0.020861530453190058
674.0,0.020861530453190058
673.0,0.02081596632558158
672.0,0.020724852408976924
671.0,0.020770406977844713
670.0,0.021317434843055594
669.0,0.022367834754000393
668.0,0.02282532397981263
667.0,0.02200219004126036
666.0,0.020770406977844713
665.0,0.019451260640229506
664.0,0.01831727262871463
663.0,0.017774008325325275
662.0,0.017774008325325275
661.0,0.017955020928509757
660.0,0.017774008325325275
659.0,0.017186237868137555
658.0,0.016418813294209356
657.0,0.015742798294583915
656.0,0.015112798935672522
655.0,0.014393916947563534
654.0,0.013765869865004277
653.0,0.013496984613259544
652.0,0.013900374944870508
651.0,0.014843078722943437
650.0,0.01596801972881945
649.0,0.016870075265299933
648.0,0.01727661233145472
647.0,0.017231422748988034
646.0,0.017141057687924732
645.0,0.017412209298337533
644.0,0.01809082990920774
643.0,0.018815862601645694
642.0,0.018951941086827073
641.0,0.01845319495476394
640.0,0.017909760704207134
639.0,0.017909760704207134
638.0,0.018362575344230914
637.0,0.018951941086827073
636.0,0.01940584422377989
635.0,0.019996628416253603
634.0,0.020907099361673565
633.0,0.021910826943857264
632.0,0.02255077261765881
631.0,0.02255077261765881
630.0,0.02227639471115217
629.0,0.022139270735302752
628.0,0.022322112326006227
627.0,0.022642270454698687
626.0,0.02282532397981263
625.0,0.02255077261765881
624.0,0.021956506090037076
623.0,0.02140867317992523
622.0,0.02122621566987748
621.0,0.02168250325324883
620.0,0.02277955336461468
619.0,0.024338466818941473
618.0,0.025764722556973707
617.0,0.026456531467510258
616.0,0.026041313893296225
615.0,0.024890010313838973
614.0,0.02355831062115543
613.0,0.02259651912656535
612.0,0.0221849739168134
611.0,0.022230681908425698
610.0,0.022413561996148967
609.0,0.02227639471115217
608.0,0.02159120737696063
607.0,0.02045162529590483
606.0,0.01949668180660491
605.0,0.019133445417920836
604.0,0.019451260640229506
603.0,0.019723858922159776
602.0,0.0192242260373785
601.0,0.017728766960431575
600.0,0.016148281008528276
