cm-1,A
4000.0,0.007
3999.0,0.007
3998.0,0.0069
3997.0,0.007
3996.0,0.007
3995.0,0.0071
3994.0,0.0072
3993.0,0.0072
3992.0,0.0072
3991.0,0.0071
3990.0,0.0071
3989.0,0.007
3988.0,0.0069
3987.0,0.0069
3986.0,0.0069
3985.0,0.007
3984.0,0.007
3983.0,0.0071
3982.0,0.0071
3981.0,0.0071
3980.0,0.0071
3979.0,0.0071
3978.0,0.007
3977.0,0.007
3976.0,0.007
3975.0,0.0071
3974.0,0.0071
3973.0,0.0071
3972.0,0.007
3971.0,0.007
3970.0,0.007
3969.0,0.007
3968.0,0.0071
3967.0,0.0071
3966.0,0.007
3965.0,0.007
3964.0,0.0069
3963.0,0.0069
3962.0,0.0069
3961.0,0.0069
3960.0,0.0069
3959.0,0.0069
3958.0,0.007
3957.0,0.007
3956.0,0.007
3955.0,0.0071
3954.0,0.007
3953.0,0.007
3952.0,0.0069
3951.0,0.0069
3950.0,0.0069
3949.0,0.007
3948.0,0.0072
3947.0,0.0072
3946.0,0.0073
3945.0,0.0073
3944.0,0.0072
3943.0,0.0072
3942.0,0.0071
3941.0,0.0071
3940.0,0.007
3939.0,0.007
3938.0,0.007
3937.0,0.0071
3936.0,0.0072
3935.0,0.0073
3934.0,0.0074
3933.0,0.0074
3932.0,0.0074
3931.0,0.0073
3930.0,0.0071
3929.0,0.007
3928.0,0.007
3927.0,0.007
3926.0,0.007
3925.0,0.007
3924.0,0.007
3923.0,0.007
3922.0,0.007
3921.0,0.007
3920.0,0.007
3919.0,0.007
3918.0,0.007
3917.0,0.0071
3916.0,0.0072
3915.0,0.0072
3914.0,0.0073
3913.0,0.0074
3912.0,0.0075
3911.0,0.0075
3910.0,0.0075
3909.0,0.0075
3908.0,0.0074
3907.0,0.0072
3906.0,0.0071
3905.0,0.0071
3904.0,0.0071
3903.0,0.0072
3902.0,0.0074
3901.0,0.0075
3900.0,0.0076
3899.0,0.0076
3898.0,0.0076
3897.0,0.0076
3896.0,0.0075
3895.0,0.0074
3894.0,0.0074
3893.0,0.0075
3892.0,0.0076
3891.0,0.0074
3890.0,0.0073
3889.0,0.0073
3888.0,0.0073
3887.0,0.0074
3886.0,0.0074
3885.0,0.0073
3884.0,0.0073
3883.0,0.0073
3882.0,0.0074
3881.0,0.0074
3880.0,0.0074
3879.0,0.0073
3878.0,0.0074
3877.0,0.0075
3876.0,0.0076
3875.0,0.0076
3874.0,0.0074
3873.0,0.0073
3872.0,0.0073
3871.0,0.0073
3870.0,0.0072
3869.0,0.007
3868.0,0.007
3867.0,0.0071
3866.0,0.0072
3865.0,0.0072
3864.0,0.0072
3863.0,0.0072
3862.0,0.0073
3861.0,0.0074
3860.0,0.0075
3859.0,0.0076
3858.0,0.0076
3857.0,0.0075
3856.0,0.0075
3855.0,0.0077
3854.0,0.0079
3853.0,0.0078
3852.0,0.0076
3851.0,0.0076
3850.0,0.0077
3849.0,0.0077
3848.0,0.0077
3847.0,0.0077
3846.0,0.0076
3845.0,0.0075
3844.0,0.0074
3843.0,0.0073
3842.0,0.0073
3841.0,0.0072
3840.0,0.0072
3839.0,0.0072
3838.0,0.0072
3837.0,0.0073
3836.0,0.0075
3835.0,0.0076
3834.0,0.0077
3833.0,0.0078
3832.0,0.0078
3831.0,0.0078
3830.0,0.0079
3829.0,0.0079
3828.0,0.008
3827.0,0.0079
3826.0,0.0077
3825.0,0.0075
3824.0,0.0074
3823.0,0.0075
3822.0,0.0077
3821.0,0.0079
3820.0,0.0079
3819.0,0.008
3818.0,0.0082
3817.0,0.0082
3816.0,0.0081
3815.0,0.008
3814.0,0.0079
3813.0,0.008
3812.0,0.0079
3811.0,0.0077
3810.0,0.0076
3809.0,0.0075
3808.0,0.0076
3807.0,0.0076
3806.0,0.0076
3805.0,0.0076
3804.0,0.0078
3803.0,0.008
3802.0,0.0083
3801.0,0.0083
3800.0,0.0081
3799.0,0.008
3798.0,0.0079
3797.0,0.0077
3796.0,0.0076
3795.0,0.0075
3794.0,0.0076
3793.0,0.0077
3792.0,0.0077
3791.0,0.0078
3790.0,0.0077
3789.0,0.0077
3788.0,0.0076
3787.0,0.0076
3786.0,0.0076
3785.0,0.0076
3784.0,0.0077
3783.0,0.0077
3782.0,0.0077
3781.0,0.0078
3780.0,0.0079
3779.0,0.0079
3778.0,0.008
3777.0,0.0081
3776.0,0.0082
3775.0,0.0082
3774.0,0.0081
3773.0,0.0081
3772.0,0.0081
3771.0,0.008
3770.0,0.0079
3769.0,0.0078
3768.0,0.0079
3767.0,0.0081
3766.0,0.0083
3765.0,0.0083
3764.0,0.0082
3763.0,0.0081
3762.0,0.008
3761.0,0.008
3760.0,0.008
3759.0,0.008
3758.0,0.008
3757.0,0.008
3756.0,0.008
3755.0,0.0081
3754.0,0.0081
3753.0,0.0081
3752.0,0.0081
3751.0,0.008
3750.0,0.0079
3749.0,0.0077
3748.0,0.0078
3747.0,0.0079
3746.0,0.0081
3745.0,0.0081
3744.0,0.0079
3743.0,0.0077
3742.0,0.0078
3741.0,0.0079
3740.0,0.0077
3739.0,0.0075
3738.0,0.0073
3737.0,0.007
3736.0,0.0068
3735.0,0.0065
3734.0,0.0065
3733.0,0.0066
3732.0,0.0068
3731.0,0.007
3730.0,0.0071
3729.0,0.0073
3728.0,0.0074
3727.0,0.0075
3726.0,0.0076
3725.0,0.0076
3724.0,0.0077
3723.0,0.0077
3722.0,0.0078
3721.0,0.0078
3720.0,0.0079
3719.0,0.008
3718.0,0.0081
3717.0,0.0081
3716.0,0.0082
3715.0,0.0082
3714.0,0.0081
3713.0,0.0081
3712.0,0.0082
3711.0,0.0083
3710.0,0.0083
3709.0,0.0083
3708.0,0.0083
3707.0,0.0082
3706.0,0.0082
3705.0,0.0081
3704.0,0.0082
3703.0,0.0083
3702.0,0.0084
3701.0,0.0085
3700.0,0.0086
3699.0,0.0087
3698.0,0.0088
3697.0,0.0089
3696.0,0.0088
3695.0,0.0087
3694.0,0.0086
3693.0,0.0086
3692.0,0.0086
3691.0,0.0089
3690.0,0.0091
3689.0,0.0093
3688.0,0.0094
3687.0,0.0095
3686.0,0.0097
3685.0,0.0098
3684.0,0.0099
3683.0,0.0099
3682.0,0.01
3681.0,0.01
3680.0,0.01
3679.0,0.0101
3678.0,0.0103
3677.0,0.0106
3676.0,0.0109
3675.0,0.0109
3674.0,0.0108
3673.0,0.0109
3672.0,0.0111
3671.0,0.0113
3670.0,0.0115
3669.0,0.0115
3668.0,0.0117
3667.0,0.0118
3666.0,0.012
3665.0,0.0121
3664.0,0.0122
3663.0,0.0122
3662.0,0.0123
3661.0,0.0124
3660.0,0.0125
3659.0,0.0127
3658.0,0.0129
3657.0,0.0131
3656.0,0.0131
3655.0,0.0131
3654.0,0.0132
3653.0,0.0133
3652.0,0.0134
3651.0,0.0137
3650.0,0.0141
3649.0,0.0144
3648.0,0.0146
3647.0,0.0147
3646.0,0.0149
3645.0,0.0152
3644.0,0.0154
3643.0,0.0156
3642.0,0.0158
3641.0,0.016
3640.0,0.0162
3639.0,0.0165
3638.0,0.0167
3637.0,0.0169
3636.0,0.0171
3635.0,0.0172
3634.0,0.0174
3633.0,0.0175
3632.0,0.0176
3631.0,0.0179
3630.0,0.0184
3629.0,0.019
3628.0,0.0193
3627.0,0.0196
3626.0,0.0199
3625.0,0.0202
3624.0,0.0203
3623.0,0.0205
3622.0,0.0206
3621.0,0.0208
3620.0,0.021
3619.0,0.0214
3618.0,0.0217
3617.0,0.0221
3616.0,0.0226
3615.0,0.023
3614.0,0.0234
3613.0,0.0237
3612.0,0.024
3611.0,0.0243
3610.0,0.0246
3609.0,0.0249
3608.0,0.0252
3607.0,0.0255
3606.0,0.0257
3605.0,0.0261
3604.0,0.0264
3603.0,0.0267
3602.0,0.027
3601.0,0.0274
3600.0,0.0276
3599.0,0.0279
3598.0,0.0281
3597.0,0.0284
3596.0,0.0287
3595.0,0.0291
3594.0,0.0295
3593.0,0.0298
3592.0,0.0302
3591.0,0.0305
3590.0,0.0309
3589.0,0.0312
3588.0,0.0316
3587.0,0.0319
3586.0,0.0322
3585.0,0.0324
3584.0,0.0328
3583.0,0.0331
3582.0,0.0334
3581.0,0.0337
3580.0,0.034
3579.0,0.0344
3578.0,0.0347
3577.0,0.0351
3576.0,0.0354
3575.0,0.0356
3574.0,0.0357
3573.0,0.0359
3572.0,0.036
3571.0,0.0362
3570.0,0.0365
3569.0,0.0369
3568.0,0.0374
3567.0,0.0377
3566.0,0.0379
3565.0,0.0381
3564.0,0.0385
3563.0,0.039
3562.0,0.0395
3561.0,0.04
3560.0,0.0404
3559.0,0.0407
3558.0,0.041
3557.0,0.0411
3556.0,0.0413
3555.0,0.0415
3554.0,0.0417
3553.0,0.0419
3552.0,0.0421
3551.0,0.0424
3550.0,0.0427
3549.0,0.043
3548.0,0.0434
3547.0,0.0436
3546.0,0.0439
3545.0,0.0442
3544.0,0.0446
3543.0,0.045
3542.0,0.0452
3541.0,0.0455
3540.0,0.0457
3539.0,0.046
3538.0,0.0464
3537.0,0.0467
3536.0,0.0468
3535.0,0.047
3534.0,0.0472
3533.0,0.0475
3532.0,0.0479
3531.0,0.0482
3530.0,0.0484
3529.0,0.0486
3528.0,0.0488
3527.0,0.0491
3526.0,0.0494
3525.0,0.0497
3524.0,0.0501
3523.0,0.0504
3522.0,0.0506
3521.0,0.0509
3520.0,0.0512
3519.0,0.0514
3518.0,0.0516
3517.0,0.0518
3516.0,0.0521
3515.0,0.0523
3514.0,0.0526
3513.0,0.0529
3512.0,0.0532
3511.0,0.0535
3510.0,0.0538
3509.0,0.0541
3508.0,0.0543
3507.0,0.0546
3506.0,0.0549
3505.0,0.0553
3504.0,0.0556
3503.0,0.0558
3502.0,0.0561
3501.0,0.0563
3500.0,0.0566
3499.0,0.0569
3498.0,0.0573
3497.0,0.0577
3496.0,0.058
3495.0,0.0584
3494.0,0.0586
3493.0,0.0589
3492.0,0.0592
3491.0,0.0595
3490.0,0.0598
3489.0,0.0601
3488.0,0.0603
3487.0,0.0605
3486.0,0.0606
3485.0,0.0608
3484.0,0.0611
3483.0,0.0615
3482.0,0.0619
3481.0,0.0624
3480.0,0.0628
3479.0,0.0631
3478.0,0.0634
3477.0,0.0637
3476.0,0.0641
3475.0,0.0645
3474.0,0.0648
3473.0,0.065
3472.0,0.0652
3471.0,0.0653
3470.0,0.0654
3469.0,0.0657
3468.0,0.066
3467.0,0.0664
3466.0,0.0667
3465.0,0.067
3464.0,0.0673
3463.0,0.0676
3462.0,0.068
3461.0,0.0684
3460.0,0.0689
3459.0,0.0693
3458.0,0.0697
3457.0,0.07
3456.0,0.0703
3455.0,0.0706
3454.0,0.0708
3453.0,0.0711
3452.0,0.0714
3451.0,0.0717
3450.0,0.0721
3449.0,0.0725
3448.0,0.0729
3447.0,0.0733
3446.0,0.0736
3445.0,0.0739
3444.0,0.0742
3443.0,0.0744
3442.0,0.0746
3441.0,0.0748
3440.0,0.075
3439.0,0.0753
3438.0,0.0757
3437.0,0.0761
3436.0,0.0766
3435.0,0.0771
3434.0,0.0775
3433.0,0.078
3432.0,0.0784
3431.0,0.0788
3430.0,0.0791
3429.0,0.0793
3428.0,0.0796
3427.0,0.0798
3426.0,0.0801
3425.0,0.0803
3424.0,0.0806
3423.0,0.0809
3422.0,0.0811
3421.0,0.0814
3420.0,0.0817
3419.0,0.0821
3418.0,0.0825
3417.0,0.0829
3416.0,0.0832
3415.0,0.0834
3414.0,0.0836
3413.0,0.0839
3412.0,0.0842
3411.0,0.0845
3410.0,0.0847
3409.0,0.0849
3408.0,0.0852
3407.0,0.0855
3406.0,0.0859
3405.0,0.0863
3404.0,0.0867
3403.0,0.0869
3402.0,0.0871
3401.0,0.0873
3400.0,0.0875
3399.0,0.0877
3398.0,0.0879
3397.0,0.088
3396.0,0.0882
3395.0,0.0884
3394.0,0.0887
3393.0,0.0889
3392.0,0.0892
3391.0,0.0896
3390.0,0.0898
3389.0,0.0899
3388.0,0.09
3387.0,0.0899
3386.0,0.09
3385.0,0.0901
3384.0,0.0903
3383.0,0.0905
3382.0,0.0907
3381.0,0.0908
3380.0,0.091
3379.0,0.0911
3378.0,0.0912
3377.0,0.0913
3376.0,0.0913
3375.0,0.0913
3374.0,0.0913
3373.0,0.0913
3372.0,0.0914
3371.0,0.0915
3370.0,0.0916
3369.0,0.0917
3368.0,0.0917
3367.0,0.0916
3366.0,0.0916
3365.0,0.0915
3364.0,0.0914
3363.0,0.0913
3362.0,0.0913
3361.0,0.0912
3360.0,0.0912
3359.0,0.091
3358.0,0.0908
3357.0,0.0907
3356.0,0.0906
3355.0,0.0906
3354.0,0.0906
3353.0,0.0905
3352.0,0.0904
3351.0,0.0901
3350.0,0.09
3349.0,0.0899
3348.0,0.0899
3347.0,0.0899
3346.0,0.0897
3345.0,0.0896
3344.0,0.0894
3343.0,0.0893
3342.0,0.0893
3341.0,0.0892
3340.0,0.0891
3339.0,0.0889
3338.0,0.0887
3337.0,0.0886
3336.0,0.0885
3335.0,0.0884
3334.0,0.0882
3333.0,0.088
3332.0,0.0878
3331.0,0.0875
3330.0,0.0872
3329.0,0.0869
3328.0,0.0867
3327.0,0.0866
3326.0,0.0866
3325.0,0.0866
3324.0,0.0863
3323.0,0.086
3322.0,0.0857
3321.0,0.0855
3320.0,0.0853
3319.0,0.0851
3318.0,0.0849
3317.0,0.0847
3316.0,0.0845
3315.0,0.0843
3314.0,0.0841
3313.0,0.084
3312.0,0.0839
3311.0,0.0837
3310.0,0.0834
3309.0,0.0832
3308.0,0.083
3307.0,0.0828
3306.0,0.0827
3305.0,0.0826
3304.0,0.0825
3303.0,0.0823
3302.0,0.0821
3301.0,0.0819
3300.0,0.0816
3299.0,0.0814
3298.0,0.0812
3297.0,0.081
3296.0,0.0808
3295.0,0.0806
3294.0,0.0804
3293.0,0.0803
3292.0,0.0803
3291.0,0.0803
3290.0,0.0803
3289.0,0.0802
3288.0,0.0799
3287.0,0.0796
3286.0,0.0794
3285.0,0.0792
3284.0,0.079
3283.0,0.0789
3282.0,0.0786
3281.0,0.0784
3280.0,0.0783
3279.0,0.0783
3278.0,0.0782
3277.0,0.0781
3276.0,0.078
3275.0,0.0778
3274.0,0.0777
3273.0,0.0776
3272.0,0.0775
3271.0,0.0774
3270.0,0.0773
3269.0,0.0773
3268.0,0.0772
3267.0,0.0772
3266.0,0.0771
3265.0,0.0769
3264.0,0.0768
3263.0,0.0767
3262.0,0.0767
3261.0,0.0766
3260.0,0.0766
3259.0,0.0765
3258.0,0.0764
3257.0,0.0763
3256.0,0.0761
3255.0,0.076
3254.0,0.0759
3253.0,0.0758
3252.0,0.0757
3251.0,0.0757
3250.0,0.0756
3249.0,0.0755
3248.0,0.0754
3247.0,0.0753
3246.0,0.0752
3245.0,0.075
3244.0,0.0749
3243.0,0.0748
3242.0,0.0747
3241.0,0.0745
3240.0,0.0743
3239.0,0.0739
3238.0,0.0735
3237.0,0.0732
3236.0,0.073
3235.0,0.0729
3234.0,0.0727
3233.0,0.0725
3232.0,0.0722
3231.0,0.0718
3230.0,0.0714
3229.0,0.0712
3228.0,0.071
3227.0,0.0709
3226.0,0.0707
3225.0,0.0706
3224.0,0.0704
3223.0,0.0701
3222.0,0.0698
3221.0,0.0694
3220.0,0.069
3219.0,0.0686
3218.0,0.0683
3217.0,0.068
3216.0,0.0677
3215.0,0.0675
3214.0,0.0672
3213.0,0.067
3212.0,0.0666
3211.0,0.0662
3210.0,0.0658
3209.0,0.0655
3208.0,0.0652
3207.0,0.065
3206.0,0.0648
3205.0,0.0645
3204.0,0.0643
3203.0,0.0639
3202.0,0.0636
3201.0,0.0632
3200.0,0.0629
3199.0,0.0627
3198.0,0.0624
3197.0,0.0621
3196.0,0.0618
3195.0,0.0614
3194.0,0.061
3193.0,0.0606
3192.0,0.0602
3191.0,0.0599
3190.0,0.0595
3189.0,0.0592
3188.0,0.0589
3187.0,0.0586
3186.0,0.0583
3185.0,0.0581
3184.0,0.0577
3183.0,0.0574
3182.0,0.057
3181.0,0.0566
3180.0,0.0562
3179.0,0.0558
3178.0,0.0554
3177.0,0.0551
3176.0,0.0547
3175.0,0.0544
3174.0,0.0541
3173.0,0.0538
3172.0,0.0535
3171.0,0.0532
3170.0,0.0528
3169.0,0.0525
3168.0,0.0522
3167.0,0.0519
3166.0,0.0517
3165.0,0.0515
3164.0,0.0512
3163.0,0.0509
3162.0,0.0505
3161.0,0.0501
3160.0,0.0497
3159.0,0.0493
3158.0,0.0491
3157.0,0.0488
3156.0,0.0485
3155.0,0.0482
3154.0,0.0478
3153.0,0.0475
3152.0,0.0472
3151.0,0.047
3150.0,0.0467
3149.0,0.0464
3148.0,0.0461
3147.0,0.0457
3146.0,0.0454
3145.0,0.0451
3144.0,0.0448
3143.0,0.0446
3142.0,0.0443
3141.0,0.044
3140.0,0.0436
3139.0,0.0432
3138.0,0.0429
3137.0,0.0426
3136.0,0.0424
3135.0,0.0421
3134.0,0.0417
3133.0,0.0415
3132.0,0.0412
3131.0,0.041
3130.0,0.0408
3129.0,0.0406
3128.0,0.0404
3127.0,0.0401
3126.0,0.0398
3125.0,0.0394
3124.0,0.0391
3123.0,0.0388
3122.0,0.0386
3121.0,0.0384
3120.0,0.0383
3119.0,0.038
3118.0,0.0378
3117.0,0.0374
3116.0,0.0371
3115.0,0.0368
3114.0,0.0365
3113.0,0.0362
3112.0,0.0359
3111.0,0.0357
3110.0,0.0355
3109.0,0.0352
3108.0,0.035
3107.0,0.0348
3106.0,0.0346
3105.0,0.0344
3104.0,0.0342
3103.0,0.034
3102.0,0.0338
3101.0,0.0336
3100.0,0.0334
3099.0,0.0332
3098.0,0.033
3097.0,0.0328
3096.0,0.0325
3095.0,0.0323
3094.0,0.032
3093.0,0.0318
3092.0,0.0316
3091.0,0.0313
3090.0,0.031
3089.0,0.0308
3088.0,0.0305
3087.0,0.0303
3086.0,0.0301
3085.0,0.0299
3084.0,0.0298
3083.0,0.0296
3082.0,0.0294
3081.0,0.0292
3080.0,0.029
3079.0,0.0287
3078.0,0.0285
3077.0,0.0283
3076.0,0.0282
3075.0,0.0281
3074.0,0.028
3073.0,0.0278
3072.0,0.0276
3071.0,0.0274
3070.0,0.0272
3069.0,0.027
3068.0,0.0267
3067.0,0.0264
3066.0,0.0262
3065.0,0.0259
3064.0,0.0258
3063.0,0.0256
3062.0,0.0255
3061.0,0.0253
3060.0,0.0252
3059.0,0.025
3058.0,0.0247
3057.0,0.0245
3056.0,0.0242
3055.0,0.024
3054.0,0.0238
3053.0,0.0236
3052.0,0.0235
3051.0,0.0233
3050.0,0.0232
3049.0,0.0231
3048.0,0.023
3047.0,0.0228
3046.0,0.0227
3045.0,0.0225
3044.0,0.0223
3043.0,0.0222
3042.0,0.0221
3041.0,0.0219
3040.0,0.0217
3039.0,0.0216
3038.0,0.0214
3037.0,0.0212
3036.0,0.021
3035.0,0.0208
3034.0,0.0206
3033.0,0.0205
3032.0,0.0204
3031.0,0.0203
3030.0,0.0203
3029.0,0.0201
3028.0,0.02
3027.0,0.0198
3026.0,0.0196
3025.0,0.0194
3024.0,0.0192
3023.0,0.019
3022.0,0.0188
3021.0,0.0186
3020.0,0.0185
3019.0,0.0183
3018.0,0.0181
3017.0,0.0179
3016.0,0.0176
3015.0,0.0174
3014.0,0.0172
3013.0,0.0171
3012.0,0.017
3011.0,0.0168
3010.0,0.0167
3009.0,0.0165
3008.0,0.0164
3007.0,0.0162
3006.0,0.0161
3005.0,0.0159
3004.0,0.0158
3003.0,0.0156
3002.0,0.0154
3001.0,0.0153
3000.0,0.0152
2999.0,0.0151
2998.0,0.015
2997.0,0.0149
2996.0,0.0148
2995.0,0.0147
2994.0,0.0145
2993.0,0.0143
2992.0,0.0141
2991.0,0.014
2990.0,0.0139
2989.0,0.014
2988.0,0.0139
2987.0,0.0138
2986.0,0.0137
2985.0,0.0136
2984.0,0.0135
2983.0,0.0135
2982.0,0.0135
2981.0,0.0136
2980.0,0.0137
2979.0,0.0138
2978.0,0.0139
2977.0,0.014
2976.0,0.0143
2975.0,0.0146
2974.0,0.0149
2973.0,0.0153
2972.0,0.0158
2971.0,0.0162
2970.0,0.0167
2969.0,0.0172
2968.0,0.0178
2967.0,0.0184
2966.0,0.0192
2965.0,0.02
2964.0,0.0207
2963.0,0.0214
2962.0,0.022
2961.0,0.0225
2960.0,0.0229
2959.0,0.0232
2958.0,0.0236
2957.0,0.0239
2956.0,0.0241
2955.0,0.0243
2954.0,0.0245
2953.0,0.0247
2952.0,0.0248
2951.0,0.0249
2950.0,0.025
2949.0,0.0254
2948.0,0.026
2947.0,0.027
2946.0,0.0283
2945.0,0.03
2944.0,0.0318
2943.0,0.034
2942.0,0.0364
2941.0,0.039
2940.0,0.042
2939.0,0.0452
2938.0,0.0487
2937.0,0.0525
2936.0,0.0565
2935.0,0.0608
2934.0,0.0654
2933.0,0.0705
2932.0,0.0759
2931.0,0.0816
2930.0,0.0877
2929.0,0.0943
2928.0,0.1015
2927.0,0.1095
2926.0,0.1183
2925.0,0.128
2924.0,0.1386
2923.0,0.1502
2922.0,0.1626
2921.0,0.1756
2920.0,0.1889
2919.0,0.2017
2918.0,0.2129
2917.0,0.2211
2916.0,0.225
2915.0,0.2241
2914.0,0.2187
2913.0,0.2101
2912.0,0.2
2911.0,0.1895
2910.0,0.1796
2909.0,0.1706
2908.0,0.1626
2907.0,0.1556
2906.0,0.1495
2905.0,0.1443
2904.0,0.1397
2903.0,0.1357
2902.0,0.1321
2901.0,0.1289
2900.0,0.126
2899.0,0.1232
2898.0,0.1205
2897.0,0.1179
2896.0,0.1154
2895.0,0.1128
2894.0,0.1102
2893.0,0.1076
2892.0,0.105
2891.0,0.1023
2890.0,0.0997
2889.0,0.0971
2888.0,0.0944
2887.0,0.0917
2886.0,0.089
2885.0,0.0863
2884.0,0.0837
2883.0,0.0811
2882.0,0.0785
2881.0,0.076
2880.0,0.0736
2879.0,0.0712
2878.0,0.069
2877.0,0.067
2876.0,0.0652
2875.0,0.0635
2874.0,0.0621
2873.0,0.0608
2872.0,0.0596
2871.0,0.0585
2870.0,0.0575
2869.0,0.0567
2868.0,0.0562
2867.0,0.056
2866.0,0.0562
2865.0,0.0569
2864.0,0.0582
2863.0,0.0601
2862.0,0.0626
2861.0,0.066
2860.0,0.0703
2859.0,0.0758
2858.0,0.0825
2857.0,0.0907
2856.0,0.1007
2855.0,0.1128
2854.0,0.1272
2853.0,0.1438
2852.0,0.1618
2851.0,0.1793
2850.0,0.1936
2849.0,0.2019
2848.0,0.2026
2847.0,0.1961
2846.0,0.1846
2845.0,0.1706
2844.0,0.1563
2843.0,0.1428
2842.0,0.1308
2841.0,0.1205
2840.0,0.1116
2839.0,0.1041
2838.0,0.0976
2837.0,0.092
2836.0,0.0871
2835.0,0.0829
2834.0,0.0791
2833.0,0.0758
2832.0,0.0729
2831.0,0.0703
2830.0,0.0681
2829.0,0.0661
2828.0,0.0643
2827.0,0.0627
2826.0,0.0611
2825.0,0.0596
2824.0,0.0582
2823.0,0.057
2822.0,0.0559
2821.0,0.0548
2820.0,0.0537
2819.0,0.0527
2818.0,0.0518
2817.0,0.051
2816.0,0.0502
2815.0,0.0495
2814.0,0.0487
2813.0,0.048
2812.0,0.0473
2811.0,0.0467
2810.0,0.0461
2809.0,0.0456
2808.0,0.045
2807.0,0.0444
2806.0,0.0439
2805.0,0.0433
2804.0,0.0429
2803.0,0.0424
2802.0,0.042
2801.0,0.0416
2800.0,0.0412
2799.0,0.0409
2798.0,0.0405
2797.0,0.0401
2796.0,0.0397
2795.0,0.0393
2794.0,0.0388
2793.0,0.0384
2792.0,0.038
2791.0,0.0376
2790.0,0.0373
2789.0,0.037
2788.0,0.0367
2787.0,0.0364
2786.0,0.0361
2785.0,0.0358
2784.0,0.0355
2783.0,0.0351
2782.0,0.0348
2781.0,0.0345
2780.0,0.0343
2779.0,0.0341
2778.0,0.0338
2777.0,0.0336
2776.0,0.0334
2775.0,0.0332
2774.0,0.033
2773.0,0.0328
2772.0,0.0326
2771.0,0.0324
2770.0,0.0322
2769.0,0.032
2768.0,0.0318
2767.0,0.0316
2766.0,0.0314
2765.0,0.0312
2764.0,0.0309
2763.0,0.0307
2762.0,0.0305
2761.0,0.0303
2760.0,0.0301
2759.0,0.03
2758.0,0.0299
2757.0,0.0298
2756.0,0.0297
2755.0,0.0296
2754.0,0.0295
2753.0,0.0294
2752.0,0.0293
2751.0,0.0292
2750.0,0.029
2749.0,0.0289
2748.0,0.0288
2747.0,0.0287
2746.0,0.0286
2745.0,0.0285
2744.0,0.0285
2743.0,0.0284
2742.0,0.0284
2741.0,0.0283
2740.0,0.0281
2739.0,0.028
2738.0,0.0279
2737.0,0.0279
2736.0,0.0278
2735.0,0.0278
2734.0,0.0277
2733.0,0.0276
2732.0,0.0274
2731.0,0.0273
2730.0,0.0272
2729.0,0.027
2728.0,0.0269
2727.0,0.0269
2726.0,0.0268
2725.0,0.0268
2724.0,0.0268
2723.0,0.0267
2722.0,0.0266
2721.0,0.0265
2720.0,0.0263
2719.0,0.0262
2718.0,0.0261
2717.0,0.0259
2716.0,0.0259
2715.0,0.0258
2714.0,0.0258
2713.0,0.0257
2712.0,0.0257
2711.0,0.0257
2710.0,0.0257
2709.0,0.0256
2708.0,0.0256
2707.0,0.0255
2706.0,0.0254
2705.0,0.0253
2704.0,0.0251
2703.0,0.0249
2702.0,0.0247
2701.0,0.0246
2700.0,0.0246
2699.0,0.0246
2698.0,0.0245
2697.0,0.0245
2696.0,0.0244
2695.0,0.0244
2694.0,0.0244
2693.0,0.0244
2692.0,0.0244
2691.0,0.0243
2690.0,0.0243
2689.0,0.0242
2688.0,0.0241
2687.0,0.024
2686.0,0.0239
2685.0,0.0239
2684.0,0.0239
2683.0,0.024
2682.0,0.024
2681.0,0.0239
2680.0,0.0239
2679.0,0.0238
2678.0,0.0237
2677.0,0.0237
2676.0,0.0237
2675.0,0.0236
2674.0,0.0236
2673.0,0.0236
2672.0,0.0236
2671.0,0.0237
2670.0,0.0237
2669.0,0.0237
2668.0,0.0236
2667.0,0.0235
2666.0,0.0235
2665.0,0.0235
2664.0,0.0235
2663.0,0.0235
2662.0,0.0234
2661.0,0.0234
2660.0,0.0234
2659.0,0.0233
2658.0,0.0232
2657.0,0.0232
2656.0,0.0232
2655.0,0.0232
2654.0,0.0232
2653.0,0.0232
2652.0,0.0231
2651.0,0.0231
2650.0,0.023
2649.0,0.023
2648.0,0.0229
2647.0,0.0229
2646.0,0.0228
2645.0,0.0228
2644.0,0.0228
2643.0,0.0228
2642.0,0.0228
2641.0,0.0228
2640.0,0.0228
2639.0,0.0228
2638.0,0.0227
2637.0,0.0227
2636.0,0.0227
2635.0,0.0228
2634.0,0.0227
2633.0,0.0227
2632.0,0.0226
2631.0,0.0225
2630.0,0.0225
2629.0,0.0224
2628.0,0.0224
2627.0,0.0223
2626.0,0.0222
2625.0,0.0222
2624.0,0.0221
2623.0,0.022
2622.0,0.022
2621.0,0.0219
2620.0,0.0219
2619.0,0.0219
2618.0,0.0218
2617.0,0.0218
2616.0,0.0217
2615.0,0.0216
2614.0,0.0215
2613.0,0.0214
2612.0,0.0214
2611.0,0.0214
2610.0,0.0214
2609.0,0.0213
2608.0,0.0213
2607.0,0.0212
2606.0,0.0213
2605.0,0.0213
2604.0,0.0212
2603.0,0.0211
2602.0,0.021
2601.0,0.021
2600.0,0.0209
2599.0,0.0208
2598.0,0.0208
2597.0,0.0207
2596.0,0.0206
2595.0,0.0206
2594.0,0.0206
2593.0,0.0206
2592.0,0.0205
2591.0,0.0205
2590.0,0.0204
2589.0,0.0203
2588.0,0.0203
2587.0,0.0203
2586.0,0.0203
2585.0,0.0204
2584.0,0.0203
2583.0,0.0203
2582.0,0.0202
2581.0,0.0201
2580.0,0.02
2579.0,0.02
2578.0,0.02
2577.0,0.02
2576.0,0.02
2575.0,0.02
2574.0,0.0201
2573.0,0.0201
2572.0,0.02
2571.0,0.0199
2570.0,0.0198
2569.0,0.0198
2568.0,0.0197
2567.0,0.0197
2566.0,0.0197
2565.0,0.0197
2564.0,0.0196
2563.0,0.0195
2562.0,0.0194
2561.0,0.0194
2560.0,0.0194
2559.0,0.0194
2558.0,0.0194
2557.0,0.0194
2556.0,0.0194
2555.0,0.0194
2554.0,0.0193
2553.0,0.0193
2552.0,0.0192
2551.0,0.0192
2550.0,0.0192
2549.0,0.0192
2548.0,0.0192
2547.0,0.0192
2546.0,0.0192
2545.0,0.0191
2544.0,0.019
2543.0,0.019
2542.0,0.0189
2541.0,0.0189
2540.0,0.0189
2539.0,0.0189
2538.0,0.0188
2537.0,0.0187
2536.0,0.0187
2535.0,0.0187
2534.0,0.0187
2533.0,0.0188
2532.0,0.0188
2531.0,0.0188
2530.0,0.0188
2529.0,0.0188
2528.0,0.0188
2527.0,0.0187
2526.0,0.0186
2525.0,0.0186
2524.0,0.0186
2523.0,0.0186
2522.0,0.0187
2521.0,0.0187
2520.0,0.0186
2519.0,0.0186
2518.0,0.0186
2517.0,0.0186
2516.0,0.0186
2515.0,0.0186
2514.0,0.0185
2513.0,0.0185
2512.0,0.0185
2511.0,0.0185
2510.0,0.0185
2509.0,0.0185
2508.0,0.0185
2507.0,0.0184
2506.0,0.0183
2505.0,0.0183
2504.0,0.0184
2503.0,0.0185
2502.0,0.0185
2501.0,0.0185
2500.0,0.0184
2499.0,0.0184
2498.0,0.0184
2497.0,0.0185
2496.0,0.0185
2495.0,0.0184
2494.0,0.0184
2493.0,0.0183
2492.0,0.0183
2491.0,0.0183
2490.0,0.0182
2489.0,0.0182
2488.0,0.0182
2487.0,0.0182
2486.0,0.0182
2485.0,0.0182
2484.0,0.0182
2483.0,0.0182
2482.0,0.0181
2481.0,0.0181
2480.0,0.0182
2479.0,0.0182
2478.0,0.0182
2477.0,0.0183
2476.0,0.0183
2475.0,0.0183
2474.0,0.0183
2473.0,0.0183
2472.0,0.0182
2471.0,0.0182
2470.0,0.0181
2469.0,0.0181
2468.0,0.0181
2467.0,0.0181
2466.0,0.0181
2465.0,0.0181
2464.0,0.0181
2463.0,0.0181
2462.0,0.0181
2461.0,0.0181
2460.0,0.0181
2459.0,0.018
2458.0,0.018
2457.0,0.018
2456.0,0.018
2455.0,0.0181
2454.0,0.0181
2453.0,0.0182
2452.0,0.0181
2451.0,0.0181
2450.0,0.018
2449.0,0.018
2448.0,0.018
2447.0,0.018
2446.0,0.018
2445.0,0.018
2444.0,0.0179
2443.0,0.0179
2442.0,0.018
2441.0,0.0181
2440.0,0.0181
2439.0,0.0182
2438.0,0.0182
2437.0,0.0181
2436.0,0.0181
2435.0,0.018
2434.0,0.0181
2433.0,0.0181
2432.0,0.0181
2431.0,0.0182
2430.0,0.0182
2429.0,0.0181
2428.0,0.0181
2427.0,0.0182
2426.0,0.0182
2425.0,0.0183
2424.0,0.0183
2423.0,0.0183
2422.0,0.0182
2421.0,0.0182
2420.0,0.0182
2419.0,0.0182
2418.0,0.0182
2417.0,0.0182
2416.0,0.0182
2415.0,0.0182
2414.0,0.0183
2413.0,0.0183
2412.0,0.0184
2411.0,0.0184
2410.0,0.0184
2409.0,0.0184
2408.0,0.0183
2407.0,0.0183
2406.0,0.0182
2405.0,0.0182
2404.0,0.0183
2403.0,0.0183
2402.0,0.0184
2401.0,0.0185
2400.0,0.0185
2399.0,0.0185
2398.0,0.0184
2397.0,0.0184
2396.0,0.0183
2395.0,0.0182
2394.0,0.0182
2393.0,0.0182
2392.0,0.0182
2391.0,0.0182
2390.0,0.0182
2389.0,0.0182
2388.0,0.0181
2387.0,0.0179
2386.0,0.0176
2385.0,0.0173
2384.0,0.017
2383.0,0.0167
2382.0,0.0165
2381.0,0.0163
2380.0,0.0161
2379.0,0.016
2378.0,0.0159
2377.0,0.0159
2376.0,0.016
2375.0,0.0161
2374.0,0.0161
2373.0,0.0161
2372.0,0.016
2371.0,0.0156
2370.0,0.0149
2369.0,0.0142
2368.0,0.014
2367.0,0.0143
2366.0,0.0149
2365.0,0.0155
2364.0,0.016
2363.0,0.0164
2362.0,0.0167
2361.0,0.0168
2360.0,0.0165
2359.0,0.0159
2358.0,0.0154
2357.0,0.0151
2356.0,0.0151
2355.0,0.0154
2354.0,0.0158
2353.0,0.0163
2352.0,0.0165
2351.0,0.016
2350.0,0.0154
2349.0,0.0149
2348.0,0.0148
2347.0,0.0149
2346.0,0.0151
2345.0,0.0152
2344.0,0.0152
2343.0,0.0153
2342.0,0.0155
2341.0,0.0157
2340.0,0.0157
2339.0,0.0155
2338.0,0.0155
2337.0,0.0156
2336.0,0.0157
2335.0,0.0158
2334.0,0.0158
2333.0,0.0158
2332.0,0.0159
2331.0,0.0159
2330.0,0.0158
2329.0,0.0158
2328.0,0.0159
2327.0,0.0163
2326.0,0.0166
2325.0,0.0168
2324.0,0.0168
2323.0,0.0168
2322.0,0.0169
2321.0,0.0171
2320.0,0.0172
2319.0,0.0172
2318.0,0.0171
2317.0,0.017
2316.0,0.017
2315.0,0.0169
2314.0,0.0167
2313.0,0.0166
2312.0,0.0165
2311.0,0.0164
2310.0,0.0164
2309.0,0.0166
2308.0,0.0167
2307.0,0.0169
2306.0,0.017
2305.0,0.0171
2304.0,0.0171
2303.0,0.0171
2302.0,0.0171
2301.0,0.0172
2300.0,0.0173
2299.0,0.0173
2298.0,0.0173
2297.0,0.0174
2296.0,0.0175
2295.0,0.0176
2294.0,0.0178
2293.0,0.018
2292.0,0.0181
2291.0,0.0182
2290.0,0.0183
2289.0,0.0184
2288.0,0.0184
2287.0,0.0185
2286.0,0.0185
2285.0,0.0186
2284.0,0.0186
2283.0,0.0186
2282.0,0.0185
2281.0,0.0184
2280.0,0.0184
2279.0,0.0184
2278.0,0.0184
2277.0,0.0185
2276.0,0.0185
2275.0,0.0185
2274.0,0.0184
2273.0,0.0184
2272.0,0.0183
2271.0,0.0183
2270.0,0.0183
2269.0,0.0182
2268.0,0.0182
2267.0,0.0183
2266.0,0.0183
2265.0,0.0183
2264.0,0.0183
2263.0,0.0183
2262.0,0.0183
2261.0,0.0183
2260.0,0.0183
2259.0,0.0183
2258.0,0.0184
2257.0,0.0184
2256.0,0.0183
2255.0,0.0183
2254.0,0.0182
2253.0,0.0182
2252.0,0.0183
2251.0,0.0183
2250.0,0.0184
2249.0,0.0183
2248.0,0.0183
2247.0,0.0183
2246.0,0.0183
2245.0,0.0184
2244.0,0.0184
2243.0,0.0184
2242.0,0.0184
2241.0,0.0184
2240.0,0.0183
2239.0,0.0183
2238.0,0.0183
2237.0,0.0183
2236.0,0.0182
2235.0,0.0183
2234.0,0.0183
2233.0,0.0184
2232.0,0.0184
2231.0,0.0183
2230.0,0.0182
2229.0,0.0182
2228.0,0.0181
2227.0,0.0181
2226.0,0.018
2225.0,0.018
2224.0,0.0181
2223.0,0.0181
2222.0,0.0182
2221.0,0.0182
2220.0,0.0182
2219.0,0.0181
2218.0,0.0181
2217.0,0.0182
2216.0,0.0182
2215.0,0.0182
2214.0,0.0182
2213.0,0.0182
2212.0,0.0182
2211.0,0.0182
2210.0,0.0182
2209.0,0.0182
2208.0,0.0182
2207.0,0.0182
2206.0,0.0182
2205.0,0.0182
2204.0,0.0181
2203.0,0.0181
2202.0,0.018
2201.0,0.018
2200.0,0.018
2199.0,0.018
2198.0,0.018
2197.0,0.0179
2196.0,0.0178
2195.0,0.0178
2194.0,0.0177
2193.0,0.0177
2192.0,0.0178
2191.0,0.0178
2190.0,0.0179
2189.0,0.0179
2188.0,0.0179
2187.0,0.0178
2186.0,0.0178
2185.0,0.0177
2184.0,0.0177
2183.0,0.0177
2182.0,0.0177
2181.0,0.0177
2180.0,0.0178
2179.0,0.0178
2178.0,0.0178
2177.0,0.0178
2176.0,0.0178
2175.0,0.0178
2174.0,0.0178
2173.0,0.0178
2172.0,0.0178
2171.0,0.0178
2170.0,0.0178
2169.0,0.0179
2168.0,0.0179
2167.0,0.0179
2166.0,0.0178
2165.0,0.0178
2164.0,0.0178
2163.0,0.0178
2162.0,0.0177
2161.0,0.0178
2160.0,0.0178
2159.0,0.0179
2158.0,0.0179
2157.0,0.0178
2156.0,0.0178
2155.0,0.0178
2154.0,0.0178
2153.0,0.0178
2152.0,0.0177
2151.0,0.0177
2150.0,0.0176
2149.0,0.0176
2148.0,0.0176
2147.0,0.0176
2146.0,0.0177
2145.0,0.0177
2144.0,0.0177
2143.0,0.0177
2142.0,0.0177
2141.0,0.0177
2140.0,0.0177
2139.0,0.0177
2138.0,0.0176
2137.0,0.0176
2136.0,0.0176
2135.0,0.0176
2134.0,0.0176
2133.0,0.0176
2132.0,0.0176
2131.0,0.0176
2130.0,0.0176
2129.0,0.0176
2128.0,0.0176
2127.0,0.0176
2126.0,0.0177
2125.0,0.0177
2124.0,0.0177
2123.0,0.0177
2122.0,0.0176
2121.0,0.0176
2120.0,0.0176
2119.0,0.0176
2118.0,0.0176
2117.0,0.0176
2116.0,0.0176
2115.0,0.0176
2114.0,0.0175
2113.0,0.0175
2112.0,0.0175
2111.0,0.0175
2110.0,0.0175
2109.0,0.0175
2108.0,0.0175
2107.0,0.0175
2106.0,0.0175
2105.0,0.0175
2104.0,0.0175
2103.0,0.0175
2102.0,0.0175
2101.0,0.0175
2100.0,0.0176
2099.0,0.0176
2098.0,0.0176
2097.0,0.0175
2096.0,0.0174
2095.0,0.0173
2094.0,0.0173
2093.0,0.0173
2092.0,0.0173
2091.0,0.0174
2090.0,0.0173
2089.0,0.0173
2088.0,0.0173
2087.0,0.0173
2086.0,0.0173
2085.0,0.0174
2084.0,0.0174
2083.0,0.0174
2082.0,0.0173
2081.0,0.0173
2080.0,0.0173
2079.0,0.0173
2078.0,0.0173
2077.0,0.0174
2076.0,0.0174
2075.0,0.0174
2074.0,0.0174
2073.0,0.0173
2072.0,0.0173
2071.0,0.0172
2070.0,0.0172
2069.0,0.0172
2068.0,0.0172
2067.0,0.0172
2066.0,0.0172
2065.0,0.0172
2064.0,0.0172
2063.0,0.0172
2062.0,0.0172
2061.0,0.0171
2060.0,0.0171
2059.0,0.0171
2058.0,0.0172
2057.0,0.0172
2056.0,0.0171
2055.0,0.0171
2054.0,0.0171
2053.0,0.0171
2052.0,0.0171
2051.0,0.0171
2050.0,0.0171
2049.0,0.0171
2048.0,0.017
2047.0,0.017
2046.0,0.017
2045.0,0.0171
2044.0,0.0171
2043.0,0.0171
2042.0,0.0171
2041.0,0.0171
2040.0,0.0171
2039.0,0.0172
2038.0,0.0172
2037.0,0.0171
2036.0,0.0171
2035.0,0.0171
2034.0,0.0171
2033.0,0.017
2032.0,0.017
2031.0,0.017
2030.0,0.017
2029.0,0.0171
2028.0,0.0171
2027.0,0.0171
2026.0,0.0171
2025.0,0.017
2024.0,0.017
2023.0,0.017
2022.0,0.017
2021.0,0.017
2020.0,0.017
2019.0,0.017
2018.0,0.017
2017.0,0.0171
2016.0,0.0171
2015.0,0.0171
2014.0,0.017
2013.0,0.0169
2012.0,0.0168
2011.0,0.0168
2010.0,0.0167
2009.0,0.0167
2008.0,0.0168
2007.0,0.0167
2006.0,0.0167
2005.0,0.0166
2004.0,0.0166
2003.0,0.0166
2002.0,0.0166
2001.0,0.0166
2000.0,0.0166
1999.0,0.0165
1998.0,0.0165
1997.0,0.0165
1996.0,0.0165
1995.0,0.0165
1994.0,0.0165
1993.0,0.0165
1992.0,0.0165
1991.0,0.0165
1990.0,0.0165
1989.0,0.0164
1988.0,0.0164
1987.0,0.0164
1986.0,0.0164
1985.0,0.0164
1984.0,0.0164
1983.0,0.0164
1982.0,0.0164
1981.0,0.0164
1980.0,0.0164
1979.0,0.0163
1978.0,0.0163
1977.0,0.0164
1976.0,0.0164
1975.0,0.0164
1974.0,0.0164
1973.0,0.0163
1972.0,0.0162
1971.0,0.0162
1970.0,0.0161
1969.0,0.0161
1968.0,0.0162
1967.0,0.0162
1966.0,0.0163
1965.0,0.0163
1964.0,0.0163
1963.0,0.0163
1962.0,0.0162
1961.0,0.0162
1960.0,0.0161
1959.0,0.0161
1958.0,0.0161
1957.0,0.0161
1956.0,0.0161
1955.0,0.0161
1954.0,0.0162
1953.0,0.0162
1952.0,0.0162
1951.0,0.0162
1950.0,0.0162
1949.0,0.0162
1948.0,0.0162
1947.0,0.0162
1946.0,0.0162
1945.0,0.0162
1944.0,0.0161
1943.0,0.0161
1942.0,0.016
1941.0,0.016
1940.0,0.016
1939.0,0.016
1938.0,0.016
1937.0,0.016
1936.0,0.016
1935.0,0.0161
1934.0,0.0161
1933.0,0.0161
1932.0,0.0162
1931.0,0.0162
1930.0,0.0162
1929.0,0.0162
1928.0,0.0162
1927.0,0.0162
1926.0,0.0162
1925.0,0.0162
1924.0,0.0162
1923.0,0.0161
1922.0,0.0161
1921.0,0.0162
1920.0,0.0162
1919.0,0.0162
1918.0,0.0162
1917.0,0.0161
1916.0,0.0162
1915.0,0.0162
1914.0,0.0162
1913.0,0.0162
1912.0,0.0162
1911.0,0.0162
1910.0,0.0162
1909.0,0.0162
1908.0,0.0162
1907.0,0.0162
1906.0,0.0162
1905.0,0.0162
1904.0,0.0163
1903.0,0.0163
1902.0,0.0163
1901.0,0.0164
1900.0,0.0164
1899.0,0.0164
1898.0,0.0163
1897.0,0.0163
1896.0,0.0163
1895.0,0.0163
1894.0,0.0163
1893.0,0.0164
1892.0,0.0164
1891.0,0.0164
1890.0,0.0163
1889.0,0.0163
1888.0,0.0162
1887.0,0.0162
1886.0,0.0162
1885.0,0.0162
1884.0,0.0161
1883.0,0.0161
1882.0,0.016
1881.0,0.0161
1880.0,0.0161
1879.0,0.0161
1878.0,0.0161
1877.0,0.0161
1876.0,0.0161
1875.0,0.0161
1874.0,0.0161
1873.0,0.0161
1872.0,0.0162
1871.0,0.0162
1870.0,0.0162
1869.0,0.0162
1868.0,0.0162
1867.0,0.0162
1866.0,0.0162
1865.0,0.0162
1864.0,0.0162
1863.0,0.0162
1862.0,0.0161
1861.0,0.0161
1860.0,0.0161
1859.0,0.0161
1858.0,0.0162
1857.0,0.0162
1856.0,0.0162
1855.0,0.0162
1854.0,0.0161
1853.0,0.0161
1852.0,0.0161
1851.0,0.0161
1850.0,0.016
1849.0,0.016
1848.0,0.016
1847.0,0.0161
1846.0,0.0162
1845.0,0.0162
1844.0,0.0162
1843.0,0.0161
1842.0,0.0161
1841.0,0.0161
1840.0,0.0161
1839.0,0.016
1838.0,0.016
1837.0,0.016
1836.0,0.016
1835.0,0.016
1834.0,0.0161
1833.0,0.0161
1832.0,0.0162
1831.0,0.0162
1830.0,0.0161
1829.0,0.0161
1828.0,0.0161
1827.0,0.0161
1826.0,0.0161
1825.0,0.0161
1824.0,0.0161
1823.0,0.0162
1822.0,0.0162
1821.0,0.0162
1820.0,0.0161
1819.0,0.0161
1818.0,0.0161
1817.0,0.0161
1816.0,0.0161
1815.0,0.0161
1814.0,0.0161
1813.0,0.0162
1812.0,0.0162
1811.0,0.0161
1810.0,0.0161
1809.0,0.0161
1808.0,0.0161
1807.0,0.0161
1806.0,0.0161
1805.0,0.0161
1804.0,0.0162
1803.0,0.0162
1802.0,0.0162
1801.0,0.0162
1800.0,0.0162
1799.0,0.0161
1798.0,0.0161
1797.0,0.0162
1796.0,0.0162
1795.0,0.0163
1794.0,0.0163
1793.0,0.0163
1792.0,0.0164
1791.0,0.0164
1790.0,0.0165
1789.0,0.0165
1788.0,0.0165
1787.0,0.0165
1786.0,0.0165
1785.0,0.0165
1784.0,0.0165
1783.0,0.0165
1782.0,0.0165
1781.0,0.0165
1780.0,0.0166
1779.0,0.0166
1778.0,0.0166
1777.0,0.0166
1776.0,0.0166
1775.0,0.0167
1774.0,0.0166
1773.0,0.0165
1772.0,0.0166
1771.0,0.0167
1770.0,0.0169
1769.0,0.0171
1768.0,0.0172
1767.0,0.0171
1766.0,0.0171
1765.0,0.0171
1764.0,0.0171
1763.0,0.0171
1762.0,0.0171
1761.0,0.0172
1760.0,0.0173
1759.0,0.0174
1758.0,0.0174
1757.0,0.0174
1756.0,0.0174
1755.0,0.0175
1754.0,0.0176
1753.0,0.0176
1752.0,0.0177
1751.0,0.0178
1750.0,0.0179
1749.0,0.018
1748.0,0.0182
1747.0,0.0183
1746.0,0.0183
1745.0,0.0184
1744.0,0.0185
1743.0,0.0186
1742.0,0.0187
1741.0,0.0188
1740.0,0.0189
1739.0,0.019
1738.0,0.0192
1737.0,0.0194
1736.0,0.0196
1735.0,0.0197
1734.0,0.0197
1733.0,0.0198
1732.0,0.0199
1731.0,0.0201
1730.0,0.0202
1729.0,0.0204
1728.0,0.0205
1727.0,0.0207
1726.0,0.0208
1725.0,0.0209
1724.0,0.0211
1723.0,0.0212
1722.0,0.0213
1721.0,0.0215
1720.0,0.0217
1719.0,0.0217
1718.0,0.0218
1717.0,0.022
1716.0,0.0223
1715.0,0.0226
1714.0,0.0228
1713.0,0.023
1712.0,0.0232
1711.0,0.0233
1710.0,0.0234
1709.0,0.0235
1708.0,0.0237
1707.0,0.024
1706.0,0.0242
1705.0,0.0245
1704.0,0.025
1703.0,0.0254
1702.0,0.0257
1701.0,0.026
1700.0,0.0263
1699.0,0.0266
1698.0,0.0268
1697.0,0.0271
1696.0,0.0274
1695.0,0.0277
1694.0,0.0281
1693.0,0.0286
1692.0,0.029
1691.0,0.0293
1690.0,0.0296
1689.0,0.0301
1688.0,0.0307
1687.0,0.0311
1686.0,0.0313
1685.0,0.0321
1684.0,0.0334
1683.0,0.0343
1682.0,0.0349
1681.0,0.0354
1680.0,0.0359
1679.0,0.0365
1678.0,0.037
1677.0,0.0375
1676.0,0.0382
1675.0,0.039
1674.0,0.0396
1673.0,0.0401
1672.0,0.0406
1671.0,0.0412
1670.0,0.0421
1669.0,0.043
1668.0,0.0437
1667.0,0.0441
1666.0,0.0445
1665.0,0.0449
1664.0,0.0455
1663.0,0.0464
1662.0,0.0471
1661.0,0.0477
1660.0,0.0482
1659.0,0.0486
1658.0,0.049
1657.0,0.0494
1656.0,0.0499
1655.0,0.0502
1654.0,0.0511
1653.0,0.0524
1652.0,0.0531
1651.0,0.0535
1650.0,0.054
1649.0,0.0543
1648.0,0.0549
1647.0,0.0556
1646.0,0.0561
1645.0,0.0562
1644.0,0.0563
1643.0,0.0563
1642.0,0.0564
1641.0,0.0564
1640.0,0.0564
1639.0,0.0565
1638.0,0.0563
1637.0,0.0559
1636.0,0.0553
1635.0,0.0546
1634.0,0.0539
1633.0,0.0534
1632.0,0.0528
1631.0,0.0521
1630.0,0.0513
1629.0,0.0505
1628.0,0.0499
1627.0,0.0494
1626.0,0.0489
1625.0,0.0485
1624.0,0.0479
1623.0,0.0473
1622.0,0.0468
1621.0,0.0464
1620.0,0.0461
1619.0,0.0457
1618.0,0.045
1617.0,0.0443
1616.0,0.0438
1615.0,0.0436
1614.0,0.0434
1613.0,0.0431
1612.0,0.0427
1611.0,0.0422
1610.0,0.0417
1609.0,0.0411
1608.0,0.0406
1607.0,0.0401
1606.0,0.0396
1605.0,0.0391
1604.0,0.0386
1603.0,0.0381
1602.0,0.0377
1601.0,0.0372
1600.0,0.0368
1599.0,0.0364
1598.0,0.036
1597.0,0.0356
1596.0,0.0351
1595.0,0.0347
1594.0,0.0343
1593.0,0.034
1592.0,0.0336
1591.0,0.0332
1590.0,0.0329
1589.0,0.0326
1588.0,0.0323
1587.0,0.032
1586.0,0.0317
1585.0,0.0314
1584.0,0.0311
1583.0,0.0308
1582.0,0.0304
1581.0,0.0301
1580.0,0.0299
1579.0,0.0297
1578.0,0.0295
1577.0,0.0291
1576.0,0.0286
1575.0,0.0284
1574.0,0.0283
1573.0,0.0283
1572.0,0.0282
1571.0,0.028
1570.0,0.0277
1569.0,0.0275
1568.0,0.0273
1567.0,0.0271
1566.0,0.0269
1565.0,0.0266
1564.0,0.0265
1563.0,0.0265
1562.0,0.0265
1561.0,0.0263
1560.0,0.0261
1559.0,0.0263
1558.0,0.0263
1557.0,0.0263
1556.0,0.0262
1555.0,0.0259
1554.0,0.0257
1553.0,0.0255
1552.0,0.0254
1551.0,0.0253
1550.0,0.0252
1549.0,0.0251
1548.0,0.0251
1547.0,0.0251
1546.0,0.025
1545.0,0.025
1544.0,0.025
1543.0,0.0249
1542.0,0.0246
1541.0,0.0246
1540.0,0.0246
1539.0,0.0245
1538.0,0.0244
1537.0,0.0246
1536.0,0.0246
1535.0,0.0246
1534.0,0.0244
1533.0,0.0243
1532.0,0.0242
1531.0,0.024
1530.0,0.0238
1529.0,0.0236
1528.0,0.0236
1527.0,0.0235
1526.0,0.0234
1525.0,0.0234
1524.0,0.0234
1523.0,0.0232
1522.0,0.023
1521.0,0.0229
1520.0,0.023
1519.0,0.0229
1518.0,0.0227
1517.0,0.0226
1516.0,0.0225
1515.0,0.0225
1514.0,0.0225
1513.0,0.0225
1512.0,0.0224
1511.0,0.0224
1510.0,0.0224
1509.0,0.0224
1508.0,0.0225
1507.0,0.0226
1506.0,0.0224
1505.0,0.0222
1504.0,0.0222
1503.0,0.0221
1502.0,0.0221
1501.0,0.0221
1500.0,0.0222
1499.0,0.0222
1498.0,0.0222
1497.0,0.0222
1496.0,0.0222
1495.0,0.022
1494.0,0.0218
1493.0,0.0218
1492.0,0.0217
1491.0,0.0215
1490.0,0.0213
1489.0,0.0213
1488.0,0.0215
1487.0,0.0214
1486.0,0.0214
1485.0,0.0214
1484.0,0.0215
1483.0,0.0216
1482.0,0.0219
1481.0,0.0225
1480.0,0.0232
1479.0,0.0242
1478.0,0.0263
1477.0,0.0308
1476.0,0.0382
1475.0,0.0484
1474.0,0.0612
1473.0,0.0733
1472.0,0.079
1471.0,0.0787
1470.0,0.0772
1469.0,0.0765
1468.0,0.0766
1467.0,0.0778
1466.0,0.0811
1465.0,0.0867
1464.0,0.0916
1463.0,0.0928
1462.0,0.0907
1461.0,0.0863
1460.0,0.0805
1459.0,0.0741
1458.0,0.0682
1457.0,0.0638
1456.0,0.061
1455.0,0.0592
1454.0,0.0574
1453.0,0.0553
1452.0,0.0531
1451.0,0.0512
1450.0,0.0497
1449.0,0.0484
1448.0,0.0472
1447.0,0.0463
1446.0,0.0456
1445.0,0.045
1444.0,0.0444
1443.0,0.0438
1442.0,0.0433
1441.0,0.0428
1440.0,0.0424
1439.0,0.0421
1438.0,0.0418
1437.0,0.0413
1436.0,0.0406
1435.0,0.04
1434.0,0.0395
1433.0,0.0389
1432.0,0.0381
1431.0,0.0374
1430.0,0.0367
1429.0,0.036
1428.0,0.0353
1427.0,0.0346
1426.0,0.034
1425.0,0.0334
1424.0,0.0329
1423.0,0.0325
1422.0,0.0323
1421.0,0.032
1420.0,0.0316
1419.0,0.0313
1418.0,0.0312
1417.0,0.031
1416.0,0.0308
1415.0,0.0306
1414.0,0.0303
1413.0,0.03
1412.0,0.0298
1411.0,0.0297
1410.0,0.0295
1409.0,0.0294
1408.0,0.0292
1407.0,0.0291
1406.0,0.029
1405.0,0.0289
1404.0,0.0288
1403.0,0.0288
1402.0,0.0287
1401.0,0.0285
1400.0,0.0284
1399.0,0.0283
1398.0,0.0284
1397.0,0.0283
1396.0,0.0282
1395.0,0.0282
1394.0,0.0282
1393.0,0.0281
1392.0,0.0279
1391.0,0.0279
1390.0,0.0278
1389.0,0.0278
1388.0,0.0279
1387.0,0.0281
1386.0,0.0284
1385.0,0.0287
1384.0,0.0291
1383.0,0.0298
1382.0,0.0307
1381.0,0.0317
1380.0,0.0328
1379.0,0.0338
1378.0,0.0345
1377.0,0.0347
1376.0,0.0344
1375.0,0.034
1374.0,0.0336
1373.0,0.0333
1372.0,0.0332
1371.0,0.0333
1370.0,0.0335
1369.0,0.0336
1368.0,0.0337
1367.0,0.0336
1366.0,0.0334
1365.0,0.033
1364.0,0.0325
1363.0,0.032
1362.0,0.0316
1361.0,0.0312
1360.0,0.0308
1359.0,0.0305
1358.0,0.0302
1357.0,0.03
1356.0,0.0298
1355.0,0.0297
1354.0,0.0297
1353.0,0.0297
1352.0,0.0296
1351.0,0.0295
1350.0,0.0294
1349.0,0.0293
1348.0,0.0292
1347.0,0.029
1346.0,0.0288
1345.0,0.0287
1344.0,0.0285
1343.0,0.0284
1342.0,0.0282
1341.0,0.0281
1340.0,0.028
1339.0,0.0279
1338.0,0.0278
1337.0,0.0275
1336.0,0.0273
1335.0,0.0271
1334.0,0.027
1333.0,0.0269
1332.0,0.0269
1331.0,0.0268
1330.0,0.0268
1329.0,0.0267
1328.0,0.0267
1327.0,0.0267
1326.0,0.0267
1325.0,0.0267
1324.0,0.0267
1323.0,0.0268
1322.0,0.0269
1321.0,0.027
1320.0,0.0271
1319.0,0.0273
1318.0,0.0275
1317.0,0.0276
1316.0,0.0277
1315.0,0.0278
1314.0,0.0278
1313.0,0.0279
1312.0,0.0279
1311.0,0.028
1310.0,0.028
1309.0,0.0281
1308.0,0.0282
1307.0,0.0282
1306.0,0.0283
1305.0,0.0284
1304.0,0.0285
1303.0,0.0285
1302.0,0.0285
1301.0,0.0285
1300.0,0.0285
1299.0,0.0285
1298.0,0.0285
1297.0,0.0285
1296.0,0.0285
1295.0,0.0284
1294.0,0.0284
1293.0,0.0283
1292.0,0.0283
1291.0,0.0283
1290.0,0.0282
1289.0,0.0282
1288.0,0.0282
1287.0,0.0282
1286.0,0.0281
1285.0,0.0281
1284.0,0.0281
1283.0,0.0281
1282.0,0.0281
1281.0,0.0281
1280.0,0.0282
1279.0,0.0282
1278.0,0.0283
1277.0,0.0283
1276.0,0.0284
1275.0,0.0284
1274.0,0.0285
1273.0,0.0285
1272.0,0.0286
1271.0,0.0287
1270.0,0.0287
1269.0,0.0288
1268.0,0.0288
1267.0,0.0289
1266.0,0.029
1265.0,0.0291
1264.0,0.0292
1263.0,0.0293
1262.0,0.0295
1261.0,0.0296
1260.0,0.0297
1259.0,0.0298
1258.0,0.0299
1257.0,0.0299
1256.0,0.03
1255.0,0.03
1254.0,0.03
1253.0,0.03
1252.0,0.03
1251.0,0.03
1250.0,0.03
1249.0,0.0301
1248.0,0.0301
1247.0,0.0301
1246.0,0.0301
1245.0,0.0302
1244.0,0.0302
1243.0,0.0303
1242.0,0.0304
1241.0,0.0306
1240.0,0.0307
1239.0,0.0308
1238.0,0.0309
1237.0,0.0311
1236.0,0.0313
1235.0,0.0314
1234.0,0.0316
1233.0,0.0318
1232.0,0.032
1231.0,0.0322
1230.0,0.0325
1229.0,0.0328
1228.0,0.033
1227.0,0.0332
1226.0,0.0335
1225.0,0.0337
1224.0,0.0339
1223.0,0.0341
1222.0,0.0344
1221.0,0.0347
1220.0,0.035
1219.0,0.0353
1218.0,0.0355
1217.0,0.0358
1216.0,0.036
1215.0,0.0362
1214.0,0.0365
1213.0,0.0368
1212.0,0.037
1211.0,0.0374
1210.0,0.0377
1209.0,0.0381
1208.0,0.0385
1207.0,0.0388
1206.0,0.0391
1205.0,0.0394
1204.0,0.0398
1203.0,0.0401
1202.0,0.0405
1201.0,0.041
1200.0,0.0414
1199.0,0.0418
1198.0,0.0423
1197.0,0.0427
1196.0,0.0432
1195.0,0.0437
1194.0,0.0442
1193.0,0.0448
1192.0,0.0453
1191.0,0.0459
1190.0,0.0465
1189.0,0.0471
1188.0,0.0477
1187.0,0.0484
1186.0,0.049
1185.0,0.0497
1184.0,0.0504
1183.0,0.0511
1182.0,0.0518
1181.0,0.0524
1180.0,0.0531
1179.0,0.0538
1178.0,0.0545
1177.0,0.0552
1176.0,0.0559
1175.0,0.0565
1174.0,0.0572
1173.0,0.058
1172.0,0.0587
1171.0,0.0594
1170.0,0.06
1169.0,0.0607
1168.0,0.0613
1167.0,0.062
1166.0,0.0627
1165.0,0.0635
1164.0,0.0641
1163.0,0.0648
1162.0,0.0654
1161.0,0.066
1160.0,0.0667
1159.0,0.0676
1158.0,0.0684
1157.0,0.0692
1156.0,0.07
1155.0,0.0708
1154.0,0.0715
1153.0,0.0723
1152.0,0.0731
1151.0,0.074
1150.0,0.0749
1149.0,0.0759
1148.0,0.0769
1147.0,0.0779
1146.0,0.0788
1145.0,0.0798
1144.0,0.0807
1143.0,0.0817
1142.0,0.0826
1141.0,0.0837
1140.0,0.0848
1139.0,0.0858
1138.0,0.0868
1137.0,0.0877
1136.0,0.0886
1135.0,0.0896
1134.0,0.0906
1133.0,0.0916
1132.0,0.0925
1131.0,0.0934
1130.0,0.0942
1129.0,0.0949
1128.0,0.0956
1127.0,0.0963
1126.0,0.0969
1125.0,0.0975
1124.0,0.0981
1123.0,0.0986
1122.0,0.0991
1121.0,0.0996
1120.0,0.1
1119.0,0.1003
1118.0,0.1007
1117.0,0.101
1116.0,0.1013
1115.0,0.1016
1114.0,0.1019
1113.0,0.1022
1112.0,0.1024
1111.0,0.1026
1110.0,0.1028
1109.0,0.1029
1108.0,0.1031
1107.0,0.1032
1106.0,0.1033
1105.0,0.1035
1104.0,0.1037
1103.0,0.1038
1102.0,0.1038
1101.0,0.1039
1100.0,0.104
1099.0,0.104
1098.0,0.1039
1097.0,0.1037
1096.0,0.1035
1095.0,0.1033
1094.0,0.1031
1093.0,0.103
1092.0,0.1029
1091.0,0.1028
1090.0,0.1027
1089.0,0.1025
1088.0,0.1023
1087.0,0.102
1086.0,0.1016
1085.0,0.1013
1084.0,0.101
1083.0,0.1006
1082.0,0.1
1081.0,0.0995
1080.0,0.0988
1079.0,0.0981
1078.0,0.0973
1077.0,0.0964
1076.0,0.0953
1075.0,0.0941
1074.0,0.0928
1073.0,0.0914
1072.0,0.0899
1071.0,0.0883
1070.0,0.0867
1069.0,0.0851
1068.0,0.0833
1067.0,0.0815
1066.0,0.0798
1065.0,0.078
1064.0,0.0762
1063.0,0.0744
1062.0,0.0727
1061.0,0.0711
1060.0,0.0695
1059.0,0.068
1058.0,0.0665
1057.0,0.065
1056.0,0.0636
1055.0,0.0622
1054.0,0.0609
1053.0,0.0598
1052.0,0.0588
1051.0,0.0578
1050.0,0.0568
1049.0,0.0559
1048.0,0.055
1047.0,0.0542
1046.0,0.0534
1045.0,0.0528
1044.0,0.0521
1043.0,0.0514
1042.0,0.0507
1041.0,0.0501
1040.0,0.0495
1039.0,0.049
1038.0,0.0486
1037.0,0.0481
1036.0,0.0477
1035.0,0.0474
1034.0,0.047
1033.0,0.0466
1032.0,0.0462
1031.0,0.0458
1030.0,0.0454
1029.0,0.045
1028.0,0.0447
1027.0,0.0444
1026.0,0.0441
1025.0,0.0439
1024.0,0.0438
1023.0,0.0436
1022.0,0.0435
1021.0,0.0434
1020.0,0.0433
1019.0,0.0432
1018.0,0.0432
1017.0,0.0431
1016.0,0.0431
1015.0,0.0432
1014.0,0.0433
1013.0,0.0434
1012.0,0.0435
1011.0,0.0436
1010.0,0.0436
1009.0,0.0436
1008.0,0.0437
1007.0,0.0437
1006.0,0.0437
1005.0,0.0437
1004.0,0.0437
1003.0,0.0436
1002.0,0.0435
1001.0,0.0433
1000.0,0.0431
999.0,0.0429
998.0,0.0426
997.0,0.0424
996.0,0.0421
995.0,0.0417
994.0,0.0413
993.0,0.0409
992.0,0.0405
991.0,0.0403
990.0,0.0401
989.0,0.04
988.0,0.0399
987.0,0.0399
986.0,0.04
985.0,0.04
984.0,0.04
983.0,0.0398
982.0,0.0394
981.0,0.039
980.0,0.0386
979.0,0.0383
978.0,0.038
977.0,0.0379
976.0,0.0378
975.0,0.0376
974.0,0.0375
973.0,0.0373
972.0,0.0371
971.0,0.037
970.0,0.037
969.0,0.037
968.0,0.0369
967.0,0.0369
966.0,0.0369
965.0,0.0369
964.0,0.0369
963.0,0.0368
962.0,0.0368
961.0,0.0367
960.0,0.0365
959.0,0.0364
958.0,0.0363
957.0,0.0363
956.0,0.0363
955.0,0.0364
954.0,0.0364
953.0,0.0364
952.0,0.0363
951.0,0.0363
950.0,0.0362
949.0,0.0362
948.0,0.0362
947.0,0.0362
946.0,0.0362
945.0,0.0363
944.0,0.0363
943.0,0.0363
942.0,0.0363
941.0,0.0362
940.0,0.0362
939.0,0.0361
938.0,0.0361
937.0,0.036
936.0,0.036
935.0,0.0361
934.0,0.0362
933.0,0.0362
932.0,0.0362
931.0,0.0362
930.0,0.0361
929.0,0.0361
928.0,0.0361
927.0,0.0362
926.0,0.0362
925.0,0.0362
924.0,0.0362
923.0,0.0363
922.0,0.0364
921.0,0.0365
920.0,0.0365
919.0,0.0366
918.0,0.0366
917.0,0.0367
916.0,0.0367
915.0,0.0368
914.0,0.0368
913.0,0.0368
912.0,0.0367
911.0,0.0368
910.0,0.0369
909.0,0.0371
908.0,0.0373
907.0,0.0373
906.0,0.0372
905.0,0.0371
904.0,0.037
903.0,0.0371
902.0,0.0372
901.0,0.0373
900.0,0.0375
899.0,0.0377
898.0,0.0378
897.0,0.0379
896.0,0.038
895.0,0.0381
894.0,0.0381
893.0,0.0382
892.0,0.0384
891.0,0.0385
890.0,0.0386
889.0,0.0387
888.0,0.0388
887.0,0.039
886.0,0.0391
885.0,0.0392
884.0,0.0391
883.0,0.039
882.0,0.039
881.0,0.039
880.0,0.0391
879.0,0.0393
878.0,0.0394
877.0,0.0395
876.0,0.0397
875.0,0.0399
874.0,0.0401
873.0,0.0403
872.0,0.0403
871.0,0.0402
870.0,0.0401
869.0,0.0401
868.0,0.0401
867.0,0.0402
866.0,0.0404
865.0,0.0406
864.0,0.0408
863.0,0.0409
862.0,0.0409
861.0,0.041
860.0,0.041
859.0,0.0411
858.0,0.0412
857.0,0.0412
856.0,0.0413
855.0,0.0413
854.0,0.0413
853.0,0.0414
852.0,0.0416
851.0,0.0417
850.0,0.0419
849.0,0.042
848.0,0.0421
847.0,0.0421
846.0,0.0421
845.0,0.0421
844.0,0.0422
843.0,0.0423
842.0,0.0424
841.0,0.0426
840.0,0.0428
839.0,0.043
838.0,0.0432
837.0,0.0433
836.0,0.0433
835.0,0.0434
834.0,0.0435
833.0,0.0436
832.0,0.0438
831.0,0.0439
830.0,0.0441
829.0,0.0443
828.0,0.0444
827.0,0.0446
826.0,0.0447
825.0,0.0449
824.0,0.0451
823.0,0.0454
822.0,0.0456
821.0,0.0458
820.0,0.046
819.0,0.0461
818.0,0.0463
817.0,0.0464
816.0,0.0466
815.0,0.0467
814.0,0.0469
813.0,0.047
812.0,0.0472
811.0,0.0474
810.0,0.0477
809.0,0.0481
808.0,0.0484
807.0,0.0486
806.0,0.0487
805.0,0.0489
804.0,0.0491
803.0,0.0494
802.0,0.0496
801.0,0.0499
800.0,0.0502
799.0,0.0504
798.0,0.0506
797.0,0.0508
796.0,0.0511
795.0,0.0514
794.0,0.0517
793.0,0.0519
792.0,0.0521
791.0,0.0524
790.0,0.0529
789.0,0.0533
788.0,0.0537
787.0,0.0539
786.0,0.054
785.0,0.0541
784.0,0.0543
783.0,0.0546
782.0,0.0551
781.0,0.0557
780.0,0.0563
779.0,0.0567
778.0,0.057
777.0,0.0572
776.0,0.0576
775.0,0.0581
774.0,0.0587
773.0,0.059
772.0,0.0592
771.0,0.0593
770.0,0.0593
769.0,0.0594
768.0,0.0596
767.0,0.0599
766.0,0.0602
765.0,0.0605
764.0,0.0606
763.0,0.0607
762.0,0.0609
761.0,0.061
760.0,0.0612
759.0,0.0612
758.0,0.0613
757.0,0.0615
756.0,0.0616
755.0,0.0617
754.0,0.0618
753.0,0.062
752.0,0.0623
751.0,0.0627
750.0,0.0629
749.0,0.063
748.0,0.063
747.0,0.0631
746.0,0.0634
745.0,0.0638
744.0,0.064
743.0,0.0642
742.0,0.0643
741.0,0.0645
740.0,0.0647
739.0,0.0648
738.0,0.0649
737.0,0.0653
736.0,0.0663
735.0,0.0683
734.0,0.072
733.0,0.0786
732.0,0.0875
731.0,0.0966
730.0,0.1026
729.0,0.1039
728.0,0.1018
727.0,0.0989
726.0,0.0974
725.0,0.0978
724.0,0.1004
723.0,0.1054
722.0,0.1139
721.0,0.1255
720.0,0.137
719.0,0.144
718.0,0.1441
717.0,0.1385
716.0,0.1302
715.0,0.1216
714.0,0.1141
713.0,0.108
712.0,0.1031
711.0,0.0991
710.0,0.0958
709.0,0.0932
708.0,0.0914
707.0,0.0903
706.0,0.0892
705.0,0.0877
704.0,0.0862
703.0,0.085
702.0,0.0843
701.0,0.0837
700.0,0.0832
699.0,0.0827
698.0,0.0821
697.0,0.0816
696.0,0.081
695.0,0.0806
694.0,0.08
693.0,0.0793
692.0,0.0788
691.0,0.0787
690.0,0.0789
689.0,0.0791
688.0,0.0792
687.0,0.0793
686.0,0.0796
685.0,0.0796
684.0,0.0793
683.0,0.079
682.0,0.0793
681.0,0.0803
680.0,0.0816
679.0,0.0824
678.0,0.0826
677.0,0.0825
676.0,0.0825
675.0,0.0821
674.0,0.0813
673.0,0.0803
672.0,0.0801
671.0,0.0815
670.0,0.0848
669.0,0.0891
668.0,0.0913
667.0,0.0901
666.0,0.0876
665.0,0.0858
664.0,0.0857
663.0,0.0868
662.0,0.0881
661.0,0.0891
660.0,0.09
659.0,0.091
658.0,0.0918
657.0,0.0922
656.0,0.0922
655.0,0.0922
654.0,0.0922
653.0,0.0924
652.0,0.0924
651.0,0.0925
650.0,0.0931
649.0,0.0941
648.0,0.0951
647.0,0.0951
646.0,0.094
645.0,0.0925
644.0,0.0916
643.0,0.0916
642.0,0.092
641.0,0.0922
640.0,0.0924
639.0,0.093
638.0,0.0944
637.0,0.097
636.0,0.1005
635.0,0.1037
634.0,0.105
633.0,0.1042
632.0,0.1025
631.0,0.1013
630.0,0.1003
629.0,0.099
628.0,0.0974
627.0,0.0961
626.0,0.0956
625.0,0.0963
624.0,0.0979
623.0,0.0994
622.0,0.0999
621.0,0.0992
620.0,0.0981
619.0,0.0972
618.0,0.097
617.0,0.0972
616.0,0.0977
615.0,0.0982
614.0,0.0985
613.0,0.0985
612.0,0.0985
611.0,0.0985
610.0,0.0983
609.0,0.0978
608.0,0.0975
607.0,0.0978
606.0,0.0988
605.0,0.1003
604.0,0.1024
603.0,0.1047
602.0,0.106
601.0,0.1056
600.0,0.1041
