cm-1,A
4000.0,-0.005480809979401258
3999.0,-0.0054379230508221355
3998.0,-0.005395031886706203
3997.0,-0.005352136486216796
3996.0,-0.005395031886706203
3995.0,-0.0054379230508221355
3994.0,-0.005480809979401258
3993.0,-0.00552369267327979
3992.0,-0.005480809979401258
3991.0,-0.005352136486216796
3990.0,-0.005180512503780488
3989.0,-0.005051749993995713
3988.0,-0.004965887106823441
3987.0,-0.005051749993995713
3986.0,-0.005180512503780488
3985.0,-0.005309236848516363
3984.0,-0.005352136486216796
3983.0,-0.005395031886706203
3982.0,-0.005352136486216796
3981.0,-0.005352136486216796
3980.0,-0.005352136486216796
3979.0,-0.005352136486216796
3978.0,-0.005309236848516363
3977.0,-0.005266332972768684
3976.0,-0.005223424858135761
3975.0,-0.005266332972768684
3974.0,-0.005395031886706203
3973.0,-0.00552369267327979
3972.0,-0.005609445360280407
3971.0,-0.005695181118510195
3970.0,-0.005695181118510195
3969.0,-0.005738042651424635
3968.0,-0.00582375302902749
3967.0,-0.0058666018753847915
3966.0,-0.0058666018753847915
3965.0,-0.005780899954652252
3964.0,-0.005609445360280407
3963.0,-0.0054379230508221355
3962.0,-0.005309236848516363
3961.0,-0.005309236848516363
3960.0,-0.005395031886706203
3959.0,-0.00552369267327979
3958.0,-0.005652315355074045
3957.0,-0.005738042651424635
3956.0,-0.00582375302902749
3955.0,-0.00582375302902749
3954.0,-0.005738042651424635
3953.0,-0.005609445360280407
3952.0,-0.005395031886706203
3951.0,-0.005223424858135761
3950.0,-0.005180512503780488
3949.0,-0.005223424858135761
3948.0,-0.0054379230508221355
3947.0,-0.005609445360280407
3946.0,-0.005695181118510195
3945.0,-0.005695181118510195
3944.0,-0.005609445360280407
3943.0,-0.005609445360280407
3942.0,-0.005652315355074045
3941.0,-0.005738042651424635
3940.0,-0.005652315355074045
3939.0,-0.005480809979401258
3938.0,-0.005309236848516363
3937.0,-0.005180512503780488
3936.0,-0.005180512503780488
3935.0,-0.005223424858135761
3934.0,-0.005223424858135761
3933.0,-0.005180512503780488
3932.0,-0.005180512503780488
3931.0,-0.005266332972768684
3930.0,-0.0054379230508221355
3929.0,-0.005652315355074045
3928.0,-0.00582375302902749
3927.0,-0.0058666018753847915
3926.0,-0.005738042651424635
3925.0,-0.005609445360280407
3924.0,-0.00552369267327979
3923.0,-0.005566571133294396
3922.0,-0.005652315355074045
3921.0,-0.005738042651424635
3920.0,-0.005738042651424635
3919.0,-0.005695181118510195
3918.0,-0.005609445360280407
3917.0,-0.00552369267327979
3916.0,-0.0054379230508221355
3915.0,-0.005352136486216796
3914.0,-0.005309236848516363
3913.0,-0.005266332972768684
3912.0,-0.005266332972768684
3911.0,-0.005309236848516363
3910.0,-0.0054379230508221355
3909.0,-0.00552369267327979
3908.0,-0.005609445360280407
3907.0,-0.005652315355074045
3906.0,-0.005566571133294396
3905.0,-0.0054379230508221355
3904.0,-0.005395031886706203
3903.0,-0.005480809979401258
3902.0,-0.005609445360280407
3901.0,-0.005695181118510195
3900.0,-0.005738042651424635
3899.0,-0.005695181118510195
3898.0,-0.005695181118510195
3897.0,-0.005652315355074045
3896.0,-0.005609445360280407
3895.0,-0.005652315355074045
3894.0,-0.005738042651424635
3893.0,-0.005738042651424635
3892.0,-0.005738042651424635
3891.0,-0.005738042651424635
3890.0,-0.00582375302902749
3889.0,-0.005909446494558601
3888.0,-0.005909446494558601
3887.0,-0.00582375302902749
3886.0,-0.005652315355074045
3885.0,-0.00552369267327979
3884.0,-0.005480809979401258
3883.0,-0.00552369267327979
3882.0,-0.00552369267327979
3881.0,-0.005566571133294396
3880.0,-0.005652315355074045
3879.0,-0.005780899954652252
3878.0,-0.00582375302902749
3877.0,-0.005780899954652252
3876.0,-0.005652315355074045
3875.0,-0.005652315355074045
3874.0,-0.005738042651424635
3873.0,-0.005909446494558601
3872.0,-0.006037954997317296
3871.0,-0.005995123054691298
3870.0,-0.005995123054691298
3869.0,-0.006037954997317296
3868.0,-0.006123606211854593
3867.0,-0.006037954997317296
3866.0,-0.0058666018753847915
3865.0,-0.005652315355074045
3864.0,-0.005609445360280407
3863.0,-0.005695181118510195
3862.0,-0.005780899954652252
3861.0,-0.0058666018753847915
3860.0,-0.005909446494558601
3859.0,-0.005952286887382918
3858.0,-0.006037954997317296
3857.0,-0.006209240537657479
3856.0,-0.0062948579813855154
3855.0,-0.006166425485431226
3854.0,-0.005780899954652252
3853.0,-0.005652315355074045
3852.0,-0.005780899954652252
3851.0,-0.005780899954652252
3850.0,-0.00552369267327979
3849.0,-0.005309236848516363
3848.0,-0.005352136486216796
3847.0,-0.005480809979401258
3846.0,-0.005695181118510195
3845.0,-0.0058666018753847915
3844.0,-0.005995123054691298
3843.0,-0.006037954997317296
3842.0,-0.006080782716094024
3841.0,-0.006209240537657479
3840.0,-0.0063376603745508575
3839.0,-0.006508827775289827
3838.0,-0.006551609086648202
3837.0,-0.006508827775289827
3836.0,-0.006380458549692936
3835.0,-0.006252051369364686
3834.0,-0.006166425485431226
3833.0,-0.006080782716094024
3832.0,-0.006037954997317296
3831.0,-0.005995123054691298
3830.0,-0.005952286887382918
3829.0,-0.005909446494558601
3828.0,-0.005909446494558601
3827.0,-0.0058666018753847915
3826.0,-0.005952286887382918
3825.0,-0.006080782716094024
3824.0,-0.006166425485431226
3823.0,-0.006166425485431226
3822.0,-0.006037954997317296
3821.0,-0.005952286887382918
3820.0,-0.006080782716094024
3819.0,-0.006252051369364686
3818.0,-0.006166425485431226
3817.0,-0.005952286887382918
3816.0,-0.0058666018753847915
3815.0,-0.0058666018753847915
3814.0,-0.0058666018753847915
3813.0,-0.005695181118510195
3812.0,-0.00552369267327979
3811.0,-0.005480809979401258
3810.0,-0.005566571133294396
3809.0,-0.005652315355074045
3808.0,-0.005695181118510195
3807.0,-0.005738042651424635
3806.0,-0.005952286887382918
3805.0,-0.006209240537657479
3804.0,-0.0063376603745508575
3803.0,-0.006252051369364686
3802.0,-0.006037954997317296
3801.0,-0.005995123054691298
3800.0,-0.006123606211854593
3799.0,-0.006166425485431226
3798.0,-0.005995123054691298
3797.0,-0.005780899954652252
3796.0,-0.005695181118510195
3795.0,-0.005695181118510195
3794.0,-0.005652315355074045
3793.0,-0.005566571133294396
3792.0,-0.005480809979401258
3791.0,-0.0054379230508221355
3790.0,-0.00552369267327979
3789.0,-0.005609445360280407
3788.0,-0.005652315355074045
3787.0,-0.005609445360280407
3786.0,-0.00552369267327979
3785.0,-0.005480809979401258
3784.0,-0.00552369267327979
3783.0,-0.005609445360280407
3782.0,-0.005652315355074045
3781.0,-0.005652315355074045
3780.0,-0.005652315355074045
3779.0,-0.005652315355074045
3778.0,-0.005738042651424635
3777.0,-0.005780899954652252
3776.0,-0.005738042651424635
3775.0,-0.005652315355074045
3774.0,-0.005652315355074045
3773.0,-0.005609445360280407
3772.0,-0.00552369267327979
3771.0,-0.005395031886706203
3770.0,-0.005352136486216796
3769.0,-0.0054379230508221355
3768.0,-0.005566571133294396
3767.0,-0.005566571133294396
3766.0,-0.005480809979401258
3765.0,-0.0054379230508221355
3764.0,-0.00552369267327979
3763.0,-0.005652315355074045
3762.0,-0.005738042651424635
3761.0,-0.00582375302902749
3760.0,-0.005780899954652252
3759.0,-0.005738042651424635
3758.0,-0.005695181118510195
3757.0,-0.005695181118510195
3756.0,-0.005780899954652252
3755.0,-0.005909446494558601
3754.0,-0.006037954997317296
3753.0,-0.006037954997317296
3752.0,-0.005952286887382918
3751.0,-0.0058666018753847915
3750.0,-0.0058666018753847915
3749.0,-0.005909446494558601
3748.0,-0.0058666018753847915
3747.0,-0.005738042651424635
3746.0,-0.005566571133294396
3745.0,-0.0054379230508221355
3744.0,-0.0054379230508221355
3743.0,-0.00552369267327979
3742.0,-0.005480809979401258
3741.0,-0.005309236848516363
3740.0,-0.005266332972768684
3739.0,-0.005352136486216796
3738.0,-0.005566571133294396
3737.0,-0.00582375302902749
3736.0,-0.006123606211854593
3735.0,-0.0063376603745508575
3734.0,-0.006380458549692936
3733.0,-0.006166425485431226
3732.0,-0.0058666018753847915
3731.0,-0.005652315355074045
3730.0,-0.00552369267327979
3729.0,-0.0054379230508221355
3728.0,-0.005395031886706203
3727.0,-0.005352136486216796
3726.0,-0.005309236848516363
3725.0,-0.005266332972768684
3724.0,-0.005223424858135761
3723.0,-0.005137595908863979
3722.0,-0.005137595908863979
3721.0,-0.005180512503780488
3720.0,-0.005266332972768684
3719.0,-0.005352136486216796
3718.0,-0.0054379230508221355
3717.0,-0.00552369267327979
3716.0,-0.005652315355074045
3715.0,-0.005780899954652252
3714.0,-0.00582375302902749
3713.0,-0.005738042651424635
3712.0,-0.005566571133294396
3711.0,-0.005480809979401258
3710.0,-0.005566571133294396
3709.0,-0.005609445360280407
3708.0,-0.00552369267327979
3707.0,-0.005352136486216796
3706.0,-0.005309236848516363
3705.0,-0.005352136486216796
3704.0,-0.0054379230508221355
3703.0,-0.005480809979401258
3702.0,-0.0054379230508221355
3701.0,-0.005395031886706203
3700.0,-0.005352136486216796
3699.0,-0.005223424858135761
3698.0,-0.005051749993995713
3697.0,-0.004922949296525481
3696.0,-0.004922949296525481
3695.0,-0.005008820672367076
3694.0,-0.005180512503780488
3693.0,-0.005309236848516363
3692.0,-0.005480809979401258
3691.0,-0.005566571133294396
3690.0,-0.005652315355074045
3689.0,-0.005695181118510195
3688.0,-0.005652315355074045
3687.0,-0.005480809979401258
3686.0,-0.005180512503780488
3685.0,-0.004922949296525481
3684.0,-0.004794110388711914
3683.0,-0.00488000724063431
3682.0,-0.005008820672367076
3681.0,-0.005137595908863979
3680.0,-0.005309236848516363
3679.0,-0.00552369267327979
3678.0,-0.005695181118510195
3677.0,-0.005652315355074045
3676.0,-0.005480809979401258
3675.0,-0.005480809979401258
3674.0,-0.005695181118510195
3673.0,-0.00582375302902749
3672.0,-0.00582375302902749
3671.0,-0.005780899954652252
3670.0,-0.005609445360280407
3669.0,-0.005480809979401258
3668.0,-0.005352136486216796
3667.0,-0.005180512503780488
3666.0,-0.004965887106823441
3665.0,-0.004837060938309712
3664.0,-0.004794110388711914
3663.0,-0.004708196544336296
3662.0,-0.004665233247877154
3661.0,-0.004708196544336296
3660.0,-0.004794110388711914
3659.0,-0.004965887106823441
3658.0,-0.005094675072548682
3657.0,-0.005094675072548682
3656.0,-0.004965887106823441
3655.0,-0.004922949296525481
3654.0,-0.004965887106823441
3653.0,-0.005094675072548682
3652.0,-0.005309236848516363
3651.0,-0.005395031886706203
3650.0,-0.005223424858135761
3649.0,-0.005137595908863979
3648.0,-0.005223424858135761
3647.0,-0.005309236848516363
3646.0,-0.005180512503780488
3645.0,-0.00488000724063431
3644.0,-0.0045792939022115675
3643.0,-0.004407364176330919
3642.0,-0.004364371107751008
3641.0,-0.004407364176330919
3640.0,-0.004493337547274212
3639.0,-0.004536317851322913
3638.0,-0.004493337547274212
3637.0,-0.004493337547274212
3636.0,-0.004493337547274212
3635.0,-0.004493337547274212
3634.0,-0.004493337547274212
3633.0,-0.004536317851322913
3632.0,-0.004665233247877154
3631.0,-0.004622265700782613
3630.0,-0.004364371107751008
3629.0,-0.003934206173708432
3628.0,-0.0037189638231147626
3627.0,-0.003632837004408529
3626.0,-0.003546693102131737
3625.0,-0.0034605321095062536
3624.0,-0.003546693102131737
3623.0,-0.0037189638231147626
3622.0,-0.0038481220342978517
3621.0,-0.0038481220342978517
3620.0,-0.003762020828246282
3619.0,-0.0037189638231147626
3618.0,-0.003762020828246282
3617.0,-0.003891166236910326
3616.0,-0.0039772418455368275
3615.0,-0.004063300397667113
3614.0,-0.004020273253241502
3613.0,-0.003934206173708432
3612.0,-0.0038481220342978517
3611.0,-0.003762020828246282
3610.0,-0.003632837004408529
3609.0,-0.0034174452021935586
3608.0,-0.003201946521692367
3607.0,-0.003029470553618019
3606.0,-0.0029432068763250996
3605.0,-0.002856926061120646
3604.0,-0.002856926061120646
3603.0,-0.002856926061120646
3602.0,-0.002856926061120646
3601.0,-0.002900068611387585
3600.0,-0.003029470553618019
3599.0,-0.003158833950862139
3598.0,-0.003201946521692367
3597.0,-0.003115717099805959
3596.0,-0.002856926061120646
3595.0,-0.0025548081484823015
3594.0,-0.002338880892056583
3593.0,-0.0022956825549340643
3592.0,-0.002338880892056583
3591.0,-0.0024252646779014952
3590.0,-0.0024684501283323
3589.0,-0.0024252646779014952
3588.0,-0.0023820749327607693
3587.0,-0.0022956825549340643
3586.0,-0.0021660617565077978
3585.0,-0.0020364022595291686
3584.0,-0.0018202170383281313
3583.0,-0.0016904542321527494
3582.0,-0.0016471913460383014
3581.0,-0.0016904542321527494
3580.0,-0.001776967077439462
3579.0,-0.0019499410842680476
3578.0,-0.0020796263931210923
3577.0,-0.0021228462251614566
3576.0,-0.0020364022595291686
3575.0,-0.0018202170383281313
3574.0,-0.0016039241497978196
3573.0,-0.001474096691732818
3572.0,-0.0015173768235041685
3571.0,-0.001733712809000476
3570.0,-0.0019931738235303698
3569.0,-0.0022092729880145434
3568.0,-0.0021228462251614566
3567.0,-0.0018202170383281313
3566.0,-0.001474096691732818
3565.0,-0.001257631312230778
3564.0,-0.0011277002770349043
3563.0,-0.0009977303577937136
3562.0,-0.0009110621312231615
3561.0,-0.0008677215312267172
3560.0,-0.0008243766056055257
3559.0,-0.0008243766056055257
3558.0,-0.0008243766056055257
3557.0,-0.0009110621312231615
3556.0,-0.0010843812922201046
3555.0,-0.0011710149414008164
3554.0,-0.0011710149414008164
3553.0,-0.0009977303577937136
3552.0,-0.0008243766056055257
3551.0,-0.0006943158663546001
3550.0,-0.0006509536295951079
3549.0,-0.0006075870628903246
3548.0,-0.0005642161653756084
3547.0,-0.0003906892499099257
3546.0,-0.0002604985473904087
3545.0,-0.00017368305846510168
3544.0,-0.00021709297223004853
3543.0,-0.0002604985473904087
3542.0,-0.0002604985473904087
3541.0,-0.00021709297223004853
3540.0,-0.00013026880522692963
3539.0,-8.685021164911433e-05
3538.0,0.0
3537.0,8.686758342868472e-05
3536.0,0.00026065489343207737
3535.0,0.0003910410285830057
3534.0,0.00043451177401765406
3533.0,0.0003475746339209884
3532.0,0.0001303078917322953
3531.0,0.0
3530.0,0.0
3529.0,0.00017375254558760211
3528.0,0.0003475746339209884
3527.0,0.00043451177401765406
3526.0,0.0004779868710962365
3525.0,0.0006084382809090627
3524.0,0.0006954276616513155
3523.0,0.0007824344698965646
3522.0,0.0007389288868995258
3521.0,0.0006954276616513155
3520.0,0.0006954276616513155
3519.0,0.0007389288868995258
3518.0,0.0008259444115150671
3517.0,0.0009129773741116676
3516.0,0.0010000277816797354
3515.0,0.0010435595295137379
3514.0,0.0010435595295137379
3513.0,0.0010870956412141197
3512.0,0.0010870956412141197
3511.0,0.0011306361176557367
3510.0,0.0011741809597138886
3509.0,0.0011741809597138886
3508.0,0.0011741809597138886
3507.0,0.0012177301682640973
3506.0,0.0012612837441823288
3505.0,0.0013919706849057079
3504.0,0.0015226969634936083
3503.0,0.001609869681952425
3502.0,0.0016534626036355249
3501.0,0.001609869681952425
3500.0,0.0014791171649619628
3499.0,0.0013919706849057079
3498.0,0.0012612837441823288
3497.0,0.0012177301682640973
3496.0,0.001304841688344327
3495.0,0.0014791171649619628
3494.0,0.0016970599014589638
3493.0,0.0018278780605593958
3492.0,0.0017842676290416026
3491.0,0.0015662811355310335
3490.0,0.001348404001626502
3489.0,0.0011741809597138886
3488.0,0.0011306361176557367
3487.0,0.0011741809597138886
3486.0,0.0011741809597138886
3485.0,0.0010870956412141197
3484.0,0.0010435595295137379
3483.0,0.0010000277816797354
3482.0,0.0010870956412141197
3481.0,0.0012612837441823288
3480.0,0.0013919706849057079
3479.0,0.0014791171649619628
3478.0,0.0014355417390583547
3477.0,0.0013919706849057079
3476.0,0.0014355417390583547
3475.0,0.001609869681952425
3474.0,0.0017842676290416026
3473.0,0.0018278780605593958
3472.0,0.0017406615763013722
3471.0,0.0015226969634936083
3470.0,0.001348404001626502
3469.0,0.0012177301682640973
3468.0,0.0011306361176557367
3467.0,0.0010870956412141197
3466.0,0.0011306361176557367
3465.0,0.0011741809597138886
3464.0,0.0012177301682640973
3463.0,0.0012177301682640973
3462.0,0.0011741809597138886
3461.0,0.0011741809597138886
3460.0,0.0011741809597138886
3459.0,0.0012612837441823288
3458.0,0.001304841688344327
3457.0,0.001348404001626502
3456.0,0.0013919706849057079
3455.0,0.0014355417390583547
3454.0,0.0015226969634936083
3453.0,0.0016534626036355249
3452.0,0.0017406615763013722
3451.0,0.0018278780605593958
3450.0,0.0017842676290416026
3449.0,0.0017406615763013722
3448.0,0.0017406615763013722
3447.0,0.0017842676290416026
3446.0,0.0017406615763013722
3445.0,0.001609869681952425
3444.0,0.0014355417390583547
3443.0,0.0014355417390583547
3442.0,0.0015662811355310335
3441.0,0.0017842676290416026
3440.0,0.0018714928717336043
3439.0,0.0018278780605593958
3438.0,0.0017842676290416026
3437.0,0.0018278780605593958
3436.0,0.0020023635919956817
3435.0,0.0021332737608552588
3434.0,0.0021769192542746563
3433.0,0.0021332737608552588
3432.0,0.0020459959305969555
3431.0,0.0019587356365717845
3430.0,0.0018714928717336043
3429.0,0.001915112063444413
3428.0,0.0020459959305969555
3427.0,0.0021332737608552588
3426.0,0.0022205691343961664
3425.0,0.0021769192542746563
3424.0,0.0020023635919956817
3423.0,0.0017406615763013722
3422.0,0.0014791171649619628
3421.0,0.001348404001626502
3420.0,0.001348404001626502
3419.0,0.0015662811355310335
3418.0,0.0018278780605593958
3417.0,0.0020459959305969555
3416.0,0.0022205691343961664
3415.0,0.0023078820582733695
3414.0,0.002395212539545666
3413.0,0.0024388843664115978
3412.0,0.002482560585275184
3411.0,0.0025262411970197185
3410.0,0.002613615602686581
3409.0,0.002613615602686581
3408.0,0.002482560585275184
3407.0,0.0023078820582733695
3406.0,0.0021332737608552588
3405.0,0.002089632653256679
3404.0,0.0021332737608552588
3403.0,0.0022205691343961664
3402.0,0.0023078820582733695
3401.0,0.002482560585275184
3400.0,0.002701007590486082
3399.0,0.0029195645282691363
3398.0,0.003050751504618754
3397.0,0.0031382315093266833
3396.0,0.0031819781204844855
3395.0,0.0031382315093266833
3394.0,0.0031819781204844855
3393.0,0.0033570086445275926
3392.0,0.0035758960449088217
3391.0,0.003794893821675638
3390.0,0.003926345514724705
3389.0,0.003926345514724705
3388.0,0.0038387066319929275
3387.0,0.0036634819042162814
3386.0,0.0035321097382827737
3385.0,0.0035758960449088217
3384.0,0.0037510854308679953
3383.0,0.003970171588923321
3382.0,0.004101676353562844
3381.0,0.004101676353562844
3380.0,0.0040578370074493275
3379.0,0.0040578370074493275
3378.0,0.004101676353562844
3377.0,0.004233220950025984
3376.0,0.0043648054024501
3375.0,0.004540313378935901
3374.0,0.004671990922590297
3373.0,0.004715892310740433
3372.0,0.004671990922590297
3371.0,0.004540313378935901
3370.0,0.004452550524862486
3369.0,0.004452550524862486
3368.0,0.004628093971837721
3367.0,0.00489154225525934
3366.0,0.005199100705396198
3365.0,0.00537494623139545
3364.0,0.00537494623139545
3363.0,0.0052870145684298375
3362.0,0.005243055412371911
3361.0,0.005243055412371911
3360.0,0.0052870145684298375
3359.0,0.005330978174470591
3358.0,0.00537494623139545
3357.0,0.00537494623139545
3356.0,0.005506877116487674
3355.0,0.005726851026829571
3354.0,0.00590291041179003
3353.0,0.006035001804881146
3352.0,0.006079041198713275
3351.0,0.006035001804881146
3350.0,0.005990966876386672
3349.0,0.006079041198713275
3348.0,0.00621118618129457
3347.0,0.006299305179649828
3346.0,0.006167133386013823
3345.0,0.00590291041179003
3344.0,0.005682847330363394
3343.0,0.005638848091999105
3342.0,0.00590291041179003
3341.0,0.00625524344553785
3340.0,0.006607862550997545
3339.0,0.006740168563263094
3338.0,0.006784279525863024
3337.0,0.006784279525863024
3336.0,0.006828394969235152
3335.0,0.006916639301937977
3334.0,0.007093181776687496
3333.0,0.007225635744644521
3332.0,0.007269796045857202
3331.0,0.007137328610972382
3330.0,0.006872514894289861
3329.0,0.006784279525863024
3328.0,0.006828394969235152
3327.0,0.007049039429553483
3326.0,0.007225635744644521
3325.0,0.007269796045857202
3324.0,0.007181479933320523
3323.0,0.007093181776687496
3322.0,0.007049039429553483
3321.0,0.007093181776687496
3320.0,0.007181479933320523
3319.0,0.007181479933320523
3318.0,0.007093181776687496
3317.0,0.00696076819309055
3316.0,0.006828394969235152
3315.0,0.006828394969235152
3314.0,0.006828394969235152
3313.0,0.006828394969235152
3312.0,0.006828394969235152
3311.0,0.006872514894289861
3310.0,0.006916639301937977
3309.0,0.007004901568658406
3308.0,0.007004901568658406
3307.0,0.00696076819309055
3306.0,0.006916639301937977
3305.0,0.00696076819309055
3304.0,0.007049039429553483
3303.0,0.007269796045857202
3302.0,0.007490664932224611
3301.0,0.0075790439479759275
3300.0,0.007402303897961815
3299.0,0.007137328610972382
3298.0,0.006916639301937977
3297.0,0.006872514894289861
3296.0,0.007004901568658406
3295.0,0.007093181776687496
3294.0,0.007004901568658406
3293.0,0.006740168563263094
3292.0,0.006475596832934416
3291.0,0.006343371384537999
3290.0,0.006387442061109638
3289.0,0.00656376950238835
3288.0,0.006740168563263094
3287.0,0.006828394969235152
3286.0,0.006740168563263094
3285.0,0.00656376950238835
3284.0,0.006431517210272464
3283.0,0.006475596832934416
3282.0,0.00656376950238835
3281.0,0.006651960076740071
3280.0,0.006696062080525422
3279.0,0.006696062080525422
3278.0,0.006651960076740071
3277.0,0.006519680930003435
3276.0,0.006387442061109638
3275.0,0.00625524344553785
3274.0,0.00625524344553785
3273.0,0.006343371384537999
3272.0,0.006519680930003435
3271.0,0.006651960076740071
3270.0,0.006696062080525422
3269.0,0.006651960076740071
3268.0,0.006651960076740071
3267.0,0.006696062080525422
3266.0,0.006828394969235152
3265.0,0.00696076819309055
3264.0,0.007049039429553483
3263.0,0.007049039429553483
3262.0,0.00696076819309055
3261.0,0.006784279525863024
3260.0,0.006607862550997545
3259.0,0.006519680930003435
3258.0,0.00656376950238835
3257.0,0.00656376950238835
3256.0,0.006431517210272464
3255.0,0.00612308505878878
3254.0,0.005814871797682919
3253.0,0.00577085918230158
3252.0,0.006035001804881146
3251.0,0.006387442061109638
3250.0,0.006651960076740071
3249.0,0.006740168563263094
3248.0,0.006696062080525422
3247.0,0.006651960076740071
3246.0,0.006651960076740071
3245.0,0.006740168563263094
3244.0,0.006784279525863024
3243.0,0.006696062080525422
3242.0,0.00656376950238835
3241.0,0.006431517210272464
3240.0,0.00625524344553785
3239.0,0.006167133386013823
3238.0,0.006079041198713275
3237.0,0.006035001804881146
3236.0,0.006035001804881146
3235.0,0.006079041198713275
3234.0,0.006167133386013823
3233.0,0.00621118618129457
3232.0,0.006299305179649828
3231.0,0.00625524344553785
3230.0,0.006167133386013823
3229.0,0.005990966876386672
3228.0,0.00577085918230158
3227.0,0.005682847330363394
3226.0,0.005858888873877532
3225.0,0.00621118618129457
3224.0,0.00656376950238835
3223.0,0.006651960076740071
3222.0,0.006519680930003435
3221.0,0.006387442061109638
3220.0,0.006343371384537999
3219.0,0.006343371384537999
3218.0,0.006299305179649828
3217.0,0.00621118618129457
3216.0,0.006079041198713275
3215.0,0.005990966876386672
3214.0,0.005946936412324799
3213.0,0.00590291041179003
3212.0,0.005814871797682919
3211.0,0.00577085918230158
3210.0,0.005814871797682919
3209.0,0.00590291041179003
3208.0,0.005946936412324799
3207.0,0.005946936412324799
3206.0,0.005814871797682919
3205.0,0.005726851026829571
3204.0,0.005682847330363394
3203.0,0.005594853310833647
3202.0,0.005506877116487674
3201.0,0.005462895701502157
3200.0,0.005506877116487674
3199.0,0.005638848091999105
3198.0,0.005726851026829571
3197.0,0.005726851026829571
3196.0,0.005638848091999105
3195.0,0.005506877116487674
3194.0,0.005506877116487674
3193.0,0.005594853310833647
3192.0,0.005682847330363394
3191.0,0.005638848091999105
3190.0,0.00541891874010525
3189.0,0.005199100705396198
3188.0,0.005067263269958211
3187.0,0.005067263269958211
3186.0,0.005155150446602086
3185.0,0.005243055412371911
3184.0,0.0052870145684298375
3183.0,0.0052870145684298375
3182.0,0.0052870145684298375
3181.0,0.005330978174470591
3180.0,0.005462895701502157
3179.0,0.005594853310833647
3178.0,0.005682847330363394
3177.0,0.005638848091999105
3176.0,0.00541891874010525
3175.0,0.005155150446602086
3174.0,0.004979393875242044
3173.0,0.00489154225525934
3172.0,0.00489154225525934
3171.0,0.00489154225525934
3170.0,0.004803708402820517
3169.0,0.004803708402820517
3168.0,0.00489154225525934
3167.0,0.004979393875242044
3166.0,0.005023326350308999
3165.0,0.00489154225525934
3164.0,0.004628093971837721
3163.0,0.0044964297349936455
3162.0,0.004452550524862486
3161.0,0.00458420145758498
3160.0,0.004671990922590297
3159.0,0.004628093971837721
3158.0,0.0044964297349936455
3157.0,0.0043648054024501
3156.0,0.004277078004534696
3155.0,0.004277078004534696
3154.0,0.004320939488377862
3153.0,0.004320939488377862
3152.0,0.004320939488377862
3151.0,0.004320939488377862
3150.0,0.004320939488377862
3149.0,0.004320939488377862
3148.0,0.004277078004534696
3147.0,0.004145520125434121
3146.0,0.003970171588923321
3145.0,0.0038387066319929275
3144.0,0.0037510854308679953
3143.0,0.003707281458678491
3142.0,0.003707281458678491
3141.0,0.0037510854308679953
3140.0,0.003707281458678491
3139.0,0.003619686766589858
3138.0,0.003488327845821315
3137.0,0.0034007772998332353
3136.0,0.0033132443998284966
3135.0,0.0032694845648473247
3134.0,0.0032257291386954545
3133.0,0.0031382315093266833
3132.0,0.003050751504618754
3131.0,0.0030070181092942683
3130.0,0.0029632891174733444
3129.0,0.0030070181092942683
3128.0,0.003050751504618754
3127.0,0.0030944893043338695
3126.0,0.0030944893043338695
3125.0,0.0030944893043338695
3124.0,0.003050751504618754
3123.0,0.0030070181092942683
3122.0,0.0030070181092942683
3121.0,0.0029195645282691363
3120.0,0.0027447101798967477
3119.0,0.002482560585275184
3118.0,0.0023078820582733695
3117.0,0.0022205691343961664
3116.0,0.002351545103793873
3115.0,0.0025262411970197185
3114.0,0.002569926202528716
3113.0,0.0025262411970197185
3112.0,0.002395212539545666
3111.0,0.0022642234021015284
3110.0,0.0021769192542746563
3109.0,0.002089632653256679
3108.0,0.0020023635919956817
3107.0,0.001915112063444413
3106.0,0.0018714928717336043
3105.0,0.0018714928717336043
3104.0,0.0019587356365717845
3103.0,0.0020459959305969555
3102.0,0.0021332737608552588
3101.0,0.0021332737608552588
3100.0,0.0020459959305969555
3099.0,0.001915112063444413
3098.0,0.0018714928717336043
3097.0,0.0018714928717336043
3096.0,0.001915112063444413
3095.0,0.0019587356365717845
3094.0,0.001915112063444413
3093.0,0.0018714928717336043
3092.0,0.0018714928717336043
3091.0,0.0018278780605593958
3090.0,0.0018278780605593958
3089.0,0.0017842676290416026
3088.0,0.0016534626036355249
3087.0,0.0014791171649619628
3086.0,0.001304841688344327
3085.0,0.0012177301682640973
3084.0,0.0012612837441823288
3083.0,0.001348404001626502
3082.0,0.0014355417390583547
3081.0,0.0013919706849057079
3080.0,0.001304841688344327
3079.0,0.0012177301682640973
3078.0,0.0012177301682640973
3077.0,0.0011741809597138886
3076.0,0.0011306361176557367
3075.0,0.0009565003968372565
3074.0,0.0008259444115150671
3073.0,0.0007389288868995258
3072.0,0.0006954276616513155
3071.0,0.0006954276616513155
3070.0,0.0006954276616513155
3069.0,0.0007389288868995258
3068.0,0.0007824344698965646
3067.0,0.0008259444115150671
3066.0,0.0008259444115150671
3065.0,0.0007824344698965646
3064.0,0.0006954276616513155
3063.0,0.0006084382809090627
3062.0,0.0005649501236701937
3061.0,0.0005649501236701937
3060.0,0.0005649501236701937
3059.0,0.000521466320689834
3058.0,0.0004779868710962365
3057.0,0.0004779868710962365
3056.0,0.000521466320689834
3055.0,0.000521466320689834
3054.0,0.0004779868710962365
3053.0,0.00043451177401765406
3052.0,0.00043451177401765406
3051.0,0.00043451177401765406
3050.0,0.000521466320689834
3049.0,0.000521466320689834
3048.0,0.000521466320689834
3047.0,0.0003910410285830057
3046.0,0.00030411258916074324
3045.0,0.00021720154586435392
3044.0,0.00017375254558760211
3043.0,0.00017375254558760211
3042.0,0.0001303078917322953
3041.0,4.343161980746579e-05
3040.0,0.0
3039.0,-4.3427276862573194e-05
3038.0,-4.3427276862573194e-05
3037.0,-8.685021164911433e-05
3036.0,-0.00013026880522692963
3035.0,-0.00017368305846510168
3034.0,-0.00017368305846510168
3033.0,-0.00017368305846510168
3032.0,-0.00017368305846510168
3031.0,-0.00021709297223004853
3030.0,-0.0002604985473904087
3029.0,-0.0002604985473904087
3028.0,-0.0002604985473904087
3027.0,-0.00030389978481260016
3026.0,-0.0003472966853634851
3025.0,-0.0003906892499099257
3024.0,-0.00043407747931878404
3023.0,-0.00043407747931878404
3022.0,-0.0003906892499099257
3021.0,-0.0003472966853634851
3020.0,-0.0003906892499099257
3019.0,-0.00043407747931878404
3018.0,-0.0004774613744551459
3017.0,-0.0005208409361854294
3016.0,-0.0005208409361854294
3015.0,-0.0004774613744551459
3014.0,-0.0004774613744551459
3013.0,-0.0004774613744551459
3012.0,-0.0004774613744551459
3011.0,-0.0004774613744551459
3010.0,-0.00043407747931878404
3009.0,-0.00043407747931878404
3008.0,-0.00043407747931878404
3007.0,-0.00043407747931878404
3006.0,-0.0003906892499099257
3005.0,-0.0003906892499099257
3004.0,-0.00043407747931878404
3003.0,-0.0005208409361854294
3002.0,-0.0006075870628903246
3001.0,-0.0006943158663546001
3000.0,-0.0006509536295951079
2999.0,-0.0006075870628903246
2998.0,-0.0004774613744551459
2997.0,-0.0003906892499099257
2996.0,-0.0003472966853634851
2995.0,-0.0003906892499099257
2994.0,-0.0004774613744551459
2993.0,-0.0006075870628903246
2992.0,-0.0006509536295951079
2991.0,-0.0006509536295951079
2990.0,-0.0006075870628903246
2989.0,-0.0005642161653756084
2988.0,-0.0005208409361854294
2987.0,-0.0004774613744551459
2986.0,-0.0005208409361854294
2985.0,-0.0006075870628903246
2984.0,-0.0006943158663546001
2983.0,-0.0007810273534953893
2982.0,-0.0008243766056055257
2981.0,-0.0008677215312267172
2980.0,-0.0008677215312267172
2979.0,-0.0008677215312267172
2978.0,-0.0009110621312231615
2977.0,-0.0009110621312231615
2976.0,-0.0008677215312267172
2975.0,-0.0008677215312267172
2974.0,-0.0008677215312267172
2973.0,-0.0008243766056055257
2972.0,-0.0007810273534953893
2971.0,-0.0007376737740329986
2970.0,-0.0006509536295951079
2969.0,-0.0005208409361854294
2968.0,-0.00043407747931878404
2967.0,-0.00043407747931878404
2966.0,-0.0004774613744551459
2965.0,-0.0006075870628903246
2964.0,-0.0006943158663546001
2963.0,-0.0006943158663546001
2962.0,-0.0007376737740329986
2961.0,-0.0007810273534953893
2960.0,-0.0007810273534953893
2959.0,-0.0007810273534953893
2958.0,-0.0007810273534953893
2957.0,-0.0007810273534953893
2956.0,-0.0008243766056055257
2955.0,-0.0008243766056055257
2954.0,-0.0007810273534953893
2953.0,-0.0007810273534953893
2952.0,-0.0007376737740329986
2951.0,-0.0007810273534953893
2950.0,-0.0007810273534953893
2949.0,-0.0007810273534953893
2948.0,-0.0008243766056055257
2947.0,-0.0009110621312231615
2946.0,-0.0009977303577937136
2945.0,-0.001041057986093552
2944.0,-0.0010843812922201046
2943.0,-0.0010843812922201046
2942.0,-0.001041057986093552
2941.0,-0.0009977303577937136
2940.0,-0.0009977303577937136
2939.0,-0.001041057986093552
2938.0,-0.0011277002770349043
2937.0,-0.001257631312230778
2936.0,-0.001344230411601366
2935.0,-0.0013875234866409514
2934.0,-0.0013875234866409514
2933.0,-0.001344230411601366
2932.0,-0.00121432528617893
2931.0,-0.0011277002770349043
2930.0,-0.0010843812922201046
2929.0,-0.0010843812922201046
2928.0,-0.0011710149414008164
2927.0,-0.001257631312230778
2926.0,-0.0013009330204178937
2925.0,-0.001257631312230778
2924.0,-0.001257631312230778
2923.0,-0.0013009330204178937
2922.0,-0.001344230411601366
2921.0,-0.0013875234866409514
2920.0,-0.0013875234866409514
2919.0,-0.001344230411601366
2918.0,-0.001344230411601366
2917.0,-0.0013875234866409514
2916.0,-0.001474096691732818
2915.0,-0.0015606526425728795
2914.0,-0.0015606526425728795
2913.0,-0.0015173768235041685
2912.0,-0.001474096691732818
2911.0,-0.0014308122463981832
2910.0,-0.0013875234866409514
2909.0,-0.0014308122463981832
2908.0,-0.0015606526425728795
2907.0,-0.0016471913460383014
2906.0,-0.001733712809000476
2905.0,-0.001733712809000476
2904.0,-0.0016471913460383014
2903.0,-0.0015606526425728795
2902.0,-0.0013875234866409514
2901.0,-0.001257631312230778
2900.0,-0.0010843812922201046
2899.0,-0.0009977303577937136
2898.0,-0.0009977303577937136
2897.0,-0.001041057986093552
2896.0,-0.0011277002770349043
2895.0,-0.001257631312230778
2894.0,-0.0013875234866409514
2893.0,-0.0015173768235041685
2892.0,-0.0016039241497978196
2891.0,-0.0015606526425728795
2890.0,-0.001474096691732818
2889.0,-0.001344230411601366
2888.0,-0.0011710149414008164
2887.0,-0.0011277002770349043
2886.0,-0.0010843812922201046
2885.0,-0.0011277002770349043
2884.0,-0.00121432528617893
2883.0,-0.0013009330204178937
2882.0,-0.0013875234866409514
2881.0,-0.0014308122463981832
2880.0,-0.001474096691732818
2879.0,-0.001474096691732818
2878.0,-0.001474096691732818
2877.0,-0.001474096691732818
2876.0,-0.001474096691732818
2875.0,-0.001474096691732818
2874.0,-0.0015173768235041685
2873.0,-0.0015606526425728795
2872.0,-0.0015173768235041685
2871.0,-0.0014308122463981832
2870.0,-0.0013875234866409514
2869.0,-0.0013875234866409514
2868.0,-0.001474096691732818
2867.0,-0.0016039241497978196
2866.0,-0.0016471913460383014
2865.0,-0.0016471913460383014
2864.0,-0.0015606526425728795
2863.0,-0.001474096691732818
2862.0,-0.0014308122463981832
2861.0,-0.0013875234866409514
2860.0,-0.001344230411601366
2859.0,-0.001344230411601366
2858.0,-0.0013009330204178937
2857.0,-0.0013009330204178937
2856.0,-0.001344230411601366
2855.0,-0.0014308122463981832
2854.0,-0.0015173768235041685
2853.0,-0.0015606526425728795
2852.0,-0.0016471913460383014
2851.0,-0.001733712809000476
2850.0,-0.0018202170383281313
2849.0,-0.0018202170383281313
2848.0,-0.001776967077439462
2847.0,-0.0016904542321527494
2846.0,-0.0016471913460383014
2845.0,-0.0016471913460383014
2844.0,-0.0016471913460383014
2843.0,-0.0016471913460383014
2842.0,-0.0016471913460383014
2841.0,-0.0016471913460383014
2840.0,-0.0016904542321527494
2839.0,-0.001733712809000476
2838.0,-0.001776967077439462
2837.0,-0.0016904542321527494
2836.0,-0.0016039241497978196
2835.0,-0.0014308122463981832
2834.0,-0.001344230411601366
2833.0,-0.001344230411601366
2832.0,-0.0014308122463981832
2831.0,-0.0015606526425728795
2830.0,-0.0016471913460383014
2829.0,-0.001733712809000476
2828.0,-0.0016904542321527494
2827.0,-0.0016904542321527494
2826.0,-0.0016471913460383014
2825.0,-0.0016471913460383014
2824.0,-0.0016471913460383014
2823.0,-0.0016471913460383014
2822.0,-0.0016471913460383014
2821.0,-0.0016904542321527494
2820.0,-0.0016904542321527494
2819.0,-0.0016904542321527494
2818.0,-0.0016904542321527494
2817.0,-0.001733712809000476
2816.0,-0.0018202170383281313
2815.0,-0.0018202170383281313
2814.0,-0.001776967077439462
2813.0,-0.001733712809000476
2812.0,-0.0016904542321527494
2811.0,-0.0016471913460383014
2810.0,-0.0016471913460383014
2809.0,-0.0016471913460383014
2808.0,-0.0016471913460383014
2807.0,-0.0016039241497978196
2806.0,-0.0016039241497978196
2805.0,-0.0015606526425728795
2804.0,-0.0015606526425728795
2803.0,-0.0016039241497978196
2802.0,-0.0016471913460383014
2801.0,-0.0016471913460383014
2800.0,-0.0016471913460383014
2799.0,-0.0016471913460383014
2798.0,-0.0016904542321527494
2797.0,-0.001733712809000476
2796.0,-0.001733712809000476
2795.0,-0.0016904542321527494
2794.0,-0.0016471913460383014
2793.0,-0.0016039241497978196
2792.0,-0.0016471913460383014
2791.0,-0.001733712809000476
2790.0,-0.001776967077439462
2789.0,-0.001776967077439462
2788.0,-0.001733712809000476
2787.0,-0.0016904542321527494
2786.0,-0.0016471913460383014
2785.0,-0.0016471913460383014
2784.0,-0.0016471913460383014
2783.0,-0.0016904542321527494
2782.0,-0.001733712809000476
2781.0,-0.001776967077439462
2780.0,-0.0018202170383281313
2779.0,-0.0018634626925240205
2778.0,-0.0019067040408846658
2777.0,-0.0019931738235303698
2776.0,-0.0019931738235303698
2775.0,-0.0019931738235303698
2774.0,-0.0019499410842680476
2773.0,-0.0018634626925240205
2772.0,-0.0018202170383281313
2771.0,-0.001733712809000476
2770.0,-0.0016904542321527494
2769.0,-0.0016039241497978196
2768.0,-0.0016039241497978196
2767.0,-0.0016471913460383014
2766.0,-0.001733712809000476
2765.0,-0.001776967077439462
2764.0,-0.0018202170383281313
2763.0,-0.0018202170383281313
2762.0,-0.0018202170383281313
2761.0,-0.001776967077439462
2760.0,-0.001776967077439462
2759.0,-0.001776967077439462
2758.0,-0.001733712809000476
2757.0,-0.001733712809000476
2756.0,-0.001733712809000476
2755.0,-0.001776967077439462
2754.0,-0.0018202170383281313
2753.0,-0.0019067040408846658
2752.0,-0.0019499410842680476
2751.0,-0.0019499410842680476
2750.0,-0.0019499410842680476
2749.0,-0.0019931738235303698
2748.0,-0.0019931738235303698
2747.0,-0.0020364022595291686
2746.0,-0.0020796263931210923
2745.0,-0.0020796263931210923
2744.0,-0.0020796263931210923
2743.0,-0.0020796263931210923
2742.0,-0.0020364022595291686
2741.0,-0.0019931738235303698
2740.0,-0.0019067040408846658
2739.0,-0.0018634626925240205
2738.0,-0.0019067040408846658
2737.0,-0.0019931738235303698
2736.0,-0.0020364022595291686
2735.0,-0.0020796263931210923
2734.0,-0.0020364022595291686
2733.0,-0.0019499410842680476
2732.0,-0.0018634626925240205
2731.0,-0.001776967077439462
2730.0,-0.001733712809000476
2729.0,-0.001733712809000476
2728.0,-0.0016471913460383014
2727.0,-0.0016039241497978196
2726.0,-0.0015606526425728795
2725.0,-0.0015173768235041685
2724.0,-0.0015173768235041685
2723.0,-0.0015173768235041685
2722.0,-0.0016039241497978196
2721.0,-0.001733712809000476
2720.0,-0.0018634626925240205
2719.0,-0.0019067040408846658
2718.0,-0.0018202170383281313
2717.0,-0.001776967077439462
2716.0,-0.001776967077439462
2715.0,-0.0018634626925240205
2714.0,-0.0019499410842680476
2713.0,-0.0020796263931210923
2712.0,-0.0021228462251614566
2711.0,-0.0021228462251614566
2710.0,-0.0020364022595291686
2709.0,-0.0019931738235303698
2708.0,-0.0019067040408846658
2707.0,-0.0018634626925240205
2706.0,-0.0019067040408846658
2705.0,-0.0019067040408846658
2704.0,-0.0019067040408846658
2703.0,-0.0018634626925240205
2702.0,-0.001776967077439462
2701.0,-0.001733712809000476
2700.0,-0.001733712809000476
2699.0,-0.001776967077439462
2698.0,-0.0018634626925240205
2697.0,-0.0019499410842680476
2696.0,-0.0020364022595291686
2695.0,-0.0020364022595291686
2694.0,-0.0020796263931210923
2693.0,-0.0020796263931210923
2692.0,-0.0020796263931210923
2691.0,-0.0020364022595291686
2690.0,-0.0019931738235303698
2689.0,-0.0019067040408846658
2688.0,-0.0018634626925240205
2687.0,-0.0018202170383281313
2686.0,-0.0018634626925240205
2685.0,-0.0019067040408846658
2684.0,-0.0019931738235303698
2683.0,-0.0020364022595291686
2682.0,-0.0019931738235303698
2681.0,-0.0018634626925240205
2680.0,-0.0018202170383281313
2679.0,-0.001776967077439462
2678.0,-0.0018202170383281313
2677.0,-0.0019067040408846658
2676.0,-0.0019499410842680476
2675.0,-0.0019499410842680476
2674.0,-0.0019067040408846658
2673.0,-0.0018634626925240205
2672.0,-0.0018634626925240205
2671.0,-0.0019067040408846658
2670.0,-0.0019499410842680476
2669.0,-0.0019499410842680476
2668.0,-0.0019067040408846658
2667.0,-0.0018634626925240205
2666.0,-0.0018202170383281313
2665.0,-0.0018202170383281313
2664.0,-0.0018634626925240205
2663.0,-0.0018634626925240205
2662.0,-0.0018202170383281313
2661.0,-0.001733712809000476
2660.0,-0.0016471913460383014
2659.0,-0.0016471913460383014
2658.0,-0.0016904542321527494
2657.0,-0.001776967077439462
2656.0,-0.0018634626925240205
2655.0,-0.0018634626925240205
2654.0,-0.0018202170383281313
2653.0,-0.0018202170383281313
2652.0,-0.0018202170383281313
2651.0,-0.001776967077439462
2650.0,-0.001733712809000476
2649.0,-0.001776967077439462
2648.0,-0.0018634626925240205
2647.0,-0.0019931738235303698
2646.0,-0.0020364022595291686
2645.0,-0.0019931738235303698
2644.0,-0.0018634626925240205
2643.0,-0.0016904542321527494
2642.0,-0.0016039241497978196
2641.0,-0.0016039241497978196
2640.0,-0.0016039241497978196
2639.0,-0.0016039241497978196
2638.0,-0.0016471913460383014
2637.0,-0.0016904542321527494
2636.0,-0.001733712809000476
2635.0,-0.001733712809000476
2634.0,-0.0016904542321527494
2633.0,-0.0015606526425728795
2632.0,-0.001474096691732818
2631.0,-0.001474096691732818
2630.0,-0.001474096691732818
2629.0,-0.0015173768235041685
2628.0,-0.0015173768235041685
2627.0,-0.0015173768235041685
2626.0,-0.0015606526425728795
2625.0,-0.0015606526425728795
2624.0,-0.0016039241497978196
2623.0,-0.0016039241497978196
2622.0,-0.0015606526425728795
2621.0,-0.0015606526425728795
2620.0,-0.0015606526425728795
2619.0,-0.0016039241497978196
2618.0,-0.0016471913460383014
2617.0,-0.0016904542321527494
2616.0,-0.001776967077439462
2615.0,-0.0019067040408846658
2614.0,-0.0020364022595291686
2613.0,-0.0020364022595291686
2612.0,-0.0019499410842680476
2611.0,-0.0018202170383281313
2610.0,-0.001733712809000476
2609.0,-0.0016904542321527494
2608.0,-0.001733712809000476
2607.0,-0.001733712809000476
2606.0,-0.001733712809000476
2605.0,-0.0016904542321527494
2604.0,-0.0016471913460383014
2603.0,-0.0016471913460383014
2602.0,-0.001733712809000476
2601.0,-0.0018202170383281313
2600.0,-0.0018634626925240205
2599.0,-0.0018202170383281313
2598.0,-0.001776967077439462
2597.0,-0.001733712809000476
2596.0,-0.001733712809000476
2595.0,-0.0018202170383281313
2594.0,-0.0018634626925240205
2593.0,-0.0019067040408846658
2592.0,-0.0019499410842680476
2591.0,-0.0019931738235303698
2590.0,-0.0019931738235303698
2589.0,-0.0019931738235303698
2588.0,-0.0019067040408846658
2587.0,-0.0018202170383281313
2586.0,-0.0016904542321527494
2585.0,-0.0016471913460383014
2584.0,-0.0016039241497978196
2583.0,-0.0016039241497978196
2582.0,-0.0016039241497978196
2581.0,-0.0016039241497978196
2580.0,-0.0016471913460383014
2579.0,-0.001733712809000476
2578.0,-0.001776967077439462
2577.0,-0.001776967077439462
2576.0,-0.0018202170383281313
2575.0,-0.0018634626925240205
2574.0,-0.0018634626925240205
2573.0,-0.0018202170383281313
2572.0,-0.001776967077439462
2571.0,-0.001733712809000476
2570.0,-0.0016904542321527494
2569.0,-0.0016471913460383014
2568.0,-0.0016471913460383014
2567.0,-0.0016039241497978196
2566.0,-0.0016471913460383014
2565.0,-0.001733712809000476
2564.0,-0.0018202170383281313
2563.0,-0.0019067040408846658
2562.0,-0.0019499410842680476
2561.0,-0.0019067040408846658
2560.0,-0.0019067040408846658
2559.0,-0.0019067040408846658
2558.0,-0.0019499410842680476
2557.0,-0.0019499410842680476
2556.0,-0.0019067040408846658
2555.0,-0.0018634626925240205
2554.0,-0.0018634626925240205
2553.0,-0.0018634626925240205
2552.0,-0.0018634626925240205
2551.0,-0.0018202170383281313
2550.0,-0.001733712809000476
2549.0,-0.0016471913460383014
2548.0,-0.0016039241497978196
2547.0,-0.0016471913460383014
2546.0,-0.001733712809000476
2545.0,-0.001776967077439462
2544.0,-0.0018202170383281313
2543.0,-0.0018202170383281313
2542.0,-0.0018202170383281313
2541.0,-0.0018202170383281313
2540.0,-0.0018634626925240205
2539.0,-0.0019067040408846658
2538.0,-0.0019499410842680476
2537.0,-0.0020364022595291686
2536.0,-0.0020364022595291686
2535.0,-0.0019931738235303698
2534.0,-0.0019499410842680476
2533.0,-0.0018634626925240205
2532.0,-0.0018202170383281313
2531.0,-0.001776967077439462
2530.0,-0.001733712809000476
2529.0,-0.0016904542321527494
2528.0,-0.0016471913460383014
2527.0,-0.0016471913460383014
2526.0,-0.0016904542321527494
2525.0,-0.001733712809000476
2524.0,-0.0018202170383281313
2523.0,-0.0019067040408846658
2522.0,-0.0019499410842680476
2521.0,-0.0019067040408846658
2520.0,-0.0018634626925240205
2519.0,-0.0019067040408846658
2518.0,-0.0019499410842680476
2517.0,-0.0019499410842680476
2516.0,-0.0019499410842680476
2515.0,-0.0019499410842680476
2514.0,-0.0019067040408846658
2513.0,-0.0018202170383281313
2512.0,-0.001776967077439462
2511.0,-0.001733712809000476
2510.0,-0.001776967077439462
2509.0,-0.0018202170383281313
2508.0,-0.0019067040408846658
2507.0,-0.0019499410842680476
2506.0,-0.0019931738235303698
2505.0,-0.0019499410842680476
2504.0,-0.0019067040408846658
2503.0,-0.0018634626925240205
2502.0,-0.0018634626925240205
2501.0,-0.0019067040408846658
2500.0,-0.0019499410842680476
2499.0,-0.0019499410842680476
2498.0,-0.0019931738235303698
2497.0,-0.0020364022595291686
2496.0,-0.0020796263931210923
2495.0,-0.0020796263931210923
2494.0,-0.0021228462251614566
2493.0,-0.0020796263931210923
2492.0,-0.0020364022595291686
2491.0,-0.0019067040408846658
2490.0,-0.0018202170383281313
2489.0,-0.001776967077439462
2488.0,-0.001776967077439462
2487.0,-0.001776967077439462
2486.0,-0.0018202170383281313
2485.0,-0.0019067040408846658
2484.0,-0.0020364022595291686
2483.0,-0.0021228462251614566
2482.0,-0.0021660617565077978
2481.0,-0.0021228462251614566
2480.0,-0.0020364022595291686
2479.0,-0.0019931738235303698
2478.0,-0.0019499410842680476
2477.0,-0.0018634626925240205
2476.0,-0.0018202170383281313
2475.0,-0.0018202170383281313
2474.0,-0.0018202170383281313
2473.0,-0.001776967077439462
2472.0,-0.001776967077439462
2471.0,-0.001776967077439462
2470.0,-0.001776967077439462
2469.0,-0.0018202170383281313
2468.0,-0.0018202170383281313
2467.0,-0.0019067040408846658
2466.0,-0.0019499410842680476
2465.0,-0.0019931738235303698
2464.0,-0.0020364022595291686
2463.0,-0.0020364022595291686
2462.0,-0.0020796263931210923
2461.0,-0.0020364022595291686
2460.0,-0.0020364022595291686
2459.0,-0.0020364022595291686
2458.0,-0.0020364022595291686
2457.0,-0.0019931738235303698
2456.0,-0.0020364022595291686
2455.0,-0.0020796263931210923
2454.0,-0.0021660617565077978
2453.0,-0.0022524799205383417
2452.0,-0.0022524799205383417
2451.0,-0.0022524799205383417
2450.0,-0.0022524799205383417
2449.0,-0.0022524799205383417
2448.0,-0.0022524799205383417
2447.0,-0.0022524799205383417
2446.0,-0.0022524799205383417
2445.0,-0.0022524799205383417
2444.0,-0.002338880892056583
2443.0,-0.0023820749327607693
2442.0,-0.0024252646779014952
2441.0,-0.0023820749327607693
2440.0,-0.0023820749327607693
2439.0,-0.0023820749327607693
2438.0,-0.0024684501283323
2437.0,-0.0025116312849080558
2436.0,-0.0025116312849080558
2435.0,-0.0025116312849080558
2434.0,-0.0024684501283323
2433.0,-0.0024252646779014952
2432.0,-0.0023820749327607693
2431.0,-0.002338880892056583
2430.0,-0.0022956825549340643
2429.0,-0.002338880892056583
2428.0,-0.002338880892056583
2427.0,-0.0023820749327607693
2426.0,-0.0024252646779014952
2425.0,-0.0024684501283323
2424.0,-0.0025116312849080558
2423.0,-0.0025116312849080558
2422.0,-0.0025116312849080558
2421.0,-0.0025116312849080558
2420.0,-0.0025116312849080558
2419.0,-0.0025116312849080558
2418.0,-0.0025548081484823015
2417.0,-0.0025548081484823015
2416.0,-0.002597980719908577
2415.0,-0.002597980719908577
2414.0,-0.0026411490000399773
2413.0,-0.0026411490000399773
2412.0,-0.002597980719908577
2411.0,-0.0025116312849080558
2410.0,-0.0024684501283323
2409.0,-0.0025116312849080558
2408.0,-0.0025548081484823015
2407.0,-0.0026411490000399773
2406.0,-0.002597980719908577
2405.0,-0.0025548081484823015
2404.0,-0.0024684501283323
2403.0,-0.0024684501283323
2402.0,-0.0024684501283323
2401.0,-0.0024684501283323
2400.0,-0.0024684501283323
2399.0,-0.0025116312849080558
2398.0,-0.0025548081484823015
2397.0,-0.002597980719908577
2396.0,-0.0026411490000399773
2395.0,-0.002684312989729598
2394.0,-0.0026411490000399773
2393.0,-0.0025548081484823015
2392.0,-0.0024684501283323
2391.0,-0.0024252646779014952
2390.0,-0.0023820749327607693
2389.0,-0.0024252646779014952
2388.0,-0.0023820749327607693
2387.0,-0.0022956825549340643
2386.0,-0.0022524799205383417
2385.0,-0.0022524799205383417
2384.0,-0.0022092729880145434
2383.0,-0.0021660617565077978
2382.0,-0.0021228462251614566
2381.0,-0.0021228462251614566
2380.0,-0.0022092729880145434
2379.0,-0.002338880892056583
2378.0,-0.0024684501283323
2377.0,-0.0024684501283323
2376.0,-0.0023820749327607693
2375.0,-0.0022524799205383417
2374.0,-0.0022524799205383417
2373.0,-0.002338880892056583
2372.0,-0.0025116312849080558
2371.0,-0.0026411490000399773
2370.0,-0.0026411490000399773
2369.0,-0.0025548081484823015
2368.0,-0.002597980719908577
2367.0,-0.002856926061120646
2366.0,-0.0032881588260753603
2365.0,-0.0037189638231147626
2364.0,-0.003805073565025019
2363.0,-0.0032881588260753603
2362.0,-0.0021660617565077978
2361.0,-0.0011277002770349043
2360.0,-0.0007810273534953893
2359.0,-0.0011710149414008164
2358.0,-0.0019067040408846658
2357.0,-0.002597980719908577
2356.0,-0.0032881588260753603
2355.0,-0.003891166236910326
2354.0,-0.0042353663594676405
2353.0,-0.0042353663594676405
2352.0,-0.004063300397667113
2351.0,-0.0038481220342978517
2350.0,-0.003675902548784027
2349.0,-0.0035897671891400584
2348.0,-0.0034605321095062536
2347.0,-0.0032450548131470747
2346.0,-0.0027274726898296464
2345.0,-0.0020796263931210923
2344.0,-0.0016039241497978196
2343.0,-0.0016039241497978196
2342.0,-0.0020364022595291686
2341.0,-0.002597980719908577
2340.0,-0.0029863408567849525
2339.0,-0.003158833950862139
2338.0,-0.0032881588260753603
2337.0,-0.003546693102131737
2336.0,-0.0038481220342978517
2335.0,-0.004149341900058889
2334.0,-0.004407364176330919
2333.0,-0.004536317851322913
2332.0,-0.00445035298922436
2331.0,-0.0042353663594676405
2330.0,-0.0039772418455368275
2329.0,-0.003762020828246282
2328.0,-0.003503614742536687
2327.0,-0.003201946521692367
2326.0,-0.0029863408567849525
2325.0,-0.0029863408567849525
2324.0,-0.0032881588260753603
2323.0,-0.003762020828246282
2322.0,-0.004063300397667113
2321.0,-0.003934206173708432
2320.0,-0.0034605321095062536
2319.0,-0.0029863408567849525
2318.0,-0.002684312989729598
2317.0,-0.002684312989729598
2316.0,-0.0028137792246734072
2315.0,-0.0029863408567849525
2314.0,-0.0030725959676747294
2313.0,-0.0030725959676747294
2312.0,-0.0029863408567849525
2311.0,-0.0029863408567849525
2310.0,-0.0030725959676747294
2309.0,-0.0032450548131470747
2308.0,-0.0034174452021935586
2307.0,-0.0034605321095062536
2306.0,-0.0034605321095062536
2305.0,-0.0033743540197499478
2304.0,-0.0032450548131470747
2303.0,-0.003115717099805959
2302.0,-0.0030725959676747294
2301.0,-0.0030725959676747294
2300.0,-0.003158833950862139
2299.0,-0.003201946521692367
2298.0,-0.0032450548131470747
2297.0,-0.0033312585613267665
2296.0,-0.0033743540197499478
2295.0,-0.0033743540197499478
2294.0,-0.0034174452021935586
2293.0,-0.0034174452021935586
2292.0,-0.0034174452021935586
2291.0,-0.0033743540197499478
2290.0,-0.0033312585613267665
2289.0,-0.0032881588260753603
2288.0,-0.0032881588260753603
2287.0,-0.0033312585613267665
2286.0,-0.0033312585613267665
2285.0,-0.0033743540197499478
2284.0,-0.0033743540197499478
2283.0,-0.0033743540197499478
2282.0,-0.0033312585613267665
2281.0,-0.0032881588260753603
2280.0,-0.0032450548131470747
2279.0,-0.0032881588260753603
2278.0,-0.0033743540197499478
2277.0,-0.0034174452021935586
2276.0,-0.0034605321095062536
2275.0,-0.003503614742536687
2274.0,-0.003503614742536687
2273.0,-0.0034605321095062536
2272.0,-0.0034174452021935586
2271.0,-0.0034174452021935586
2270.0,-0.0034605321095062536
2269.0,-0.0034605321095062536
2268.0,-0.003503614742536687
2267.0,-0.003503614742536687
2266.0,-0.003546693102131737
2265.0,-0.0035897671891400584
2264.0,-0.0035897671891400584
2263.0,-0.003503614742536687
2262.0,-0.0034174452021935586
2261.0,-0.0033312585613267665
2260.0,-0.0032881588260753603
2259.0,-0.0032881588260753603
2258.0,-0.0032881588260753603
2257.0,-0.0033312585613267665
2256.0,-0.0033743540197499478
2255.0,-0.0034605321095062536
2254.0,-0.003503614742536687
2253.0,-0.003503614742536687
2252.0,-0.003546693102131737
2251.0,-0.003546693102131737
2250.0,-0.0035897671891400584
2249.0,-0.003675902548784027
2248.0,-0.003762020828246282
2247.0,-0.003762020828246282
2246.0,-0.003762020828246282
2245.0,-0.0037189638231147626
2244.0,-0.0037189638231147626
2243.0,-0.0037189638231147626
2242.0,-0.0037189638231147626
2241.0,-0.003675902548784027
2240.0,-0.003632837004408529
2239.0,-0.003632837004408529
2238.0,-0.003632837004408529
2237.0,-0.0035897671891400584
2236.0,-0.003546693102131737
2235.0,-0.0034605321095062536
2234.0,-0.0034174452021935586
2233.0,-0.0034174452021935586
2232.0,-0.003503614742536687
2231.0,-0.003546693102131737
2230.0,-0.003546693102131737
2229.0,-0.003503614742536687
2228.0,-0.0034605321095062536
2227.0,-0.0034174452021935586
2226.0,-0.0034605321095062536
2225.0,-0.003503614742536687
2224.0,-0.003546693102131737
2223.0,-0.003546693102131737
2222.0,-0.003546693102131737
2221.0,-0.003546693102131737
2220.0,-0.003546693102131737
2219.0,-0.003503614742536687
2218.0,-0.003503614742536687
2217.0,-0.003503614742536687
2216.0,-0.003546693102131737
2215.0,-0.003546693102131737
2214.0,-0.003546693102131737
2213.0,-0.003503614742536687
2212.0,-0.003503614742536687
2211.0,-0.0034605321095062536
2210.0,-0.003503614742536687
2209.0,-0.003503614742536687
2208.0,-0.003546693102131737
2207.0,-0.003503614742536687
2206.0,-0.0034605321095062536
2205.0,-0.0034605321095062536
2204.0,-0.003503614742536687
2203.0,-0.0035897671891400584
2202.0,-0.003675902548784027
2201.0,-0.003675902548784027
2200.0,-0.003632837004408529
2199.0,-0.003503614742536687
2198.0,-0.0034605321095062536
2197.0,-0.0034605321095062536
2196.0,-0.003503614742536687
2195.0,-0.003546693102131737
2194.0,-0.0035897671891400584
2193.0,-0.003632837004408529
2192.0,-0.003675902548784027
2191.0,-0.003675902548784027
2190.0,-0.0035897671891400584
2189.0,-0.003546693102131737
2188.0,-0.003503614742536687
2187.0,-0.003503614742536687
2186.0,-0.003546693102131737
2185.0,-0.0035897671891400584
2184.0,-0.0035897671891400584
2183.0,-0.003632837004408529
2182.0,-0.0035897671891400584
2181.0,-0.003546693102131737
2180.0,-0.003503614742536687
2179.0,-0.003503614742536687
2178.0,-0.003503614742536687
2177.0,-0.003503614742536687
2176.0,-0.003503614742536687
2175.0,-0.003546693102131737
2174.0,-0.0035897671891400584
2173.0,-0.0035897671891400584
2172.0,-0.003546693102131737
2171.0,-0.0034174452021935586
2170.0,-0.0033312585613267665
2169.0,-0.0032881588260753603
2168.0,-0.0032450548131470747
2167.0,-0.0032881588260753603
2166.0,-0.0033743540197499478
2165.0,-0.0034605321095062536
2164.0,-0.003503614742536687
2163.0,-0.003503614742536687
2162.0,-0.0034605321095062536
2161.0,-0.0033743540197499478
2160.0,-0.0033312585613267665
2159.0,-0.0032881588260753603
2158.0,-0.0032881588260753603
2157.0,-0.0032881588260753603
2156.0,-0.0032881588260753603
2155.0,-0.0032450548131470747
2154.0,-0.0032450548131470747
2153.0,-0.0032450548131470747
2152.0,-0.0032881588260753603
2151.0,-0.0033312585613267665
2150.0,-0.0033312585613267665
2149.0,-0.0033312585613267665
2148.0,-0.0032450548131470747
2147.0,-0.003201946521692367
2146.0,-0.0032450548131470747
2145.0,-0.0032881588260753603
2144.0,-0.0033312585613267665
2143.0,-0.0033312585613267665
2142.0,-0.0032881588260753603
2141.0,-0.0032450548131470747
2140.0,-0.0032881588260753603
2139.0,-0.0033743540197499478
2138.0,-0.0034605321095062536
2137.0,-0.003503614742536687
2136.0,-0.003503614742536687
2135.0,-0.0033743540197499478
2134.0,-0.0032881588260753603
2133.0,-0.0032450548131470747
2132.0,-0.003201946521692367
2131.0,-0.003201946521692367
2130.0,-0.003115717099805959
2129.0,-0.003115717099805959
2128.0,-0.003115717099805959
2127.0,-0.003158833950862139
2126.0,-0.003201946521692367
2125.0,-0.0032450548131470747
2124.0,-0.0032450548131470747
2123.0,-0.0032450548131470747
2122.0,-0.0032450548131470747
2121.0,-0.003201946521692367
2120.0,-0.003158833950862139
2119.0,-0.003115717099805959
2118.0,-0.003115717099805959
2117.0,-0.003115717099805959
2116.0,-0.003115717099805959
2115.0,-0.003158833950862139
2114.0,-0.003201946521692367
2113.0,-0.0032450548131470747
2112.0,-0.0032450548131470747
2111.0,-0.0032450548131470747
2110.0,-0.003201946521692367
2109.0,-0.003115717099805959
2108.0,-0.003029470553618019
2107.0,-0.0029863408567849525
2106.0,-0.0029863408567849525
2105.0,-0.003029470553618019
2104.0,-0.003115717099805959
2103.0,-0.003158833950862139
2102.0,-0.003201946521692367
2101.0,-0.003115717099805959
2100.0,-0.0029863408567849525
2099.0,-0.002900068611387585
2098.0,-0.0028137792246734072
2097.0,-0.0027706281011936618
2096.0,-0.0027706281011936618
2095.0,-0.0028137792246734072
2094.0,-0.002900068611387585
2093.0,-0.0029432068763250996
2092.0,-0.0029432068763250996
2091.0,-0.002900068611387585
2090.0,-0.002856926061120646
2089.0,-0.002856926061120646
2088.0,-0.0029432068763250996
2087.0,-0.0029863408567849525
2086.0,-0.003029470553618019
2085.0,-0.0029863408567849525
2084.0,-0.0029432068763250996
2083.0,-0.002900068611387585
2082.0,-0.002856926061120646
2081.0,-0.0028137792246734072
2080.0,-0.0028137792246734072
2079.0,-0.0028137792246734072
2078.0,-0.0028137792246734072
2077.0,-0.002900068611387585
2076.0,-0.0029863408567849525
2075.0,-0.0030725959676747294
2074.0,-0.0030725959676747294
2073.0,-0.003115717099805959
2072.0,-0.003115717099805959
2071.0,-0.003115717099805959
2070.0,-0.003115717099805959
2069.0,-0.003115717099805959
2068.0,-0.003115717099805959
2067.0,-0.003115717099805959
2066.0,-0.0030725959676747294
2065.0,-0.003029470553618019
2064.0,-0.003029470553618019
2063.0,-0.003115717099805959
2062.0,-0.003201946521692367
2061.0,-0.0032450548131470747
2060.0,-0.003201946521692367
2059.0,-0.003158833950862139
2058.0,-0.003115717099805959
2057.0,-0.0030725959676747294
2056.0,-0.0030725959676747294
2055.0,-0.0030725959676747294
2054.0,-0.0030725959676747294
2053.0,-0.0030725959676747294
2052.0,-0.003029470553618019
2051.0,-0.003029470553618019
2050.0,-0.0029863408567849525
2049.0,-0.002900068611387585
2048.0,-0.0028137792246734072
2047.0,-0.0028137792246734072
2046.0,-0.0028137792246734072
2045.0,-0.0028137792246734072
2044.0,-0.0028137792246734072
2043.0,-0.0028137792246734072
2042.0,-0.002856926061120646
2041.0,-0.0029432068763250996
2040.0,-0.0030725959676747294
2039.0,-0.003115717099805959
2038.0,-0.003029470553618019
2037.0,-0.002900068611387585
2036.0,-0.0028137792246734072
2035.0,-0.0027706281011936618
2034.0,-0.0027706281011936618
2033.0,-0.0028137792246734072
2032.0,-0.0028137792246734072
2031.0,-0.002856926061120646
2030.0,-0.002900068611387585
2029.0,-0.0029432068763250996
2028.0,-0.0029432068763250996
2027.0,-0.0029863408567849525
2026.0,-0.003029470553618019
2025.0,-0.0030725959676747294
2024.0,-0.0030725959676747294
2023.0,-0.0030725959676747294
2022.0,-0.0030725959676747294
2021.0,-0.0030725959676747294
2020.0,-0.0030725959676747294
2019.0,-0.0030725959676747294
2018.0,-0.003115717099805959
2017.0,-0.003158833950862139
2016.0,-0.003201946521692367
2015.0,-0.003201946521692367
2014.0,-0.003158833950862139
2013.0,-0.003115717099805959
2012.0,-0.003115717099805959
2011.0,-0.003115717099805959
2010.0,-0.003158833950862139
2009.0,-0.003158833950862139
2008.0,-0.003158833950862139
2007.0,-0.003158833950862139
2006.0,-0.003201946521692367
2005.0,-0.0032450548131470747
2004.0,-0.0032450548131470747
2003.0,-0.003201946521692367
2002.0,-0.003158833950862139
2001.0,-0.003115717099805959
2000.0,-0.003115717099805959
1999.0,-0.003158833950862139
1998.0,-0.003158833950862139
1997.0,-0.003158833950862139
1996.0,-0.003158833950862139
1995.0,-0.003201946521692367
1994.0,-0.003158833950862139
1993.0,-0.003158833950862139
1992.0,-0.003158833950862139
1991.0,-0.003201946521692367
1990.0,-0.0032450548131470747
1989.0,-0.0032881588260753603
1988.0,-0.0032881588260753603
1987.0,-0.0032881588260753603
1986.0,-0.0032881588260753603
1985.0,-0.0032450548131470747
1984.0,-0.0032450548131470747
1983.0,-0.003201946521692367
1982.0,-0.003158833950862139
1981.0,-0.003115717099805959
1980.0,-0.0030725959676747294
1979.0,-0.003029470553618019
1978.0,-0.003029470553618019
1977.0,-0.003029470553618019
1976.0,-0.003029470553618019
1975.0,-0.003029470553618019
1974.0,-0.0030725959676747294
1973.0,-0.003115717099805959
1972.0,-0.003158833950862139
1971.0,-0.003201946521692367
1970.0,-0.0032450548131470747
1969.0,-0.0032881588260753603
1968.0,-0.0032881588260753603
1967.0,-0.0032881588260753603
1966.0,-0.003201946521692367
1965.0,-0.003158833950862139
1964.0,-0.003158833950862139
1963.0,-0.003158833950862139
1962.0,-0.003158833950862139
1961.0,-0.003201946521692367
1960.0,-0.003201946521692367
1959.0,-0.003201946521692367
1958.0,-0.003158833950862139
1957.0,-0.003201946521692367
1956.0,-0.0032450548131470747
1955.0,-0.0033312585613267665
1954.0,-0.0033743540197499478
1953.0,-0.0033312585613267665
1952.0,-0.0032450548131470747
1951.0,-0.003158833950862139
1950.0,-0.003158833950862139
1949.0,-0.0032450548131470747
1948.0,-0.0033743540197499478
1947.0,-0.0034174452021935586
1946.0,-0.0033743540197499478
1945.0,-0.0032450548131470747
1944.0,-0.003115717099805959
1943.0,-0.003115717099805959
1942.0,-0.003201946521692367
1941.0,-0.0032881588260753603
1940.0,-0.0033312585613267665
1939.0,-0.0032881588260753603
1938.0,-0.0033312585613267665
1937.0,-0.0033743540197499478
1936.0,-0.0034174452021935586
1935.0,-0.003503614742536687
1934.0,-0.003503614742536687
1933.0,-0.003546693102131737
1932.0,-0.003546693102131737
1931.0,-0.003546693102131737
1930.0,-0.003546693102131737
1929.0,-0.003503614742536687
1928.0,-0.0034605321095062536
1927.0,-0.0034605321095062536
1926.0,-0.0034174452021935586
1925.0,-0.0033743540197499478
1924.0,-0.0034174452021935586
1923.0,-0.003546693102131737
1922.0,-0.003675902548784027
1921.0,-0.0037189638231147626
1920.0,-0.003632837004408529
1919.0,-0.003546693102131737
1918.0,-0.0034605321095062536
1917.0,-0.003503614742536687
1916.0,-0.003546693102131737
1915.0,-0.003632837004408529
1914.0,-0.0037189638231147626
1913.0,-0.003805073565025019
1912.0,-0.0038481220342978517
1911.0,-0.003891166236910326
1910.0,-0.0038481220342978517
1909.0,-0.0038481220342978517
1908.0,-0.003805073565025019
1907.0,-0.003805073565025019
1906.0,-0.0038481220342978517
1905.0,-0.003891166236910326
1904.0,-0.003934206173708432
1903.0,-0.0039772418455368275
1902.0,-0.0039772418455368275
1901.0,-0.0039772418455368275
1900.0,-0.003934206173708432
1899.0,-0.003934206173708432
1898.0,-0.0039772418455368275
1897.0,-0.004020273253241502
1896.0,-0.004063300397667113
1895.0,-0.004106323279658319
1894.0,-0.004149341900058889
1893.0,-0.004149341900058889
1892.0,-0.004063300397667113
1891.0,-0.0039772418455368275
1890.0,-0.003891166236910326
1889.0,-0.003805073565025019
1888.0,-0.0038481220342978517
1887.0,-0.0038481220342978517
1886.0,-0.0038481220342978517
1885.0,-0.003891166236910326
1884.0,-0.003934206173708432
1883.0,-0.004020273253241502
1882.0,-0.004149341900058889
1881.0,-0.0042353663594676405
1880.0,-0.0042353663594676405
1879.0,-0.004192356259714369
1878.0,-0.004106323279658319
1877.0,-0.004063300397667113
1876.0,-0.004020273253241502
1875.0,-0.004063300397667113
1874.0,-0.004106323279658319
1873.0,-0.004106323279658319
1872.0,-0.004106323279658319
1871.0,-0.004106323279658319
1870.0,-0.004192356259714369
1869.0,-0.0042783722001624724
1868.0,-0.004407364176330919
1867.0,-0.004493337547274212
1866.0,-0.00445035298922436
1865.0,-0.004407364176330919
1864.0,-0.004364371107751008
1863.0,-0.004364371107751008
1862.0,-0.004364371107751008
1861.0,-0.00445035298922436
1860.0,-0.004493337547274212
1859.0,-0.004493337547274212
1858.0,-0.004493337547274212
1857.0,-0.004407364176330919
1856.0,-0.004364371107751008
1855.0,-0.004321373782642635
1854.0,-0.0042783722001624724
1853.0,-0.0042783722001624724
1852.0,-0.0042783722001624724
1851.0,-0.004321373782642635
1850.0,-0.004321373782642635
1849.0,-0.004364371107751008
1848.0,-0.004407364176330919
1847.0,-0.004407364176330919
1846.0,-0.00445035298922436
1845.0,-0.004493337547274212
1844.0,-0.004536317851322913
1843.0,-0.0045792939022115675
1842.0,-0.004536317851322913
1841.0,-0.004493337547274212
1840.0,-0.004364371107751008
1839.0,-0.0042783722001624724
1838.0,-0.0042783722001624724
1837.0,-0.0042783722001624724
1836.0,-0.0042783722001624724
1835.0,-0.004321373782642635
1834.0,-0.0042783722001624724
1833.0,-0.0042783722001624724
1832.0,-0.0042353663594676405
1831.0,-0.0042353663594676405
1830.0,-0.004321373782642635
1829.0,-0.004407364176330919
1828.0,-0.00445035298922436
1827.0,-0.00445035298922436
1826.0,-0.004407364176330919
1825.0,-0.004407364176330919
1824.0,-0.004407364176330919
1823.0,-0.004364371107751008
1822.0,-0.0042783722001624724
1821.0,-0.0042353663594676405
1820.0,-0.0042353663594676405
1819.0,-0.0042783722001624724
1818.0,-0.0042783722001624724
1817.0,-0.0042783722001624724
1816.0,-0.0042783722001624724
1815.0,-0.004321373782642635
1814.0,-0.004407364176330919
1813.0,-0.00445035298922436
1812.0,-0.00445035298922436
1811.0,-0.004407364176330919
1810.0,-0.0042353663594676405
1809.0,-0.004063300397667113
1808.0,-0.003934206173708432
1807.0,-0.003891166236910326
1806.0,-0.003891166236910326
1805.0,-0.0039772418455368275
1804.0,-0.0039772418455368275
1803.0,-0.0039772418455368275
1802.0,-0.003934206173708432
1801.0,-0.0039772418455368275
1800.0,-0.004020273253241502
1799.0,-0.004020273253241502
1798.0,-0.004020273253241502
1797.0,-0.004063300397667113
1796.0,-0.004063300397667113
1795.0,-0.004106323279658319
1794.0,-0.004063300397667113
1793.0,-0.0039772418455368275
1792.0,-0.0039772418455368275
1791.0,-0.0039772418455368275
1790.0,-0.0039772418455368275
1789.0,-0.003934206173708432
1788.0,-0.003891166236910326
1787.0,-0.003891166236910326
1786.0,-0.0038481220342978517
1785.0,-0.003805073565025019
1784.0,-0.003762020828246282
1783.0,-0.003762020828246282
1782.0,-0.003762020828246282
1781.0,-0.003805073565025019
1780.0,-0.0038481220342978517
1779.0,-0.003891166236910326
1778.0,-0.003805073565025019
1777.0,-0.0037189638231147626
1776.0,-0.0035897671891400584
1775.0,-0.0034605321095062536
1774.0,-0.0033743540197499478
1773.0,-0.0034605321095062536
1772.0,-0.0035897671891400584
1771.0,-0.0037189638231147626
1770.0,-0.0037189638231147626
1769.0,-0.003675902548784027
1768.0,-0.0037189638231147626
1767.0,-0.0038481220342978517
1766.0,-0.003934206173708432
1765.0,-0.003934206173708432
1764.0,-0.0038481220342978517
1763.0,-0.003762020828246282
1762.0,-0.0037189638231147626
1761.0,-0.0037189638231147626
1760.0,-0.003762020828246282
1759.0,-0.003762020828246282
1758.0,-0.003805073565025019
1757.0,-0.0038481220342978517
1756.0,-0.003934206173708432
1755.0,-0.003934206173708432
1754.0,-0.003805073565025019
1753.0,-0.003675902548784027
1752.0,-0.003546693102131737
1751.0,-0.0034605321095062536
1750.0,-0.0034605321095062536
1749.0,-0.0034605321095062536
1748.0,-0.003503614742536687
1747.0,-0.0035897671891400584
1746.0,-0.003675902548784027
1745.0,-0.0037189638231147626
1744.0,-0.0037189638231147626
1743.0,-0.0037189638231147626
1742.0,-0.0037189638231147626
1741.0,-0.003675902548784027
1740.0,-0.003675902548784027
1739.0,-0.003675902548784027
1738.0,-0.003675902548784027
1737.0,-0.0035897671891400584
1736.0,-0.003546693102131737
1735.0,-0.003675902548784027
1734.0,-0.0038481220342978517
1733.0,-0.004020273253241502
1732.0,-0.0039772418455368275
1731.0,-0.0038481220342978517
1730.0,-0.0037189638231147626
1729.0,-0.003632837004408529
1728.0,-0.003546693102131737
1727.0,-0.0034605321095062536
1726.0,-0.0034174452021935586
1725.0,-0.0033312585613267665
1724.0,-0.0033312585613267665
1723.0,-0.0033743540197499478
1722.0,-0.0034605321095062536
1721.0,-0.003503614742536687
1720.0,-0.003503614742536687
1719.0,-0.0034605321095062536
1718.0,-0.0033743540197499478
1717.0,-0.0032450548131470747
1716.0,-0.003201946521692367
1715.0,-0.003201946521692367
1714.0,-0.003158833950862139
1713.0,-0.003115717099805959
1712.0,-0.003029470553618019
1711.0,-0.0029863408567849525
1710.0,-0.0029432068763250996
1709.0,-0.002900068611387585
1708.0,-0.002900068611387585
1707.0,-0.002856926061120646
1706.0,-0.0027706281011936618
1705.0,-0.0027706281011936618
1704.0,-0.0027706281011936618
1703.0,-0.0027706281011936618
1702.0,-0.0028137792246734072
1701.0,-0.002900068611387585
1700.0,-0.0030725959676747294
1699.0,-0.003158833950862139
1698.0,-0.0030725959676747294
1697.0,-0.002856926061120646
1696.0,-0.0027706281011936618
1695.0,-0.002856926061120646
1694.0,-0.002856926061120646
1693.0,-0.002684312989729598
1692.0,-0.0025116312849080558
1691.0,-0.0023820749327607693
1690.0,-0.0022524799205383417
1689.0,-0.0021228462251614566
1688.0,-0.0020796263931210923
1687.0,-0.0020796263931210923
1686.0,-0.0022092729880145434
1685.0,-0.002338880892056583
1684.0,-0.0022524799205383417
1683.0,-0.0021228462251614566
1682.0,-0.0018202170383281313
1681.0,-0.0015173768235041685
1680.0,-0.0013875234866409514
1679.0,-0.001344230411601366
1678.0,-0.0013875234866409514
1677.0,-0.0013875234866409514
1676.0,-0.0013875234866409514
1675.0,-0.001344230411601366
1674.0,-0.001344230411601366
1673.0,-0.0013009330204178937
1672.0,-0.0011277002770349043
1671.0,-0.0009977303577937136
1670.0,-0.0008677215312267172
1669.0,-0.0009110621312231615
1668.0,-0.001041057986093552
1667.0,-0.0011277002770349043
1666.0,-0.0011277002770349043
1665.0,-0.0010843812922201046
1664.0,-0.0009543984064577238
1663.0,-0.0007810273534953893
1662.0,-0.0006943158663546001
1661.0,-0.0006509536295951079
1660.0,-0.0006509536295951079
1659.0,-0.0006509536295951079
1658.0,-0.0006509536295951079
1657.0,-0.0006509536295951079
1656.0,-0.0005208409361854294
1655.0,-0.00030389978481260016
1654.0,0.00021720154586435392
1653.0,0.0005649501236701937
1652.0,0.00026065489343207737
1651.0,8.686758342868472e-05
1650.0,8.686758342868472e-05
1649.0,8.686758342868472e-05
1648.0,8.686758342868472e-05
1647.0,0.00017375254558760211
1646.0,0.00017375254558760211
1645.0,0.00021720154586435392
1644.0,0.00021720154586435392
1643.0,0.00021720154586435392
1642.0,0.00017375254558760211
1641.0,8.686758342868472e-05
1640.0,0.0
1639.0,-8.685021164911433e-05
1638.0,-0.00017368305846510168
1637.0,-0.00013026880522692963
1636.0,-4.3427276862573194e-05
1635.0,4.343161980746579e-05
1634.0,4.343161980746579e-05
1633.0,4.343161980746579e-05
1632.0,0.0
1631.0,-0.00013026880522692963
1630.0,-0.0002604985473904087
1629.0,-0.00030389978481260016
1628.0,-0.0002604985473904087
1627.0,-0.00017368305846510168
1626.0,-8.685021164911433e-05
1625.0,4.343161980746579e-05
1624.0,0.00026065489343207737
1623.0,0.0006084382809090627
1622.0,0.000869458712629001
1621.0,0.0010870956412141197
1620.0,0.001304841688344327
1619.0,0.0015662811355310335
1618.0,0.0019587356365717845
1617.0,0.002569926202528716
1616.0,0.0031819781204844855
1615.0,0.003619686766589858
1614.0,0.003926345514724705
1613.0,0.004189368323957332
1612.0,0.0043648054024501
1611.0,0.004540313378935901
1610.0,0.004671990922590297
1609.0,0.00489154225525934
1608.0,0.005067263269958211
1607.0,0.005199100705396198
1606.0,0.005199100705396198
1605.0,0.005199100705396198
1604.0,0.005155150446602086
1603.0,0.005111204635089406
1602.0,0.005023326350308999
1601.0,0.004803708402820517
1600.0,0.004540313378935901
1599.0,0.004233220950025984
1598.0,0.003926345514724705
1597.0,0.003619686766589858
1596.0,0.0033570086445275926
1595.0,0.0030944893043338695
1594.0,0.0028758443407954637
1593.0,0.0026573093983774942
1592.0,0.002482560585275184
1591.0,0.002351545103793873
1590.0,0.0021769192542746563
1589.0,0.0020459959305969555
1588.0,0.0018714928717336043
1587.0,0.0016970599014589638
1586.0,0.001609869681952425
1585.0,0.0015226969634936083
1584.0,0.0014791171649619628
1583.0,0.0013919706849057079
1582.0,0.001304841688344327
1581.0,0.0011306361176557367
1580.0,0.0009565003968372565
1579.0,0.0007824344698965646
1578.0,0.0006519307932786322
1577.0,0.0006084382809090627
1576.0,0.000521466320689834
1575.0,0.00030411258916074324
1574.0,8.686758342868472e-05
1573.0,-8.685021164911433e-05
1572.0,-0.00021709297223004853
1571.0,-0.00030389978481260016
1570.0,-0.00030389978481260016
1569.0,-0.00030389978481260016
1568.0,-0.0003906892499099257
1567.0,-0.0004774613744551459
1566.0,-0.0005642161653756084
1565.0,-0.0006943158663546001
1564.0,-0.0007810273534953893
1563.0,-0.0008243766056055257
1562.0,-0.0009110621312231615
1561.0,-0.0011277002770349043
1560.0,-0.001344230411601366
1559.0,-0.0010843812922201046
1558.0,-0.0009110621312231615
1557.0,-0.0008677215312267172
1556.0,-0.0007810273534953893
1555.0,-0.0007810273534953893
1554.0,-0.0009110621312231615
1553.0,-0.0010843812922201046
1552.0,-0.0011710149414008164
1551.0,-0.001257631312230778
1550.0,-0.0013009330204178937
1549.0,-0.0013009330204178937
1548.0,-0.0013009330204178937
1547.0,-0.001257631312230778
1546.0,-0.001257631312230778
1545.0,-0.001257631312230778
1544.0,-0.0013009330204178937
1543.0,-0.0013875234866409514
1542.0,-0.0016039241497978196
1541.0,-0.0016904542321527494
1540.0,-0.0015606526425728795
1539.0,-0.0013875234866409514
1538.0,-0.001344230411601366
1537.0,-0.0013009330204178937
1536.0,-0.001257631312230778
1535.0,-0.00121432528617893
1534.0,-0.0011277002770349043
1533.0,-0.0009977303577937136
1532.0,-0.0009977303577937136
1531.0,-0.001041057986093552
1530.0,-0.0011277002770349043
1529.0,-0.001257631312230778
1528.0,-0.0013009330204178937
1527.0,-0.0013009330204178937
1526.0,-0.0013009330204178937
1525.0,-0.0013009330204178937
1524.0,-0.001257631312230778
1523.0,-0.0011710149414008164
1522.0,-0.0011710149414008164
1521.0,-0.0013009330204178937
1520.0,-0.0015606526425728795
1519.0,-0.0016039241497978196
1518.0,-0.0015173768235041685
1517.0,-0.001344230411601366
1516.0,-0.001344230411601366
1515.0,-0.0014308122463981832
1514.0,-0.001474096691732818
1513.0,-0.0015606526425728795
1512.0,-0.0016039241497978196
1511.0,-0.0016039241497978196
1510.0,-0.0016039241497978196
1509.0,-0.0016039241497978196
1508.0,-0.0016039241497978196
1507.0,-0.0016471913460383014
1506.0,-0.0018202170383281313
1505.0,-0.0019499410842680476
1504.0,-0.0019067040408846658
1503.0,-0.0019067040408846658
1502.0,-0.0019499410842680476
1501.0,-0.0020364022595291686
1500.0,-0.0020796263931210923
1499.0,-0.0020364022595291686
1498.0,-0.0019499410842680476
1497.0,-0.0019067040408846658
1496.0,-0.0019067040408846658
1495.0,-0.0019499410842680476
1494.0,-0.0019931738235303698
1493.0,-0.0020364022595291686
1492.0,-0.0021228462251614566
1491.0,-0.0021660617565077978
1490.0,-0.0021660617565077978
1489.0,-0.0020796263931210923
1488.0,-0.0019931738235303698
1487.0,-0.0019499410842680476
1486.0,-0.0019067040408846658
1485.0,-0.0019067040408846658
1484.0,-0.0019067040408846658
1483.0,-0.0019499410842680476
1482.0,-0.0020364022595291686
1481.0,-0.0020796263931210923
1480.0,-0.0020796263931210923
1479.0,-0.0020796263931210923
1478.0,-0.0020364022595291686
1477.0,-0.0019931738235303698
1476.0,-0.0019931738235303698
1475.0,-0.0019931738235303698
1474.0,-0.0019499410842680476
1473.0,-0.0019931738235303698
1472.0,-0.0020796263931210923
1471.0,-0.0021660617565077978
1470.0,-0.0021228462251614566
1469.0,-0.0020796263931210923
1468.0,-0.0020364022595291686
1467.0,-0.0020796263931210923
1466.0,-0.0021228462251614566
1465.0,-0.0021660617565077978
1464.0,-0.0022092729880145434
1463.0,-0.0022092729880145434
1462.0,-0.0022092729880145434
1461.0,-0.0022092729880145434
1460.0,-0.0022092729880145434
1459.0,-0.0021660617565077978
1458.0,-0.0019931738235303698
1457.0,-0.0019499410842680476
1456.0,-0.0021660617565077978
1455.0,-0.002338880892056583
1454.0,-0.0023820749327607693
1453.0,-0.0023820749327607693
1452.0,-0.002338880892056583
1451.0,-0.002338880892056583
1450.0,-0.0022956825549340643
1449.0,-0.0022956825549340643
1448.0,-0.0022956825549340643
1447.0,-0.002338880892056583
1446.0,-0.0023820749327607693
1445.0,-0.0023820749327607693
1444.0,-0.0023820749327607693
1443.0,-0.002338880892056583
1442.0,-0.0022956825549340643
1441.0,-0.0022524799205383417
1440.0,-0.0021660617565077978
1439.0,-0.0020796263931210923
1438.0,-0.0020796263931210923
1437.0,-0.0021228462251614566
1436.0,-0.0021660617565077978
1435.0,-0.0022524799205383417
1434.0,-0.0022956825549340643
1433.0,-0.0023820749327607693
1432.0,-0.0024252646779014952
1431.0,-0.0024684501283323
1430.0,-0.0025548081484823015
1429.0,-0.002597980719908577
1428.0,-0.0026411490000399773
1427.0,-0.002684312989729598
1426.0,-0.0027274726898296464
1425.0,-0.0027706281011936618
1424.0,-0.0028137792246734072
1423.0,-0.0027706281011936618
1422.0,-0.0027274726898296464
1421.0,-0.002597980719908577
1420.0,-0.0024252646779014952
1419.0,-0.0022956825549340643
1418.0,-0.002338880892056583
1417.0,-0.0023820749327607693
1416.0,-0.0023820749327607693
1415.0,-0.002338880892056583
1414.0,-0.0022956825549340643
1413.0,-0.0022092729880145434
1412.0,-0.0021228462251614566
1411.0,-0.0020364022595291686
1410.0,-0.0019931738235303698
1409.0,-0.0019931738235303698
1408.0,-0.0019931738235303698
1407.0,-0.0020364022595291686
1406.0,-0.0021228462251614566
1405.0,-0.0022524799205383417
1404.0,-0.002338880892056583
1403.0,-0.002338880892056583
1402.0,-0.002338880892056583
1401.0,-0.0022956825549340643
1400.0,-0.0022524799205383417
1399.0,-0.0022092729880145434
1398.0,-0.0021660617565077978
1397.0,-0.0021660617565077978
1396.0,-0.0022092729880145434
1395.0,-0.0022956825549340643
1394.0,-0.0023820749327607693
1393.0,-0.0024684501283323
1392.0,-0.0024684501283323
1391.0,-0.0024684501283323
1390.0,-0.0024684501283323
1389.0,-0.0024684501283323
1388.0,-0.0025116312849080558
1387.0,-0.0024684501283323
1386.0,-0.0025116312849080558
1385.0,-0.0025548081484823015
1384.0,-0.002597980719908577
1383.0,-0.0026411490000399773
1382.0,-0.002684312989729598
1381.0,-0.002597980719908577
1380.0,-0.0025548081484823015
1379.0,-0.0025116312849080558
1378.0,-0.0025116312849080558
1377.0,-0.0025548081484823015
1376.0,-0.0025548081484823015
1375.0,-0.0025548081484823015
1374.0,-0.0024684501283323
1373.0,-0.0024252646779014952
1372.0,-0.0024684501283323
1371.0,-0.0024684501283323
1370.0,-0.0024684501283323
1369.0,-0.0024684501283323
1368.0,-0.0024252646779014952
1367.0,-0.0023820749327607693
1366.0,-0.0022956825549340643
1365.0,-0.0022524799205383417
1364.0,-0.0022092729880145434
1363.0,-0.0022092729880145434
1362.0,-0.0022524799205383417
1361.0,-0.0022524799205383417
1360.0,-0.0022524799205383417
1359.0,-0.0022524799205383417
1358.0,-0.0022524799205383417
1357.0,-0.0022956825549340643
1356.0,-0.0023820749327607693
1355.0,-0.0024252646779014952
1354.0,-0.0023820749327607693
1353.0,-0.0022956825549340643
1352.0,-0.0022092729880145434
1351.0,-0.0021660617565077978
1350.0,-0.0021660617565077978
1349.0,-0.0021660617565077978
1348.0,-0.0021660617565077978
1347.0,-0.0021660617565077978
1346.0,-0.0022092729880145434
1345.0,-0.0022524799205383417
1344.0,-0.0022956825549340643
1343.0,-0.002338880892056583
1342.0,-0.0023820749327607693
1341.0,-0.0023820749327607693
1340.0,-0.0023820749327607693
1339.0,-0.0024252646779014952
1338.0,-0.0024252646779014952
1337.0,-0.0024252646779014952
1336.0,-0.0024252646779014952
1335.0,-0.0024684501283323
1334.0,-0.0025116312849080558
1333.0,-0.002597980719908577
1332.0,-0.0026411490000399773
1331.0,-0.002684312989729598
1330.0,-0.002684312989729598
1329.0,-0.0027274726898296464
1328.0,-0.0027274726898296464
1327.0,-0.0027274726898296464
1326.0,-0.0027274726898296464
1325.0,-0.002684312989729598
1324.0,-0.0026411490000399773
1323.0,-0.002597980719908577
1322.0,-0.0025116312849080558
1321.0,-0.002338880892056583
1320.0,-0.0021660617565077978
1319.0,-0.0020364022595291686
1318.0,-0.0019499410842680476
1317.0,-0.0019499410842680476
1316.0,-0.0019499410842680476
1315.0,-0.0019499410842680476
1314.0,-0.0019067040408846658
1313.0,-0.0019067040408846658
1312.0,-0.0019067040408846658
1311.0,-0.0019067040408846658
1310.0,-0.0018634626925240205
1309.0,-0.0018634626925240205
1308.0,-0.0018202170383281313
1307.0,-0.0018634626925240205
1306.0,-0.0018634626925240205
1305.0,-0.0019067040408846658
1304.0,-0.0019499410842680476
1303.0,-0.0019499410842680476
1302.0,-0.0018634626925240205
1301.0,-0.0018202170383281313
1300.0,-0.001733712809000476
1299.0,-0.0016904542321527494
1298.0,-0.0016471913460383014
1297.0,-0.0016471913460383014
1296.0,-0.0016904542321527494
1295.0,-0.001776967077439462
1294.0,-0.0018634626925240205
1293.0,-0.0019499410842680476
1292.0,-0.0019931738235303698
1291.0,-0.0019931738235303698
1290.0,-0.0019931738235303698
1289.0,-0.0020364022595291686
1288.0,-0.0020364022595291686
1287.0,-0.0020364022595291686
1286.0,-0.0020364022595291686
1285.0,-0.0020796263931210923
1284.0,-0.0021660617565077978
1283.0,-0.0022092729880145434
1282.0,-0.0022956825549340643
1281.0,-0.0022956825549340643
1280.0,-0.0022956825549340643
1279.0,-0.0022956825549340643
1278.0,-0.0022956825549340643
1277.0,-0.002338880892056583
1276.0,-0.0024252646779014952
1275.0,-0.0025116312849080558
1274.0,-0.0024684501283323
1273.0,-0.0023820749327607693
1272.0,-0.0022956825549340643
1271.0,-0.0022524799205383417
1270.0,-0.0022956825549340643
1269.0,-0.0023820749327607693
1268.0,-0.0024684501283323
1267.0,-0.0025116312849080558
1266.0,-0.0025548081484823015
1265.0,-0.0025548081484823015
1264.0,-0.0025116312849080558
1263.0,-0.0024684501283323
1262.0,-0.0024252646779014952
1261.0,-0.0024252646779014952
1260.0,-0.0024252646779014952
1259.0,-0.0023820749327607693
1258.0,-0.002338880892056583
1257.0,-0.002338880892056583
1256.0,-0.002338880892056583
1255.0,-0.002338880892056583
1254.0,-0.002338880892056583
1253.0,-0.002338880892056583
1252.0,-0.0022956825549340643
1251.0,-0.0022524799205383417
1250.0,-0.0021660617565077978
1249.0,-0.0021228462251614566
1248.0,-0.0020796263931210923
1247.0,-0.0020364022595291686
1246.0,-0.0020796263931210923
1245.0,-0.0021228462251614566
1244.0,-0.0021228462251614566
1243.0,-0.0021660617565077978
1242.0,-0.0021660617565077978
1241.0,-0.0021228462251614566
1240.0,-0.0020796263931210923
1239.0,-0.0020796263931210923
1238.0,-0.0020364022595291686
1237.0,-0.0020796263931210923
1236.0,-0.0021660617565077978
1235.0,-0.0022092729880145434
1234.0,-0.0022956825549340643
1233.0,-0.002338880892056583
1232.0,-0.002338880892056583
1231.0,-0.0022956825549340643
1230.0,-0.0022956825549340643
1229.0,-0.002338880892056583
1228.0,-0.002338880892056583
1227.0,-0.0023820749327607693
1226.0,-0.0023820749327607693
1225.0,-0.0024252646779014952
1224.0,-0.0024252646779014952
1223.0,-0.0024684501283323
1222.0,-0.0024684501283323
1221.0,-0.0025116312849080558
1220.0,-0.0025548081484823015
1219.0,-0.002597980719908577
1218.0,-0.002684312989729598
1217.0,-0.0027706281011936618
1216.0,-0.002856926061120646
1215.0,-0.0029863408567849525
1214.0,-0.003029470553618019
1213.0,-0.003029470553618019
1212.0,-0.0029863408567849525
1211.0,-0.0029863408567849525
1210.0,-0.0029863408567849525
1209.0,-0.003029470553618019
1208.0,-0.0030725959676747294
1207.0,-0.003115717099805959
1206.0,-0.003115717099805959
1205.0,-0.003115717099805959
1204.0,-0.003029470553618019
1203.0,-0.0029432068763250996
1202.0,-0.002856926061120646
1201.0,-0.0028137792246734072
1200.0,-0.0028137792246734072
1199.0,-0.002856926061120646
1198.0,-0.002856926061120646
1197.0,-0.0028137792246734072
1196.0,-0.0027274726898296464
1195.0,-0.0026411490000399773
1194.0,-0.0025116312849080558
1193.0,-0.0023820749327607693
1192.0,-0.0022092729880145434
1191.0,-0.0020364022595291686
1190.0,-0.0019067040408846658
1189.0,-0.0018202170383281313
1188.0,-0.001776967077439462
1187.0,-0.001733712809000476
1186.0,-0.0016471913460383014
1185.0,-0.0016471913460383014
1184.0,-0.0016904542321527494
1183.0,-0.001733712809000476
1182.0,-0.001733712809000476
1181.0,-0.0016904542321527494
1180.0,-0.0016904542321527494
1179.0,-0.0016039241497978196
1178.0,-0.0015173768235041685
1177.0,-0.0014308122463981832
1176.0,-0.0013875234866409514
1175.0,-0.001344230411601366
1174.0,-0.001344230411601366
1173.0,-0.0013875234866409514
1172.0,-0.0013875234866409514
1171.0,-0.0014308122463981832
1170.0,-0.0015173768235041685
1169.0,-0.0015606526425728795
1168.0,-0.0016039241497978196
1167.0,-0.0016039241497978196
1166.0,-0.0016471913460383014
1165.0,-0.0016904542321527494
1164.0,-0.001776967077439462
1163.0,-0.001776967077439462
1162.0,-0.001776967077439462
1161.0,-0.001776967077439462
1160.0,-0.001776967077439462
1159.0,-0.001776967077439462
1158.0,-0.001776967077439462
1157.0,-0.001733712809000476
1156.0,-0.001733712809000476
1155.0,-0.0016904542321527494
1154.0,-0.0016471913460383014
1153.0,-0.0015173768235041685
1152.0,-0.0013875234866409514
1151.0,-0.00121432528617893
1150.0,-0.001041057986093552
1149.0,-0.0009543984064577238
1148.0,-0.0008677215312267172
1147.0,-0.0008243766056055257
1146.0,-0.0007376737740329986
1145.0,-0.0005642161653756084
1144.0,-0.00043407747931878404
1143.0,-0.0003472966853634851
1142.0,-0.00030389978481260016
1141.0,-0.0002604985473904087
1140.0,-0.0002604985473904087
1139.0,-0.00030389978481260016
1138.0,-0.00030389978481260016
1137.0,-0.00021709297223004853
1136.0,-0.00013026880522692963
1135.0,-4.3427276862573194e-05
1134.0,4.343161980746579e-05
1133.0,0.0001303078917322953
1132.0,0.00030411258916074324
1131.0,0.000521466320689834
1130.0,0.0006519307932786322
1129.0,0.0008259444115150671
1128.0,0.0010435595295137379
1127.0,0.0012177301682640973
1126.0,0.0013919706849057079
1125.0,0.0014791171649619628
1124.0,0.0015226969634936083
1123.0,0.0015662811355310335
1122.0,0.001609869681952425
1121.0,0.0016970599014589638
1120.0,0.0018278780605593958
1119.0,0.0019587356365717845
1118.0,0.0020023635919956817
1117.0,0.0020023635919956817
1116.0,0.0020023635919956817
1115.0,0.0019587356365717845
1114.0,0.0019587356365717845
1113.0,0.0019587356365717845
1112.0,0.0020459959305969555
1111.0,0.0021769192542746563
1110.0,0.0022642234021015284
1109.0,0.002351545103793873
1108.0,0.002395212539545666
1107.0,0.0024388843664115978
1106.0,0.0024388843664115978
1105.0,0.0023078820582733695
1104.0,0.0021332737608552588
1103.0,0.001915112063444413
1102.0,0.0017406615763013722
1101.0,0.0016970599014589638
1100.0,0.0016534626036355249
1099.0,0.001609869681952425
1098.0,0.001609869681952425
1097.0,0.0015662811355310335
1096.0,0.0015226969634936083
1095.0,0.0014791171649619628
1094.0,0.0014791171649619628
1093.0,0.0014791171649619628
1092.0,0.0014355417390583547
1091.0,0.001348404001626502
1090.0,0.0012612837441823288
1089.0,0.0012177301682640973
1088.0,0.0011741809597138886
1087.0,0.0011306361176557367
1086.0,0.0011306361176557367
1085.0,0.0011306361176557367
1084.0,0.0011306361176557367
1083.0,0.0010870956412141197
1082.0,0.0010870956412141197
1081.0,0.0011741809597138886
1080.0,0.0012612837441823288
1079.0,0.001304841688344327
1078.0,0.001304841688344327
1077.0,0.001304841688344327
1076.0,0.0013919706849057079
1075.0,0.001609869681952425
1074.0,0.0018278780605593958
1073.0,0.002089632653256679
1072.0,0.0023078820582733695
1071.0,0.002351545103793873
1070.0,0.0023078820582733695
1069.0,0.0021769192542746563
1068.0,0.0021769192542746563
1067.0,0.0022205691343961664
1066.0,0.0023078820582733695
1065.0,0.0023078820582733695
1064.0,0.0023078820582733695
1063.0,0.002351545103793873
1062.0,0.0024388843664115978
1061.0,0.002569926202528716
1060.0,0.0026573093983774942
1059.0,0.002701007590486082
1058.0,0.002701007590486082
1057.0,0.0026573093983774942
1056.0,0.002569926202528716
1055.0,0.0025262411970197185
1054.0,0.002482560585275184
1053.0,0.002395212539545666
1052.0,0.002351545103793873
1051.0,0.002351545103793873
1050.0,0.002395212539545666
1049.0,0.002482560585275184
1048.0,0.0025262411970197185
1047.0,0.0024388843664115978
1046.0,0.0022205691343961664
1045.0,0.0020459959305969555
1044.0,0.0019587356365717845
1043.0,0.0020023635919956817
1042.0,0.0020459959305969555
1041.0,0.0020459959305969555
1040.0,0.0020023635919956817
1039.0,0.0020023635919956817
1038.0,0.0020023635919956817
1037.0,0.0020459959305969555
1036.0,0.0021332737608552588
1035.0,0.0021769192542746563
1034.0,0.0021769192542746563
1033.0,0.002089632653256679
1032.0,0.0020023635919956817
1031.0,0.001915112063444413
1030.0,0.0018714928717336043
1029.0,0.0018714928717336043
1028.0,0.0018714928717336043
1027.0,0.0018714928717336043
1026.0,0.001915112063444413
1025.0,0.0020023635919956817
1024.0,0.002089632653256679
1023.0,0.0020459959305969555
1022.0,0.001915112063444413
1021.0,0.0018714928717336043
1020.0,0.0018714928717336043
1019.0,0.0019587356365717845
1018.0,0.0020459959305969555
1017.0,0.0021332737608552588
1016.0,0.0021769192542746563
1015.0,0.0021769192542746563
1014.0,0.0021332737608552588
1013.0,0.002089632653256679
1012.0,0.0020023635919956817
1011.0,0.0020459959305969555
1010.0,0.002089632653256679
1009.0,0.0021332737608552588
1008.0,0.002089632653256679
1007.0,0.0019587356365717845
1006.0,0.0018714928717336043
1005.0,0.0017842676290416026
1004.0,0.0017406615763013722
1003.0,0.0017406615763013722
1002.0,0.0017406615763013722
1001.0,0.0016970599014589638
1000.0,0.0016534626036355249
999.0,0.0017406615763013722
998.0,0.0018278780605593958
997.0,0.0019587356365717845
996.0,0.0019587356365717845
995.0,0.001915112063444413
994.0,0.0018714928717336043
993.0,0.0017406615763013722
992.0,0.001609869681952425
991.0,0.0014355417390583547
990.0,0.0012612837441823288
989.0,0.0011741809597138886
988.0,0.0011741809597138886
987.0,0.0012612837441823288
986.0,0.0013919706849057079
985.0,0.0015226969634936083
984.0,0.001609869681952425
983.0,0.001609869681952425
982.0,0.0015226969634936083
981.0,0.0013919706849057079
980.0,0.0012612837441823288
979.0,0.0010435595295137379
978.0,0.0007389288868995258
977.0,0.00043451177401765406
976.0,0.00030411258916074324
975.0,0.00026065489343207737
974.0,0.00030411258916074324
973.0,0.0003910410285830057
972.0,0.0004779868710962365
971.0,0.0006519307932786322
970.0,0.0007389288868995258
969.0,0.0007389288868995258
968.0,0.0006084382809090627
967.0,0.0005649501236701937
966.0,0.000521466320689834
965.0,0.0006084382809090627
964.0,0.0006084382809090627
963.0,0.0006084382809090627
962.0,0.0006084382809090627
961.0,0.0006519307932786322
960.0,0.0006954276616513155
959.0,0.0006954276616513155
958.0,0.0006519307932786322
957.0,0.0006519307932786322
956.0,0.0006084382809090627
955.0,0.0006084382809090627
954.0,0.0006084382809090627
953.0,0.0005649501236701937
952.0,0.000521466320689834
951.0,0.0004779868710962365
950.0,0.00043451177401765406
949.0,0.0003910410285830057
948.0,0.00043451177401765406
947.0,0.0004779868710962365
946.0,0.0005649501236701937
945.0,0.0006084382809090627
944.0,0.0006084382809090627
943.0,0.000521466320689834
942.0,0.00043451177401765406
941.0,0.0003475746339209884
940.0,0.00026065489343207737
939.0,0.00026065489343207737
938.0,0.00026065489343207737
937.0,0.00026065489343207737
936.0,0.00026065489343207737
935.0,0.00017375254558760211
934.0,0.00017375254558760211
933.0,0.00017375254558760211
932.0,0.00017375254558760211
931.0,8.686758342868472e-05
930.0,-4.3427276862573194e-05
929.0,-8.685021164911433e-05
928.0,-8.685021164911433e-05
927.0,-4.3427276862573194e-05
926.0,-4.3427276862573194e-05
925.0,-0.00013026880522692963
924.0,-0.0002604985473904087
923.0,-0.0004774613744551459
922.0,-0.0006075870628903246
921.0,-0.0007376737740329986
920.0,-0.0007376737740329986
919.0,-0.0006943158663546001
918.0,-0.0006509536295951079
917.0,-0.0005642161653756084
916.0,-0.0005208409361854294
915.0,-0.0005642161653756084
914.0,-0.0006075870628903246
913.0,-0.0006075870628903246
912.0,-0.0005208409361854294
911.0,-0.00043407747931878404
910.0,-0.0003906892499099257
909.0,-0.0003906892499099257
908.0,-0.00043407747931878404
907.0,-0.0003906892499099257
906.0,-0.0003906892499099257
905.0,-0.0003906892499099257
904.0,-0.0003906892499099257
903.0,-0.0003472966853634851
902.0,-0.00017368305846510168
901.0,4.343161980746579e-05
900.0,0.00021720154586435392
899.0,0.00026065489343207737
898.0,0.00021720154586435392
897.0,0.0001303078917322953
896.0,0.00017375254558760211
895.0,0.00030411258916074324
894.0,0.0003910410285830057
893.0,0.00043451177401765406
892.0,0.00043451177401765406
891.0,0.0003475746339209884
890.0,0.0003475746339209884
889.0,0.0003475746339209884
888.0,0.0003475746339209884
887.0,0.00026065489343207737
886.0,0.00017375254558760211
885.0,0.0001303078917322953
884.0,0.00017375254558760211
883.0,0.00026065489343207737
882.0,0.00030411258916074324
881.0,0.00030411258916074324
880.0,0.00021720154586435392
879.0,0.00017375254558760211
878.0,0.0001303078917322953
877.0,0.00017375254558760211
876.0,0.00026065489343207737
875.0,0.00030411258916074324
874.0,0.00030411258916074324
873.0,0.0003475746339209884
872.0,0.0003910410285830057
871.0,0.00043451177401765406
870.0,0.00043451177401765406
869.0,0.0003910410285830057
868.0,0.0003475746339209884
867.0,0.00026065489343207737
866.0,0.00021720154586435392
865.0,0.0001303078917322953
864.0,0.0001303078917322953
863.0,0.00021720154586435392
862.0,0.00030411258916074324
861.0,0.00030411258916074324
860.0,0.00017375254558760211
859.0,-4.3427276862573194e-05
858.0,-0.00021709297223004853
857.0,-0.00030389978481260016
856.0,-0.00021709297223004853
855.0,-4.3427276862573194e-05
854.0,8.686758342868472e-05
853.0,0.0001303078917322953
852.0,4.343161980746579e-05
851.0,-0.00013026880522692963
850.0,-0.00021709297223004853
849.0,-0.00017368305846510168
848.0,-8.685021164911433e-05
847.0,0.0
846.0,0.0
845.0,-8.685021164911433e-05
844.0,-0.00017368305846510168
843.0,-0.0002604985473904087
842.0,-0.0002604985473904087
841.0,-8.685021164911433e-05
840.0,0.00017375254558760211
839.0,0.0004779868710962365
838.0,0.0006954276616513155
837.0,0.0007824344698965646
836.0,0.0008259444115150671
835.0,0.0007389288868995258
834.0,0.0006519307932786322
833.0,0.000521466320689834
832.0,0.000521466320689834
831.0,0.0005649501236701937
830.0,0.0006084382809090627
829.0,0.0005649501236701937
828.0,0.0004779868710962365
827.0,0.0003475746339209884
826.0,0.00030411258916074324
825.0,0.0003910410285830057
824.0,0.0004779868710962365
823.0,0.000521466320689834
822.0,0.000521466320689834
821.0,0.000521466320689834
820.0,0.0004779868710962365
819.0,0.000521466320689834
818.0,0.000521466320689834
817.0,0.000521466320689834
816.0,0.0004779868710962365
815.0,0.0004779868710962365
814.0,0.00043451177401765406
813.0,0.0003475746339209884
812.0,0.00030411258916074324
811.0,0.00026065489343207737
810.0,0.00030411258916074324
809.0,0.00030411258916074324
808.0,0.00026065489343207737
807.0,0.00017375254558760211
806.0,0.00021720154586435392
805.0,0.00043451177401765406
804.0,0.0006519307932786322
803.0,0.0007389288868995258
802.0,0.000521466320689834
801.0,0.00026065489343207737
800.0,8.686758342868472e-05
799.0,0.0001303078917322953
798.0,0.00026065489343207737
797.0,0.000521466320689834
796.0,0.0008259444115150671
795.0,0.0010435595295137379
794.0,0.0012612837441823288
793.0,0.0013919706849057079
792.0,0.0014791171649619628
791.0,0.0014791171649619628
790.0,0.001348404001626502
789.0,0.0011306361176557367
788.0,0.0009565003968372565
787.0,0.0009129773741116676
786.0,0.000869458712629001
785.0,0.000869458712629001
784.0,0.0009129773741116676
783.0,0.0011306361176557367
782.0,0.0014355417390583547
781.0,0.0016970599014589638
780.0,0.0019587356365717845
779.0,0.0021769192542746563
778.0,0.002395212539545666
777.0,0.002569926202528716
776.0,0.002613615602686581
775.0,0.002482560585275184
774.0,0.0022205691343961664
773.0,0.0019587356365717845
772.0,0.0017842676290416026
771.0,0.0018278780605593958
770.0,0.002089632653256679
769.0,0.0023078820582733695
768.0,0.0024388843664115978
767.0,0.0024388843664115978
766.0,0.0023078820582733695
765.0,0.0021332737608552588
764.0,0.0020023635919956817
763.0,0.0020023635919956817
762.0,0.0021332737608552588
761.0,0.002351545103793873
760.0,0.002569926202528716
759.0,0.002569926202528716
758.0,0.0025262411970197185
757.0,0.002569926202528716
756.0,0.0027884171674950053
755.0,0.0030070181092942683
754.0,0.0029632891174733444
753.0,0.002701007590486082
752.0,0.0024388843664115978
751.0,0.002351545103793873
750.0,0.002482560585275184
749.0,0.0026573093983774942
748.0,0.002701007590486082
747.0,0.002701007590486082
746.0,0.0027447101798967477
745.0,0.0028321285541661467
744.0,0.0028758443407954637
743.0,0.0028321285541661467
742.0,0.002701007590486082
741.0,0.0026573093983774942
740.0,0.0027884171674950053
739.0,0.0030070181092942683
738.0,0.003050751504618754
737.0,0.0028321285541661467
736.0,0.0025262411970197185
735.0,0.002395212539545666
734.0,0.002569926202528716
733.0,0.0029195645282691363
732.0,0.0033132443998284966
731.0,0.0035758960449088217
730.0,0.003794893821675638
729.0,0.00401400208620073
728.0,0.004145520125434121
727.0,0.004320939488377862
726.0,0.0044964297349936455
725.0,0.004715892310740433
724.0,0.004803708402820517
723.0,0.004803708402820517
722.0,0.004715892310740433
721.0,0.004628093971837721
720.0,0.0043648054024501
719.0,0.0040578370074493275
718.0,0.003926345514724705
717.0,0.00401400208620073
716.0,0.00401400208620073
715.0,0.0038387066319929275
714.0,0.0035321097382827737
713.0,0.003488327845821315
712.0,0.003619686766589858
711.0,0.0038387066319929275
710.0,0.004101676353562844
709.0,0.00458420145758498
708.0,0.005243055412371911
707.0,0.005638848091999105
706.0,0.00541891874010525
705.0,0.00489154225525934
704.0,0.004628093971837721
703.0,0.004935465843858511
702.0,0.005682847330363394
701.0,0.00612308505878878
700.0,0.005814871797682919
699.0,0.004803708402820517
698.0,0.0037510854308679953
697.0,0.0033570086445275926
696.0,0.0037510854308679953
695.0,0.004233220950025984
694.0,0.0043648054024501
693.0,0.0043648054024501
692.0,0.004715892310740433
691.0,0.005506877116487674
690.0,0.006431517210272464
689.0,0.007269796045857202
688.0,0.007888512213050314
687.0,0.008198201155356077
686.0,0.007976972236149349
685.0,0.007358130121602358
684.0,0.006651960076740071
683.0,0.006035001804881146
682.0,0.005594853310833647
681.0,0.00537494623139545
680.0,0.005682847330363394
679.0,0.006343371384537999
678.0,0.00696076819309055
677.0,0.007049039429553483
676.0,0.006431517210272464
675.0,0.00537494623139545
674.0,0.00458420145758498
673.0,0.004715892310740433
672.0,0.00577085918230158
671.0,0.007181479933320523
670.0,0.008065450281052211
669.0,0.006784279525863024
668.0,0.0033132443998284966
667.0,0.0015226969634936083
666.0,0.002089632653256679
665.0,0.0031819781204844855
664.0,0.004671990922590297
663.0,0.006299305179649828
662.0,0.007402303897961815
661.0,0.00762324020119709
660.0,0.007402303897961815
659.0,0.007358130121602358
658.0,0.00762324020119709
657.0,0.007976972236149349
656.0,0.008109696063975047
655.0,0.007667440952535687
654.0,0.006651960076740071
653.0,0.005638848091999105
652.0,0.00541891874010525
651.0,0.006299305179649828
650.0,0.00762324020119709
649.0,0.00850811108984062
648.0,0.0087296108049002
647.0,0.008596697419959609
646.0,0.00850811108984062
645.0,0.008596697419959609
644.0,0.008862564879688284
643.0,0.009217308196862062
642.0,0.009306039320248427
641.0,0.009039900317800775
640.0,0.008685301823389224
639.0,0.008773924307505121
638.0,0.009616741093766423
637.0,0.01077272626946324
636.0,0.011842527443247208
635.0,0.01260190086298274
634.0,0.013004460275618523
633.0,0.012736045877764557
632.0,0.011619434777991433
631.0,0.009838807101520963
630.0,0.008198201155356077
629.0,0.007225635744644521
628.0,0.00696076819309055
627.0,0.007269796045857202
626.0,0.007976972236149349
625.0,0.009039900317800775
624.0,0.010327752376126709
623.0,0.011574829993696856
622.0,0.012467797270160563
621.0,0.012736045877764557
620.0,0.012199714248127602
619.0,0.011218156546359825
618.0,0.010505687227290839
617.0,0.010550182333308289
616.0,0.010950843561779777
615.0,0.011039929609661936
614.0,0.010283280051895272
613.0,0.008906891951112605
612.0,0.00762324020119709
611.0,0.007181479933320523
610.0,0.007932739972333236
609.0,0.009616741093766423
608.0,0.011530229790124524
607.0,0.012780770091995297
606.0,0.012780770091995297
605.0,0.011530229790124524
604.0,0.009838807101520963
603.0,0.008773924307505121
602.0,0.00908424549391551
601.0,0.010149890396819572
600.0,0.010817248744452446
