cm-1,A
4000.0,0.029234840219232394
3999.0,0.029281296279810798
3998.0,0.02932775731028059
3997.0,0.02932775731028059
3996.0,0.029234840219232394
3995.0,0.029234840219232394
3994.0,0.02932775731028059
3993.0,0.029467170231675777
3992.0,0.029653123769906697
3991.0,0.029746130405213123
3990.0,0.029792641193145286
3989.0,0.029792641193145286
3988.0,0.029746130405213123
3987.0,0.029746130405213123
3986.0,0.029746130405213123
3985.0,0.02969962459782227
3984.0,0.02969962459782227
3983.0,0.029653123769906697
3982.0,0.02960662792039992
3981.0,0.02960662792039992
3980.0,0.029653123769906697
3979.0,0.02969962459782227
3978.0,0.029746130405213123
3977.0,0.029746130405213123
3976.0,0.02969962459782227
3975.0,0.029653123769906697
3974.0,0.029653123769906697
3973.0,0.029653123769906697
3972.0,0.02969962459782227
3971.0,0.029792641193145286
3970.0,0.029885677714903025
3969.0,0.029978734171634214
3968.0,0.03002526987828502
3967.0,0.030071810571884017
3966.0,0.030118356253500123
3965.0,0.030118356253500123
3964.0,0.030118356253500123
3963.0,0.03002526987828502
3962.0,0.029978734171634214
3961.0,0.029932203450862893
3960.0,0.029978734171634214
3959.0,0.03002526987828502
3958.0,0.030071810571884017
3957.0,0.030118356253500123
3956.0,0.030164906924202484
3955.0,0.030211462585061133
3954.0,0.03025802323714588
3953.0,0.030164906924202484
3952.0,0.03002526987828502
3951.0,0.029792641193145286
3950.0,0.029560137048236124
3949.0,0.02942069428514915
3948.0,0.02942069428514915
3947.0,0.02960662792039992
3946.0,0.029839156962686353
3945.0,0.030118356253500123
3944.0,0.03030458888152676
3943.0,0.03030458888152676
3942.0,0.03025802323714588
3941.0,0.030118356253500123
3940.0,0.029932203450862893
3939.0,0.029839156962686353
3938.0,0.02969962459782227
3937.0,0.029653123769906697
3936.0,0.02969962459782227
3935.0,0.029792641193145286
3934.0,0.029839156962686353
3933.0,0.029839156962686353
3932.0,0.029792641193145286
3931.0,0.029885677714903025
3930.0,0.03002526987828502
3929.0,0.030164906924202484
3928.0,0.030211462585061133
3927.0,0.03030458888152676
3926.0,0.030351159519274695
3925.0,0.030397735151460825
3924.0,0.030351159519274695
3923.0,0.030351159519274695
3922.0,0.03030458888152676
3921.0,0.03025802323714588
3920.0,0.030118356253500123
3919.0,0.03002526987828502
3918.0,0.03002526987828502
3917.0,0.030118356253500123
3916.0,0.03025802323714588
3915.0,0.030397735151460825
3914.0,0.030537492025363155
3913.0,0.03063068826647264
3912.0,0.030537492025363155
3911.0,0.030397735151460825
3910.0,0.03030458888152676
3909.0,0.03025802323714588
3908.0,0.03025802323714588
3907.0,0.030397735151460825
3906.0,0.030537492025363155
3905.0,0.03067729388779794
3904.0,0.030770520137356927
3903.0,0.030770520137356927
3902.0,0.03067729388779794
3901.0,0.030537492025363155
3900.0,0.030397735151460825
3899.0,0.030351159519274695
3898.0,0.030444315779156517
3897.0,0.03063068826647264
3896.0,0.030770520137356927
3895.0,0.03081714076773867
3894.0,0.0307239045110681
3893.0,0.030490901403433135
3892.0,0.030211462585061133
3891.0,0.029932203450862893
3890.0,0.029746130405213123
3889.0,0.029792641193145286
3888.0,0.030071810571884017
3887.0,0.03030458888152676
3886.0,0.03025802323714588
3885.0,0.03030458888152676
3884.0,0.03058408764601861
3883.0,0.03105031901865729
3882.0,0.03133029827960798
3881.0,0.031190286087141805
3880.0,0.03081714076773867
3879.0,0.03063068826647264
3878.0,0.030770520137356927
3877.0,0.031096969696171817
3876.0,0.03137697904301118
3875.0,0.03137697904301118
3874.0,0.031096969696171817
3873.0,0.031003673351687855
3872.0,0.031143625385307683
3871.0,0.03137697904301118
3870.0,0.03128362253321426
3869.0,0.03105031901865729
3868.0,0.031003673351687855
3867.0,0.03128362253321426
3866.0,0.03151705144606498
3865.0,0.031563752288295444
3864.0,0.03170388495374454
3863.0,0.032031037121307726
3862.0,0.03217132066984485
3861.0,0.03193753992355086
3860.0,0.03151705144606498
3859.0,0.031143625385307683
3858.0,0.030863766403287585
3857.0,0.030863766403287585
3856.0,0.03105031901865729
3855.0,0.031190286087141805
3854.0,0.030957032694186815
3853.0,0.030910397045078586
3852.0,0.03128362253321426
3851.0,0.03161045815293173
3850.0,0.03179733185715028
3849.0,0.03179733185715028
3848.0,0.03170388495374454
3847.0,0.031657169041054534
3846.0,0.03170388495374454
3845.0,0.03170388495374454
3844.0,0.031657169041054534
3843.0,0.031657169041054534
3842.0,0.03184406285002961
3841.0,0.03217132066984485
3840.0,0.03249882527715853
3839.0,0.03249882527715853
3838.0,0.032311649546687526
3837.0,0.032031037121307726
3836.0,0.03189079887180224
3835.0,0.03189079887180224
3834.0,0.031984286006358165
3833.0,0.03207779326948268
3832.0,0.032031037121307726
3831.0,0.03193753992355086
3830.0,0.031984286006358165
3829.0,0.032124554451966825
3828.0,0.032311649546687526
3827.0,0.032218091924200776
3826.0,0.03193753992355086
3825.0,0.03175060589208267
3824.0,0.03189079887180224
3823.0,0.03217132066984485
3822.0,0.03207779326948268
3821.0,0.031657169041054534
3820.0,0.031563752288295444
3819.0,0.03179733185715028
3818.0,0.032218091924200776
3817.0,0.03240522732811035
3816.0,0.03207779326948268
3815.0,0.03170388495374454
3814.0,0.03161045815293173
3813.0,0.03170388495374454
3812.0,0.03161045815293173
3811.0,0.03142366482450232
3810.0,0.03137697904301118
3809.0,0.03151705144606498
3808.0,0.031657169041054534
3807.0,0.031657169041054534
3806.0,0.03170388495374454
3805.0,0.031984286006358165
3804.0,0.03245202378113787
3803.0,0.03263926003405038
3802.0,0.032218091924200776
3801.0,0.031563752288295444
3800.0,0.03151705144606498
3799.0,0.03189079887180224
3798.0,0.03226486821611996
3797.0,0.03235843591698884
3796.0,0.03217132066984485
3795.0,0.03193753992355086
3794.0,0.03179733185715028
3793.0,0.03170388495374454
3792.0,0.03161045815293173
3791.0,0.031563752288295444
3790.0,0.03161045815293173
3789.0,0.03170388495374454
3788.0,0.03179733185715028
3787.0,0.03189079887180224
3786.0,0.03207779326948268
3785.0,0.03226486821611996
3784.0,0.03240522732811035
3783.0,0.03245202378113787
3782.0,0.03240522732811035
3781.0,0.03226486821611996
3780.0,0.031984286006358165
3779.0,0.03170388495374454
3778.0,0.031657169041054534
3777.0,0.03170388495374454
3776.0,0.03179733185715028
3775.0,0.03184406285002961
3774.0,0.03184406285002961
3773.0,0.032031037121307726
3772.0,0.03235843591698884
3771.0,0.032592443402527316
3770.0,0.032592443402527316
3769.0,0.032545631817259224
3768.0,0.03263926003405038
3767.0,0.03273290844021437
3766.0,0.03263926003405038
3765.0,0.03240522732811035
3764.0,0.03217132066984485
3763.0,0.03217132066984485
3762.0,0.03235843591698884
3761.0,0.03245202378113787
3760.0,0.032545631817259224
3759.0,0.03263926003405038
3758.0,0.03273290844021437
3757.0,0.03263926003405038
3756.0,0.03245202378113787
3755.0,0.032311649546687526
3754.0,0.032311649546687526
3753.0,0.03226486821611996
3752.0,0.03207779326948268
3751.0,0.032031037121307726
3750.0,0.03207779326948268
3749.0,0.03193753992355086
3748.0,0.031657169041054534
3747.0,0.03179733185715028
3746.0,0.032124554451966825
3745.0,0.032031037121307726
3744.0,0.031657169041054534
3743.0,0.031563752288295444
3742.0,0.031984286006358165
3741.0,0.03240522732811035
3740.0,0.03263926003405038
3739.0,0.03273290844021437
3738.0,0.03301397488206215
3737.0,0.03334211579824231
3736.0,0.03357665405630694
3735.0,0.03376437590141812
3734.0,0.03399914237121604
3733.0,0.03399914237121604
3732.0,0.03367050483612166
3731.0,0.033154576345083564
3730.0,0.03282657704446046
3729.0,0.032686081712916426
3728.0,0.03263926003405038
3727.0,0.03249882527715853
3726.0,0.03235843591698884
3725.0,0.03249882527715853
3724.0,0.032686081712916426
3723.0,0.03273290844021437
3722.0,0.032592443402527316
3721.0,0.03249882527715853
3720.0,0.03249882527715853
3719.0,0.032592443402527316
3718.0,0.03263926003405038
3717.0,0.03263926003405038
3716.0,0.03263926003405038
3715.0,0.03277974021703267
3714.0,0.032920265855503006
3713.0,0.032873418923587305
3712.0,0.032686081712916426
3711.0,0.032686081712916426
3710.0,0.0329671178412978
3709.0,0.03310770413286357
3708.0,0.03310770413286357
3707.0,0.03301397488206215
3706.0,0.0329671178412978
3705.0,0.03301397488206215
3704.0,0.033060836978886954
3703.0,0.03301397488206215
3702.0,0.03282657704446046
3701.0,0.03273290844021437
3700.0,0.03277974021703267
3699.0,0.0329671178412978
3698.0,0.033154576345083564
3697.0,0.0332483359486222
3696.0,0.033201453616638954
3695.0,0.0332483359486222
3694.0,0.033295223342125535
3693.0,0.03334211579824231
3692.0,0.033201453616638954
3691.0,0.0329671178412978
3690.0,0.03273290844021437
3689.0,0.03249882527715853
3688.0,0.03226486821611996
3687.0,0.032124554451966825
3686.0,0.032124554451966825
3685.0,0.032311649546687526
3684.0,0.03245202378113787
3683.0,0.032592443402527316
3682.0,0.03273290844021437
3681.0,0.03282657704446046
3680.0,0.03277974021703267
3679.0,0.03273290844021437
3678.0,0.032920265855503006
3677.0,0.033201453616638954
3676.0,0.033154576345083564
3675.0,0.033060836978886954
3674.0,0.03310770413286357
3673.0,0.033295223342125535
3672.0,0.03357665405630694
3671.0,0.03367050483612166
3670.0,0.033482823553208085
3669.0,0.03357665405630694
3668.0,0.03371743783253667
3667.0,0.03367050483612166
3666.0,0.03343591590268957
3665.0,0.033154576345083564
3664.0,0.032920265855503006
3663.0,0.032873418923587305
3662.0,0.032873418923587305
3661.0,0.032920265855503006
3660.0,0.0329671178412978
3659.0,0.03310770413286357
3658.0,0.0332483359486222
3657.0,0.0332483359486222
3656.0,0.0332483359486222
3655.0,0.03334211579824231
3654.0,0.03362357691107709
3653.0,0.03409308450480819
3652.0,0.034469056377139484
3651.0,0.03461012978487776
3650.0,0.03470420418834386
3649.0,0.03517488211661135
3648.0,0.035646070707806565
3647.0,0.035646070707806565
3646.0,0.03531618502395939
3645.0,0.03503362516890207
3644.0,0.03484535401307465
3643.0,0.03465716443937783
3642.0,0.034516075754861264
3641.0,0.034469056377139484
3640.0,0.034516075754861264
3639.0,0.03456310022373987
3638.0,0.03465716443937783
3637.0,0.03479829897408804
3636.0,0.03498654972775217
3635.0,0.03503362516890207
3634.0,0.03489241415094413
3633.0,0.03461012978487776
3632.0,0.034516075754861264
3631.0,0.03465716443937783
3630.0,0.03465716443937783
3629.0,0.03465716443937783
3628.0,0.03503362516890207
3627.0,0.03550466044490741
3626.0,0.035740369803151095
3625.0,0.03578752703018084
3624.0,0.03578752703018084
3623.0,0.035740369803151095
3622.0,0.03583468937826462
3621.0,0.03592902944204468
3620.0,0.03597620715996652
3619.0,0.03597620715996652
3618.0,0.03597620715996652
3617.0,0.03592902944204468
3616.0,0.03588185684851508
3615.0,0.03592902944204468
3614.0,0.0360705779734416
3613.0,0.03630659476198117
3612.0,0.03644826642590382
3611.0,0.03649550058570927
3610.0,0.03649550058570927
3609.0,0.03644826642590382
3608.0,0.03649550058570927
3607.0,0.03668448861388862
3606.0,0.036779013477011624
3605.0,0.036779013477011624
3604.0,0.036731748473764814
3603.0,0.03668448861388862
3602.0,0.036779013477011624
3601.0,0.03701541568300293
3600.0,0.037299268295658994
3599.0,0.03753595394209874
3598.0,0.03763066432997886
3597.0,0.03763066432997886
3596.0,0.03753595394209874
3595.0,0.037583306554248797
3594.0,0.03767802727041558
3593.0,0.03772539537668518
3592.0,0.03763066432997886
3591.0,0.037488606492403154
3590.0,0.03739392707587297
3589.0,0.037251946641359446
3588.0,0.037251946641359446
3587.0,0.03744126420403626
3586.0,0.03772539537668518
3585.0,0.03782014709123227
3584.0,0.03777276864991497
3583.0,0.03767802727041558
3582.0,0.03767802727041558
3581.0,0.03782014709123227
3580.0,0.03791491948264003
3579.0,0.03800971255993524
3578.0,0.03796231343498735
3577.0,0.03786753070176463
3576.0,0.03782014709123227
3575.0,0.03777276864991497
3574.0,0.03777276864991497
3573.0,0.03777276864991497
3572.0,0.03782014709123227
3571.0,0.03796231343498735
3570.0,0.038199360808321536
3569.0,0.03848398855105106
3568.0,0.038721320914956836
3567.0,0.03910132267333921
3566.0,0.03962436858984186
3565.0,0.039909932095080425
3564.0,0.03986232513620536
3563.0,0.03957679292217042
3562.0,0.03919637508823026
3561.0,0.03886378261277468
3560.0,0.038673844065289176
3559.0,0.038673844065289176
3558.0,0.038816290187564384
3557.0,0.039006291057664066
3556.0,0.03905380426616856
3555.0,0.038958783046687984
3554.0,0.03886378261277468
3553.0,0.03886378261277468
3552.0,0.03905380426616856
3551.0,0.03938654235209116
3550.0,0.039719535563357944
3549.0,0.03981472339538916
3548.0,0.03967194946985697
3547.0,0.03952922246570112
3546.0,0.03952922246570112
3545.0,0.039767126871487646
3544.0,0.04010041213405646
3543.0,0.04043395336207234
3542.0,0.040672354027829094
3541.0,0.040672354027829094
3540.0,0.04062466342415694
3539.0,0.040481623027001756
3538.0,0.0402909757535701
3537.0,0.04019568349166214
3536.0,0.04019568349166214
3535.0,0.040338629726504704
3534.0,0.04043395336207234
3533.0,0.04043395336207234
3532.0,0.040338629726504704
3531.0,0.0402909757535701
3530.0,0.040338629726504704
3529.0,0.040529297924893015
3528.0,0.04076775094900409
3527.0,0.041006334969674096
3526.0,0.04105406750606355
3525.0,0.04105406750606355
3524.0,0.04091088563260792
3523.0,0.04081545726880842
3522.0,0.04081545726880842
3521.0,0.04086316882962593
3520.0,0.041006334969674096
3519.0,0.041197296600497646
3518.0,0.041340572947066834
3517.0,0.041436116778032606
3516.0,0.041436116778032606
3515.0,0.04129280891271536
3514.0,0.041101805289228244
3513.0,0.04091088563260792
3512.0,0.040958607678906356
3511.0,0.041149548320321694
3510.0,0.041436116778032606
3509.0,0.04181850243505214
3508.0,0.04210551278710151
3507.0,0.04215336629184985
3506.0,0.042057664554595586
3505.0,0.04181850243505214
3504.0,0.041627267521392675
3503.0,0.041627267521392675
3502.0,0.04186632432376469
3501.0,0.04210551278710151
3500.0,0.04224908912272074
3499.0,0.042201225070002124
3498.0,0.04210551278710151
3497.0,0.04200982159316968
3496.0,0.04210551278710151
3495.0,0.042392712939904875
3494.0,0.04268010314465909
3493.0,0.04287180232318688
3492.0,0.04282386959515394
3491.0,0.042775942156833
3490.0,0.04268010314465909
3489.0,0.042775942156833
3488.0,0.04291974034210022
3487.0,0.0431115453499229
3486.0,0.04320747962950522
3485.0,0.04320747962950522
3484.0,0.04315950984076644
3483.0,0.04320747962950522
3482.0,0.04339941178682327
3481.0,0.04363944632667782
3480.0,0.0437835307566099
3479.0,0.0437835307566099
3478.0,0.043735497301724546
3477.0,0.043735497301724546
3476.0,0.0437835307566099
3475.0,0.04387961360698034
3474.0,0.04397571771932274
3473.0,0.04397571771932274
3472.0,0.0439276630048171
3471.0,0.04387961360698034
3470.0,0.04383156952463674
3469.0,0.0437835307566099
3468.0,0.043735497301724546
3467.0,0.04368746915880539
3466.0,0.04368746915880539
3465.0,0.043735497301724546
3464.0,0.0437835307566099
3463.0,0.04383156952463674
3462.0,0.04397571771932274
3461.0,0.04411991377462465
3460.0,0.04426415772233416
3459.0,0.044360346976747955
3458.0,0.04440844959427559
3457.0,0.04440844959427559
3456.0,0.04440844959427559
3455.0,0.04450467081587295
3454.0,0.04455278942230456
3453.0,0.04455278942230456
3452.0,0.044456557540257124
3451.0,0.04426415772233416
3450.0,0.044167989767578186
3449.0,0.04421607108308856
3448.0,0.044360346976747955
3447.0,0.04455278942230456
3446.0,0.04464904263234004
3445.0,0.04469717723830824
3444.0,0.04464904263234004
3443.0,0.04460091336073302
3442.0,0.04455278942230456
3441.0,0.04455278942230456
3440.0,0.04464904263234004
3439.0,0.044793462458058375
3438.0,0.044937930324967956
3437.0,0.04513062893352182
3436.0,0.045323413081356456
3435.0,0.0454680573730859
3434.0,0.045516282844447975
3433.0,0.045564513671517703
3432.0,0.045516282844447975
3431.0,0.0454680573730859
3430.0,0.0454680573730859
3429.0,0.045516282844447975
3428.0,0.045564513671517703
3427.0,0.045660991397539874
3426.0,0.04580574818413763
3425.0,0.045902279520810385
3424.0,0.04595055323640551
3423.0,0.046047116768076934
3422.0,0.04609540658654021
3421.0,0.046192002334692894
3420.0,0.04624030826677128
3419.0,0.046192002334692894
3418.0,0.046143701775014145
3417.0,0.04609540658654021
3416.0,0.04609540658654021
3415.0,0.046143701775014145
3414.0,0.04628861957244457
3413.0,0.04638525830935958
3412.0,0.046481918555007384
3411.0,0.04643358574299339
3410.0,0.04628861957244457
3409.0,0.046143701775014145
3408.0,0.046143701775014145
3407.0,0.046192002334692894
3406.0,0.04638525830935958
3405.0,0.04653025674659861
3404.0,0.04662694927330402
3403.0,0.04657860031896477
3402.0,0.046481918555007384
3401.0,0.04633693625290869
3400.0,0.04633693625290869
3399.0,0.04643358574299339
3398.0,0.04657860031896477
3397.0,0.04672366333269573
3396.0,0.04682039893436585
3395.0,0.04682039893436585
3394.0,0.04677202844014605
3393.0,0.04672366333269573
3392.0,0.04672366333269573
3391.0,0.04677202844014605
3390.0,0.04682039893436585
3389.0,0.04677202844014605
3388.0,0.04667530361081473
3387.0,0.04662694927330402
3386.0,0.04662694927330402
3385.0,0.04667530361081473
3384.0,0.04672366333269573
3383.0,0.04677202844014605
3382.0,0.04686877481655505
3381.0,0.04701393480294458
3380.0,0.04715914332429838
3379.0,0.04725597598510167
3378.0,0.04730440041308315
3377.0,0.04730440041308315
3376.0,0.04725597598510167
3375.0,0.04725597598510167
3374.0,0.04730440041308315
3373.0,0.04740126547022694
3372.0,0.04744970610179822
3371.0,0.04740126547022694
3370.0,0.04730440041308315
3369.0,0.04711073508906982
3368.0,0.0469171560879138
3367.0,0.04677202844014605
3366.0,0.04682039893436585
3365.0,0.04701393480294458
3364.0,0.04730440041308315
3363.0,0.04749815213697639
3362.0,0.04754660357696672
3361.0,0.04754660357696672
3360.0,0.047595060422975566
3359.0,0.047595060422975566
3358.0,0.047595060422975566
3357.0,0.047595060422975566
3356.0,0.047595060422975566
3355.0,0.04754660357696672
3354.0,0.04744970610179822
3353.0,0.04730440041308315
3352.0,0.04720755695590784
3351.0,0.04711073508906982
3350.0,0.04711073508906982
3349.0,0.04715914332429838
3348.0,0.04725597598510167
3347.0,0.047352830241056854
3346.0,0.047352830241056854
3345.0,0.04725597598510167
3344.0,0.04711073508906982
3343.0,0.04686877481655505
3342.0,0.04667530361081473
3341.0,0.04662694927330402
3340.0,0.04662694927330402
3339.0,0.04672366333269573
3338.0,0.04686877481655505
3337.0,0.047062332249019345
3336.0,0.04725597598510167
3335.0,0.04740126547022694
3334.0,0.04744970610179822
3333.0,0.04740126547022694
3332.0,0.04730440041308315
3331.0,0.04725597598510167
3330.0,0.04730440041308315
3329.0,0.04740126547022694
3328.0,0.04744970610179822
3327.0,0.047352830241056854
3326.0,0.04725597598510167
3325.0,0.04711073508906982
3324.0,0.04701393480294458
3323.0,0.04701393480294458
3322.0,0.04701393480294458
3321.0,0.04711073508906982
3320.0,0.04725597598510167
3319.0,0.047352830241056854
3318.0,0.04730440041308315
3317.0,0.04720755695590784
3316.0,0.047062332249019345
3315.0,0.04701393480294458
3314.0,0.047062332249019345
3313.0,0.04720755695590784
3312.0,0.04740126547022694
3311.0,0.04754660357696672
3310.0,0.04749815213697639
3309.0,0.04740126547022694
3308.0,0.04720755695590784
3307.0,0.047062332249019345
3306.0,0.047062332249019345
3305.0,0.04720755695590784
3304.0,0.04744970610179822
3303.0,0.047643522676209304
3302.0,0.047691990337874746
3301.0,0.047595060422975566
3300.0,0.04740126547022694
3299.0,0.04720755695590784
3298.0,0.04711073508906982
3297.0,0.047062332249019345
3296.0,0.04715914332429838
3295.0,0.047352830241056854
3294.0,0.04749815213697639
3293.0,0.04754660357696672
3292.0,0.04749815213697639
3291.0,0.047352830241056854
3290.0,0.04715914332429838
3289.0,0.04696554274964315
3288.0,0.04677202844014605
3287.0,0.04667530361081473
3286.0,0.04657860031896477
3285.0,0.04653025674659861
3284.0,0.046481918555007384
3283.0,0.046481918555007384
3282.0,0.04653025674659861
3281.0,0.04667530361081473
3280.0,0.04682039893436585
3279.0,0.04696554274964315
3278.0,0.047062332249019345
3277.0,0.04711073508906982
3276.0,0.04711073508906982
3275.0,0.04696554274964315
3274.0,0.04686877481655505
3273.0,0.04686877481655505
3272.0,0.04696554274964315
3271.0,0.04701393480294458
3270.0,0.04696554274964315
3269.0,0.04677202844014605
3268.0,0.04657860031896477
3267.0,0.04638525830935958
3266.0,0.04624030826677128
3265.0,0.046143701775014145
3264.0,0.046047116768076934
3263.0,0.04595055323640551
3262.0,0.045902279520810385
3261.0,0.04585401117045196
3260.0,0.045902279520810385
3259.0,0.04599883231842972
3258.0,0.046143701775014145
3257.0,0.04624030826677128
3256.0,0.04638525830935958
3255.0,0.04653025674659861
3254.0,0.04662694927330402
3253.0,0.04662694927330402
3252.0,0.04657860031896477
3251.0,0.046481918555007384
3250.0,0.04643358574299339
3249.0,0.04643358574299339
3248.0,0.04643358574299339
3247.0,0.046481918555007384
3246.0,0.046481918555007384
3245.0,0.046481918555007384
3244.0,0.04653025674659861
3243.0,0.04657860031896477
3242.0,0.04657860031896477
3241.0,0.046481918555007384
3240.0,0.04643358574299339
3239.0,0.04643358574299339
3238.0,0.04643358574299339
3237.0,0.04633693625290869
3236.0,0.046192002334692894
3235.0,0.04609540658654021
3234.0,0.04609540658654021
3233.0,0.046143701775014145
3232.0,0.046192002334692894
3231.0,0.046192002334692894
3230.0,0.04609540658654021
3229.0,0.046047116768076934
3228.0,0.04599883231842972
3227.0,0.046047116768076934
3226.0,0.04624030826677128
3225.0,0.04638525830935958
3224.0,0.04643358574299339
3223.0,0.04633693625290869
3222.0,0.04609540658654021
3221.0,0.04585401117045196
3220.0,0.045660991397539874
3219.0,0.0454680573730859
3218.0,0.045323413081356456
3217.0,0.045323413081356456
3216.0,0.04541983725624266
3215.0,0.045516282844447975
3214.0,0.045612749855485024
3213.0,0.045660991397539874
3212.0,0.045660991397539874
3211.0,0.045516282844447975
3210.0,0.045323413081356456
3209.0,0.04513062893352182
3208.0,0.04503426894157925
3207.0,0.04508244626504121
3206.0,0.04513062893352182
3205.0,0.04508244626504121
3204.0,0.04503426894157925
3203.0,0.044937930324967956
3202.0,0.04488976902944808
3201.0,0.04488976902944808
3200.0,0.04488976902944808
3199.0,0.04488976902944808
3198.0,0.04488976902944808
3197.0,0.04484161307420642
3196.0,0.04474531717982
3195.0,0.04464904263234004
3194.0,0.04469717723830824
3193.0,0.044793462458058375
3192.0,0.04488976902944808
3191.0,0.04484161307420642
3190.0,0.04464904263234004
3189.0,0.044456557540257124
3188.0,0.04440844959427559
3187.0,0.04440844959427559
3186.0,0.044456557540257124
3185.0,0.04450467081587295
3184.0,0.044456557540257124
3183.0,0.044360346976747955
3182.0,0.044312249686494276
3181.0,0.044312249686494276
3180.0,0.04426415772233416
3179.0,0.044167989767578186
3178.0,0.04397571771932274
3177.0,0.043735497301724546
3176.0,0.04363944632667782
3175.0,0.04363944632667782
3174.0,0.043735497301724546
3173.0,0.0439276630048171
3172.0,0.04402377775167454
3171.0,0.044071843103049346
3170.0,0.0439276630048171
3169.0,0.04368746915880539
3168.0,0.04344740808260106
3167.0,0.043303435105349175
3166.0,0.043303435105349175
3165.0,0.04339941178682327
3164.0,0.043495409683302455
3163.0,0.043495409683302455
3162.0,0.043303435105349175
3161.0,0.0431115453499229
3160.0,0.042967683653061695
3159.0,0.04287180232318688
3158.0,0.04282386959515394
3157.0,0.042775942156833
3156.0,0.042775942156833
3155.0,0.04272802000705722
3154.0,0.04263219156847242
3153.0,0.04253638427006878
3152.0,0.04244059810252043
3151.0,0.04229695845116854
3150.0,0.042201225070002124
3149.0,0.04215336629184985
3148.0,0.042201225070002124
3147.0,0.04224908912272074
3146.0,0.042344833056508824
3145.0,0.042344833056508824
3144.0,0.04224908912272074
3143.0,0.04210551278710151
3142.0,0.04196198390166317
3141.0,0.04181850243505214
3140.0,0.04172287445230238
3139.0,0.04167506835594681
3138.0,0.041579471947481794
3137.0,0.041483896576958834
3136.0,0.04138834223512067
3135.0,0.04124505013091051
3134.0,0.041149548320321694
3133.0,0.041101805289228244
3132.0,0.04105406750606355
3131.0,0.041006334969674096
3130.0,0.04091088563260792
3129.0,0.04076775094900409
3128.0,0.04072004986906119
3127.0,0.04076775094900409
3126.0,0.04086316882962593
3125.0,0.04091088563260792
3124.0,0.04091088563260792
3123.0,0.04081545726880842
3122.0,0.04072004986906119
3121.0,0.040672354027829094
3120.0,0.04062466342415694
3119.0,0.040672354027829094
3118.0,0.040672354027829094
3117.0,0.04057697805689475
3116.0,0.040481623027001756
3115.0,0.040338629726504704
3114.0,0.0402909757535701
3113.0,0.0402909757535701
3112.0,0.04019568349166214
3111.0,0.04010041213405646
3110.0,0.03995754427315856
3109.0,0.039909932095080425
3108.0,0.03995754427315856
3107.0,0.039909932095080425
3106.0,0.03981472339538916
3105.0,0.03957679292217042
3104.0,0.03938654235209116
3103.0,0.03919637508823026
3102.0,0.03910132267333921
3101.0,0.03905380426616856
3100.0,0.039006291057664066
3099.0,0.039006291057664066
3098.0,0.03905380426616856
3097.0,0.03914884628031379
3096.0,0.03919637508823026
3095.0,0.03919637508823026
3094.0,0.03910132267333921
3093.0,0.038958783046687984
3092.0,0.03876880295533702
3091.0,0.03862637240519895
3090.0,0.038531444649213764
3089.0,0.03848398855105106
3088.0,0.03848398855105106
3087.0,0.03848398855105106
3086.0,0.03838909190871931
3085.0,0.03824678581321739
3084.0,0.038057116858612794
3083.0,0.03796231343498735
3082.0,0.03791491948264003
3081.0,0.03791491948264003
3080.0,0.03796231343498735
3079.0,0.03791491948264003
3078.0,0.03786753070176463
3077.0,0.03782014709123227
3076.0,0.03772539537668518
3075.0,0.03763066432997886
3074.0,0.03753595394209874
3073.0,0.037488606492403154
3072.0,0.037488606492403154
3071.0,0.037583306554248797
3070.0,0.03763066432997886
3069.0,0.03753595394209874
3068.0,0.037346595106788616
3067.0,0.0371100126082089
3066.0,0.0369681249461018
3065.0,0.036873558918095295
3064.0,0.03682628362474838
3063.0,0.036779013477011624
3062.0,0.036779013477011624
3061.0,0.036731748473764814
3060.0,0.03663723389626394
3059.0,0.03658998431977123
3058.0,0.03644826642590382
3057.0,0.03630659476198117
3056.0,0.036117771071222604
3055.0,0.03588185684851508
3054.0,0.035740369803151095
3053.0,0.03559892883726867
3052.0,0.03545753392086315
3051.0,0.035363296211498474
3050.0,0.03517488211661135
3049.0,0.03498654972775217
3048.0,0.03484535401307465
3047.0,0.03484535401307465
3046.0,0.0349394793888016
3045.0,0.03508070571335731
3044.0,0.03517488211661135
3043.0,0.03512779136222477
3042.0,0.0349394793888016
3041.0,0.03479829897408804
3040.0,0.03465716443937783
3039.0,0.034516075754861264
3038.0,0.03432802877989327
3037.0,0.034046110897937076
3036.0,0.03371743783253667
3035.0,0.03343591590268957
3034.0,0.0332483359486222
3033.0,0.033201453616638954
3032.0,0.0332483359486222
3031.0,0.033295223342125535
3030.0,0.033295223342125535
3029.0,0.0332483359486222
3028.0,0.033154576345083564
3027.0,0.033060836978886954
3026.0,0.032873418923587305
3025.0,0.032686081712916426
3024.0,0.03240522732811035
3023.0,0.03217132066984485
3022.0,0.03193753992355086
3021.0,0.03175060589208267
3020.0,0.03161045815293173
3019.0,0.03151705144606498
3018.0,0.03137697904301118
3017.0,0.031096969696171817
3016.0,0.030770520137356927
3015.0,0.030490901403433135
3014.0,0.030211462585061133
3013.0,0.03002526987828502
3012.0,0.029885677714903025
3011.0,0.029653123769906697
3010.0,0.02942069428514915
3009.0,0.029188389127482228
3008.0,0.02890978686288448
3007.0,0.02863136320857662
3006.0,0.02839947976994095
3005.0,0.028214062120885508
3004.0,0.028075050815808744
3003.0,0.027936083991977778
3002.0,0.027750864037404455
3001.0,0.02751945012352408
3000.0,0.02724191609646076
2999.0,0.02691835039863255
2998.0,0.026595025589939425
2997.0,0.026271941311972746
2996.0,0.026041313893296225
2995.0,0.025810808881832736
2994.0,0.02558042614771394
2993.0,0.025350165561278004
2992.0,0.025028005701930978
2991.0,0.024706084643793647
2990.0,0.02438440203310499
2989.0,0.024154774532432866
2988.0,0.02406295751688936
2987.0,0.024017056287453542
2986.0,0.023971159908874107
2985.0,0.023925268380126097
2984.0,0.023879381700184332
2983.0,0.023787622882622816
2982.0,0.023741750742954926
2981.0,0.023741750742954926
2980.0,0.023695883447997224
2979.0,0.023695883447997224
2978.0,0.023695883447997224
2977.0,0.02365002099672653
2976.0,0.023695883447997224
2975.0,0.023879381700184332
2974.0,0.024108863598207186
2973.0,0.024476287039668643
2972.0,0.024890010313838973
2971.0,0.025304128090317013
2970.0,0.025764722556973707
2969.0,0.026225806029419818
2968.0,0.02677975314776626
2967.0,0.02738066094037661
2966.0,0.028028723600243666
2965.0,0.028770552723758724
2964.0,0.02960662792039992
2963.0,0.030490901403433135
2962.0,0.03142366482450232
2961.0,0.032311649546687526
2960.0,0.03310770413286357
2959.0,0.03376437590141812
2958.0,0.03428102975577918
2957.0,0.03461012978487776
2956.0,0.03484535401307465
2955.0,0.0349394793888016
2954.0,0.0349394793888016
2953.0,0.03489241415094413
2952.0,0.03479829897408804
2951.0,0.03475124903287918
2950.0,0.03479829897408804
2949.0,0.0349394793888016
2948.0,0.03526907894637077
2947.0,0.03592902944204468
2946.0,0.037062711569998186
2945.0,0.03857890593355173
2944.0,0.040481623027001756
2943.0,0.042775942156833
2942.0,0.0454680573730859
2941.0,0.0486139051197072
2940.0,0.05217431555754937
2939.0,0.056159373598738904
2938.0,0.06058059667068294
2937.0,0.0653500770992892
2936.0,0.07042782092345012
2935.0,0.07592757008963713
2934.0,0.08191721535781271
2933.0,0.0884695376928375
2932.0,0.09550084460218011
2931.0,0.10314322726279568
2930.0,0.11142740314240007
2929.0,0.12044539906102569
2928.0,0.1302990263261221
2927.0,0.1409818561111058
2926.0,0.15267416921457633
2925.0,0.16551571466519466
2924.0,0.17966715510059017
2923.0,0.19545169161194398
2922.0,0.2130357405642671
2921.0,0.23254728190222673
2920.0,0.25359935550843904
2919.0,0.2756421957735735
2918.0,0.2973110318408665
2917.0,0.3164126824272331
2916.0,0.33068311943388773
2915.0,0.33799812061008283
2914.0,0.3376199799837525
2913.0,0.33031129194379183
2912.0,0.3182162335321186
2911.0,0.3039932847814546
2910.0,0.2893749849392031
2909.0,0.2755602766029255
2908.0,0.26288690569403883
2907.0,0.25157937753243176
2906.0,0.24169381827469305
2905.0,0.23314118897858238
2904.0,0.2258481410452895
2903.0,0.2193946941610303
2902.0,0.21367456560992992
2901.0,0.20866029603486047
2900.0,0.20418947533259169
2899.0,0.20017716900668026
2898.0,0.19661117501638659
2897.0,0.1932097284159331
2896.0,0.18983471545685027
2895.0,0.18641901143180806
2894.0,0.182963773949971
2893.0,0.17933886535640453
2892.0,0.17574396237031764
2891.0,0.17204947169736973
2890.0,0.16825816635436186
2889.0,0.1644362483309032
2888.0,0.16058480731610647
2887.0,0.15682953548010214
2886.0,0.15310645668337486
2885.0,0.14941502364796855
2884.0,0.1455724942121388
2883.0,0.14170347546611461
2882.0,0.13780896894840278
2881.0,0.13394907599072514
2880.0,0.13006458935314003
2879.0,0.12627261935332057
2878.0,0.12262865413022594
2877.0,0.11924355548978971
2876.0,0.11611154211151953
2875.0,0.11322735694556196
2874.0,0.11053021603049262
2873.0,0.10801676914803293
2872.0,0.10573933555301185
2871.0,0.10363915453068362
2870.0,0.10160395406999112
2869.0,0.09968750301627338
2868.0,0.09794268919153337
2867.0,0.0964759355287379
2866.0,0.0955549589230904
2865.0,0.09512223303659528
2864.0,0.09539263618455207
2863.0,0.09636748391576244
2862.0,0.09821485469640057
2861.0,0.10111034407341357
2860.0,0.10529634739076998
2859.0,0.11081038795292675
2858.0,0.11781711236973003
2857.0,0.12656313677796316
2856.0,0.1373320497714121
2855.0,0.15082636690117335
2854.0,0.1674910872937636
2853.0,0.1879561020697733
2852.0,0.2122562283535332
2851.0,0.2398037705448659
2850.0,0.2685724129490521
2849.0,0.29447838657733283
2848.0,0.3128278954052004
2847.0,0.31984585826562695
2846.0,0.31515463835558766
2845.0,0.3015514619846711
2844.0,0.283078926833239
2843.0,0.2634441528373641
2842.0,0.24473510858775338
2841.0,0.2277516600281464
2840.0,0.21296481797377664
2839.0,0.20010831534313467
2838.0,0.18909571933129965
2837.0,0.17953580942231584
2836.0,0.1711468403233598
2835.0,0.16380251922107458
2834.0,0.15732836623921154
2833.0,0.15162611615539823
2832.0,0.14666689499766483
2831.0,0.1423660148499919
2830.0,0.13858508136400327
2829.0,0.1352516643703412
2828.0,0.1322379753497993
2827.0,0.12942053944731513
2826.0,0.1267375405612734
2825.0,0.12424442074194553
2824.0,0.1219955297319748
2823.0,0.11992991593593283
2822.0,0.11798803837334138
2821.0,0.11611154211151953
2820.0,0.11441264381034388
2819.0,0.1128329791052256
2818.0,0.11131515334030118
2817.0,0.1098585399354226
2816.0,0.10857405715200596
2815.0,0.10734896612269962
2814.0,0.1062937069352865
2813.0,0.10529634739076998
2812.0,0.10430127304069425
2811.0,0.10330847343711591
2810.0,0.10226297465457268
2809.0,0.10127481841050656
2808.0,0.10039834085387778
2807.0,0.09963287134352972
2806.0,0.09886874864462802
2805.0,0.09810596802617932
2804.0,0.0972358560759139
2803.0,0.09642170633694569
2802.0,0.09560907998763835
2801.0,0.09490603167212863
2800.0,0.09425807260839858
2799.0,0.09361107884716913
2798.0,0.09296504751658308
2797.0,0.09242742120144909
2796.0,0.09189045960744768
2795.0,0.09130056764777605
2794.0,0.09076499663169257
2793.0,0.09017663034908807
2792.0,0.08964244272712252
2791.0,0.08910891135547172
2790.0,0.08862929288386212
2789.0,0.0881502035005799
2788.0,0.0877779434675845
2787.0,0.08735289378168276
2786.0,0.08687520961044104
2785.0,0.08639805027084257
2784.0,0.08581556657675371
2783.0,0.08523386307414738
2782.0,0.08465293767580806
2781.0,0.08412549714230844
2780.0,0.08365134772453975
2779.0,0.08328292240118751
2778.0,0.08301995267961781
2777.0,0.08286224724355584
2776.0,0.08265206237222844
2775.0,0.0823369756726251
2774.0,0.08196966321511989
2773.0,0.08155025759884227
2772.0,0.08107890990866418
2771.0,0.08060807322614072
2770.0,0.08024221949810584
2769.0,0.08003329851661278
2768.0,0.07987667370927598
2767.0,0.07966792846041071
2766.0,0.07935499859321249
2765.0,0.07904229404455076
2764.0,0.07872981449018734
2763.0,0.07846958649875768
2762.0,0.07831352451639795
2761.0,0.0781575185941421
2760.0,0.07805354577058976
2759.0,0.07784567476894111
2758.0,0.07753405470158659
2757.0,0.07727454200674
2756.0,0.07706704344478843
2755.0,0.07696333132921396
2754.0,0.07680780957933253
2753.0,0.07654873036034848
2752.0,0.07623803917129979
2751.0,0.0760310351245288
2750.0,0.07587584681417514
2749.0,0.07582412969807906
2748.0,0.07577241873988227
2747.0,0.07566901529132153
2746.0,0.07551395626608493
2745.0,0.07530729697981409
2744.0,0.07504911108438939
2743.0,0.07489427319033615
2742.0,0.07473949048056472
2741.0,0.07463633264589853
2740.0,0.07458476291575367
2739.0,0.07463633264589853
2738.0,0.07463633264589853
2737.0,0.07458476291575367
2736.0,0.07448164182257
2735.0,0.07432700607875953
2734.0,0.07406940213152868
2733.0,0.07376047895413773
2732.0,0.07340034609297241
2731.0,0.07304051161972436
2730.0,0.07288638806623937
2729.0,0.07283502570063005
2728.0,0.07288638806623937
2727.0,0.07293775650699996
2726.0,0.07288638806623937
2725.0,0.07278366940873537
2724.0,0.07268097504034388
2723.0,0.0725783049495814
2722.0,0.07242434530888953
2721.0,0.07221915065262552
2720.0,0.0720140529005715
2719.0,0.0718090519612431
2718.0,0.07175781684269089
2717.0,0.07175781684269089
2716.0,0.07175781684269089
2715.0,0.07170658776779781
2714.0,0.0716553647351379
2713.0,0.07145053299833615
2712.0,0.07124579782334672
2711.0,0.0709900145060387
2710.0,0.07078549626260622
2709.0,0.07068327324650436
2708.0,0.07073438174693436
2707.0,0.07073438174693436
2706.0,0.07078549626260622
2705.0,0.07083661679493547
2704.0,0.07083661679493547
2703.0,0.07073438174693436
2702.0,0.07052998382251041
2701.0,0.07032568205141221
2700.0,0.07017251876930874
2699.0,0.07001940948448526
2698.0,0.06986635415888243
2697.0,0.06971335275448043
2696.0,0.06966236426227002
2695.0,0.06966236426227002
2694.0,0.06966236426227002
2693.0,0.06961138175567827
2692.0,0.06956040523329987
2691.0,0.06945847013556561
2690.0,0.06935655895783555
2689.0,0.0692037370166998
2688.0,0.06915280831750303
2687.0,0.06925467168888666
2686.0,0.06935655895783555
2685.0,0.06950943469373039
2684.0,0.06950943469373039
2683.0,0.06945847013556561
2682.0,0.06935655895783555
2681.0,0.0692037370166998
2680.0,0.0691018855898955
2679.0,0.0690000580438479
2678.0,0.06894915322260897
2677.0,0.06894915322260897
2676.0,0.06894915322260897
2675.0,0.06894915322260897
2674.0,0.0688982543673613
2673.0,0.06884736147670667
2672.0,0.06884736147670667
2671.0,0.06884736147670667
2670.0,0.06894915322260897
2669.0,0.0690000580438479
2668.0,0.0690000580438479
2667.0,0.06905096883247697
2666.0,0.06905096883247697
2665.0,0.06905096883247697
2664.0,0.06905096883247697
2663.0,0.06894915322260897
2662.0,0.06879647454924775
2661.0,0.06869471857832687
2660.0,0.06859298644342648
2659.0,0.06864384953207203
2658.0,0.06864384953207203
2657.0,0.06864384953207203
2656.0,0.06864384953207203
2655.0,0.0685421293109949
2654.0,0.0684912781333824
2653.0,0.068389593637038
2652.0,0.06828793294324442
2651.0,0.0681862960408608
2650.0,0.06803388527182741
2649.0,0.06798309356579857
2648.0,0.06798309356579857
2647.0,0.06798309356579857
2646.0,0.06803388527182741
2645.0,0.0680846829187538
2644.0,0.0680846829187538
2643.0,0.0680846829187538
2642.0,0.06803388527182741
2641.0,0.06803388527182741
2640.0,0.0680846829187538
2639.0,0.06813548650796819
2638.0,0.06813548650796819
2637.0,0.06813548650796819
2636.0,0.06803388527182741
2635.0,0.06793230779927839
2634.0,0.0678307540792078
2633.0,0.06777998612288094
2632.0,0.06777998612288094
2631.0,0.06788152797087754
2630.0,0.06803388527182741
2629.0,0.06803388527182741
2628.0,0.06798309356579857
2627.0,0.06788152797087754
2626.0,0.06772922410050963
2625.0,0.0676277178520861
2624.0,0.06752623532284674
2623.0,0.06747550294945781
2622.0,0.06747550294945781
2621.0,0.06747550294945781
2620.0,0.06747550294945781
2619.0,0.06747550294945781
2618.0,0.06732334137759932
2617.0,0.06722192993944942
2616.0,0.06712054217620067
2615.0,0.06706985716921054
2614.0,0.06696850489759454
2613.0,0.06686717627326577
2612.0,0.06676587128519196
2611.0,0.06661395809694559
2610.0,0.06656333217371957
2609.0,0.06656333217371957
2608.0,0.0665127121512945
2607.0,0.06646209802829528
2606.0,0.06636088747507496
2605.0,0.06625970050306473
2604.0,0.06620911585658007
2603.0,0.06620911585658007
2602.0,0.06620911585658007
2601.0,0.06625970050306473
2600.0,0.0663102910421054
2599.0,0.0663102910421054
2598.0,0.06620911585658007
2597.0,0.06615853710127872
2596.0,0.06615853710127872
2595.0,0.06620911585658007
2594.0,0.06625970050306473
2593.0,0.0663102910421054
2592.0,0.06625970050306473
2591.0,0.06610796423578891
2590.0,0.06590573164451952
2589.0,0.06575411897692884
2588.0,0.06565307326174441
2587.0,0.0655520510510299
2586.0,0.06550154875643233
2585.0,0.0655520510510299
2584.0,0.06560255921901192
2583.0,0.06560255921901192
2582.0,0.06560255921901192
2581.0,0.0655520510510299
2580.0,0.0655520510510299
2579.0,0.06560255921901192
2578.0,0.06560255921901192
2577.0,0.06565307326174441
2576.0,0.06560255921901192
2575.0,0.06550154875643233
2574.0,0.0654005617819271
2573.0,0.06519865825346338
2572.0,0.06504729218214189
2571.0,0.06494641076893504
2570.0,0.06484555278383164
2569.0,0.06479513257341862
2568.0,0.06479513257341862
2567.0,0.06479513257341862
2566.0,0.06479513257341862
2565.0,0.06474471821595262
2564.0,0.06474471821595262
2563.0,0.06474471821595262
2562.0,0.06469430971007495
2561.0,0.06469430971007495
2560.0,0.06474471821595262
2559.0,0.06479513257341862
2558.0,0.06479513257341862
2557.0,0.06469430971007495
2556.0,0.06464390705442691
2555.0,0.06459351024765114
2554.0,0.06469430971007495
2553.0,0.06474471821595262
2552.0,0.06474471821595262
2551.0,0.06464390705442691
2550.0,0.06454311928839007
2549.0,0.06459351024765114
2548.0,0.06469430971007495
2547.0,0.06479513257341862
2546.0,0.06484555278383164
2545.0,0.06474471821595262
2544.0,0.06459351024765114
2543.0,0.06449273417528723
2542.0,0.06444235490698613
2541.0,0.06439198148213077
2540.0,0.06444235490698613
2539.0,0.06449273417528723
2538.0,0.06454311928839007
2537.0,0.06459351024765114
2536.0,0.06464390705442691
2535.0,0.06469430971007495
2534.0,0.06469430971007495
2533.0,0.06464390705442691
2532.0,0.06449273417528723
2531.0,0.06434161389936577
2530.0,0.06424089625468832
2529.0,0.06424089625468832
2528.0,0.06429125215733666
2527.0,0.06429125215733666
2526.0,0.06419054619006714
2525.0,0.06408986356949264
2524.0,0.06403953101083348
2523.0,0.06408986356949264
2522.0,0.06408986356949264
2521.0,0.06414020196211956
2520.0,0.06424089625468832
2519.0,0.06434161389936577
2518.0,0.06439198148213077
2517.0,0.06444235490698613
2516.0,0.06439198148213077
2515.0,0.06434161389936577
2514.0,0.06429125215733666
2513.0,0.06424089625468832
2512.0,0.06424089625468832
2511.0,0.06419054619006714
2510.0,0.06414020196211956
2509.0,0.06403953101083348
2508.0,0.06398920428479049
2507.0,0.06393888339001164
2506.0,0.06393888339001164
2505.0,0.06398920428479049
2504.0,0.06408986356949264
2503.0,0.06414020196211956
2502.0,0.06424089625468832
2501.0,0.06424089625468832
2500.0,0.06419054619006714
2499.0,0.06408986356949264
2498.0,0.06398920428479049
2497.0,0.06383825908884244
2496.0,0.06373765809652254
2495.0,0.06383825908884244
2494.0,0.06398920428479049
2493.0,0.06408986356949264
2492.0,0.06414020196211956
2491.0,0.06403953101083348
2490.0,0.06393888339001164
2489.0,0.06388856832514578
2488.0,0.06388856832514578
2487.0,0.06388856832514578
2486.0,0.06398920428479049
2485.0,0.06403953101083348
2484.0,0.06414020196211956
2483.0,0.06419054619006714
2482.0,0.06419054619006714
2481.0,0.06419054619006714
2480.0,0.06414020196211956
2479.0,0.06408986356949264
2478.0,0.06414020196211956
2477.0,0.06419054619006714
2476.0,0.06419054619006714
2475.0,0.06414020196211956
2474.0,0.06403953101083348
2473.0,0.06393888339001164
2472.0,0.06388856832514578
2471.0,0.06378795567975115
2470.0,0.06373765809652254
2469.0,0.06378795567975115
2468.0,0.06383825908884244
2467.0,0.06383825908884244
2466.0,0.06378795567975115
2465.0,0.06373765809652254
2464.0,0.0636873663378068
2463.0,0.0636873663378068
2462.0,0.06373765809652254
2461.0,0.06383825908884244
2460.0,0.06383825908884244
2459.0,0.06383825908884244
2458.0,0.06373765809652254
2457.0,0.06363708040225546
2456.0,0.06358680028852026
2455.0,0.06358680028852026
2454.0,0.0636873663378068
2453.0,0.06383825908884244
2452.0,0.06398920428479049
2451.0,0.06414020196211956
2450.0,0.06419054619006714
2449.0,0.06424089625468832
2448.0,0.06429125215733666
2447.0,0.06434161389936577
2446.0,0.06434161389936577
2445.0,0.06429125215733666
2444.0,0.06424089625468832
2443.0,0.06424089625468832
2442.0,0.06424089625468832
2441.0,0.06424089625468832
2440.0,0.06419054619006714
2439.0,0.06414020196211956
2438.0,0.06408986356949264
2437.0,0.06414020196211956
2436.0,0.06419054619006714
2435.0,0.06424089625468832
2434.0,0.06429125215733666
2433.0,0.06429125215733666
2432.0,0.06429125215733666
2431.0,0.06429125215733666
2430.0,0.06429125215733666
2429.0,0.06424089625468832
2428.0,0.06419054619006714
2427.0,0.06414020196211956
2426.0,0.06408986356949264
2425.0,0.06408986356949264
2424.0,0.06419054619006714
2423.0,0.06424089625468832
2422.0,0.06424089625468832
2421.0,0.06424089625468832
2420.0,0.06419054619006714
2419.0,0.06424089625468832
2418.0,0.06434161389936577
2417.0,0.06439198148213077
2416.0,0.06444235490698613
2415.0,0.06444235490698613
2414.0,0.06444235490698613
2413.0,0.06439198148213077
2412.0,0.06434161389936577
2411.0,0.06429125215733666
2410.0,0.06429125215733666
2409.0,0.06434161389936577
2408.0,0.06434161389936577
2407.0,0.06434161389936577
2406.0,0.06434161389936577
2405.0,0.06429125215733666
2404.0,0.06424089625468832
2403.0,0.06424089625468832
2402.0,0.06429125215733666
2401.0,0.06439198148213077
2400.0,0.06444235490698613
2399.0,0.06449273417528723
2398.0,0.06449273417528723
2397.0,0.06449273417528723
2396.0,0.06449273417528723
2395.0,0.06444235490698613
2394.0,0.06439198148213077
2393.0,0.06434161389936577
2392.0,0.06439198148213077
2391.0,0.06449273417528723
2390.0,0.06459351024765114
2389.0,0.06464390705442691
2388.0,0.06459351024765114
2387.0,0.06459351024765114
2386.0,0.06454311928839007
2385.0,0.06454311928839007
2384.0,0.06454311928839007
2383.0,0.06454311928839007
2382.0,0.06459351024765114
2381.0,0.06474471821595262
2380.0,0.06494641076893504
2379.0,0.06509774167768612
2378.0,0.06509774167768612
2377.0,0.06504729218214189
2376.0,0.06494641076893504
2375.0,0.06484555278383164
2374.0,0.06484555278383164
2373.0,0.06509774167768612
2372.0,0.0654005617819271
2371.0,0.0655520510510299
2370.0,0.06519865825346338
2369.0,0.06429125215733666
2368.0,0.06303410289212974
2367.0,0.06198090252378963
2366.0,0.06143024377893891
2365.0,0.06173051653708872
2364.0,0.06283329628496737
2363.0,0.06439198148213077
2362.0,0.06575411897692884
2361.0,0.06641148980334699
2360.0,0.06636088747507496
2359.0,0.06570359318059427
2358.0,0.06504729218214189
2357.0,0.06459351024765114
2356.0,0.06439198148213077
2355.0,0.06449273417528723
2354.0,0.06489597884855036
2353.0,0.06565307326174441
2352.0,0.0663102910421054
2351.0,0.06646209802829528
2350.0,0.06625970050306473
2349.0,0.06605739725873905
2348.0,0.06615853710127872
2347.0,0.06636088747507496
2346.0,0.06656333217371957
2345.0,0.06661395809694559
2344.0,0.06681652082538614
2343.0,0.06737405597821788
2342.0,0.0680846829187538
2341.0,0.06869471857832687
2340.0,0.06874559358358656
2339.0,0.06833876031551878
2338.0,0.0678307540792078
2337.0,0.06747550294945781
2336.0,0.06732334137759932
2335.0,0.06727263269847072
2334.0,0.0671712330991534
2333.0,0.06706985716921054
2332.0,0.06691783763020887
2331.0,0.06681652082538614
2330.0,0.06706985716921054
2329.0,0.06742477650170953
2328.0,0.06752623532284674
2327.0,0.06722192993944942
2326.0,0.06691783763020887
2325.0,0.06691783763020887
2324.0,0.06727263269847072
2323.0,0.06767846801070698
2322.0,0.0678307540792078
2321.0,0.06772922410050963
2320.0,0.06747550294945781
2319.0,0.06712054217620067
2318.0,0.06681652082538614
2317.0,0.06681652082538614
2316.0,0.06706985716921054
2315.0,0.06732334137759932
2314.0,0.06742477650170953
2313.0,0.06737405597821788
2312.0,0.06727263269847072
2311.0,0.06727263269847072
2310.0,0.06737405597821788
2309.0,0.06747550294945781
2308.0,0.0675769736232612
2307.0,0.0675769736232612
2306.0,0.06752623532284674
2305.0,0.06747550294945781
2304.0,0.06737405597821788
2303.0,0.06727263269847072
2302.0,0.06712054217620067
2301.0,0.06691783763020887
2300.0,0.06681652082538614
2299.0,0.06676587128519196
2298.0,0.06681652082538614
2297.0,0.06696850489759454
2296.0,0.06706985716921054
2295.0,0.06712054217620067
2294.0,0.06712054217620067
2293.0,0.06712054217620067
2292.0,0.06706985716921054
2291.0,0.06696850489759454
2290.0,0.06681652082538614
2289.0,0.06671522765130522
2288.0,0.0666645899223488
2287.0,0.06671522765130522
2286.0,0.0666645899223488
2285.0,0.06661395809694559
2284.0,0.0665127121512945
2283.0,0.06646209802829528
2282.0,0.06646209802829528
2281.0,0.06656333217371957
2280.0,0.06671522765130522
2279.0,0.06691783763020887
2278.0,0.06701917807680191
2277.0,0.06696850489759454
2276.0,0.06681652082538614
2275.0,0.0666645899223488
2274.0,0.0666645899223488
2273.0,0.06671522765130522
2272.0,0.06681652082538614
2271.0,0.06681652082538614
2270.0,0.06676587128519196
2269.0,0.06671522765130522
2268.0,0.06671522765130522
2267.0,0.06676587128519196
2266.0,0.06686717627326577
2265.0,0.06691783763020887
2264.0,0.06691783763020887
2263.0,0.06686717627326577
2262.0,0.06681652082538614
2261.0,0.06686717627326577
2260.0,0.06691783763020887
2259.0,0.06696850489759454
2258.0,0.06701917807680191
2257.0,0.06701917807680191
2256.0,0.06701917807680191
2255.0,0.06701917807680191
2254.0,0.06701917807680191
2253.0,0.06696850489759454
2252.0,0.06696850489759454
2251.0,0.06686717627326577
2250.0,0.06676587128519196
2249.0,0.06671522765130522
2248.0,0.06671522765130522
2247.0,0.06681652082538614
2246.0,0.06686717627326577
2245.0,0.06696850489759454
2244.0,0.06706985716921054
2243.0,0.06722192993944942
2242.0,0.06727263269847072
2241.0,0.06727263269847072
2240.0,0.06722192993944942
2239.0,0.06712054217620067
2238.0,0.06701917807680191
2237.0,0.06691783763020887
2236.0,0.06691783763020887
2235.0,0.06686717627326577
2234.0,0.06691783763020887
2233.0,0.06696850489759454
2232.0,0.06706985716921054
2231.0,0.06712054217620067
2230.0,0.0671712330991534
2229.0,0.06727263269847072
2228.0,0.06732334137759932
2227.0,0.06727263269847072
2226.0,0.06722192993944942
2225.0,0.06712054217620067
2224.0,0.06706985716921054
2223.0,0.06701917807680191
2222.0,0.06701917807680191
2221.0,0.06706985716921054
2220.0,0.06722192993944942
2219.0,0.06737405597821788
2218.0,0.06742477650170953
2217.0,0.06742477650170953
2216.0,0.06742477650170953
2215.0,0.06742477650170953
2214.0,0.06747550294945781
2213.0,0.06747550294945781
2212.0,0.06747550294945781
2211.0,0.06742477650170953
2210.0,0.06737405597821788
2209.0,0.06742477650170953
2208.0,0.06752623532284674
2207.0,0.06767846801070698
2206.0,0.06772922410050963
2205.0,0.06772922410050963
2204.0,0.06772922410050963
2203.0,0.06772922410050963
2202.0,0.06772922410050963
2201.0,0.06772922410050963
2200.0,0.06772922410050963
2199.0,0.06767846801070698
2198.0,0.0676277178520861
2197.0,0.0675769736232612
2196.0,0.0676277178520861
2195.0,0.06772922410050963
2194.0,0.0678307540792078
2193.0,0.06788152797087754
2192.0,0.06793230779927839
2191.0,0.06788152797087754
2190.0,0.06788152797087754
2189.0,0.0678307540792078
2188.0,0.06788152797087754
2187.0,0.06788152797087754
2186.0,0.06793230779927839
2185.0,0.06793230779927839
2184.0,0.06793230779927839
2183.0,0.06793230779927839
2182.0,0.06798309356579857
2181.0,0.06813548650796819
2180.0,0.06823711151882228
2179.0,0.06828793294324442
2178.0,0.06828793294324442
2177.0,0.06823711151882228
2176.0,0.06823711151882228
2175.0,0.0681862960408608
2174.0,0.0681862960408608
2173.0,0.0681862960408608
2172.0,0.0681862960408608
2171.0,0.0681862960408608
2170.0,0.0681862960408608
2169.0,0.06813548650796819
2168.0,0.0681862960408608
2167.0,0.06823711151882228
2166.0,0.06833876031551878
2165.0,0.06844043290919477
2164.0,0.0685421293109949
2163.0,0.0685421293109949
2162.0,0.0684912781333824
2161.0,0.068389593637038
2160.0,0.06828793294324442
2159.0,0.06828793294324442
2158.0,0.06828793294324442
2157.0,0.068389593637038
2156.0,0.0684912781333824
2155.0,0.0685421293109949
2154.0,0.06859298644342648
2153.0,0.06859298644342648
2152.0,0.06869471857832687
2151.0,0.06879647454924775
2150.0,0.06884736147670667
2149.0,0.06879647454924775
2148.0,0.06879647454924775
2147.0,0.06879647454924775
2146.0,0.06884736147670667
2145.0,0.06894915322260897
2144.0,0.0690000580438479
2143.0,0.0690000580438479
2142.0,0.0688982543673613
2141.0,0.06879647454924775
2140.0,0.06869471857832687
2139.0,0.06869471857832687
2138.0,0.06869471857832687
2137.0,0.06874559358358656
2136.0,0.06874559358358656
2135.0,0.06874559358358656
2134.0,0.06874559358358656
2133.0,0.06879647454924775
2132.0,0.06884736147670667
2131.0,0.06894915322260897
2130.0,0.0690000580438479
2129.0,0.06905096883247697
2128.0,0.0691018855898955
2127.0,0.0692037370166998
2126.0,0.06925467168888666
2125.0,0.06925467168888666
2124.0,0.06925467168888666
2123.0,0.06925467168888666
2122.0,0.0692037370166998
2121.0,0.0692037370166998
2120.0,0.0692037370166998
2119.0,0.0692037370166998
2118.0,0.06925467168888666
2117.0,0.06930561233546473
2116.0,0.06930561233546473
2115.0,0.06925467168888666
2114.0,0.06925467168888666
2113.0,0.0692037370166998
2112.0,0.0692037370166998
2111.0,0.06915280831750303
2110.0,0.0691018855898955
2109.0,0.0691018855898955
2108.0,0.0691018855898955
2107.0,0.0691018855898955
2106.0,0.06915280831750303
2105.0,0.0692037370166998
2104.0,0.06925467168888666
2103.0,0.06930561233546473
2102.0,0.06930561233546473
2101.0,0.06935655895783555
2100.0,0.06940751155740177
2099.0,0.06940751155740177
2098.0,0.06945847013556561
2097.0,0.06950943469373039
2096.0,0.06961138175567827
2095.0,0.06971335275448043
2094.0,0.06981534770138009
2093.0,0.0699173666076287
2092.0,0.0699173666076287
2091.0,0.06986635415888243
2090.0,0.06976434723371505
2089.0,0.06966236426227002
2088.0,0.06966236426227002
2087.0,0.06971335275448043
2086.0,0.06976434723371505
2085.0,0.06981534770138009
2084.0,0.06986635415888243
2083.0,0.0699173666076287
2082.0,0.07001940948448526
2081.0,0.07007043991541217
2080.0,0.07017251876930874
2079.0,0.07022356719509815
2078.0,0.07022356719509815
2077.0,0.07017251876930874
2076.0,0.07007043991541217
2075.0,0.07001940948448526
2074.0,0.07007043991541217
2073.0,0.07017251876930874
2072.0,0.07032568205141221
2071.0,0.07032568205141221
2070.0,0.0702746216219956
2069.0,0.07017251876930874
2068.0,0.07012147634321675
2067.0,0.07012147634321675
2066.0,0.07017251876930874
2065.0,0.07022356719509815
2064.0,0.07032568205141221
2063.0,0.07037674848475972
2062.0,0.07042782092345012
2061.0,0.07052998382251041
2060.0,0.07058107428570715
2059.0,0.07058107428570715
2058.0,0.07058107428570715
2057.0,0.07063217075990047
2056.0,0.07068327324650436
2055.0,0.07073438174693436
2054.0,0.07068327324650436
2053.0,0.07058107428570715
2052.0,0.07052998382251041
2051.0,0.07052998382251041
2050.0,0.07063217075990047
2049.0,0.07073438174693436
2048.0,0.07083661679493547
2047.0,0.07088774334533943
2046.0,0.07088774334533943
2045.0,0.07083661679493547
2044.0,0.07078549626260622
2043.0,0.07078549626260622
2042.0,0.07083661679493547
2041.0,0.07093887591523451
2040.0,0.07109230975604719
2039.0,0.07119462910671581
2038.0,0.07119462910671581
2037.0,0.07114346641808922
2036.0,0.07114346641808922
2035.0,0.07119462910671581
2034.0,0.07119462910671581
2033.0,0.07119462910671581
2032.0,0.07119462910671581
2031.0,0.07124579782334672
2030.0,0.07129697256940304
2029.0,0.07129697256940304
2028.0,0.07129697256940304
2027.0,0.07124579782334672
2026.0,0.07124579782334672
2025.0,0.07124579782334672
2024.0,0.07129697256940304
2023.0,0.07145053299833615
2022.0,0.07160414774328627
2021.0,0.0716553647351379
2020.0,0.0716553647351379
2019.0,0.0716553647351379
2018.0,0.0716553647351379
2017.0,0.0716553647351379
2016.0,0.0716553647351379
2015.0,0.07160414774328627
2014.0,0.07155293679081787
2013.0,0.07145053299833615
2012.0,0.07139934015547578
2011.0,0.07150173187630915
2010.0,0.07160414774328627
2009.0,0.0716553647351379
2008.0,0.07160414774328627
2007.0,0.07150173187630915
2006.0,0.07139934015547578
2005.0,0.07139934015547578
2004.0,0.07150173187630915
2003.0,0.07160414774328627
2002.0,0.0716553647351379
2001.0,0.07170658776779781
2000.0,0.07170658776779781
1999.0,0.07175781684269089
1998.0,0.07175781684269089
1997.0,0.07170658776779781
1996.0,0.07170658776779781
1995.0,0.07175781684269089
1994.0,0.0718090519612431
1993.0,0.07186029312488018
1992.0,0.07191154033502922
1991.0,0.07191154033502922
1990.0,0.07196279359311708
1989.0,0.0720140529005715
1988.0,0.07196279359311708
1987.0,0.07186029312488018
1986.0,0.0718090519612431
1985.0,0.07175781684269089
1984.0,0.07170658776779781
1983.0,0.07170658776779781
1982.0,0.07170658776779781
1981.0,0.07170658776779781
1980.0,0.07175781684269089
1979.0,0.0718090519612431
1978.0,0.07186029312488018
1977.0,0.07191154033502922
1976.0,0.07196279359311708
1975.0,0.07196279359311708
1974.0,0.07191154033502922
1973.0,0.07186029312488018
1972.0,0.07191154033502922
1971.0,0.07196279359311708
1970.0,0.0720140529005715
1969.0,0.07206531825882068
1968.0,0.07211658966929302
1967.0,0.07221915065262552
1966.0,0.07227044022834539
1965.0,0.07227044022834539
1964.0,0.07227044022834539
1963.0,0.07227044022834539
1962.0,0.07227044022834539
1961.0,0.07227044022834539
1960.0,0.07232173586200852
1959.0,0.07232173586200852
1958.0,0.07237303755504598
1957.0,0.07237303755504598
1956.0,0.07237303755504598
1955.0,0.07237303755504598
1954.0,0.07237303755504598
1953.0,0.07247565912497134
1952.0,0.0725783049495814
1951.0,0.0725783049495814
1950.0,0.07247565912497134
1949.0,0.07242434530888953
1948.0,0.07237303755504598
1947.0,0.07242434530888953
1946.0,0.07252697900472405
1945.0,0.0725783049495814
1944.0,0.07262963696097646
1943.0,0.07262963696097646
1942.0,0.07262963696097646
1941.0,0.07273231918911849
1940.0,0.07283502570063005
1939.0,0.07288638806623937
1938.0,0.07288638806623937
1937.0,0.07283502570063005
1936.0,0.07283502570063005
1935.0,0.07288638806623937
1934.0,0.07288638806623937
1933.0,0.07288638806623937
1932.0,0.07288638806623937
1931.0,0.07293775650699996
1930.0,0.0729891310243489
1929.0,0.07304051161972436
1928.0,0.07309189829456408
1927.0,0.07319468988839395
1926.0,0.07329750581735506
1925.0,0.07340034609297241
1924.0,0.07340034609297241
1923.0,0.07340034609297241
1922.0,0.07334892291111106
1921.0,0.07329750581735506
1920.0,0.0732460948102629
1919.0,0.07319468988839395
1918.0,0.07314329105030759
1917.0,0.07314329105030759
1916.0,0.0732460948102629
1915.0,0.07334892291111106
1914.0,0.0734517753643813
1913.0,0.07355465218161061
1912.0,0.07365755337434488
1911.0,0.07370901311513656
1910.0,0.07370901311513656
1909.0,0.07370901311513656
1908.0,0.07376047895413773
1907.0,0.07381195089279391
1906.0,0.07391491307485598
1905.0,0.07401789967289685
1904.0,0.07406940213152868
1903.0,0.07401789967289685
1902.0,0.07396640332115534
1901.0,0.07396640332115534
1900.0,0.07401789967289685
1899.0,0.07412091069849924
1898.0,0.07422394616325367
1897.0,0.07432700607875953
1896.0,0.07437854520917098
1895.0,0.07437854520917098
1894.0,0.07437854520917098
1893.0,0.07443009045662374
1892.0,0.07443009045662374
1891.0,0.07443009045662374
1890.0,0.07432700607875953
1889.0,0.07432700607875953
1888.0,0.07432700607875953
1887.0,0.07437854520917098
1886.0,0.07443009045662374
1885.0,0.07448164182257
1884.0,0.07448164182257
1883.0,0.07443009045662374
1882.0,0.07443009045662374
1881.0,0.07443009045662374
1880.0,0.07443009045662374
1879.0,0.07443009045662374
1878.0,0.07443009045662374
1877.0,0.07443009045662374
1876.0,0.07443009045662374
1875.0,0.07448164182257
1874.0,0.07448164182257
1873.0,0.07453319930846214
1872.0,0.07458476291575367
1871.0,0.07458476291575367
1870.0,0.07453319930846214
1869.0,0.07453319930846214
1868.0,0.07463633264589853
1867.0,0.07473949048056472
1866.0,0.07468790850035045
1865.0,0.07468790850035045
1864.0,0.07473949048056472
1863.0,0.07479107858799638
1862.0,0.0748426728241014
1861.0,0.07479107858799638
1860.0,0.07473949048056472
1859.0,0.07468790850035045
1858.0,0.07473949048056472
1857.0,0.07479107858799638
1856.0,0.0748426728241014
1855.0,0.07479107858799638
1854.0,0.07473949048056472
1853.0,0.07463633264589853
1852.0,0.07453319930846214
1851.0,0.07448164182257
1850.0,0.07448164182257
1849.0,0.07453319930846214
1848.0,0.07463633264589853
1847.0,0.07479107858799638
1846.0,0.07494587968815725
1845.0,0.07504911108438939
1844.0,0.07515236702446293
1843.0,0.07520400420208784
1842.0,0.07510073598571654
1841.0,0.07499749231902242
1840.0,0.07494587968815725
1839.0,0.07489427319033615
1838.0,0.07494587968815725
1837.0,0.07510073598571654
1836.0,0.07525564752005143
1835.0,0.07530729697981409
1834.0,0.07525564752005143
1833.0,0.07520400420208784
1832.0,0.07515236702446293
1831.0,0.07515236702446293
1830.0,0.07520400420208784
1829.0,0.07535895258283709
1828.0,0.07546228222451012
1827.0,0.07551395626608493
1826.0,0.07546228222451012
1825.0,0.07541061433058172
1824.0,0.07541061433058172
1823.0,0.07546228222451012
1822.0,0.07546228222451012
1821.0,0.07551395626608493
1820.0,0.07551395626608493
1819.0,0.07551395626608493
1818.0,0.07546228222451012
1817.0,0.07546228222451012
1816.0,0.07556563645676939
1815.0,0.07566901529132153
1814.0,0.07582412969807906
1813.0,0.07587584681417514
1812.0,0.07587584681417514
1811.0,0.07582412969807906
1810.0,0.07577241873988227
1809.0,0.07582412969807906
1808.0,0.07592757008963713
1807.0,0.07592757008963713
1806.0,0.07592757008963713
1805.0,0.0759792995259323
1804.0,0.0760310351245288
1803.0,0.07608277688689435
1802.0,0.0760310351245288
1801.0,0.07592757008963713
1800.0,0.0759792995259323
1799.0,0.0760310351245288
1798.0,0.0760310351245288
1797.0,0.07608277688689435
1796.0,0.07618627890881036
1795.0,0.07628980560343712
1794.0,0.07634157820669385
1793.0,0.07644514193245056
1792.0,0.07665234350217442
1791.0,0.07680780957933253
1790.0,0.07680780957933253
1789.0,0.07675598136972361
1788.0,0.07670415934449615
1787.0,0.07665234350217442
1786.0,0.07660053384128362
1785.0,0.07660053384128362
1784.0,0.07660053384128362
1783.0,0.07670415934449615
1782.0,0.07675598136972361
1781.0,0.07680780957933253
1780.0,0.07685964397479927
1779.0,0.07685964397479927
1778.0,0.07685964397479927
1777.0,0.07680780957933253
1776.0,0.07675598136972361
1775.0,0.07675598136972361
1774.0,0.07680780957933253
1773.0,0.07685964397479927
1772.0,0.07706704344478843
1771.0,0.07737832847680104
1770.0,0.07748213975538865
1769.0,0.07748213975538865
1768.0,0.07748213975538865
1767.0,0.07743023101428781
1766.0,0.07743023101428781
1765.0,0.07737832847680104
1764.0,0.07743023101428781
1763.0,0.07748213975538865
1762.0,0.07748213975538865
1761.0,0.07758597585436577
1760.0,0.07758597585436577
1759.0,0.07758597585436577
1758.0,0.07758597585436577
1757.0,0.07763790321520991
1756.0,0.0777417765670334
1755.0,0.07784567476894111
1754.0,0.07800156869172903
1753.0,0.0781575185941421
1752.0,0.07826151631540124
1751.0,0.07836553894629472
1750.0,0.07846958649875768
1749.0,0.07846958649875768
1748.0,0.07852161962430992
1747.0,0.07862570458152551
1746.0,0.07867775641617802
1745.0,0.07883394936226118
1744.0,0.079094395835976
1743.0,0.07935499859321249
1742.0,0.07951143534170213
1741.0,0.07951143534170213
1740.0,0.07951143534170213
1739.0,0.07951143534170213
1738.0,0.07951143534170213
1737.0,0.07951143534170213
1736.0,0.07956359344924135
1735.0,0.07951143534170213
1734.0,0.07951143534170213
1733.0,0.07982447798997727
1732.0,0.08008551934056851
1731.0,0.08039897621588898
1730.0,0.08066036321258663
1729.0,0.08086958613938555
1728.0,0.08092190762392604
1727.0,0.0809742354126397
1726.0,0.08102656950704579
1725.0,0.08118360963962057
1724.0,0.08144546944972642
1723.0,0.08170748724464438
1722.0,0.08191721535781271
1721.0,0.08212704480115218
1720.0,0.0823369756726251
1719.0,0.08238947425013277
1718.0,0.08228448344050654
1717.0,0.08238947425013277
1716.0,0.08270459905431071
1715.0,0.08301995267961781
1714.0,0.08317771540408803
1713.0,0.0832303157168639
1712.0,0.08312512146131668
1711.0,0.08296737783760655
1710.0,0.08286224724355584
1709.0,0.08280969148843575
1708.0,0.08280969148843575
1707.0,0.08286224724355584
1706.0,0.08280969148843575
1705.0,0.08286224724355584
1704.0,0.08280969148843575
1703.0,0.08275714209253371
1702.0,0.08265206237222844
1701.0,0.08249449044745338
1700.0,0.08238947425013277
1699.0,0.08238947425013277
1698.0,0.08238947425013277
1697.0,0.08259953204474924
1696.0,0.08296737783760655
1695.0,0.0832303157168639
1694.0,0.0832303157168639
1693.0,0.08333553545860273
1692.0,0.08354605145007499
1691.0,0.08365134772453975
1690.0,0.08365134772453975
1689.0,0.08365134772453975
1688.0,0.08375666953466032
1687.0,0.08407278830288423
1686.0,0.08438913733853282
1685.0,0.08475850269380558
1684.0,0.08518101955252688
1683.0,0.0854453014823664
1682.0,0.08533956941077814
1681.0,0.08528671302637614
1680.0,0.08528671302637614
1679.0,0.08523386307414738
1678.0,0.08518101955252688
1677.0,0.08523386307414738
1676.0,0.08533956941077814
1675.0,0.08555105930144569
1674.0,0.08576265223225898
1673.0,0.08592141461088798
1672.0,0.08602728844902896
1671.0,0.0861331881037608
1670.0,0.0862920860195171
1669.0,0.08661005636824437
1668.0,0.08682216600953208
1667.0,0.08698131625203986
1666.0,0.08714052483764512
1665.0,0.0872997918091396
1664.0,0.08740600224789441
1663.0,0.08751223866767632
1662.0,0.08756536662442538
1661.0,0.08767164203958999
1660.0,0.0877779434675845
1659.0,0.08788427092114603
1658.0,0.08793744441149753
1657.0,0.08793744441149753
1656.0,0.08804381092731295
1655.0,0.08804381092731295
1654.0,0.08772478950118767
1653.0,0.08783110394037297
1652.0,0.08830984124613894
1651.0,0.08841629901892434
1650.0,0.0884695376928375
1649.0,0.08862929288386212
1648.0,0.08857603462370545
1647.0,0.08857603462370545
1646.0,0.08873582900163002
1645.0,0.08878910686244668
1644.0,0.08873582900163002
1643.0,0.08868255767596933
1642.0,0.08862929288386212
1641.0,0.08857603462370545
1640.0,0.0885227828938977
1639.0,0.0885227828938977
1638.0,0.0885227828938977
1637.0,0.0885227828938977
1636.0,0.08868255767596933
1635.0,0.08894897967187343
1634.0,0.08900228368935714
1633.0,0.08889568219596411
1632.0,0.08884239126002336
1631.0,0.08884239126002336
1630.0,0.08884239126002336
1629.0,0.08884239126002336
1628.0,0.08878910686244668
1627.0,0.08857603462370545
1626.0,0.08825662214406838
1625.0,0.08793744441149753
1624.0,0.08772478950118767
1623.0,0.08761850108119962
1622.0,0.08772478950118767
1621.0,0.0877779434675845
1620.0,0.0877779434675845
1619.0,0.08772478950118767
1618.0,0.08761850108119962
1617.0,0.08745911720936239
1616.0,0.08751223866767632
1615.0,0.08756536662442538
1614.0,0.08756536662442538
1613.0,0.08756536662442538
1612.0,0.08745911720936239
1611.0,0.0872997918091396
1610.0,0.08708744882390307
1609.0,0.08687520961044104
1608.0,0.0867160982395816
1607.0,0.08666307406737683
1606.0,0.08661005636824437
1605.0,0.08666307406737683
1604.0,0.08666307406737683
1603.0,0.08666307406737683
1602.0,0.0867160982395816
1601.0,0.0867160982395816
1600.0,0.08655704514060414
1599.0,0.0862920860195171
1598.0,0.08608023504853413
1597.0,0.08597434830367123
1596.0,0.08608023504853413
1595.0,0.0861331881037608
1594.0,0.08618614761628329
1593.0,0.08608023504853413
1592.0,0.08597434830367123
1591.0,0.08586848736910624
1590.0,0.08581556657675371
1589.0,0.08586848736910624
1588.0,0.08592141461088798
1587.0,0.08597434830367123
1586.0,0.08592141461088798
1585.0,0.08586848736910624
1584.0,0.08576265223225898
1583.0,0.08570974433405087
1582.0,0.08570974433405087
1581.0,0.08570974433405087
1580.0,0.0856568428805593
1579.0,0.0856568428805593
1578.0,0.0856568428805593
1577.0,0.08560394787021397
1576.0,0.08560394787021397
1575.0,0.08555105930144569
1574.0,0.0854453014823664
1573.0,0.0854453014823664
1572.0,0.08555105930144569
1571.0,0.08560394787021397
1570.0,0.08560394787021397
1569.0,0.08555105930144569
1568.0,0.08555105930144569
1567.0,0.08549817717268593
1566.0,0.0854453014823664
1565.0,0.08539243222891946
1564.0,0.08533956941077814
1563.0,0.08528671302637614
1562.0,0.08528671302637614
1561.0,0.0854453014823664
1560.0,0.08528671302637614
1559.0,0.0854453014823664
1558.0,0.08592141461088798
1557.0,0.08586848736910624
1556.0,0.08581556657675371
1555.0,0.08602728844902896
1554.0,0.08602728844902896
1553.0,0.08597434830367123
1552.0,0.08592141461088798
1551.0,0.08597434830367123
1550.0,0.08602728844902896
1549.0,0.08602728844902896
1548.0,0.08608023504853413
1547.0,0.08602728844902896
1546.0,0.08586848736910624
1545.0,0.0856568428805593
1544.0,0.08539243222891946
1543.0,0.08523386307414738
1542.0,0.08518101955252688
1541.0,0.08528671302637614
1540.0,0.08560394787021397
1539.0,0.08560394787021397
1538.0,0.08518101955252688
1537.0,0.08491689834879956
1536.0,0.08496970974083906
1535.0,0.08502252755566908
1534.0,0.08496970974083906
1533.0,0.08491689834879956
1532.0,0.08491689834879956
1531.0,0.08481129482684358
1530.0,0.08465293767580806
1529.0,0.08465293767580806
1528.0,0.08465293767580806
1527.0,0.08460016478773014
1526.0,0.08444188458847957
1525.0,0.08433639649422697
1524.0,0.08438913733853282
1523.0,0.08449463824562353
1522.0,0.08449463824562353
1521.0,0.08438913733853282
1520.0,0.08423093401631587
1519.0,0.08402008585977572
1518.0,0.08375666953466032
1517.0,0.08359869639612438
1516.0,0.08354605145007499
1515.0,0.0833881548906541
1514.0,0.08317771540408803
1513.0,0.08296737783760655
1512.0,0.08280969148843575
1511.0,0.08259953204474924
1510.0,0.08249449044745338
1509.0,0.08254700807033655
1508.0,0.08291480935943274
1507.0,0.0832303157168639
1506.0,0.08275714209253371
1505.0,0.08181233864107451
1504.0,0.0812883346176787
1503.0,0.08113125661901543
1502.0,0.0809742354126397
1501.0,0.08086958613938555
1500.0,0.08076496207674921
1499.0,0.08066036321258663
1498.0,0.08034671768963575
1497.0,0.08008551934056851
1496.0,0.07992887570247587
1495.0,0.07966792846041071
1494.0,0.07930286553008004
1493.0,0.07914650387874067
1492.0,0.079094395835976
1491.0,0.07899019850296574
1490.0,0.07852161962430992
1489.0,0.0781575185941421
1488.0,0.07784567476894111
1487.0,0.07737832847680104
1486.0,0.07670415934449615
1485.0,0.07613452481449845
1484.0,0.07577241873988227
1483.0,0.07535895258283709
1482.0,0.07473949048056472
1481.0,0.07422394616325367
1480.0,0.07391491307485598
1479.0,0.07386342893255127
1478.0,0.07453319930846214
1477.0,0.0772226580712021
1476.0,0.08349341288484435
1475.0,0.09420411963213149
1474.0,0.10980261378997125
1473.0,0.12889429901441463
1472.0,0.1432711096171173
1471.0,0.14703230897118158
1470.0,0.1455724942121388
1469.0,0.14442027749828212
1468.0,0.14472319616990825
1467.0,0.1466060225493342
1466.0,0.15119529894819617
1465.0,0.1607105439938532
1464.0,0.1730833528150797
1463.0,0.18223636771963214
1462.0,0.1851533313955367
1461.0,0.1827652695745019
1460.0,0.176525770829699
1459.0,0.16774662980299215
1458.0,0.15789023655938994
1457.0,0.14941502364796855
1456.0,0.1441175699639643
1455.0,0.14086170270546927
1454.0,0.13834612978608907
1453.0,0.13578566953867033
1452.0,0.13288622016802298
1451.0,0.13012318673323353
1450.0,0.12790202572577325
1449.0,0.1260984021355387
1448.0,0.12441789567211425
1447.0,0.12285911021517903
1446.0,0.12159311241900439
1445.0,0.12056003400478299
1444.0,0.11964380058076385
1443.0,0.11878658374498086
1442.0,0.11798803837334138
1441.0,0.11724784438692004
1440.0,0.11662251025166115
1439.0,0.11611154211151953
1438.0,0.11554450392951199
1437.0,0.1148084593931522
1436.0,0.11379137583250243
1435.0,0.1128329791052256
1434.0,0.11215773489264302
1433.0,0.11165198982195101
1432.0,0.11097857790477517
1431.0,0.11019424813191447
1430.0,0.10929960230112479
1429.0,0.10835105612944096
1428.0,0.10734896612269962
1427.0,0.10646015643533868
1426.0,0.10573933555301185
1425.0,0.10507502264045665
1424.0,0.10441172433373724
1423.0,0.10385974855798041
1422.0,0.10347378251044459
1421.0,0.10308815917397474
1420.0,0.10264786565568684
1419.0,0.1022080180607754
1418.0,0.10187842445889239
1417.0,0.10154908080162528
1416.0,0.1012199867101744
1415.0,0.10094593200182911
1414.0,0.10067205012234592
1413.0,0.10039834085387778
1412.0,0.10012480397898926
1411.0,0.09985143928065598
1410.0,0.09963287134352972
1409.0,0.09941441335003853
1408.0,0.09919606518963042
1407.0,0.09903237608087578
1406.0,0.09886874864462802
1405.0,0.09865067458435761
1404.0,0.09843270997155007
1403.0,0.09826930827078129
1402.0,0.09821485469640057
1401.0,0.09805153492691598
1400.0,0.0978882765519955
1399.0,0.09767069414168117
1398.0,0.09750757884139638
1397.0,0.09734452478207412
1396.0,0.09712721455392082
1395.0,0.09691001300805646
1394.0,0.09680145295702158
1393.0,0.09663866374468144
1392.0,0.09663866374468144
1391.0,0.09669292003582619
1390.0,0.09680145295702158
1389.0,0.09680145295702158
1388.0,0.09674718310604158
1387.0,0.09680145295702158
1386.0,0.09696430321150284
1385.0,0.09701860020249709
1384.0,0.09718153191774648
1383.0,0.0975619438013351
1382.0,0.09832376867362447
1381.0,0.09941441335003853
1380.0,0.10067205012234592
1379.0,0.10193333935836524
1378.0,0.10292299679057959
1377.0,0.10341867249426717
1376.0,0.10358402352687701
1375.0,0.10352889952072264
1374.0,0.10347378251044459
1373.0,0.10341867249426717
1372.0,0.1033635694704158
1371.0,0.10347378251044459
1370.0,0.10363915453068362
1369.0,0.10391491457671487
1368.0,0.10408045468998406
1367.0,0.10408045468998406
1366.0,0.10402526764093545
1365.0,0.10385974855798041
1364.0,0.10358402352687701
1363.0,0.10330847343711591
1362.0,0.10308815917397474
1361.0,0.10292299679057959
1360.0,0.10264786565568684
1359.0,0.10248287059947447
1358.0,0.10242788617426934
1357.0,0.10242788617426934
1356.0,0.10248287059947447
1355.0,0.10253786198693682
1354.0,0.10259286033841963
1353.0,0.10270287794050348
1352.0,0.10281292341984649
1351.0,0.10292299679057959
1350.0,0.10303309806684524
1349.0,0.10303309806684524
1348.0,0.10297804393963661
1347.0,0.1028679566179056
1346.0,0.10281292341984649
1345.0,0.10275789719463457
1344.0,0.10275789719463457
1343.0,0.10270287794050348
1342.0,0.10259286033841963
1341.0,0.10237290870955862
1340.0,0.1022080180607754
1339.0,0.10204318999304807
1338.0,0.10198826120249849
1337.0,0.10187842445889239
1336.0,0.10171372141087698
1335.0,0.10154908080162528
1334.0,0.10138450258381404
1333.0,0.1012199867101744
1332.0,0.10105553313349058
1331.0,0.10094593200182911
1330.0,0.10089114180660053
1329.0,0.10089114180660053
1328.0,0.10089114180660053
1327.0,0.10094593200182911
1326.0,0.10094593200182911
1325.0,0.10094593200182911
1324.0,0.10094593200182911
1323.0,0.10100072911021085
1322.0,0.10105553313349058
1321.0,0.10116516193172598
1320.0,0.10132965703447017
1319.0,0.10149421446564144
1318.0,0.10165883427249067
1317.0,0.10182351650232357
1316.0,0.10198826120249849
1315.0,0.1022080180607754
1314.0,0.10242788617426934
1313.0,0.10264786565568684
1312.0,0.10292299679057959
1311.0,0.10314322726279568
1310.0,0.1033635694704158
1309.0,0.10352889952072264
1308.0,0.10358402352687701
1307.0,0.10374943753836186
1306.0,0.10385974855798041
1305.0,0.10402526764093545
1304.0,0.10413564875270076
1303.0,0.10430127304069425
1302.0,0.10446696051592963
1301.0,0.10452220372428545
1300.0,0.10457745396059215
1299.0,0.10468797552421272
1298.0,0.10485381062400778
1297.0,0.10501970907203151
1296.0,0.10518567091669917
1295.0,0.1052410056281079
1294.0,0.1052410056281079
1293.0,0.10518567091669917
1292.0,0.10513034325474746
1291.0,0.10507502264045665
1290.0,0.10507502264045665
1289.0,0.10507502264045665
1288.0,0.10507502264045665
1287.0,0.10513034325474746
1286.0,0.10518567091669917
1285.0,0.1052410056281079
1284.0,0.10529634739076998
1283.0,0.10535169620648288
1282.0,0.10540705207704448
1281.0,0.10540705207704448
1280.0,0.10540705207704448
1279.0,0.10540705207704448
1278.0,0.10540705207704448
1277.0,0.10551778498990938
1276.0,0.10557316203581202
1275.0,0.10562854614376227
1274.0,0.10562854614376227
1273.0,0.10568393731556158
1272.0,0.10579474085791629
1271.0,0.10585015323207791
1270.0,0.10596099919539115
1269.0,0.10612732120491852
1268.0,0.1062937069352865
1267.0,0.10640466618011679
1266.0,0.10651565378151395
1265.0,0.10657115822045493
1264.0,0.10657115822045493
1263.0,0.10651565378151395
1262.0,0.10651565378151395
1261.0,0.10646015643533868
1260.0,0.10646015643533868
1259.0,0.10646015643533868
1258.0,0.10651565378151395
1257.0,0.10651565378151395
1256.0,0.10651565378151395
1255.0,0.10662666975397506
1254.0,0.10673771411200872
1253.0,0.10679324694015202
1252.0,0.10679324694015202
1251.0,0.10668218838388821
1250.0,0.10668218838388821
1249.0,0.10673771411200872
1248.0,0.10684878687013422
1247.0,0.10701544928928342
1246.0,0.1071265931112344
1245.0,0.1071265931112344
1244.0,0.10707101764479421
1243.0,0.10701544928928342
1242.0,0.10695988804288215
1241.0,0.10707101764479421
1240.0,0.10723776538418317
1239.0,0.10740457717110186
1238.0,0.10757145305477
1237.0,0.10762709260156367
1236.0,0.10768273927751948
1235.0,0.10768273927751948
1234.0,0.10762709260156367
1233.0,0.10757145305477
1232.0,0.1075158206353124
1231.0,0.10757145305477
1230.0,0.10773839308446487
1229.0,0.10784972209863586
1228.0,0.10784972209863586
1227.0,0.10779405402422748
1226.0,0.10773839308446487
1225.0,0.10768273927751948
1224.0,0.10762709260156367
1223.0,0.10768273927751948
1222.0,0.10779405402422748
1221.0,0.10790539730951965
1220.0,0.10801676914803293
1219.0,0.10807246577932506
1218.0,0.10807246577932506
1217.0,0.10807246577932506
1216.0,0.10807246577932506
1215.0,0.10807246577932506
1214.0,0.10812816955441629
1213.0,0.10812816955441629
1212.0,0.1081838804751396
1211.0,0.10823959854332843
1210.0,0.10835105612944096
1209.0,0.10846254232743546
1208.0,0.10857405715200596
1207.0,0.10857405715200596
1206.0,0.10862982530385179
1205.0,0.10874138309586101
1204.0,0.10890877353227624
1203.0,0.10896458468468917
1202.0,0.10896458468468917
1201.0,0.10890877353227624
1200.0,0.10890877353227624
1199.0,0.10896458468468917
1198.0,0.10907622851098608
1197.0,0.10918790104487552
1196.0,0.10929960230112479
1195.0,0.10941133229451272
1194.0,0.10952309103982927
1193.0,0.10957898119908571
1192.0,0.10957898119908571
1191.0,0.10957898119908571
1190.0,0.10963487855187593
1189.0,0.10974669484546551
1188.0,0.10991447328367476
1187.0,0.11008231656379408
1186.0,0.11019424813191447
1185.0,0.11025022473596224
1184.0,0.11030620855581463
1183.0,0.11036219959333216
1182.0,0.11047420332880886
1181.0,0.1106422631110684
1180.0,0.11075433910702048
1179.0,0.11097857790477517
1178.0,0.11114683301706374
1177.0,0.11125903931710734
1176.0,0.11137127461477392
1175.0,0.1114835389250548
1174.0,0.11153968196461372
1173.0,0.11159583226295333
1172.0,0.11159583226295333
1171.0,0.11165198982195101
1170.0,0.11176432672943282
1169.0,0.11187669270209155
1168.0,0.11198908775497118
1167.0,0.1120452961911984
1166.0,0.11215773489264302
1165.0,0.11232644754555254
1164.0,0.11238269966426384
1163.0,0.11243895906999102
1162.0,0.11243895906999102
1161.0,0.1125514997500463
1160.0,0.11266406960083297
1159.0,0.1128329791052256
1158.0,0.1130019543289007
1157.0,0.11305829401658474
1156.0,0.11311464101399138
1155.0,0.11317099532301778
1154.0,0.11322735694556196
1153.0,0.1133401021387972
1152.0,0.11339648571328764
1151.0,0.11350927482751816
1150.0,0.1136220932414278
1149.0,0.11367851344052027
1148.0,0.1137349409702435
1147.0,0.1137349409702435
1146.0,0.11379137583250243
1145.0,0.11390426756225258
1144.0,0.11401718864502697
1143.0,0.11401718864502697
1142.0,0.11401718864502697
1141.0,0.11401718864502697
1140.0,0.1141301390960936
1139.0,0.11429961987167014
1138.0,0.11441264381034388
1137.0,0.11446916681190777
1136.0,0.11441264381034388
1135.0,0.11441264381034388
1134.0,0.11446916681190777
1133.0,0.11446916681190777
1132.0,0.1145256971708426
1131.0,0.1145256971708426
1130.0,0.1145256971708426
1129.0,0.11446916681190777
1128.0,0.11446916681190777
1127.0,0.1145256971708426
1126.0,0.11463877996848804
1125.0,0.11469533241103202
1124.0,0.11469533241103202
1123.0,0.11475189221861393
1122.0,0.114865033936566
1121.0,0.11503480179926728
1120.0,0.11526126223036814
1119.0,0.11537453674376552
1118.0,0.11537453674376552
1117.0,0.11531789579397489
1116.0,0.11537453674376552
1115.0,0.11537453674376552
1114.0,0.11531789579397489
1113.0,0.11520463605101905
1112.0,0.11509140583739286
1111.0,0.11509140583739286
1110.0,0.11520463605101905
1109.0,0.11537453674376552
1108.0,0.11548784080960606
1107.0,0.11554450392951199
1106.0,0.11554450392951199
1105.0,0.11565785235294102
1104.0,0.11582793047608719
1103.0,0.11605480496572018
1102.0,0.11633856484638239
1101.0,0.1165089098110701
1100.0,0.1165657063169907
1099.0,0.1165657063169907
1098.0,0.1165089098110701
1097.0,0.1165089098110701
1096.0,0.1165657063169907
1095.0,0.1165657063169907
1094.0,0.11662251025166115
1093.0,0.11667932161702477
1092.0,0.11679296664760996
1091.0,0.11684980031672243
1090.0,0.11690664142431006
1089.0,0.1169634899723202
1088.0,0.1169634899723202
1087.0,0.11690664142431006
1086.0,0.11684980031672243
1085.0,0.11679296664760996
1084.0,0.11679296664760996
1083.0,0.116736140415026
1082.0,0.11662251025166115
1081.0,0.11645212073195621
1080.0,0.1163953390777075
1079.0,0.1165089098110701
1078.0,0.11667932161702477
1077.0,0.11679296664760996
1076.0,0.11679296664760996
1075.0,0.11679296664760996
1074.0,0.116736140415026
1073.0,0.11667932161702477
1072.0,0.116736140415026
1071.0,0.11679296664760996
1070.0,0.11684980031672243
1069.0,0.11679296664760996
1068.0,0.11667932161702477
1067.0,0.1165089098110701
1066.0,0.11645212073195621
1065.0,0.1165657063169907
1064.0,0.11679296664760996
1063.0,0.11702034596270106
1062.0,0.11713408027837091
1061.0,0.11719095860756013
1060.0,0.11724784438692004
1059.0,0.11730473761840288
1058.0,0.11741854644554883
1057.0,0.1174754620451195
1056.0,0.1174754620451195
1055.0,0.1174754620451195
1054.0,0.1175323851046286
1053.0,0.11770319906234805
1052.0,0.11787408022996826
1051.0,0.11810202642698875
1050.0,0.11833009232793867
1049.0,0.11867241589944855
1048.0,0.1190150095132465
1047.0,0.11930071078129845
1046.0,0.11947222180119477
1045.0,0.11952940719622163
1044.0,0.11958660012208333
1043.0,0.11952940719622163
1042.0,0.11952940719622163
1041.0,0.11964380058076385
1040.0,0.11987267778337518
1039.0,0.1201016756699902
1038.0,0.1203880929341492
1037.0,0.12067469921519258
1036.0,0.12090412049992727
1035.0,0.12113366304327466
1034.0,0.1213058996038916
1033.0,0.12153565465853111
1032.0,0.12170805075020397
1031.0,0.12188051530283239
1030.0,0.12193801870998744
1029.0,0.12188051530283239
1028.0,0.12188051530283239
1027.0,0.12205304837081177
1026.0,0.12228319913502328
1025.0,0.12251347193039863
1024.0,0.12268625668776156
1023.0,0.12274386688641381
1022.0,0.12280148472821018
1021.0,0.12285911021517903
1020.0,0.12297438413275108
1019.0,0.12308968865537295
1018.0,0.12320502379929943
1017.0,0.12326270285933538
1016.0,0.1233203895807995
1015.0,0.1233203895807995
1014.0,0.12326270285933538
1013.0,0.12320502379929943
1012.0,0.12314735239865637
1011.0,0.12314735239865637
1010.0,0.12314735239865637
1009.0,0.12314735239865637
1008.0,0.12314735239865637
1007.0,0.12320502379929943
1006.0,0.12320502379929943
1005.0,0.12320502379929943
1004.0,0.12308968865537295
1003.0,0.12297438413275108
1002.0,0.12291674334934943
1001.0,0.12291674334934943
1000.0,0.12303203256741524
999.0,0.12303203256741524
998.0,0.12297438413275108
997.0,0.12291674334934943
996.0,0.12297438413275108
995.0,0.12303203256741524
994.0,0.12303203256741524
993.0,0.12285911021517903
992.0,0.12262865413022594
991.0,0.12251347193039863
990.0,0.12257105921178035
989.0,0.12274386688641381
988.0,0.12291674334934943
987.0,0.12303203256741524
986.0,0.12314735239865637
985.0,0.12320502379929943
984.0,0.12326270285933538
983.0,0.1233203895807995
982.0,0.12337808396572703
981.0,0.12337808396572703
980.0,0.12337808396572703
979.0,0.1233203895807995
978.0,0.12337808396572703
977.0,0.12343578601615435
976.0,0.12355121312165873
975.0,0.12360893818081231
974.0,0.1236666709136196
973.0,0.1236666709136196
972.0,0.12360893818081231
971.0,0.12355121312165873
970.0,0.12355121312165873
969.0,0.12349349573411894
968.0,0.12355121312165873
967.0,0.1236666709136196
966.0,0.12389767862220635
965.0,0.12401322857151209
964.0,0.12401322857151209
963.0,0.12401322857151209
962.0,0.12401322857151209
961.0,0.12418661116024232
960.0,0.12436006299583169
959.0,0.1244757360506914
958.0,0.12441789567211425
957.0,0.12436006299583169
956.0,0.12430223801979201
955.0,0.12441789567211425
954.0,0.12453358413361437
953.0,0.12470717462899183
952.0,0.1248808345374317
951.0,0.125054563914468
950.0,0.12517042212027807
949.0,0.12517042212027807
948.0,0.125054563914468
947.0,0.1249387366082999
946.0,0.12482294018529605
945.0,0.1248808345374317
944.0,0.124996646399959
943.0,0.12517042212027807
942.0,0.12546020292898974
941.0,0.12569216687196105
940.0,0.12586622117202761
939.0,0.12586622117202761
938.0,0.1258081953209289
937.0,0.1258081953209289
936.0,0.12586622117202761
935.0,0.12592425477696523
934.0,0.12598229613781387
933.0,0.12604034525664676
932.0,0.1260984021355387
931.0,0.126156466776564
930.0,0.12627261935332057
929.0,0.12638880300353272
928.0,0.12656313677796316
927.0,0.1267375405612734
926.0,0.12679569072295926
925.0,0.12679569072295926
924.0,0.12667939818460128
923.0,0.12656313677796316
922.0,0.126621263590859
921.0,0.12679569072295926
920.0,0.12702836926155658
919.0,0.1270865583796048
918.0,0.1270865583796048
917.0,0.12714475529518965
916.0,0.12731939284807026
915.0,0.1276688787697493
914.0,0.1280769681176266
913.0,0.12836869546244634
912.0,0.1284854412916181
911.0,0.12842706445412122
910.0,0.12842706445412122
909.0,0.1284854412916181
908.0,0.12854382597704617
907.0,0.12854382597704617
906.0,0.12854382597704617
905.0,0.1286022185125162
904.0,0.12866061890013913
903.0,0.12877744324029283
902.0,0.12883586719705065
901.0,0.12895273869450063
900.0,0.1290696416513042
899.0,0.12912810493225724
898.0,0.12918657608440243
897.0,0.12924505510985984
896.0,0.12936203678919433
895.0,0.1294790499872358
894.0,0.12953756841108
893.0,0.12971317100740865
892.0,0.12988884463559924
891.0,0.13006458935314003
890.0,0.13012318673323353
889.0,0.13006458935314003
888.0,0.13006458935314003
887.0,0.13024040521758962
886.0,0.1305922506177981
885.0,0.1311205537629121
884.0,0.13170831198214428
883.0,0.13200248965504868
882.0,0.1318847946727828
881.0,0.13153190097901324
880.0,0.1311792938024825
879.0,0.13106182166708868
878.0,0.1311205537629121
877.0,0.1312967977214634
876.0,0.1314731132317961
875.0,0.13159069668503998
874.0,0.13159069668503998
873.0,0.13153190097901324
872.0,0.13153190097901324
871.0,0.1316495003520317
870.0,0.13176713157753506
869.0,0.1318847946727828
868.0,0.13200248965504868
867.0,0.1320613491092153
866.0,0.13200248965504868
865.0,0.1318847946727828
864.0,0.1318847946727828
863.0,0.1320613491092153
862.0,0.13235576609690147
861.0,0.13265038281120756
860.0,0.13270933014511588
859.0,0.13259144347720886
858.0,0.13259144347720886
857.0,0.13276828548110586
856.0,0.1331221856625011
855.0,0.13335827943396006
854.0,0.13341732293645103
853.0,0.13318119707395182
852.0,0.13288622016802298
851.0,0.13259144347720886
850.0,0.13247358880025661
849.0,0.13247358880025661
848.0,0.13270933014511588
847.0,0.13294519952329842
846.0,0.13324021650489182
845.0,0.13359450162194508
844.0,0.13383085236622927
843.0,0.13394907599072514
842.0,0.13383085236622927
841.0,0.13365357725039817
840.0,0.13347637446715632
839.0,0.13335827943396006
838.0,0.13329924395750092
837.0,0.13329924395750092
836.0,0.13341732293645103
835.0,0.13359450162194508
834.0,0.13365357725039817
833.0,0.13359450162194508
832.0,0.13353543402825974
831.0,0.13353543402825974
830.0,0.13371266091580503
829.0,0.13406733180681396
828.0,0.13448148092522594
827.0,0.13471831500438958
826.0,0.13471831500438958
825.0,0.134659094375416
824.0,0.13483678049391368
823.0,0.1350738084609946
822.0,0.1352516643703412
821.0,0.13537027545448765
820.0,0.13542959314656988
819.0,0.13554825284181704
818.0,0.13572630319562085
817.0,0.13584504399797437
816.0,0.13590442657575252
815.0,0.1360826230421397
814.0,0.13620146131949973
813.0,0.13626089265478303
812.0,0.13626089265478303
811.0,0.136142038116027
810.0,0.13620146131949973
809.0,0.1363797797296844
808.0,0.13661765155921235
807.0,0.13673663634951905
806.0,0.13661765155921235
805.0,0.13632033212410222
804.0,0.13596381727422502
803.0,0.13572630319562085
802.0,0.13572630319562085
801.0,0.13590442657575252
800.0,0.13620146131949973
799.0,0.13661765155921235
798.0,0.13697470377052956
797.0,0.1373320497714121
796.0,0.13768969004572962
795.0,0.13792828062000573
794.0,0.13798794874978348
793.0,0.13798794874978348
792.0,0.1380476250785483
791.0,0.1381073096085541
790.0,0.13816700234205515
789.0,0.13822670328130693
788.0,0.13828641242856565
787.0,0.1384058553561347
786.0,0.13846558914096208
785.0,0.13858508136400327
784.0,0.1388241644869712
783.0,0.13912320359670227
782.0,0.13948232253825377
781.0,0.13990167030148193
780.0,0.14026143380285316
779.0,0.1405014418122239
778.0,0.1405014418122239
777.0,0.1404414273739465
776.0,0.14038142122781938
775.0,0.1404414273739465
774.0,0.14062149557439896
773.0,0.14086170270546927
772.0,0.14110204276799654
771.0,0.14122226269455074
770.0,0.14122226269455074
769.0,0.14122226269455074
768.0,0.1413425159091921
767.0,0.14140265500530758
766.0,0.1414628024303608
765.0,0.1414628024303608
764.0,0.1415831222765116
763.0,0.14176366457048695
762.0,0.14182386201765573
761.0,0.14164329470222659
760.0,0.14122226269455074
759.0,0.1408016384661226
758.0,0.1404414273739465
757.0,0.14026143380285316
756.0,0.14032142337155173
755.0,0.14062149557439896
754.0,0.14110204276799654
753.0,0.1415229581866595
752.0,0.14170347546611461
751.0,0.1413425159091921
750.0,0.1407415825326932
749.0,0.14032142337155173
748.0,0.14026143380285316
747.0,0.1405014418122239
746.0,0.14056146454494378
745.0,0.1405014418122239
744.0,0.14032142337155173
743.0,0.1399616101928065
742.0,0.13930272594796111
741.0,0.13846558914096208
740.0,0.13780896894840278
739.0,0.13751083309410284
738.0,0.13727247168202528
737.0,0.1369151746796402
736.0,0.13632033212410222
735.0,0.1360826230421397
734.0,0.13786862068696282
733.0,0.14345235514325205
732.0,0.15372475758778692
731.0,0.16704424939540163
730.0,0.17920761891179637
729.0,0.18608557995139652
728.0,0.1866191932661443
727.0,0.18309616062433975
726.0,0.17887967622317635
725.0,0.17619984625012197
724.0,0.17593928258134706
723.0,0.17920761891179637
722.0,0.18782222584124608
721.0,0.2028710122034474
720.0,0.22170400891116615
719.0,0.23754651763645307
718.0,0.24458253718906375
717.0,0.2423003749122612
716.0,0.23425695857895557
715.0,0.2243167509739561
714.0,0.21467016498923286
713.0,0.20641913263184408
712.0,0.19969542244380145
711.0,0.19456711186786002
710.0,0.19077707831057822
709.0,0.18782222584124608
708.0,0.18541948398968144
707.0,0.18349356295364294
706.0,0.18190613085336405
705.0,0.18052187163787736
704.0,0.17933886535640453
703.0,0.17815907279954568
702.0,0.1769172034671962
701.0,0.17580905934741686
700.0,0.1748985884019969
699.0,0.1739900222088997
698.0,0.17295398299526576
697.0,0.17166239994099564
696.0,0.17037464664195068
695.0,0.1693471862025755
694.0,0.16883436609055757
693.0,0.16870625562299035
692.0,0.16877030613293664
691.0,0.16857818293497795
690.0,0.16800232276410365
689.0,0.1673633724032968
688.0,0.16685288808721488
687.0,0.16640670600154372
686.0,0.16583371605737995
685.0,0.16545214231905137
684.0,0.16532502553725603
683.0,0.16557929631846746
682.0,0.16596098184053343
681.0,0.16640670600154372
680.0,0.16698045292346864
679.0,0.16729952903943257
678.0,0.16698045292346864
677.0,0.16634300310712757
676.0,0.16583371605737995
675.0,0.16545214231905137
674.0,0.16462654752999129
673.0,0.16323295260579473
672.0,0.16196991701467978
671.0,0.16159172150581314
670.0,0.16209605540705763
669.0,0.16253782851400533
668.0,0.16121385505340546
667.0,0.15914144595812063
666.0,0.15864052954514496
665.0,0.15926676538819318
664.0,0.1603334431175667
663.0,0.16121385505340546
662.0,0.16152872092807113
661.0,0.16133977401105848
660.0,0.16083631708534996
659.0,0.1605219526258017
658.0,0.1605219526258017
657.0,0.16096212661169407
656.0,0.16159172150581314
655.0,0.1619068615544017
654.0,0.16146572948813143
653.0,0.16039627052916305
652.0,0.15939212099070987
651.0,0.15895353459069628
650.0,0.15920410115290617
649.0,0.15976840504189105
648.0,0.16039627052916305
647.0,0.1607105439938532
646.0,0.1605219526258017
645.0,0.160145015398115
644.0,0.1600194423216572
643.0,0.16039627052916305
642.0,0.16083631708534996
641.0,0.16127680996862814
640.0,0.16209605540705763
639.0,0.1637391971415132
638.0,0.1660882849286216
637.0,0.1686422145579325
636.0,0.17101804599207693
635.0,0.1724368887452763
634.0,0.1721140172101443
633.0,0.17018181256112253
632.0,0.16768273007773837
631.0,0.16602462872009371
630.0,0.16519794595130088
629.0,0.1644362483309032
628.0,0.16329620091026875
627.0,0.16178077809237412
626.0,0.16058480731610647
625.0,0.16039627052916305
624.0,0.1614027471833437
623.0,0.16298005145909156
622.0,0.16386585053462532
621.0,0.1637391971415132
620.0,0.16310648362356628
619.0,0.16272729749769965
618.0,0.16291684917681404
617.0,0.16329620091026875
616.0,0.16348600110932865
615.0,0.163359458427226
614.0,0.16304326294044946
613.0,0.16272729749769965
612.0,0.16291684917681404
611.0,0.16342272515935097
610.0,0.16367588429324842
609.0,0.16272729749769965
608.0,0.16058480731610647
607.0,0.15832774992636556
606.0,0.157390760389438
605.0,0.15832774992636556
604.0,0.16058480731610647
603.0,0.16310648362356628
602.0,0.16519794595130088
601.0,0.16691666582165698
600.0,0.16845014800424418
