cm-1,A
4000.0,-0.7331
3999.0,-0.5182
3998.0,-0.0662
3997.0,8.0
3996.0,8.0
3995.0,-0.1334
3994.0,0.2082
3993.0,0.3162
3992.0,0.7845
3991.0,8.0
3990.0,-0.3376
3989.0,-0.2845
3988.0,-0.3357
3987.0,-0.4483
3986.0,-0.6301
3985.0,-0.8591
3984.0,-0.9478
3983.0,-0.5438
3982.0,0.5242
3981.0,8.0
3980.0,8.0
3979.0,0.069
3978.0,-0.7786
3977.0,8.0
3976.0,-1.6766
3975.0,-0.2994
3974.0,0.2823
3973.0,0.6879
3972.0,0.5134
3971.0,0.3673
3970.0,0.272
3969.0,0.2693
3968.0,0.3412
3967.0,0.4542
3966.0,0.4131
3965.0,0.2039
3964.0,0.1036
3963.0,0.1414
3962.0,0.2713
3961.0,0.5573
3960.0,8.0
3959.0,8.0
3958.0,8.0
3957.0,-0.9514
3956.0,-0.6229
3955.0,-0.2196
3954.0,-0.1865
3953.0,-0.1491
3952.0,-0.1053
3951.0,0.0888
3950.0,8.0
3949.0,8.0
3948.0,8.0
3947.0,8.0
3946.0,8.0
3945.0,8.0
3944.0,0.4719
3943.0,0.3725
3942.0,0.5466
3941.0,8.0
3940.0,-0.3464
3939.0,-0.4021
3938.0,8.0
3937.0,8.0
3936.0,0.3854
3935.0,0.2271
3934.0,8.0
3933.0,8.0
3932.0,8.0
3931.0,-0.956
3930.0,0.2977
3929.0,8.0
3928.0,8.0
3927.0,8.0
3926.0,1.4498
3925.0,0.0994
3924.0,8.0
3923.0,8.0
3922.0,8.0
3921.0,-1.3205
3920.0,-0.7931
3919.0,-0.6327
3918.0,-0.6819
3917.0,-0.9154
3916.0,-1.2377
3915.0,8.0
3914.0,8.0
3913.0,8.0
3912.0,8.0
3911.0,8.0
3910.0,-0.4777
3909.0,8.0
3908.0,8.0
3907.0,8.0
3906.0,0.1278
3905.0,8.0
3904.0,-0.0719
3903.0,0.7898
3902.0,8.0
3901.0,8.0
3900.0,8.0
3899.0,0.1996
3898.0,-0.0888
3897.0,-0.6733
3896.0,-1.6085
3895.0,8.0
3894.0,-1.0765
3893.0,-0.3254
3892.0,0.4806
3891.0,0.5189
3890.0,8.0
3889.0,0.4593
3888.0,0.3085
3887.0,-0.0964
3886.0,-0.237
3885.0,-0.4789
3884.0,-0.635
3883.0,8.0
3882.0,8.0
3881.0,8.0
3880.0,8.0
3879.0,8.0
3878.0,8.0
3877.0,8.0
3876.0,-1.4597
3875.0,-0.696
3874.0,-0.591
3873.0,-0.9642
3872.0,8.0
3871.0,8.0
3870.0,8.0
3869.0,8.0
3868.0,-0.36
3867.0,-0.116
3866.0,0.0559
3865.0,0.1163
3864.0,0.5516
3863.0,1.399
3862.0,1.3895
3861.0,0.513
3860.0,0.1996
3859.0,0.0895
3858.0,0.1508
3857.0,0.3462
3856.0,0.7868
3855.0,8.0
3854.0,8.0
3853.0,8.0
3852.0,8.0
3851.0,8.0
3850.0,8.0
3849.0,8.0
3848.0,8.0
3847.0,0.1819
3846.0,-0.3597
3845.0,-0.9304
3844.0,8.0
3843.0,8.0
3842.0,8.0
3841.0,-0.2343
3840.0,0.9604
3839.0,8.0
3838.0,8.0
3837.0,8.0
3836.0,8.0
3835.0,8.0
3834.0,8.0
3833.0,0.929
3832.0,-0.1816
3831.0,-0.3719
3830.0,-0.4492
3829.0,-0.3564
3828.0,-0.3798
3827.0,-0.1739
3826.0,-0.5148
3825.0,-0.94
3824.0,8.0
3823.0,-1.1446
3822.0,-0.4831
3821.0,0.3749
3820.0,0.2657
3819.0,8.0
3818.0,8.0
3817.0,8.0
3816.0,-0.3336
3815.0,-1.2638
3814.0,-1.6724
3813.0,-1.4177
3812.0,-1.0046
3811.0,-0.6247
3810.0,-0.2266
3809.0,-0.0501
3808.0,0.1437
3807.0,0.0759
3806.0,0.5339
3805.0,0.2348
3804.0,8.0
3803.0,0.0738
3802.0,8.0
3801.0,-0.4806
3800.0,-0.3743
3799.0,8.0
3798.0,8.0
3797.0,-0.2073
3796.0,8.0
3795.0,-0.3865
3794.0,0.288
3793.0,8.0
3792.0,8.0
3791.0,-0.0758
3790.0,0.6515
3789.0,0.3105
3788.0,8.0
3787.0,8.0
3786.0,8.0
3785.0,8.0
3784.0,8.0
3783.0,8.0
3782.0,-0.0587
3781.0,-0.2308
3780.0,-0.3161
3779.0,0.0017
3778.0,-0.1757
3777.0,8.0
3776.0,-0.3931
3775.0,-0.2088
3774.0,-1.323
3773.0,-1.9579
3772.0,-1.02
3771.0,0.4463
3770.0,-0.4626
3769.0,0.1315
3768.0,-0.3949
3767.0,-0.0373
3766.0,-0.1836
3765.0,0.0653
3764.0,-0.0136
3763.0,-0.0559
3762.0,-0.1942
3761.0,-0.3483
3760.0,-0.4944
3759.0,-0.6738
3758.0,-0.8078
3757.0,-0.6099
3756.0,-0.2744
3755.0,-0.0956
3754.0,0.0327
3753.0,0.1982
3752.0,0.7152
3751.0,8.0
3750.0,8.0
3749.0,8.0
3748.0,8.0
3747.0,2.1395
3746.0,0.6894
3745.0,0.2737
3744.0,-0.0112
3743.0,-0.2295
3742.0,-0.3788
3741.0,-0.5532
3740.0,-0.6316
3739.0,-0.6285
3738.0,-0.3386
3737.0,-0.4357
3736.0,-0.005
3735.0,-0.69
3734.0,-1.1554
3733.0,8.0
3732.0,8.0
3731.0,8.0
3730.0,8.0
3729.0,-0.0526
3728.0,8.0
3727.0,0.2166
3726.0,1.1365
3725.0,-0.3813
3724.0,-0.3089
3723.0,-0.0169
3722.0,0.5101
3721.0,0.7256
3720.0,0.2491
3719.0,0.2654
3718.0,-0.1392
3717.0,-0.5605
3716.0,8.0
3715.0,8.0
3714.0,8.0
3713.0,-0.3979
3712.0,-0.4109
3711.0,-0.6528
3710.0,-1.1053
3709.0,8.0
3708.0,8.0
3707.0,-0.8301
3706.0,-0.5511
3705.0,-0.194
3704.0,-0.3772
3703.0,8.0
3702.0,8.0
3701.0,8.0
3700.0,8.0
3699.0,-0.4491
3698.0,-0.1963
3697.0,0.2674
3696.0,0.2213
3695.0,1.4213
3694.0,0.8579
3693.0,0.768
3692.0,0.023
3691.0,-0.3154
3690.0,-0.4768
3689.0,-0.4337
3688.0,-0.2982
3687.0,-0.1737
3686.0,-0.0479
3685.0,0.1503
3684.0,0.2693
3683.0,-0.0414
3682.0,-0.3705
3681.0,-0.6849
3680.0,-1.0073
3679.0,-1.0826
3678.0,-0.8096
3677.0,-0.6242
3676.0,-0.5666
3675.0,-0.743
3674.0,-1.214
3673.0,-1.1128
3672.0,-0.3294
3671.0,-0.0617
3670.0,0.0297
3669.0,8.0
3668.0,8.0
3667.0,8.0
3666.0,1.2447
3665.0,0.1655
3664.0,-0.0267
3663.0,0.0382
3662.0,0.3697
3661.0,8.0
3660.0,8.0
3659.0,8.0
3658.0,0.7962
3657.0,1.5087
3656.0,-0.0416
3655.0,0.3602
3654.0,-0.4165
3653.0,-0.9763
3652.0,8.0
3651.0,8.0
3650.0,8.0
3649.0,8.0
3648.0,8.0
3647.0,8.0
3646.0,-0.9182
3645.0,8.0
3644.0,-1.054
3643.0,8.0
3642.0,-1.1859
3641.0,-2.2946
3640.0,-1.2859
3639.0,8.0
3638.0,-1.003
3637.0,8.0
3636.0,-0.7926
3635.0,8.0
3634.0,-0.6245
3633.0,-0.6544
3632.0,8.0
3631.0,-0.0481
3630.0,-0.4917
3629.0,1.6211
3628.0,-0.3227
3627.0,0.1411
3626.0,-0.222
3625.0,0.2596
3624.0,0.6049
3623.0,8.0
3622.0,8.0
3621.0,8.0
3620.0,0.3169
3619.0,8.0
3618.0,-0.3556
3617.0,8.0
3616.0,-0.6169
3615.0,0.7508
3614.0,-1.0762
3613.0,-1.6648
3612.0,8.0
3611.0,8.0
3610.0,-0.1503
3609.0,8.0
3608.0,-0.2559
3607.0,8.0
3606.0,-0.1081
3605.0,0.332
3604.0,-0.2249
3603.0,-0.4995
3602.0,-0.5631
3601.0,-0.3422
3600.0,-0.0167
3599.0,0.4559
3598.0,8.0
3597.0,8.0
3596.0,8.0
3595.0,8.0
3594.0,8.0
3593.0,8.0
3592.0,8.0
3591.0,-0.3208
3590.0,-0.8777
3589.0,-0.8689
3588.0,-0.6745
3587.0,-0.5807
3586.0,-0.5438
3585.0,-0.6404
3584.0,-0.7216
3583.0,-0.6362
3582.0,-0.5085
3581.0,-0.4985
3580.0,-0.5736
3579.0,-0.7534
3578.0,-0.8831
3577.0,-0.8126
3576.0,-0.6117
3575.0,-0.2947
3574.0,0.1815
3573.0,8.0
3572.0,0.2558
3571.0,8.0
3570.0,-0.2679
3569.0,8.0
3568.0,-0.45
3567.0,8.0
3566.0,-0.3426
3565.0,-1.6865
3564.0,-1.0255
3563.0,-0.0166
3562.0,-0.0806
3561.0,8.0
3560.0,-0.3504
3559.0,8.0
3558.0,0.4066
3557.0,-0.1099
3556.0,-0.2174
3555.0,0.0232
3554.0,-0.1709
3553.0,-0.1911
3552.0,-0.3545
3551.0,-0.3969
3550.0,-0.374
3549.0,-0.3124
3548.0,-0.2703
3547.0,-0.1891
3546.0,-0.0539
3545.0,0.0913
3544.0,0.154
3543.0,0.1604
3542.0,0.1663
3541.0,0.3607
3540.0,8.0
3539.0,8.0
3538.0,8.0
3537.0,8.0
3536.0,8.0
3535.0,8.0
3534.0,1.537
3533.0,0.7812
3532.0,0.4344
3531.0,0.2455
3530.0,0.1457
3529.0,0.1491
3528.0,0.0936
3527.0,0.2788
3526.0,0.0031
3525.0,-0.074
3524.0,-0.7892
3523.0,-0.9331
3522.0,-0.8462
3521.0,-0.2755
3520.0,-0.6561
3519.0,-0.1246
3518.0,8.0
3517.0,8.0
3516.0,0.1695
3515.0,8.0
3514.0,8.0
3513.0,8.0
3512.0,8.0
3511.0,8.0
3510.0,8.0
3509.0,8.0
3508.0,8.0
3507.0,0.3137
3506.0,8.0
3505.0,-0.0142
3504.0,1.3672
3503.0,-0.3071
3502.0,-0.3071
3501.0,8.0
3500.0,8.0
3499.0,-0.5684
3498.0,-0.0439
3497.0,0.2761
3496.0,-0.0264
3495.0,1.2022
3494.0,-0.7008
3493.0,8.0
3492.0,8.0
3491.0,-1.3262
3490.0,-0.5302
3489.0,0.7988
3488.0,-0.1168
3487.0,-0.0086
3486.0,8.0
3485.0,0.2889
3484.0,-1.0259
3483.0,-0.8734
3482.0,-1.1644
3481.0,-0.4004
3480.0,8.0
3479.0,-0.3803
3478.0,8.0
3477.0,-0.1494
3476.0,0.4199
3475.0,-0.2422
3474.0,-0.5426
3473.0,-0.8622
3472.0,-0.8232
3471.0,-0.6524
3470.0,-0.4605
3469.0,-0.3191
3468.0,8.0
3467.0,0.4185
3466.0,8.0
3465.0,-0.3123
3464.0,0.0019
3463.0,8.0
3462.0,8.0
3461.0,8.0
3460.0,-1.438
3459.0,-0.8481
3458.0,8.0
3457.0,-0.6441
3456.0,8.0
3455.0,-0.405
3454.0,1.2824
3453.0,-0.0917
3452.0,0.6536
3451.0,0.3706
3450.0,0.5851
3449.0,0.5554
3448.0,0.8433
3447.0,0.1633
3446.0,8.0
3445.0,0.3098
3444.0,8.0
3443.0,-0.068
3442.0,8.0
3441.0,8.0
3440.0,-0.6137
3439.0,-0.6552
3438.0,8.0
3437.0,-0.505
3436.0,8.0
3435.0,-0.6337
3434.0,8.0
3433.0,-0.9541
3432.0,-1.6013
3431.0,8.0
3430.0,8.0
3429.0,-0.4855
3428.0,8.0
3427.0,-0.3065
3426.0,8.0
3425.0,0.0255
3424.0,8.0
3423.0,0.244
3422.0,0.4973
3421.0,0.3525
3420.0,0.1662
3419.0,0.4462
3418.0,-0.3842
3417.0,8.0
3416.0,-0.6014
3415.0,8.0
3414.0,-0.8559
3413.0,8.0
3412.0,-1.1773
3411.0,-1.2551
3410.0,8.0
3409.0,-1.511
3408.0,-1.0247
3407.0,8.0
3406.0,-0.8237
3405.0,8.0
3404.0,-0.6514
3403.0,8.0
3402.0,-0.7025
3401.0,8.0
3400.0,8.0
3399.0,8.0
3398.0,-0.3803
3397.0,8.0
3396.0,-0.2772
3395.0,8.0
3394.0,-0.3298
3393.0,-0.3643
3392.0,-0.6607
3391.0,-0.5956
3390.0,-0.6039
3389.0,-0.6372
3388.0,-0.7237
3387.0,-0.7143
3386.0,-0.6522
3385.0,-0.6907
3384.0,-0.8241
3383.0,-0.8662
3382.0,-0.6542
3381.0,-0.341
3380.0,-0.1395
3379.0,-0.2426
3378.0,-0.6933
3377.0,-0.7297
3376.0,-0.3378
3375.0,-0.0674
3374.0,8.0
3373.0,0.2919
3372.0,8.0
3371.0,0.0641
3370.0,8.0
3369.0,-0.3028
3368.0,-0.3435
3367.0,8.0
3366.0,8.0
3365.0,8.0
3364.0,8.0
3363.0,8.0
3362.0,8.0
3361.0,-1.0697
3360.0,8.0
3359.0,8.0
3358.0,-0.8252
3357.0,8.0
3356.0,8.0
3355.0,8.0
3354.0,8.0
3353.0,8.0
3352.0,0.0661
3351.0,-0.1223
3350.0,-0.0479
3349.0,-0.0586
3348.0,-0.0031
3347.0,0.0235
3346.0,0.0815
3345.0,0.1462
3344.0,0.2172
3343.0,0.2789
3342.0,0.3859
3341.0,0.6852
3340.0,2.6078
3339.0,8.0
3338.0,8.0
3337.0,8.0
3336.0,0.7187
3335.0,0.2271
3334.0,-0.2542
3333.0,-0.6406
3332.0,-0.5769
3331.0,-0.1331
3330.0,0.3218
3329.0,0.3041
3328.0,8.0
3327.0,0.1244
3326.0,8.0
3325.0,-0.0412
3324.0,8.0
3323.0,8.0
3322.0,8.0
3321.0,8.0
3320.0,-0.3737
3319.0,-0.5073
3318.0,8.0
3317.0,-0.3244
3316.0,8.0
3315.0,0.0922
3314.0,8.0
3313.0,8.0
3312.0,8.0
3311.0,0.2398
3310.0,0.0725
3309.0,0.6437
3308.0,-0.0171
3307.0,8.0
3306.0,-0.5006
3305.0,8.0
3304.0,-0.8192
3303.0,8.0
3302.0,-0.8475
3301.0,8.0
3300.0,-0.9926
3299.0,-1.9246
3298.0,-0.9095
3297.0,8.0
3296.0,-0.7533
3295.0,8.0
3294.0,-0.3745
3293.0,8.0
3292.0,-0.3916
3291.0,8.0
3290.0,0.8179
3289.0,0.6507
3288.0,8.0
3287.0,0.5337
3286.0,8.0
3285.0,0.4196
3284.0,8.0
3283.0,0.4729
3282.0,0.4032
3281.0,8.0
3280.0,-0.128
3279.0,0.9325
3278.0,8.0
3277.0,0.6961
3276.0,1.261
3275.0,-0.0064
3274.0,-0.1485
3273.0,-0.3836
3272.0,-0.4207
3271.0,-0.6367
3270.0,-0.8822
3269.0,-0.6929
3268.0,-0.3098
3267.0,-0.3166
3266.0,-0.3417
3265.0,-0.4066
3264.0,-0.0306
3263.0,8.0
3262.0,8.0
3261.0,8.0
3260.0,8.0
3259.0,0.473
3258.0,0.2983
3257.0,0.4496
3256.0,0.9819
3255.0,1.1552
3254.0,8.0
3253.0,0.0317
3252.0,8.0
3251.0,-0.7364
3250.0,8.0
3249.0,-1.3519
3248.0,8.0
3247.0,-1.6729
3246.0,8.0
3245.0,-1.8842
3244.0,8.0
3243.0,-2.0108
3242.0,-2.9497
3241.0,-1.9777
3240.0,8.0
3239.0,-1.8708
3238.0,8.0
3237.0,-1.6548
3236.0,8.0
3235.0,-1.2275
3234.0,8.0
3233.0,-0.574
3232.0,8.0
3231.0,8.0
3230.0,-0.6234
3229.0,-0.3551
3228.0,-0.2481
3227.0,-0.5602
3226.0,-0.8351
3225.0,-1.1021
3224.0,-0.8844
3223.0,-0.4878
3222.0,-0.2178
3221.0,0.581
3220.0,1.102
3219.0,8.0
3218.0,-0.1229
3217.0,8.0
3216.0,8.0
3215.0,-0.1805
3214.0,-0.3814
3213.0,0.0959
3212.0,-0.264
3211.0,0.3123
3210.0,-0.0751
3209.0,0.2065
3208.0,0.0878
3207.0,0.3771
3206.0,0.4991
3205.0,0.4817
3204.0,0.5125
3203.0,0.099
3202.0,0.1576
3201.0,-0.2509
3200.0,-0.375
3199.0,-0.926
3198.0,-1.0496
3197.0,0.0703
3196.0,8.0
3195.0,1.0744
3194.0,8.0
3193.0,0.2936
3192.0,8.0
3191.0,0.0089
3190.0,8.0
3189.0,8.0
3188.0,8.0
3187.0,0.1656
3186.0,-0.9235
3185.0,8.0
3184.0,8.0
3183.0,8.0
3182.0,8.0
3181.0,8.0
3180.0,8.0
3179.0,0.3793
3178.0,0.9052
3177.0,0.4682
3176.0,0.4864
3175.0,0.606
3174.0,0.5706
3173.0,0.3926
3172.0,-0.0989
3171.0,-0.6159
3170.0,-0.7166
3169.0,-0.4367
3168.0,-0.0708
3167.0,8.0
3166.0,8.0
3165.0,8.0
3164.0,8.0
3163.0,0.1049
3162.0,-0.0652
3161.0,-0.1252
3160.0,-0.1125
3159.0,-0.0114
3158.0,0.4681
3157.0,8.0
3156.0,8.0
3155.0,1.1773
3154.0,0.1918
3153.0,0.2771
3152.0,-0.1429
3151.0,8.0
3150.0,-0.4267
3149.0,8.0
3148.0,-0.7322
3147.0,8.0
3146.0,-0.9878
3145.0,8.0
3144.0,8.0
3143.0,-1.7595
3142.0,-1.0551
3141.0,8.0
3140.0,-0.6668
3139.0,8.0
3138.0,0.1632
3137.0,8.0
3136.0,0.3327
3135.0,8.0
3134.0,-0.7267
3133.0,-0.6063
3132.0,8.0
3131.0,8.0
3130.0,8.0
3129.0,8.0
3128.0,8.0
3127.0,0.2597
3126.0,0.1562
3125.0,0.0966
3124.0,0.24
3123.0,0.6044
3122.0,0.9331
3121.0,0.733
3120.0,0.063
3119.0,-0.0394
3118.0,0.0195
3117.0,-0.0472
3116.0,8.0
3115.0,-0.2676
3114.0,8.0
3113.0,-0.3903
3112.0,8.0
3111.0,-0.5789
3110.0,8.0
3109.0,-0.8539
3108.0,-1.9374
3107.0,8.0
3106.0,8.0
3105.0,8.0
3104.0,8.0
3103.0,-2.1561
3102.0,-1.2738
3101.0,8.0
3100.0,-1.0429
3099.0,8.0
3098.0,-0.8336
3097.0,8.0
3096.0,-0.5526
3095.0,0.8914
3094.0,8.0
3093.0,8.0
3092.0,8.0
3091.0,8.0
3090.0,0.6828
3089.0,8.0
3088.0,-0.5905
3087.0,8.0
3086.0,-0.8491
3085.0,8.0
3084.0,-1.2001
3083.0,-1.4671
3082.0,8.0
3081.0,8.0
3080.0,-0.8931
3079.0,8.0
3078.0,-0.6963
3077.0,8.0
3076.0,-0.4292
3075.0,8.0
3074.0,0.4081
3073.0,8.0
3072.0,0.3061
3071.0,-0.0395
3070.0,-0.3307
3069.0,-0.4985
3068.0,-0.4839
3067.0,-0.1872
3066.0,0.2282
3065.0,0.6493
3064.0,8.0
3063.0,8.0
3062.0,8.0
3061.0,8.0
3060.0,8.0
3059.0,8.0
3058.0,8.0
3057.0,8.0
3056.0,8.0
3055.0,8.0
3054.0,8.0
3053.0,8.0
3052.0,8.0
3051.0,8.0
3050.0,-0.0028
3049.0,-0.1921
3048.0,-0.2388
3047.0,0.0278
3046.0,-0.2097
3045.0,8.0
3044.0,-0.332
3043.0,8.0
3042.0,-0.5834
3041.0,8.0
3040.0,-0.9181
3039.0,-1.6857
3038.0,8.0
3037.0,8.0
3036.0,8.0
3035.0,8.0
3034.0,0.0985
3033.0,8.0
3032.0,-0.0308
3031.0,0.6651
3030.0,8.0
3029.0,8.0
3028.0,0.0604
3027.0,8.0
3026.0,-0.0314
3025.0,8.0
3024.0,-0.0154
3023.0,-1.5157
3022.0,-0.9546
3021.0,-0.4589
3020.0,-0.7559
3019.0,-0.3042
3018.0,-0.3903
3017.0,0.828
3016.0,0.5674
3015.0,2.4706
3014.0,8.0
3013.0,2.2312
3012.0,8.0
3011.0,0.1602
3010.0,0.3528
3009.0,8.0
3008.0,-1.1334
3007.0,-0.5682
3006.0,8.0
3005.0,-0.1302
3004.0,8.0
3003.0,8.0
3002.0,8.0
3001.0,8.0
3000.0,8.0
2999.0,0.1126
2998.0,-0.3499
2997.0,-0.6107
2996.0,-0.7136
2995.0,-0.5969
2994.0,-0.1213
2993.0,0.2098
2992.0,-0.0817
2991.0,-0.0577
2990.0,-0.2655
2989.0,-0.058
2988.0,-0.3835
2987.0,-0.6613
2986.0,8.0
2985.0,8.0
2984.0,8.0
2983.0,-0.2712
2982.0,-0.108
2981.0,0.5836
2980.0,0.2139
2979.0,1.0679
2978.0,8.0
2977.0,8.0
2976.0,8.0
2975.0,8.0
2974.0,0.8825
2973.0,8.0
2972.0,8.0
2971.0,8.0
2970.0,8.0
2969.0,8.0
2968.0,8.0
2967.0,-0.6325
2966.0,-0.1134
2965.0,8.0
2964.0,8.0
2963.0,8.0
2962.0,8.0
2961.0,-0.7033
2960.0,-0.3537
2959.0,0.473
2958.0,-0.0613
2957.0,-0.1685
2956.0,-0.513
2955.0,-0.7041
2954.0,-0.8556
2953.0,-0.7968
2952.0,-0.5882
2951.0,-0.3559
2950.0,-0.0639
2949.0,0.5772
2948.0,0.1497
2947.0,-0.0859
2946.0,-0.0021
2945.0,-0.0299
2944.0,1.1236
2943.0,-0.1278
2942.0,8.0
2941.0,-0.4367
2940.0,8.0
2939.0,-0.633
2938.0,8.0
2937.0,-0.9848
2936.0,-2.0296
2935.0,-0.8855
2934.0,8.0
2933.0,-0.5865
2932.0,8.0
2931.0,-0.358
2930.0,8.0
2929.0,-0.1525
2928.0,8.0
2927.0,8.0
2926.0,8.0
2925.0,8.0
2924.0,1.1285
2923.0,-0.0578
2922.0,-0.3348
2921.0,-0.3981
2920.0,-0.2138
2919.0,0.023
2918.0,0.1174
2917.0,-0.086
2916.0,-0.3847
2915.0,-0.3991
2914.0,-0.2539
2913.0,-0.1801
2912.0,-0.1679
2911.0,-0.2317
2910.0,-0.1304
2909.0,8.0
2908.0,8.0
2907.0,8.0
2906.0,8.0
2905.0,0.9475
2904.0,0.5022
2903.0,0.4566
2902.0,0.3042
2901.0,0.4214
2900.0,0.0655
2899.0,0.1918
2898.0,-0.2351
2897.0,-0.1482
2896.0,-0.6175
2895.0,-0.9145
2894.0,8.0
2893.0,8.0
2892.0,8.0
2891.0,8.0
2890.0,8.0
2889.0,8.0
2888.0,8.0
2887.0,8.0
2886.0,8.0
2885.0,8.0
2884.0,8.0
2883.0,8.0
2882.0,8.0
2881.0,-0.8431
2880.0,-0.4086
2879.0,0.0467
2878.0,0.096
2877.0,0.3383
2876.0,0.186
2875.0,0.0069
2874.0,-0.3456
2873.0,8.0
2872.0,8.0
2871.0,8.0
2870.0,8.0
2869.0,-0.8203
2868.0,-0.4811
2867.0,-0.3671
2866.0,-0.4102
2865.0,-0.4011
2864.0,-0.3843
2863.0,-0.2021
2862.0,-0.0888
2861.0,-0.0453
2860.0,-0.0598
2859.0,-0.1368
2858.0,-0.1464
2857.0,-0.2965
2856.0,-0.5111
2855.0,-1.1378
2854.0,-1.3287
2853.0,-0.3744
2852.0,1.8499
2851.0,0.7478
2850.0,8.0
2849.0,1.4782
2848.0,8.0
2847.0,1.1561
2846.0,8.0
2845.0,0.8962
2844.0,0.8993
2843.0,0.3986
2842.0,0.445
2841.0,-0.0072
2840.0,-0.4469
2839.0,8.0
2838.0,8.0
2837.0,8.0
2836.0,8.0
2835.0,8.0
2834.0,8.0
2833.0,-0.7571
2832.0,-0.2846
2831.0,8.0
2830.0,8.0
2829.0,0.7726
2828.0,1.5764
2827.0,8.0
2826.0,8.0
2825.0,2.0429
2824.0,8.0
2823.0,8.0
2822.0,0.9185
2821.0,0.768
2820.0,1.2336
2819.0,1.7331
2818.0,1.2447
2817.0,1.2042
2816.0,0.4178
2815.0,8.0
2814.0,8.0
2813.0,-0.786
2812.0,-0.2309
2811.0,0.2745
2810.0,1.5253
2809.0,8.0
2808.0,8.0
2807.0,0.4614
2806.0,0.1892
2805.0,0.0846
2804.0,-0.0572
2803.0,-0.2154
2802.0,-0.3855
2801.0,-0.5532
2800.0,-0.779
2799.0,-0.9582
2798.0,-0.7759
2797.0,-0.3954
2796.0,-0.0448
2795.0,0.1947
2794.0,0.2956
2793.0,-0.0022
2792.0,-0.1263
2791.0,-0.3815
2790.0,-0.45
2789.0,-0.7371
2788.0,-1.3715
2787.0,8.0
2786.0,8.0
2785.0,0.2878
2784.0,0.3577
2783.0,0.0989
2782.0,0.1383
2781.0,0.1001
2780.0,0.1852
2779.0,0.0992
2778.0,0.1011
2777.0,-0.2319
2776.0,-0.7351
2775.0,8.0
2774.0,8.0
2773.0,8.0
2772.0,8.0
2771.0,8.0
2770.0,-0.2353
2769.0,-0.0288
2768.0,0.2038
2767.0,0.3752
2766.0,0.647
2765.0,-0.2755
2764.0,8.0
2763.0,8.0
2762.0,8.0
2761.0,-0.0682
2760.0,-0.2494
2759.0,8.0
2758.0,0.3469
2757.0,0.2821
2756.0,0.1399
2755.0,0.1093
2754.0,-0.2657
2753.0,-0.6642
2752.0,8.0
2751.0,8.0
2750.0,-1.0881
2749.0,-0.236
2748.0,-0.0012
2747.0,0.0024
2746.0,-0.0205
2745.0,-0.0752
2744.0,-0.081
2743.0,-0.1124
2742.0,-0.0238
2741.0,-0.0616
2740.0,0.1002
2739.0,-0.1866
2738.0,-0.5597
2737.0,8.0
2736.0,-1.6401
2735.0,-0.264
2734.0,1.1156
2733.0,0.7712
2732.0,8.0
2731.0,8.0
2730.0,8.0
2729.0,8.0
2728.0,8.0
2727.0,8.0
2726.0,8.0
2725.0,0.9505
2724.0,0.7151
2723.0,-0.0103
2722.0,-0.6469
2721.0,-0.3463
2720.0,-0.169
2719.0,-0.1211
2718.0,-0.2426
2717.0,-0.5947
2716.0,-0.7995
2715.0,-0.544
2714.0,-0.3424
2713.0,-0.1832
2712.0,-0.2583
2711.0,-1.4481
2710.0,8.0
2709.0,8.0
2708.0,8.0
2707.0,8.0
2706.0,8.0
2705.0,8.0
2704.0,8.0
2703.0,-1.0586
2702.0,-0.5701
2701.0,-0.4705
2700.0,-0.4219
2699.0,-0.292
2698.0,-0.0041
2697.0,0.6241
2696.0,0.5712
2695.0,0.2756
2694.0,0.3336
2693.0,8.0
2692.0,8.0
2691.0,8.0
2690.0,8.0
2689.0,8.0
2688.0,1.4496
2687.0,0.6859
2686.0,0.9364
2685.0,0.868
2684.0,8.0
2683.0,0.2272
2682.0,8.0
2681.0,8.0
2680.0,8.0
2679.0,8.0
2678.0,-0.055
2677.0,0.2083
2676.0,0.2826
2675.0,-0.2571
2674.0,8.0
2673.0,8.0
2672.0,8.0
2671.0,8.0
2670.0,8.0
2669.0,8.0
2668.0,0.7362
2667.0,8.0
2666.0,8.0
2665.0,8.0
2664.0,0.6516
2663.0,0.1846
2662.0,-0.2846
2661.0,8.0
2660.0,-0.1558
2659.0,-1.5472
2658.0,8.0
2657.0,8.0
2656.0,8.0
2655.0,0.9501
2654.0,0.0341
2653.0,-0.9727
2652.0,8.0
2651.0,8.0
2650.0,8.0
2649.0,8.0
2648.0,8.0
2647.0,8.0
2646.0,-1.0866
2645.0,8.0
2644.0,8.0
2643.0,8.0
2642.0,8.0
2641.0,8.0
2640.0,8.0
2639.0,-2.0822
2638.0,-0.6093
2637.0,-0.2831
2636.0,0.0189
2635.0,0.2536
2634.0,0.373
2633.0,0.3512
2632.0,0.3103
2631.0,0.2867
2630.0,0.2517
2629.0,0.2275
2628.0,0.262
2627.0,0.3903
2626.0,0.4799
2625.0,0.2649
2624.0,-0.1792
2623.0,-0.8488
2622.0,8.0
2621.0,8.0
2620.0,8.0
2619.0,8.0
2618.0,-0.5962
2617.0,-0.2711
2616.0,-0.4062
2615.0,-0.8657
2614.0,8.0
2613.0,8.0
2612.0,-1.9956
2611.0,-0.7342
2610.0,-0.4802
2609.0,-0.4823
2608.0,0.436
2607.0,0.3991
2606.0,8.0
2605.0,8.0
2604.0,8.0
2603.0,-1.2205
2602.0,-0.6158
2601.0,-0.2868
2600.0,-0.0126
2599.0,0.3246
2598.0,0.8264
2597.0,8.0
2596.0,8.0
2595.0,8.0
2594.0,8.0
2593.0,0.3917
2592.0,-0.03
2591.0,-0.0551
2590.0,0.0491
2589.0,0.1934
2588.0,0.1854
2587.0,-0.2955
2586.0,-0.9692
2585.0,-1.1095
2584.0,-0.7006
2583.0,-0.3221
2582.0,0.0051
2581.0,0.3311
2580.0,0.639
2579.0,0.9075
2578.0,0.9851
2577.0,0.7936
2576.0,0.2779
2575.0,0.0645
2574.0,0.1996
2573.0,0.4815
2572.0,2.5241
2571.0,8.0
2570.0,8.0
2569.0,8.0
2568.0,0.3352
2567.0,0.2842
2566.0,0.4029
2565.0,0.5225
2564.0,0.5535
2563.0,0.5143
2562.0,-0.0742
2561.0,-0.3764
2560.0,-0.0213
2559.0,0.0766
2558.0,-0.3244
2557.0,-0.6972
2556.0,8.0
2555.0,-0.6871
2554.0,1.4489
2553.0,8.0
2552.0,8.0
2551.0,8.0
2550.0,-0.3827
2549.0,8.0
2548.0,8.0
2547.0,8.0
2546.0,8.0
2545.0,8.0
2544.0,-0.0477
2543.0,0.0406
2542.0,0.1123
2541.0,-0.341
2540.0,-1.1627
2539.0,8.0
2538.0,-0.496
2537.0,8.0
2536.0,8.0
2535.0,8.0
2534.0,0.2085
2533.0,-0.2603
2532.0,-0.5782
2531.0,-0.9027
2530.0,-0.7643
2529.0,-0.0672
2528.0,-0.1214
2527.0,1.2444
2526.0,-0.2661
2525.0,8.0
2524.0,-0.583
2523.0,-0.0945
2522.0,8.0
2521.0,-0.4197
2520.0,-0.8113
2519.0,8.0
2518.0,0.2046
2517.0,8.0
2516.0,0.9202
2515.0,8.0
2514.0,8.0
2513.0,8.0
2512.0,8.0
2511.0,-0.4955
2510.0,0.057
2509.0,0.0095
2508.0,-0.7171
2507.0,-1.6027
2506.0,-1.6054
2505.0,-0.8759
2504.0,-0.3953
2503.0,-0.1317
2502.0,0.0846
2501.0,0.1112
2500.0,0.2015
2499.0,0.1661
2498.0,0.4044
2497.0,8.0
2496.0,8.0
2495.0,8.0
2494.0,8.0
2493.0,8.0
2492.0,-0.2325
2491.0,8.0
2490.0,-0.6186
2489.0,-0.4384
2488.0,-0.6198
2487.0,8.0
2486.0,8.0
2485.0,8.0
2484.0,8.0
2483.0,8.0
2482.0,-0.667
2481.0,-0.5233
2480.0,-0.5445
2479.0,8.0
2478.0,8.0
2477.0,8.0
2476.0,-0.5402
2475.0,-0.767
2474.0,-0.9173
2473.0,8.0
2472.0,8.0
2471.0,8.0
2470.0,-0.6985
2469.0,-0.4032
2468.0,0.562
2467.0,0.0284
2466.0,0.302
2465.0,-0.082
2464.0,-0.1553
2463.0,-0.1903
2462.0,-0.2872
2461.0,-0.487
2460.0,8.0
2459.0,8.0
2458.0,8.0
2457.0,8.0
2456.0,8.0
2455.0,8.0
2454.0,8.0
2453.0,8.0
2452.0,8.0
2451.0,8.0
2450.0,0.7407
2449.0,0.6594
2448.0,0.8808
2447.0,1.1538
2446.0,1.0277
2445.0,0.8307
2444.0,0.7313
2443.0,0.5071
2442.0,0.2579
2441.0,0.0934
2440.0,0.0455
2439.0,0.0307
2438.0,-0.0166
2437.0,-0.2576
2436.0,-0.6142
2435.0,-0.5851
2434.0,-0.2076
2433.0,0.1505
2432.0,0.4844
2431.0,0.6788
2430.0,8.0
2429.0,1.0077
2428.0,8.0
2427.0,-0.2758
2426.0,-0.5663
2425.0,-0.679
2424.0,-0.5554
2423.0,-1.2374
2422.0,-1.7034
2421.0,-0.8998
2420.0,0.2597
2419.0,-0.5133
2418.0,-1.0068
2417.0,8.0
2416.0,8.0
2415.0,8.0
2414.0,8.0
2413.0,0.1406
2412.0,-0.3434
2411.0,-0.5276
2410.0,-0.5072
2409.0,8.0
2408.0,8.0
2407.0,8.0
2406.0,0.2006
2405.0,0.3288
2404.0,0.6496
2403.0,0.4724
2402.0,0.5491
2401.0,0.3442
2400.0,0.1852
2399.0,-0.0376
2398.0,-0.2852
2397.0,-0.5559
2396.0,-0.6806
2395.0,-0.61
2394.0,-0.4686
2393.0,-0.3177
2392.0,-0.2409
2391.0,-0.1833
2390.0,-0.2228
2389.0,-0.3627
2388.0,0.3197
2387.0,0.1131
2386.0,0.4552
2385.0,-0.211
2384.0,-0.1108
2383.0,-0.4666
2382.0,-1.0762
2381.0,-0.6318
2380.0,0.4735
2379.0,0.4012
2378.0,8.0
2377.0,8.0
2376.0,8.0
2375.0,8.0
2374.0,0.7652
2373.0,8.0
2372.0,8.0
2371.0,-1.1786
2370.0,-0.7284
2369.0,8.0
2368.0,0.0483
2367.0,-0.911
2366.0,8.0
2365.0,8.0
2364.0,8.0
2363.0,-0.4968
2362.0,8.0
2361.0,8.0
2360.0,1.3362
2359.0,1.9759
2358.0,0.3192
2357.0,-0.0111
2356.0,0.1516
2355.0,-0.2094
2354.0,0.4355
2353.0,-0.3949
2352.0,0.0971
2351.0,-1.1376
2350.0,-1.659
2349.0,-1.042
2348.0,-0.4857
2347.0,-0.7441
2346.0,-0.3901
2345.0,-0.7477
2344.0,-0.8268
2343.0,8.0
2342.0,8.0
2341.0,0.107
2340.0,8.0
2339.0,1.3129
2338.0,8.0
2337.0,0.1742
2336.0,-0.0764
2335.0,-0.0433
2334.0,-0.2983
2333.0,-0.3098
2332.0,-1.2875
2331.0,8.0
2330.0,8.0
2329.0,-1.7982
2328.0,-0.7149
2327.0,8.0
2326.0,-0.4219
2325.0,8.0
2324.0,-0.2946
2323.0,8.0
2322.0,8.0
2321.0,8.0
2320.0,8.0
2319.0,8.0
2318.0,8.0
2317.0,0.6489
2316.0,0.7084
2315.0,8.0
2314.0,8.0
2313.0,8.0
2312.0,8.0
2311.0,8.0
2310.0,0.4607
2309.0,0.1046
2308.0,-0.0055
2307.0,0.0509
2306.0,0.2139
2305.0,0.5174
2304.0,0.4658
2303.0,0.014
2302.0,-0.1061
2301.0,-0.0016
2300.0,0.141
2299.0,0.1853
2298.0,0.1846
2297.0,-0.0297
2296.0,0.0999
2295.0,0.0345
2294.0,0.9128
2293.0,0.5802
2292.0,8.0
2291.0,8.0
2290.0,8.0
2289.0,8.0
2288.0,8.0
2287.0,8.0
2286.0,8.0
2285.0,8.0
2284.0,8.0
2283.0,-0.6575
2282.0,-0.4747
2281.0,-0.0616
2280.0,-0.1463
2279.0,0.3985
2278.0,0.0965
2277.0,0.3546
2276.0,0.2686
2275.0,0.8356
2274.0,8.0
2273.0,8.0
2272.0,8.0
2271.0,8.0
2270.0,8.0
2269.0,8.0
2268.0,8.0
2267.0,8.0
2266.0,8.0
2265.0,8.0
2264.0,8.0
2263.0,-1.4957
2262.0,-0.7056
2261.0,8.0
2260.0,-0.3313
2259.0,8.0
2258.0,-0.2469
2257.0,0.4964
2256.0,-0.1936
2255.0,0.206
2254.0,0.2779
2253.0,1.8714
2252.0,8.0
2251.0,1.3461
2250.0,0.6662
2249.0,0.4606
2248.0,0.393
2247.0,0.4027
2246.0,0.4856
2245.0,0.4702
2244.0,0.5051
2243.0,0.4236
2242.0,0.1965
2241.0,-0.0231
2240.0,-0.364
2239.0,-0.6808
2238.0,-1.1408
2237.0,-1.1364
2236.0,8.0
2235.0,8.0
2234.0,8.0
2233.0,-0.3956
2232.0,8.0
2231.0,8.0
2230.0,-0.3742
2229.0,8.0
2228.0,-0.7406
2227.0,8.0
2226.0,-1.1065
2225.0,8.0
2224.0,-1.1859
2223.0,8.0
2222.0,8.0
2221.0,8.0
2220.0,-1.3543
2219.0,8.0
2218.0,-1.1388
2217.0,8.0
2216.0,-0.9135
2215.0,-1.0908
2214.0,8.0
2213.0,8.0
2212.0,-1.6864
2211.0,-0.8624
2210.0,8.0
2209.0,-0.5779
2208.0,8.0
2207.0,-0.2646
2206.0,8.0
2205.0,-0.0351
2204.0,0.4042
2203.0,-0.1404
2202.0,-0.0327
2201.0,-0.25
2200.0,-0.1449
2199.0,-0.4475
2198.0,-0.1057
2197.0,-0.389
2196.0,8.0
2195.0,8.0
2194.0,-1.0499
2193.0,-0.5939
2192.0,8.0
2191.0,-0.0534
2190.0,8.0
2189.0,0.8754
2188.0,8.0
2187.0,8.0
2186.0,8.0
2185.0,8.0
2184.0,8.0
2183.0,8.0
2182.0,-0.1225
2181.0,-0.5675
2180.0,-0.5689
2179.0,-0.47
2178.0,-0.2707
2177.0,0.2222
2176.0,1.2491
2175.0,8.0
2174.0,8.0
2173.0,8.0
2172.0,0.5046
2171.0,0.3072
2170.0,0.471
2169.0,0.9804
2168.0,8.0
2167.0,8.0
2166.0,0.562
2165.0,0.163
2164.0,0.0862
2163.0,0.1701
2162.0,0.2996
2161.0,0.4362
2160.0,0.5793
2159.0,0.6364
2158.0,0.5463
2157.0,0.2225
2156.0,0.0362
2155.0,-0.1688
2154.0,-0.3108
2153.0,-0.5135
2152.0,-0.59
2151.0,-0.2453
2150.0,0.325
2149.0,0.2991
2148.0,0.5595
2147.0,0.0532
2146.0,0.0441
2145.0,-0.3103
2144.0,0.3093
2143.0,-0.2149
2142.0,8.0
2141.0,-0.3677
2140.0,-1.0539
2139.0,8.0
2138.0,8.0
2137.0,8.0
2136.0,8.0
2135.0,8.0
2134.0,8.0
2133.0,-0.5522
2132.0,8.0
2131.0,-0.164
2130.0,8.0
2129.0,-0.5305
2128.0,8.0
2127.0,-0.9514
2126.0,-1.5584
2125.0,0.2073
2124.0,8.0
2123.0,-0.0914
2122.0,8.0
2121.0,-0.2304
2120.0,8.0
2119.0,-0.5075
2118.0,0.2149
2117.0,-0.5831
2116.0,-0.6336
2115.0,8.0
2114.0,8.0
2113.0,0.1459
2112.0,8.0
2111.0,8.0
2110.0,8.0
2109.0,-0.0069
2108.0,8.0
2107.0,-0.2067
2106.0,8.0
2105.0,-0.3703
2104.0,8.0
2103.0,-0.5188
2102.0,8.0
2101.0,-0.7448
2100.0,-1.554
2099.0,8.0
2098.0,8.0
2097.0,8.0
2096.0,8.0
2095.0,8.0
2094.0,8.0
2093.0,8.0
2092.0,8.0
2091.0,-0.9237
2090.0,-0.4551
2089.0,0.5131
2088.0,-0.123
2087.0,8.0
2086.0,0.2187
2085.0,0.826
2084.0,0.1298
2083.0,0.4244
2082.0,0.356
2081.0,0.9494
2080.0,1.0272
2079.0,8.0
2078.0,1.5047
2077.0,0.2585
2076.0,8.0
2075.0,8.0
2074.0,8.0
2073.0,8.0
2072.0,8.0
2071.0,8.0
2070.0,0.1617
2069.0,8.0
2068.0,8.0
2067.0,8.0
2066.0,8.0
2065.0,8.0
2064.0,8.0
2063.0,0.1478
2062.0,8.0
2061.0,8.0
2060.0,8.0
2059.0,8.0
2058.0,8.0
2057.0,8.0
2056.0,-0.6272
2055.0,-0.3849
2054.0,8.0
2053.0,0.2009
2052.0,8.0
2051.0,8.0
2050.0,0.2376
2049.0,0.6075
2048.0,-0.1061
2047.0,-0.6081
2046.0,8.0
2045.0,8.0
2044.0,8.0
2043.0,1.4518
2042.0,8.0
2041.0,8.0
2040.0,8.0
2039.0,-0.6308
2038.0,8.0
2037.0,-0.4219
2036.0,8.0
2035.0,-0.1039
2034.0,8.0
2033.0,8.0
2032.0,8.0
2031.0,8.0
2030.0,8.0
2029.0,-0.7585
2028.0,0.5246
2027.0,8.0
2026.0,0.2118
2025.0,8.0
2024.0,0.249
2023.0,8.0
2022.0,8.0
2021.0,-0.3152
2020.0,-0.4606
2019.0,-0.5696
2018.0,-0.7403
2017.0,-0.5331
2016.0,-0.482
2015.0,-0.4265
2014.0,-0.3938
2013.0,-0.0857
2012.0,0.7842
2011.0,0.6717
2010.0,0.0189
2009.0,-0.2574
2008.0,-0.1481
2007.0,-0.1254
2006.0,0.5136
2005.0,0.0184
2004.0,1.0881
2003.0,-0.2179
2002.0,-0.5655
2001.0,8.0
2000.0,8.0
1999.0,0.0109
1998.0,-0.9218
1997.0,-0.929
1996.0,-0.9871
1995.0,8.0
1994.0,-0.6777
1993.0,8.0
1992.0,8.0
1991.0,8.0
1990.0,-0.673
1989.0,8.0
1988.0,-0.4825
1987.0,8.0
1986.0,-0.2177
1985.0,8.0
1984.0,-0.1594
1983.0,-0.14
1982.0,-0.3255
1981.0,-0.2868
1980.0,-0.3151
1979.0,-0.3611
1978.0,-0.3663
1977.0,-0.2668
1976.0,-0.0945
1975.0,1.0847
1974.0,8.0
1973.0,8.0
1972.0,0.1211
1971.0,-0.2613
1970.0,-0.48
1969.0,-0.6276
1968.0,-0.6137
1967.0,-0.5677
1966.0,-0.5291
1965.0,-0.3614
1964.0,-0.5291
1963.0,8.0
1962.0,8.0
1961.0,-1.0566
1960.0,-0.6847
1959.0,-0.0381
1958.0,-0.3042
1957.0,8.0
1956.0,8.0
1955.0,8.0
1954.0,8.0
1953.0,8.0
1952.0,8.0
1951.0,8.0
1950.0,8.0
1949.0,8.0
1948.0,8.0
1947.0,8.0
1946.0,8.0
1945.0,8.0
1944.0,-0.8375
1943.0,-0.2484
1942.0,0.8408
1941.0,-0.1369
1940.0,0.3837
1939.0,0.0248
1938.0,8.0
1937.0,2.0133
1936.0,8.0
1935.0,1.2709
1934.0,0.6601
1933.0,0.3018
1932.0,0.0608
1931.0,-0.234
1930.0,-0.3767
1929.0,-0.2515
1928.0,0.0047
1927.0,0.5304
1926.0,0.4908
1925.0,8.0
1924.0,0.028
1923.0,8.0
1922.0,-0.5045
1921.0,-0.2821
1920.0,-0.7412
1919.0,0.5962
1918.0,8.0
1917.0,8.0
1916.0,8.0
1915.0,-0.8737
1914.0,-0.7833
1913.0,8.0
1912.0,-0.3815
1911.0,8.0
1910.0,-0.1162
1909.0,8.0
1908.0,-0.3803
1907.0,-0.3884
1906.0,-0.4087
1905.0,8.0
1904.0,-0.4316
1903.0,8.0
1902.0,-0.7
1901.0,-0.9399
1900.0,-0.4277
1899.0,8.0
1898.0,-0.6759
1897.0,-1.701
1896.0,-0.8004
1895.0,8.0
1894.0,-0.6613
1893.0,8.0
1892.0,-0.5302
1891.0,8.0
1890.0,8.0
1889.0,8.0
1888.0,-0.079
1887.0,1.0876
1886.0,0.2183
1885.0,-0.0515
1884.0,-0.5883
1883.0,-0.8752
1882.0,-0.6437
1881.0,-0.2606
1880.0,0.0077
1879.0,8.0
1878.0,8.0
1877.0,8.0
1876.0,8.0
1875.0,8.0
1874.0,8.0
1873.0,8.0
1872.0,-0.213
1871.0,8.0
1870.0,-0.6217
1869.0,8.0
1868.0,-0.8222
1867.0,8.0
1866.0,-1.0902
1865.0,-1.1951
1864.0,8.0
1863.0,-0.8909
1862.0,-0.9922
1861.0,8.0
1860.0,-0.9187
1859.0,8.0
1858.0,-0.4402
1857.0,8.0
1856.0,0.1962
1855.0,-0.6943
1854.0,-0.6671
1853.0,-0.6152
1852.0,-0.3905
1851.0,-0.1782
1850.0,8.0
1849.0,-0.3128
1848.0,8.0
1847.0,-0.6457
1846.0,-0.1258
1845.0,-0.3847
1844.0,8.0
1843.0,-0.4256
1842.0,-1.7972
1841.0,-1.1327
1840.0,8.0
1839.0,-0.9211
1838.0,8.0
1837.0,0.2561
1836.0,8.0
1835.0,-0.3748
1834.0,-0.217
1833.0,-0.3947
1832.0,-0.6225
1831.0,-0.964
1830.0,-0.1816
1829.0,8.0
1828.0,0.0706
1827.0,8.0
1826.0,-0.1617
1825.0,8.0
1824.0,8.0
1823.0,-0.3317
1822.0,8.0
1821.0,8.0
1820.0,-0.3157
1819.0,0.6528
1818.0,-0.168
1817.0,1.4858
1816.0,0.261
1815.0,1.7022
1814.0,-0.221
1813.0,-0.2254
1812.0,-0.4261
1811.0,0.0325
1810.0,-0.4096
1809.0,-0.8344
1808.0,8.0
1807.0,8.0
1806.0,8.0
1805.0,8.0
1804.0,8.0
1803.0,8.0
1802.0,-0.5073
1801.0,8.0
1800.0,-0.8981
1799.0,8.0
1798.0,-1.0452
1797.0,8.0
1796.0,8.0
1795.0,-2.0477
1794.0,-1.1577
1793.0,8.0
1792.0,-1.0124
1791.0,8.0
1790.0,-0.7778
1789.0,8.0
1788.0,-0.4818
1787.0,8.0
1786.0,0.2093
1785.0,8.0
1784.0,8.0
1783.0,8.0
1782.0,8.0
1781.0,8.0
1780.0,-0.2244
1779.0,-0.5327
1778.0,-0.5807
1777.0,-0.4253
1776.0,-0.2817
1775.0,-0.1131
1774.0,8.0
1773.0,-0.0347
1772.0,-0.0069
1771.0,-0.0196
1770.0,-0.4511
1769.0,-0.34
1768.0,-0.3359
1767.0,-0.3184
1766.0,-0.186
1765.0,-0.12
1764.0,-0.0159
1763.0,0.104
1762.0,0.2884
1761.0,0.5728
1760.0,0.8185
1759.0,1.5512
1758.0,8.0
1757.0,0.6773
1756.0,1.6159
1755.0,8.0
1754.0,8.0
1753.0,8.0
1752.0,2.5599
1751.0,8.0
1750.0,8.0
1749.0,0.4889
1748.0,8.0
1747.0,8.0
1746.0,-0.6992
1745.0,8.0
1744.0,-0.7297
1743.0,8.0
1742.0,-0.9773
1741.0,8.0
1740.0,8.0
1739.0,-1.9662
1738.0,-1.1643
1737.0,8.0
1736.0,-0.846
1735.0,8.0
1734.0,-0.5127
1733.0,8.0
1732.0,8.0
1731.0,8.0
1730.0,8.0
1729.0,8.0
1728.0,0.1459
1727.0,0.0127
1726.0,-0.2162
1725.0,-0.5739
1724.0,-0.6126
1723.0,-0.3606
1722.0,-0.009
1721.0,0.8664
1720.0,8.0
1719.0,8.0
1718.0,8.0
1717.0,8.0
1716.0,8.0
1715.0,8.0
1714.0,8.0
1713.0,8.0
1712.0,0.8294
1711.0,0.4183
1710.0,0.2149
1709.0,-0.0673
1708.0,-0.1856
1707.0,-0.3099
1706.0,0.0205
1705.0,-0.1224
1704.0,8.0
1703.0,-0.3792
1702.0,8.0
1701.0,-0.4146
1700.0,8.0
1699.0,8.0
1698.0,8.0
1697.0,-1.5873
1696.0,8.0
1695.0,-1.8403
1694.0,-1.4494
1693.0,8.0
1692.0,8.0
1691.0,-1.8224
1690.0,8.0
1689.0,-1.555
1688.0,8.0
1687.0,-1.2477
1686.0,8.0
1685.0,-0.7843
1684.0,8.0
1683.0,-0.2366
1682.0,0.3745
1681.0,-0.0128
1680.0,0.1514
1679.0,0.1105
1678.0,0.2045
1677.0,0.2917
1676.0,-0.1846
1675.0,0.2606
1674.0,0.5233
1673.0,8.0
1672.0,8.0
1671.0,8.0
1670.0,8.0
1669.0,-0.0382
1668.0,0.8141
1667.0,8.0
1666.0,8.0
1665.0,8.0
1664.0,0.14
1663.0,0.5226
1662.0,8.0
1661.0,0.1291
1660.0,-0.1909
1659.0,-0.0921
1658.0,0.4313
1657.0,-0.229
1656.0,-0.1033
1655.0,8.0
1654.0,0.068
1653.0,8.0
1652.0,-0.4695
1651.0,8.0
1650.0,8.0
1649.0,-1.4414
1648.0,8.0
1647.0,8.0
1646.0,-0.1612
1645.0,8.0
1644.0,-0.1241
1643.0,8.0
1642.0,0.4283
1641.0,8.0
1640.0,0.2466
1639.0,0.1478
1638.0,-0.0225
1637.0,0.0365
1636.0,0.1951
1635.0,0.7337
1634.0,8.0
1633.0,8.0
1632.0,8.0
1631.0,8.0
1630.0,8.0
1629.0,8.0
1628.0,8.0
1627.0,0.474
1626.0,-0.2962
1625.0,-0.2313
1624.0,0.1573
1623.0,1.1403
1622.0,0.2149
1621.0,8.0
1620.0,-0.006
1619.0,8.0
1618.0,-0.6108
1617.0,-0.011
1616.0,-1.0273
1615.0,-1.7593
1614.0,8.0
1613.0,8.0
1612.0,0.4981
1611.0,8.0
1610.0,8.0
1609.0,8.0
1608.0,8.0
1607.0,-0.3466
1606.0,8.0
1605.0,-0.723
1604.0,8.0
1603.0,-1.111
1602.0,-2.0822
1601.0,-0.7531
1600.0,8.0
1599.0,-0.2943
1598.0,8.0
1597.0,8.0
1596.0,8.0
1595.0,8.0
1594.0,8.0
1593.0,-0.2337
1592.0,-0.1483
1591.0,8.0
1590.0,0.2441
1589.0,1.1532
1588.0,0.1459
1587.0,0.3012
1586.0,0.0985
1585.0,0.3115
1584.0,0.4773
1583.0,8.0
1582.0,8.0
1581.0,8.0
1580.0,8.0
1579.0,8.0
1578.0,8.0
1577.0,8.0
1576.0,8.0
1575.0,8.0
1574.0,8.0
1573.0,8.0
1572.0,8.0
1571.0,-0.3005
1570.0,8.0
1569.0,8.0
1568.0,8.0
1567.0,8.0
1566.0,-0.217
1565.0,-0.373
1564.0,-0.7206
1563.0,-1.0146
1562.0,8.0
1561.0,8.0
1560.0,8.0
1559.0,8.0
1558.0,-0.5632
1557.0,-0.0871
1556.0,0.0704
1555.0,0.022
1554.0,0.0539
1553.0,-0.1013
1552.0,-0.1156
1551.0,0.2097
1550.0,8.0
1549.0,8.0
1548.0,0.3778
1547.0,8.0
1546.0,8.0
1545.0,8.0
1544.0,-0.6668
1543.0,-0.0026
1542.0,0.1468
1541.0,-0.0367
1540.0,0.0708
1539.0,0.0373
1538.0,-0.0997
1537.0,-0.5009
1536.0,-0.5347
1535.0,-0.0405
1534.0,0.2469
1533.0,0.2613
1532.0,-0.0217
1531.0,0.0404
1530.0,-0.1877
1529.0,-0.3379
1528.0,8.0
1527.0,-0.7171
1526.0,-0.4064
1525.0,-0.1923
1524.0,-0.3119
1523.0,-0.3907
1522.0,-0.3786
1521.0,0.115
1520.0,0.6885
1519.0,0.9355
1518.0,0.3282
1517.0,-0.0016
1516.0,0.0708
1515.0,0.8135
1514.0,8.0
1513.0,8.0
1512.0,8.0
1511.0,8.0
1510.0,8.0
1509.0,0.336
1508.0,0.0633
1507.0,-0.1574
1506.0,-0.2579
1505.0,-0.4466
1504.0,-0.9182
1503.0,8.0
1502.0,8.0
1501.0,-1.3735
1500.0,-0.7417
1499.0,-0.343
1498.0,-0.4363
1497.0,-0.6114
1496.0,-0.8444
1495.0,-0.8305
1494.0,-0.6871
1493.0,-0.2081
1492.0,0.3832
1491.0,-0.7425
1490.0,-0.3095
1489.0,-0.0374
1488.0,8.0
1487.0,-1.0466
1486.0,-1.1329
1485.0,-1.4806
1484.0,-1.2485
1483.0,-0.4125
1482.0,0.1661
1481.0,0.3026
1480.0,0.1323
1479.0,0.0327
1478.0,0.4428
1477.0,0.0167
1476.0,8.0
1475.0,-0.4976
1474.0,0.1268
1473.0,0.6769
1472.0,8.0
1471.0,8.0
1470.0,8.0
1469.0,-1.5328
1468.0,-3.0741
1467.0,-2.3241
1466.0,8.0
1465.0,-0.9783
1464.0,8.0
1463.0,-0.6481
1462.0,8.0
1461.0,-0.2853
1460.0,8.0
1459.0,0.1222
1458.0,-0.1998
1457.0,8.0
1456.0,-0.8304
1455.0,-0.1374
1454.0,0.4714
1453.0,0.2298
1452.0,0.0321
1451.0,-0.3163
1450.0,-0.3151
1449.0,-0.0987
1448.0,0.1595
1447.0,0.2357
1446.0,0.0792
1445.0,-0.1479
1444.0,-0.4622
1443.0,-0.8037
1442.0,-1.1622
1441.0,-1.3989
1440.0,-1.6513
1439.0,-1.7759
1438.0,-0.9228
1437.0,-0.0143
1436.0,8.0
1435.0,8.0
1434.0,-0.5544
1433.0,-0.1217
1432.0,0.0093
1431.0,0.0503
1430.0,0.2731
1429.0,8.0
1428.0,-0.4983
1427.0,-0.3657
1426.0,-0.2195
1425.0,0.343
1424.0,8.0
1423.0,8.0
1422.0,1.1838
1421.0,0.4683
1420.0,0.7349
1419.0,8.0
1418.0,8.0
1417.0,8.0
1416.0,8.0
1415.0,8.0
1414.0,0.8874
1413.0,0.5169
1412.0,0.3394
1411.0,0.175
1410.0,0.0287
1409.0,-0.0692
1408.0,-0.1071
1407.0,-0.0821
1406.0,-0.0053
1405.0,0.074
1404.0,0.0688
1403.0,0.0415
1402.0,0.3118
1401.0,8.0
1400.0,8.0
1399.0,8.0
1398.0,-0.1435
1397.0,-0.1453
1396.0,-0.1626
1395.0,0.2104
1394.0,8.0
1393.0,-0.5307
1392.0,0.0213
1391.0,0.4619
1390.0,0.1983
1389.0,0.2521
1388.0,-0.07
1387.0,-0.2856
1386.0,8.0
1385.0,8.0
1384.0,8.0
1383.0,8.0
1382.0,-0.2064
1381.0,-0.9256
1380.0,-1.0689
1379.0,-0.7317
1378.0,8.0
1377.0,-0.464
1376.0,8.0
1375.0,-0.4557
1374.0,8.0
1373.0,8.0
1372.0,-1.0189
1371.0,-1.2656
1370.0,-1.3093
1369.0,8.0
1368.0,8.0
1367.0,-0.8958
1366.0,0.008
1365.0,-0.0767
1364.0,0.1124
1363.0,0.0531
1362.0,0.132
1361.0,0.2247
1360.0,0.3191
1359.0,0.2525
1358.0,0.1008
1357.0,8.0
1356.0,8.0
1355.0,8.0
1354.0,8.0
1353.0,8.0
1352.0,0.2798
1351.0,0.3908
1350.0,-0.2335
1349.0,8.0
1348.0,8.0
1347.0,8.0
1346.0,8.0
1345.0,8.0
1344.0,-1.0235
1343.0,-0.4238
1342.0,-0.1605
1341.0,-0.0149
1340.0,0.0871
1339.0,0.1627
1338.0,0.1979
1337.0,0.1965
1336.0,0.2264
1335.0,0.4647
1334.0,1.395
1333.0,8.0
1332.0,8.0
1331.0,0.7874
1330.0,0.2189
1329.0,-0.0534
1328.0,-0.1614
1327.0,-0.0839
1326.0,0.0164
1325.0,-0.018
1324.0,-0.1982
1323.0,-0.4529
1322.0,-0.5809
1321.0,-0.4349
1320.0,-0.2293
1319.0,-0.2844
1318.0,8.0
1317.0,0.6599
1316.0,0.7515
1315.0,0.8079
1314.0,-2.0016
1313.0,0.0889
1312.0,0.1808
1311.0,0.2393
1310.0,0.0576
1309.0,-0.9826
1308.0,8.0
1307.0,8.0
1306.0,8.0
1305.0,0.7509
1304.0,0.579
1303.0,0.5332
1302.0,0.1397
1301.0,-0.8489
1300.0,8.0
1299.0,1.3216
1298.0,-0.3331
1297.0,-1.074
1296.0,-1.0169
1295.0,-0.5899
1294.0,-0.3326
1293.0,-0.1927
1292.0,-0.2045
1291.0,-0.5602
1290.0,-0.9973
1289.0,-0.4557
1288.0,-0.0679
1287.0,0.3129
1286.0,8.0
1285.0,8.0
1284.0,8.0
1283.0,8.0
1282.0,8.0
1281.0,8.0
1280.0,8.0
1279.0,8.0
1278.0,-1.2807
1277.0,-0.7542
1276.0,-0.5564
1275.0,-0.2453
1274.0,0.2921
1273.0,0.9622
1272.0,1.4337
1271.0,0.6324
1270.0,0.1142
1269.0,-0.2013
1268.0,-0.3071
1267.0,-0.3314
1266.0,-0.3722
1265.0,-0.3456
1264.0,-0.0592
1263.0,0.2337
1262.0,0.3834
1261.0,0.4391
1260.0,0.3639
1259.0,0.0163
1258.0,-0.2031
1257.0,-0.1934
1256.0,-0.2223
1255.0,-0.2135
1254.0,0.116
1253.0,8.0
1252.0,8.0
1251.0,8.0
1250.0,8.0
1249.0,8.0
1248.0,8.0
1247.0,8.0
1246.0,8.0
1245.0,-0.9849
1244.0,-0.5511
1243.0,-0.2948
1242.0,-0.0482
1241.0,0.2211
1240.0,0.8299
1239.0,8.0
1238.0,-0.0397
1237.0,0.0252
1236.0,-0.9958
1235.0,0.6597
1234.0,8.0
1233.0,0.9444
1232.0,8.0
1231.0,0.1162
1230.0,-0.2744
1229.0,8.0
1228.0,8.0
1227.0,8.0
1226.0,8.0
1225.0,-1.3556
1224.0,-0.0924
1223.0,0.7933
1222.0,0.9732
1221.0,8.0
1220.0,8.0
1219.0,0.3665
1218.0,-0.236
1217.0,-0.1835
1216.0,0.0002
1215.0,0.1909
1214.0,0.3713
1213.0,0.5468
1212.0,0.5628
1211.0,0.1287
1210.0,-0.0327
1209.0,0.0712
1208.0,0.2229
1207.0,0.4907
1206.0,1.0185
1205.0,1.3067
1204.0,0.7631
1203.0,0.3382
1202.0,-0.109
1201.0,-0.6408
1200.0,-0.7958
1199.0,-0.5539
1198.0,-0.2698
1197.0,-0.022
1196.0,0.1687
1195.0,0.29
1194.0,0.3111
1193.0,0.3446
1192.0,0.1907
1191.0,0.1932
1190.0,-0.0037
1189.0,0.4404
1188.0,8.0
1187.0,-0.5431
1186.0,-0.5638
1185.0,-0.5402
1184.0,8.0
1183.0,8.0
1182.0,0.477
1181.0,8.0
1180.0,0.41
1179.0,0.6177
1178.0,0.3336
1177.0,0.2451
1176.0,0.2687
1175.0,0.0631
1174.0,0.3121
1173.0,-0.0578
1172.0,0.3347
1171.0,-0.4313
1170.0,-1.5389
1169.0,8.0
1168.0,8.0
1167.0,8.0
1166.0,8.0
1165.0,-1.059
1164.0,-0.2464
1163.0,8.0
1162.0,8.0
1161.0,8.0
1160.0,8.0
1159.0,8.0
1158.0,8.0
1157.0,-0.1816
1156.0,8.0
1155.0,8.0
1154.0,8.0
1153.0,8.0
1152.0,8.0
1151.0,8.0
1150.0,8.0
1149.0,-0.0213
1148.0,0.0226
1147.0,8.0
1146.0,8.0
1145.0,8.0
1144.0,8.0
1143.0,8.0
1142.0,8.0
1141.0,8.0
1140.0,-0.1374
1139.0,0.0399
1138.0,8.0
1137.0,0.6381
1136.0,8.0
1135.0,8.0
1134.0,8.0
1133.0,8.0
1132.0,8.0
1131.0,-0.0142
1130.0,-0.3957
1129.0,-0.5532
1128.0,-0.6208
1127.0,-0.622
1126.0,-0.4504
1125.0,0.0611
1124.0,1.1852
1123.0,1.0565
1122.0,0.4322
1121.0,0.1479
1120.0,0.0836
1119.0,0.2854
1118.0,8.0
1117.0,8.0
1116.0,8.0
1115.0,-0.16
1114.0,-0.2411
1113.0,-0.1816
1112.0,-0.1159
1111.0,-0.1697
1110.0,-0.3359
1109.0,-0.4306
1108.0,-0.4552
1107.0,-0.3533
1106.0,0.1202
1105.0,0.8427
1104.0,1.562
1103.0,0.6243
1102.0,0.1042
1101.0,-0.3103
1100.0,-0.3468
1099.0,-0.4585
1098.0,0.2331
1097.0,-0.13
1096.0,8.0
1095.0,-0.5123
1094.0,-1.5729
1093.0,1.1464
1092.0,8.0
1091.0,8.0
1090.0,-1.2669
1089.0,-0.4887
1088.0,8.0
1087.0,-0.0076
1086.0,8.0
1085.0,0.8452
1084.0,8.0
1083.0,8.0
1082.0,1.1853
1081.0,0.4456
1080.0,0.4357
1079.0,0.2403
1078.0,-0.0154
1077.0,0.0386
1076.0,0.926
1075.0,8.0
1074.0,8.0
1073.0,8.0
1072.0,8.0
1071.0,8.0
1070.0,0.7081
1069.0,-0.0103
1068.0,-0.2295
1067.0,-0.2843
1066.0,-0.2074
1065.0,0.0969
1064.0,0.5565
1063.0,8.0
1062.0,8.0
1061.0,-0.303
1060.0,0.2234
1059.0,0.2651
1058.0,8.0
1057.0,8.0
1056.0,-0.9017
1055.0,-0.6786
1054.0,8.0
1053.0,-0.9196
1052.0,8.0
1051.0,-1.0835
1050.0,8.0
1049.0,-1.3103
1048.0,-2.4479
1047.0,-1.293
1046.0,8.0
1045.0,-0.976
1044.0,8.0
1043.0,-0.665
1042.0,8.0
1041.0,-0.2671
1040.0,8.0
1039.0,-0.4222
1038.0,-0.4104
1037.0,8.0
1036.0,8.0
1035.0,8.0
1034.0,8.0
1033.0,8.0
1032.0,8.0
1031.0,8.0
1030.0,0.209
1029.0,0.1896
1028.0,8.0
1027.0,0.3504
1026.0,0.9904
1025.0,0.4264
1024.0,0.9806
1023.0,8.0
1022.0,0.7012
1021.0,8.0
1020.0,8.0
1019.0,8.0
1018.0,8.0
1017.0,-0.1119
1016.0,-0.0797
1015.0,0.046
1014.0,0.0056
1013.0,0.0586
1012.0,0.0203
1011.0,0.1562
1010.0,0.6133
1009.0,0.64
1008.0,0.7013
1007.0,0.0522
1006.0,0.3186
1005.0,-0.0934
1004.0,0.293
1003.0,-0.5394
1002.0,-1.1735
1001.0,-0.6753
1000.0,0.6526
999.0,0.1549
998.0,8.0
997.0,0.2412
996.0,0.5474
995.0,0.2972
994.0,0.1565
993.0,8.0
992.0,8.0
991.0,8.0
990.0,8.0
989.0,-0.0768
988.0,0.4143
987.0,8.0
986.0,1.0361
985.0,8.0
984.0,1.4491
983.0,8.0
982.0,8.0
981.0,0.6679
980.0,8.0
979.0,-0.4548
978.0,8.0
977.0,8.0
976.0,8.0
975.0,8.0
974.0,-1.0261
973.0,-0.7841
972.0,-1.303
971.0,-1.9354
970.0,8.0
969.0,8.0
968.0,-0.0007
967.0,8.0
966.0,-0.6471
965.0,1.876
964.0,-0.1831
963.0,0.412
962.0,0.0153
961.0,-0.1896
960.0,-0.5739
959.0,-0.4124
958.0,-0.275
957.0,8.0
956.0,-0.1231
955.0,8.0
954.0,-0.7028
953.0,-1.4209
952.0,8.0
951.0,8.0
950.0,8.0
949.0,8.0
948.0,0.359
947.0,8.0
946.0,-0.3494
945.0,8.0
944.0,0.1994
943.0,0.2038
942.0,-0.4382
941.0,8.0
940.0,0.1393
939.0,-1.4572
938.0,-0.8919
937.0,-0.2629
936.0,-0.4744
935.0,0.2764
934.0,-0.3359
933.0,-0.169
932.0,-0.5536
931.0,-0.4843
930.0,-0.2626
929.0,0.5681
928.0,0.1829
927.0,8.0
926.0,8.0
925.0,8.0
924.0,8.0
923.0,8.0
922.0,8.0
921.0,8.0
920.0,1.2107
919.0,8.0
918.0,8.0
917.0,8.0
916.0,8.0
915.0,8.0
914.0,8.0
913.0,8.0
912.0,8.0
911.0,8.0
910.0,8.0
909.0,8.0
908.0,0.3494
907.0,0.2782
906.0,-0.0626
905.0,-0.0352
904.0,-0.5217
903.0,-0.8136
902.0,-0.152
901.0,0.8018
900.0,0.185
899.0,0.5851
898.0,0.2709
897.0,1.4381
896.0,8.0
895.0,8.0
894.0,8.0
893.0,0.3336
892.0,8.0
891.0,-0.2003
890.0,8.0
889.0,-0.5076
888.0,-0.0036
887.0,8.0
886.0,8.0
885.0,8.0
884.0,-0.5171
883.0,-0.7245
882.0,8.0
881.0,-0.5253
880.0,0.3891
879.0,-0.5923
878.0,0.3243
877.0,-0.3963
876.0,8.0
875.0,-0.6373
874.0,-0.5939
873.0,8.0
872.0,8.0
871.0,8.0
870.0,-1.1089
869.0,-0.5751
868.0,8.0
867.0,-0.0496
866.0,8.0
865.0,-0.2493
864.0,-0.0484
863.0,-0.2736
862.0,-0.0698
861.0,-0.0649
860.0,0.0069
859.0,0.0502
858.0,0.2174
857.0,0.5419
856.0,8.0
855.0,8.0
854.0,8.0
853.0,8.0
852.0,8.0
851.0,8.0
850.0,1.2382
849.0,0.207
848.0,0.2581
847.0,8.0
846.0,0.2416
845.0,8.0
844.0,8.0
843.0,8.0
842.0,8.0
841.0,0.0478
840.0,8.0
839.0,8.0
838.0,-0.5944
837.0,-0.3916
836.0,-0.0866
835.0,0.1758
834.0,8.0
833.0,0.9794
832.0,8.0
831.0,0.0524
830.0,-0.1683
829.0,-0.2196
828.0,-0.0222
827.0,0.7665
826.0,-0.3925
825.0,-0.4486
824.0,0.5131
823.0,0.3561
822.0,0.3915
821.0,0.2798
820.0,0.3073
819.0,0.0292
818.0,-0.4959
817.0,-0.4012
816.0,-0.1038
815.0,0.0079
814.0,0.1415
813.0,0.1081
812.0,0.0503
811.0,-0.0495
810.0,-0.2397
809.0,-0.2624
808.0,-0.3543
807.0,0.1524
806.0,-0.1067
805.0,0.7384
804.0,-0.3659
803.0,-0.6536
802.0,8.0
801.0,8.0
800.0,8.0
799.0,8.0
798.0,8.0
797.0,8.0
796.0,0.0454
795.0,-0.2098
794.0,8.0
793.0,-0.8062
792.0,-0.2463
791.0,-0.1886
790.0,-0.0101
789.0,0.1976
788.0,0.2615
787.0,8.0
786.0,8.0
785.0,8.0
784.0,0.3484
783.0,0.1981
782.0,0.3006
781.0,0.2607
780.0,0.6969
779.0,0.1674
778.0,1.9196
777.0,-0.048
776.0,8.0
775.0,-0.2124
774.0,0.5234
773.0,8.0
772.0,8.0
771.0,0.8168
770.0,8.0
769.0,8.0
768.0,8.0
767.0,0.3836
766.0,8.0
765.0,0.4622
764.0,0.2331
763.0,0.1945
762.0,-0.1838
761.0,0.1257
760.0,-0.3489
759.0,-0.2978
758.0,-0.926
757.0,-1.3011
756.0,-0.9743
755.0,-0.375
754.0,-0.3729
753.0,0.1169
752.0,-0.1665
751.0,0.2352
750.0,0.1168
749.0,0.4263
748.0,0.3671
747.0,0.5635
746.0,0.7107
745.0,8.0
744.0,0.9985
743.0,8.0
742.0,0.1971
741.0,8.0
740.0,0.2571
739.0,0.7265
738.0,-0.0292
737.0,8.0
736.0,8.0
735.0,-0.7411
734.0,-0.61
733.0,8.0
732.0,-0.795
731.0,-0.8462
730.0,8.0
729.0,8.0
728.0,8.0
727.0,8.0
726.0,8.0
725.0,8.0
724.0,-0.5284
723.0,8.0
722.0,8.0
721.0,8.0
720.0,-0.3734
719.0,8.0
718.0,-0.367
717.0,8.0
716.0,-0.0985
715.0,8.0
714.0,8.0
713.0,1.8837
712.0,8.0
711.0,0.0938
710.0,8.0
709.0,-0.0973
708.0,-0.7662
707.0,8.0
706.0,8.0
705.0,8.0
704.0,8.0
703.0,8.0
702.0,8.0
701.0,0.1482
700.0,-0.5635
699.0,0.7544
698.0,8.0
697.0,-0.3716
696.0,8.0
695.0,-0.6714
694.0,0.3868
693.0,-1.5069
692.0,-1.8134
691.0,-0.9704
690.0,8.0
689.0,-0.6826
688.0,8.0
687.0,-0.7313
686.0,-0.249
685.0,-0.5629
684.0,-0.0704
683.0,-0.2312
682.0,0.3971
681.0,-0.1556
680.0,0.4379
679.0,-0.4005
678.0,-0.0572
677.0,-0.6887
676.0,-1.0159
675.0,8.0
674.0,8.0
673.0,-0.4923
672.0,8.0
671.0,-0.2005
670.0,0.1395
669.0,-0.1572
668.0,0.2569
667.0,8.0
666.0,8.0
665.0,0.1967
664.0,0.0089
663.0,-0.0639
662.0,0.0016
661.0,0.0378
660.0,0.0351
659.0,-0.1403
658.0,-0.2446
657.0,-0.1105
656.0,0.2012
655.0,0.0326
654.0,0.2236
653.0,-0.3145
652.0,-0.1087
651.0,-0.4818
650.0,0.3713
649.0,-0.565
648.0,-0.9491
647.0,0.0165
646.0,8.0
645.0,-0.5757
644.0,-0.8784
643.0,8.0
642.0,8.0
641.0,8.0
640.0,8.0
639.0,-0.0453
638.0,8.0
637.0,-0.2673
636.0,0.5331
635.0,-0.2112
634.0,0.4709
633.0,-0.3577
632.0,-0.9789
631.0,8.0
630.0,8.0
629.0,-0.6102
628.0,-0.0903
627.0,-0.0082
626.0,0.2192
625.0,0.5806
624.0,0.5073
623.0,0.6225
622.0,0.2158
621.0,0.1743
620.0,0.0858
619.0,0.4537
618.0,0.9096
617.0,8.0
616.0,0.6485
615.0,8.0
614.0,0.2569
613.0,8.0
612.0,8.0
611.0,8.0
610.0,8.0
609.0,8.0
608.0,8.0
607.0,8.0
606.0,-0.2779
605.0,8.0
604.0,8.0
603.0,8.0
602.0,-0.5501
601.0,8.0
600.0,-0.1678
