cm-1,A
4000.0,0.033482823553208085
3999.0,0.03357665405630694
3998.0,0.03362357691107709
3997.0,0.03367050483612166
3996.0,0.03362357691107709
3995.0,0.03362357691107709
3994.0,0.03362357691107709
3993.0,0.03362357691107709
3992.0,0.03367050483612166
3991.0,0.03362357691107709
3990.0,0.03352973627071565
3989.0,0.033482823553208085
3988.0,0.033482823553208085
3987.0,0.03352973627071565
3986.0,0.03357665405630694
3985.0,0.03367050483612166
3984.0,0.03371743783253667
3983.0,0.03376437590141812
3982.0,0.0338113190438627
3981.0,0.03385826726096752
3980.0,0.033905220553829274
3979.0,0.033952178923546183
3978.0,0.034046110897937076
3977.0,0.034046110897937076
3976.0,0.03399914237121604
3975.0,0.033905220553829274
3974.0,0.03385826726096752
3973.0,0.0338113190438627
3972.0,0.0338113190438627
3971.0,0.03385826726096752
3970.0,0.03385826726096752
3969.0,0.033905220553829274
3968.0,0.033905220553829274
3967.0,0.033905220553829274
3966.0,0.03399914237121604
3965.0,0.03409308450480819
3964.0,0.034187046963396917
3963.0,0.03428102975577918
3962.0,0.03428102975577918
3961.0,0.03428102975577918
3960.0,0.03428102975577918
3959.0,0.03428102975577918
3958.0,0.03428102975577918
3957.0,0.03423403581731388
3956.0,0.03414006319292828
3955.0,0.034046110897937076
3954.0,0.034046110897937076
3953.0,0.03409308450480819
3952.0,0.03414006319292828
3951.0,0.03414006319292828
3950.0,0.03414006319292828
3949.0,0.03409308450480819
3948.0,0.03409308450480819
3947.0,0.03409308450480819
3946.0,0.03409308450480819
3945.0,0.034046110897937076
3944.0,0.033905220553829274
3943.0,0.0338113190438627
3942.0,0.03385826726096752
3941.0,0.033905220553829274
3940.0,0.033952178923546183
3939.0,0.03399914237121604
3938.0,0.034046110897937076
3937.0,0.03414006319292828
3936.0,0.03423403581731388
3935.0,0.03432802877989327
3934.0,0.034469056377139484
3933.0,0.03461012978487776
3932.0,0.03475124903287918
3931.0,0.03479829897408804
3930.0,0.03475124903287918
3929.0,0.03465716443937783
3928.0,0.03456310022373987
3927.0,0.034469056377139484
3926.0,0.034469056377139484
3925.0,0.034469056377139484
3924.0,0.034516075754861264
3923.0,0.034516075754861264
3922.0,0.034516075754861264
3921.0,0.034516075754861264
3920.0,0.03456310022373987
3919.0,0.03465716443937783
3918.0,0.03489241415094413
3917.0,0.03498654972775217
3916.0,0.0349394793888016
3915.0,0.03475124903287918
3914.0,0.034516075754861264
3913.0,0.034469056377139484
3912.0,0.03456310022373987
3911.0,0.03479829897408804
3910.0,0.03503362516890207
3909.0,0.03512779136222477
3908.0,0.03512779136222477
3907.0,0.03503362516890207
3906.0,0.03489241415094413
3905.0,0.03484535401307465
3904.0,0.03484535401307465
3903.0,0.03475124903287918
3902.0,0.03456310022373987
3901.0,0.03432802877989327
3900.0,0.034187046963396917
3899.0,0.03423403581731388
3898.0,0.03437503289075727
3897.0,0.03456310022373987
3896.0,0.03465716443937783
3895.0,0.03465716443937783
3894.0,0.03456310022373987
3893.0,0.034469056377139484
3892.0,0.03456310022373987
3891.0,0.03475124903287918
3890.0,0.0349394793888016
3889.0,0.0349394793888016
3888.0,0.03475124903287918
3887.0,0.034469056377139484
3886.0,0.03432802877989327
3885.0,0.03432802877989327
3884.0,0.03442204208947208
3883.0,0.03437503289075727
3882.0,0.03428102975577918
3881.0,0.03428102975577918
3880.0,0.03442204208947208
3879.0,0.03465716443937783
3878.0,0.03484535401307465
3877.0,0.03489241415094413
3876.0,0.03484535401307465
3875.0,0.0349394793888016
3874.0,0.03503362516890207
3873.0,0.03503362516890207
3872.0,0.03484535401307465
3871.0,0.03465716443937783
3870.0,0.03461012978487776
3869.0,0.03470420418834386
3868.0,0.03479829897408804
3867.0,0.03479829897408804
3866.0,0.03470420418834386
3865.0,0.03465716443937783
3864.0,0.03475124903287918
3863.0,0.03484535401307465
3862.0,0.03484535401307465
3861.0,0.03484535401307465
3860.0,0.03484535401307465
3859.0,0.0349394793888016
3858.0,0.03503362516890207
3857.0,0.03498654972775217
3856.0,0.03489241415094413
3855.0,0.03475124903287918
3854.0,0.03489241415094413
3853.0,0.03498654972775217
3852.0,0.03479829897408804
3851.0,0.03456310022373987
3850.0,0.03461012978487776
3849.0,0.03479829897408804
3848.0,0.03503362516890207
3847.0,0.03522197797762394
3846.0,0.035363296211498474
3845.0,0.03545753392086315
3844.0,0.03555179208333925
3843.0,0.03555179208333925
3842.0,0.03545753392086315
3841.0,0.03512779136222477
3840.0,0.03465716443937783
3839.0,0.03428102975577918
3838.0,0.034187046963396917
3837.0,0.03428102975577918
3836.0,0.03461012978487776
3835.0,0.0349394793888016
3834.0,0.03522197797762394
3833.0,0.035363296211498474
3832.0,0.03545753392086315
3831.0,0.03555179208333925
3830.0,0.035646070707806565
3829.0,0.035740369803151095
3828.0,0.035740369803151095
3827.0,0.03578752703018084
3826.0,0.035740369803151095
3825.0,0.035693217696063595
3824.0,0.03550466044490741
3823.0,0.03531618502395939
3822.0,0.03531618502395939
3821.0,0.03559892883726867
3820.0,0.03578752703018084
3819.0,0.035646070707806565
3818.0,0.03526907894637077
3817.0,0.03489241415094413
3816.0,0.03470420418834386
3815.0,0.03479829897408804
3814.0,0.03508070571335731
3813.0,0.035363296211498474
3812.0,0.03559892883726867
3811.0,0.03578752703018084
3810.0,0.03583468937826462
3809.0,0.03583468937826462
3808.0,0.03583468937826462
3807.0,0.03592902944204468
3806.0,0.03602339000339416
3805.0,0.03588185684851508
3804.0,0.03555179208333925
3803.0,0.03526907894637077
3802.0,0.03531618502395939
3801.0,0.03559892883726867
3800.0,0.03578752703018084
3799.0,0.035693217696063595
3798.0,0.03550466044490741
3797.0,0.03545753392086315
3796.0,0.03555179208333925
3795.0,0.035693217696063595
3794.0,0.03583468937826462
3793.0,0.03588185684851508
3792.0,0.03588185684851508
3791.0,0.03592902944204468
3790.0,0.0360705779734416
3789.0,0.03616496929785207
3788.0,0.03621217265444465
3787.0,0.03621217265444465
3786.0,0.03621217265444465
3785.0,0.03621217265444465
3784.0,0.03621217265444465
3783.0,0.03621217265444465
3782.0,0.03621217265444465
3781.0,0.03621217265444465
3780.0,0.03625938114211591
3779.0,0.03630659476198117
3778.0,0.03630659476198117
3777.0,0.03630659476198117
3776.0,0.03630659476198117
3775.0,0.036401037402758574
3774.0,0.03644826642590382
3773.0,0.036401037402758574
3772.0,0.03625938114211591
3771.0,0.036117771071222604
3770.0,0.036117771071222604
3769.0,0.03616496929785207
3768.0,0.03621217265444465
3767.0,0.03616496929785207
3766.0,0.03616496929785207
3765.0,0.03621217265444465
3764.0,0.036401037402758574
3763.0,0.03658998431977123
3762.0,0.036779013477011624
3761.0,0.0369681249461018
3760.0,0.0371573187987575
3759.0,0.037346595106788616
3758.0,0.037346595106788616
3757.0,0.037251946641359446
3756.0,0.037062711569998186
3755.0,0.03682628362474838
3754.0,0.03658998431977123
3753.0,0.036401037402758574
3752.0,0.03630659476198117
3751.0,0.036401037402758574
3750.0,0.03649550058570927
3749.0,0.03649550058570927
3748.0,0.03649550058570927
3747.0,0.036401037402758574
3746.0,0.03625938114211591
3745.0,0.036117771071222604
3744.0,0.0360705779734416
3743.0,0.03602339000339416
3742.0,0.03588185684851508
3741.0,0.03583468937826462
3740.0,0.03588185684851508
3739.0,0.03602339000339416
3738.0,0.03621217265444465
3737.0,0.03649550058570927
3736.0,0.036731748473764814
3735.0,0.03682628362474838
3734.0,0.03682628362474838
3733.0,0.03692083935817303
3732.0,0.0371573187987575
3731.0,0.037299268295658994
3730.0,0.037251946641359446
3729.0,0.03701541568300293
3728.0,0.036873558918095295
3727.0,0.03692083935817303
3726.0,0.0371573187987575
3725.0,0.037299268295658994
3724.0,0.03720463014276687
3723.0,0.03701541568300293
3722.0,0.03682628362474838
3721.0,0.036779013477011624
3720.0,0.036779013477011624
3719.0,0.036779013477011624
3718.0,0.036779013477011624
3717.0,0.03682628362474838
3716.0,0.03692083935817303
3715.0,0.03701541568300293
3714.0,0.0371100126082089
3713.0,0.0371573187987575
3712.0,0.037299268295658994
3711.0,0.03739392707587297
3710.0,0.037346595106788616
3709.0,0.0371573187987575
3708.0,0.037062711569998186
3707.0,0.0369681249461018
3706.0,0.036873558918095295
3705.0,0.036731748473764814
3704.0,0.036542739883292485
3703.0,0.03635381351515665
3702.0,0.03616496929785207
3701.0,0.03602339000339416
3700.0,0.03583468937826462
3699.0,0.035693217696063595
3698.0,0.03559892883726867
3697.0,0.03559892883726867
3696.0,0.03555179208333925
3695.0,0.03550466044490741
3694.0,0.03541041251009669
3693.0,0.03526907894637077
3692.0,0.03517488211661135
3691.0,0.03522197797762394
3690.0,0.03522197797762394
3689.0,0.03508070571335731
3688.0,0.03484535401307465
3687.0,0.03475124903287918
3686.0,0.03484535401307465
3685.0,0.03508070571335731
3684.0,0.03531618502395939
3683.0,0.03555179208333925
3682.0,0.035740369803151095
3681.0,0.03597620715996652
3680.0,0.03616496929785207
3679.0,0.0360705779734416
3678.0,0.035646070707806565
3677.0,0.03498654972775217
3676.0,0.034516075754861264
3675.0,0.034469056377139484
3674.0,0.03456310022373987
3673.0,0.03456310022373987
3672.0,0.03432802877989327
3671.0,0.03409308450480819
3670.0,0.03409308450480819
3669.0,0.03437503289075727
3668.0,0.03479829897408804
3667.0,0.03512779136222477
3666.0,0.035363296211498474
3665.0,0.03550466044490741
3664.0,0.03559892883726867
3663.0,0.035693217696063595
3662.0,0.03578752703018084
3661.0,0.03583468937826462
3660.0,0.03578752703018084
3659.0,0.035646070707806565
3658.0,0.03555179208333925
3657.0,0.03555179208333925
3656.0,0.03578752703018084
3655.0,0.036117771071222604
3654.0,0.03635381351515665
3653.0,0.036542739883292485
3652.0,0.036731748473764814
3651.0,0.0371100126082089
3650.0,0.03767802727041558
3649.0,0.03786753070176463
3648.0,0.037346595106788616
3647.0,0.03668448861388862
3646.0,0.03658998431977123
3645.0,0.036873558918095295
3644.0,0.037251946641359446
3643.0,0.03753595394209874
3642.0,0.03772539537668518
3641.0,0.03791491948264003
3640.0,0.038057116858612794
3639.0,0.038151940981675736
3638.0,0.038199360808321536
3637.0,0.03824678581321739
3636.0,0.03829421599749461
3635.0,0.03848398855105106
3634.0,0.03876880295533702
3633.0,0.03905380426616856
3632.0,0.03919637508823026
3631.0,0.03914884628031379
3630.0,0.03905380426616856
3629.0,0.03914884628031379
3628.0,0.03938654235209116
3627.0,0.03948165721929198
3626.0,0.03952922246570112
3625.0,0.03957679292217042
3624.0,0.03967194946985697
3623.0,0.039719535563357944
3622.0,0.039719535563357944
3621.0,0.039719535563357944
3620.0,0.039767126871487646
3619.0,0.039909932095080425
3618.0,0.04010041213405646
3617.0,0.04019568349166214
3616.0,0.040243327009005014
3615.0,0.04038628892895613
3614.0,0.04057697805689475
3613.0,0.04086316882962593
3612.0,0.04105406750606355
3611.0,0.041101805289228244
3610.0,0.041101805289228244
3609.0,0.04105406750606355
3608.0,0.04105406750606355
3607.0,0.041006334969674096
3606.0,0.041006334969674096
3605.0,0.041006334969674096
3604.0,0.04105406750606355
3603.0,0.041101805289228244
3602.0,0.04124505013091051
3601.0,0.041436116778032606
3600.0,0.04172287445230238
3599.0,0.041914151478914974
3598.0,0.041914151478914974
3597.0,0.0417706858116178
3596.0,0.041579471947481794
3595.0,0.04153168163305643
3594.0,0.041627267521392675
3593.0,0.0417706858116178
3592.0,0.04181850243505214
3591.0,0.04181850243505214
3590.0,0.04167506835594681
3589.0,0.041627267521392675
3588.0,0.0417706858116178
3587.0,0.042057664554595586
3586.0,0.04229695845116854
3585.0,0.04248848854552012
3584.0,0.042584285277331047
3583.0,0.04263219156847242
3582.0,0.04263219156847242
3581.0,0.04268010314465909
3580.0,0.042775942156833
3579.0,0.04282386959515394
3578.0,0.04287180232318688
3577.0,0.04282386959515394
3576.0,0.04282386959515394
3575.0,0.04287180232318688
3574.0,0.042967683653061695
3573.0,0.0431115453499229
3572.0,0.04325545471730896
3571.0,0.04325545471730896
3570.0,0.04315950984076644
3569.0,0.0431115453499229
3568.0,0.04325545471730896
3567.0,0.04359142880416744
3566.0,0.0439276630048171
3565.0,0.044071843103049346
3564.0,0.044071843103049346
3563.0,0.04402377775167454
3562.0,0.044071843103049346
3561.0,0.04411991377462465
3560.0,0.04421607108308856
3559.0,0.044167989767578186
3558.0,0.044071843103049346
3557.0,0.04397571771932274
3556.0,0.04397571771932274
3555.0,0.044071843103049346
3554.0,0.04426415772233416
3553.0,0.044456557540257124
3552.0,0.04455278942230456
3551.0,0.04464904263234004
3550.0,0.04464904263234004
3549.0,0.04464904263234004
3548.0,0.04469717723830824
3547.0,0.04474531717982
3546.0,0.04484161307420642
3545.0,0.044937930324967956
3544.0,0.044986096961949995
3543.0,0.044986096961949995
3542.0,0.044937930324967956
3541.0,0.04503426894157925
3540.0,0.0451788169482068
3539.0,0.045323413081356456
3538.0,0.04537162249272897
3537.0,0.045323413081356456
3536.0,0.04522701031028298
3535.0,0.04522701031028298
3534.0,0.045323413081356456
3533.0,0.045564513671517703
3532.0,0.04580574818413763
3531.0,0.04595055323640551
3530.0,0.046047116768076934
3529.0,0.04609540658654021
3528.0,0.04609540658654021
3527.0,0.046047116768076934
3526.0,0.04595055323640551
3525.0,0.045902279520810385
3524.0,0.04585401117045196
3523.0,0.04580574818413763
3522.0,0.04580574818413763
3521.0,0.04580574818413763
3520.0,0.04585401117045196
3519.0,0.046047116768076934
3518.0,0.04628861957244457
3517.0,0.046481918555007384
3516.0,0.04662694927330402
3515.0,0.04667530361081473
3514.0,0.04672366333269573
3513.0,0.04677202844014605
3512.0,0.04686877481655505
3511.0,0.04701393480294458
3510.0,0.04711073508906982
3509.0,0.04720755695590784
3508.0,0.04720755695590784
3507.0,0.04720755695590784
3506.0,0.04711073508906982
3505.0,0.047062332249019345
3504.0,0.04701393480294458
3503.0,0.047062332249019345
3502.0,0.04711073508906982
3501.0,0.04725597598510167
3500.0,0.047352830241056854
3499.0,0.04744970610179822
3498.0,0.04749815213697639
3497.0,0.04749815213697639
3496.0,0.04744970610179822
3495.0,0.04740126547022694
3494.0,0.047352830241056854
3493.0,0.04744970610179822
3492.0,0.04754660357696672
3491.0,0.047691990337874746
3490.0,0.0478374257855374
3489.0,0.047934409814949674
3488.0,0.047934409814949674
3487.0,0.047934409814949674
3486.0,0.047885915093007325
3485.0,0.0478374257855374
3484.0,0.047885915093007325
3483.0,0.047982909952573705
3482.0,0.04807992647970649
3481.0,0.048128442871635535
3480.0,0.04807992647970649
3479.0,0.047982909952573705
3478.0,0.047885915093007325
3477.0,0.0478374257855374
3476.0,0.04778894189133087
3475.0,0.04778894189133087
3474.0,0.047885915093007325
3473.0,0.04807992647970649
3472.0,0.048225491918274965
3471.0,0.04837110616336182
3470.0,0.04837110616336182
3469.0,0.04827402457540786
3468.0,0.048128442871635535
3467.0,0.04807992647970649
3466.0,0.048128442871635535
3465.0,0.048225491918274965
3464.0,0.04832256265669943
3463.0,0.04837110616336182
3462.0,0.048468209457651845
3461.0,0.048565334467987054
3460.0,0.04875964967565971
3459.0,0.048905443158337114
3458.0,0.04909991063361274
3457.0,0.049245818406496555
3456.0,0.049294465226138895
3455.0,0.049294465226138895
3454.0,0.049294465226138895
3453.0,0.04934311749548925
3452.0,0.04939177521576932
3451.0,0.04934311749548925
3450.0,0.049148541111453614
3449.0,0.04905128560059957
3448.0,0.04905128560059957
3447.0,0.04919717703534143
3446.0,0.04944043838819989
3445.0,0.04968383607539972
3444.0,0.04987865248862655
3443.0,0.04997609347667353
3442.0,0.049927370249842395
3441.0,0.04982994019179987
3440.0,0.04968383607539972
3439.0,0.04958646063061889
3438.0,0.04958646063061889
3437.0,0.04978123335813667
3436.0,0.04997609347667353
3435.0,0.050073556332087765
3434.0,0.05002482217034632
3433.0,0.04997609347667353
3432.0,0.04997609347667353
3431.0,0.05012229596312534
3430.0,0.050317309204795935
3429.0,0.050463626623857394
3428.0,0.050463626623857394
3427.0,0.050414848673348
3426.0,0.050414848673348
3425.0,0.05056119896349576
3424.0,0.050707598587974356
3423.0,0.050805225762017736
3422.0,0.05075640943173498
3421.0,0.0506099933550872
3420.0,0.05051241005349638
3419.0,0.050463626623857394
3418.0,0.05056119896349576
3417.0,0.05075640943173498
3416.0,0.050902874887084115
3415.0,0.05095170768433621
3414.0,0.05085404758005607
3413.0,0.050805225762017736
3412.0,0.050805225762017736
3411.0,0.050902874887084115
3410.0,0.05100054597304693
3409.0,0.05114709380028648
3408.0,0.05134256785867963
3407.0,0.05153812993871654
3406.0,0.05163594401163074
3405.0,0.051684859310652254
3404.0,0.05163594401163074
3403.0,0.05153812993871654
3402.0,0.05139145012356372
3401.0,0.051244819831730126
3400.0,0.05119595406718891
3399.0,0.05119595406718891
3398.0,0.05129369109514803
3397.0,0.05134256785867963
3396.0,0.05139145012356372
3395.0,0.05134256785867963
3394.0,0.05139145012356372
3393.0,0.05144033789103841
3392.0,0.05148923116234294
3391.0,0.05153812993871654
3390.0,0.0515870342213991
3389.0,0.051684859310652254
3388.0,0.0518316382728683
3387.0,0.05192951848105887
3386.0,0.052027420754219955
3385.0,0.05207638016827354
3384.0,0.052027420754219955
3383.0,0.05192951848105887
3382.0,0.05173378011970464
3381.0,0.0515870342213991
3380.0,0.05153812993871654
3379.0,0.05163594401163074
3378.0,0.05192951848105887
3377.0,0.05222329153526162
3376.0,0.05237025261564554
3375.0,0.05237025261564554
3374.0,0.05222329153526162
3373.0,0.052027420754219955
3372.0,0.05188057561946402
3371.0,0.0518316382728683
3370.0,0.05192951848105887
3369.0,0.052027420754219955
3368.0,0.05222329153526162
3367.0,0.05237025261564554
3366.0,0.052468254304406825
3365.0,0.0525172634430815
3364.0,0.052419250695677544
3363.0,0.05227227303668425
3362.0,0.05217431555754937
3361.0,0.05212534510230182
3360.0,0.05207638016827354
3359.0,0.052027420754219955
3358.0,0.05197846685889629
3357.0,0.052027420754219955
3356.0,0.05207638016827354
3355.0,0.05207638016827354
3354.0,0.05212534510230182
3353.0,0.05217431555754937
3352.0,0.05222329153526162
3351.0,0.05227227303668425
3350.0,0.05232126006306337
3349.0,0.05232126006306337
3348.0,0.05222329153526162
3347.0,0.05217431555754937
3346.0,0.05217431555754937
3345.0,0.05227227303668425
3344.0,0.052419250695677544
3343.0,0.05256627811294923
3342.0,0.05266432405126009
3341.0,0.05271335532220167
3340.0,0.05271335532220167
3339.0,0.05261529831525902
3338.0,0.052468254304406825
3337.0,0.05227227303668425
3336.0,0.05217431555754937
3335.0,0.05227227303668425
3334.0,0.052419250695677544
3333.0,0.05261529831525902
3332.0,0.05266432405126009
3331.0,0.05266432405126009
3330.0,0.05261529831525902
3329.0,0.05266432405126009
3328.0,0.05266432405126009
3327.0,0.05256627811294923
3326.0,0.052468254304406825
3325.0,0.05237025261564554
3324.0,0.05232126006306337
3323.0,0.05232126006306337
3322.0,0.05237025261564554
3321.0,0.052468254304406825
3320.0,0.0525172634430815
3319.0,0.052468254304406825
3318.0,0.05237025261564554
3317.0,0.05222329153526162
3316.0,0.05217431555754937
3315.0,0.05217431555754937
3314.0,0.05222329153526162
3313.0,0.05232126006306337
3312.0,0.052419250695677544
3311.0,0.052468254304406825
3310.0,0.052419250695677544
3309.0,0.05227227303668425
3308.0,0.05217431555754937
3307.0,0.05212534510230182
3306.0,0.05217431555754937
3305.0,0.05232126006306337
3304.0,0.052468254304406825
3303.0,0.052419250695677544
3302.0,0.05227227303668425
3301.0,0.052027420754219955
3300.0,0.05188057561946402
3299.0,0.0518316382728683
3298.0,0.05188057561946402
3297.0,0.05197846685889629
3296.0,0.05207638016827354
3295.0,0.05207638016827354
3294.0,0.052027420754219955
3293.0,0.05188057561946402
3292.0,0.0518316382728683
3291.0,0.0518316382728683
3290.0,0.05188057561946402
3289.0,0.05207638016827354
3288.0,0.05222329153526162
3287.0,0.05237025261564554
3286.0,0.052419250695677544
3285.0,0.05237025261564554
3284.0,0.05227227303668425
3283.0,0.05217431555754937
3282.0,0.05207638016827354
3281.0,0.05192951848105887
3280.0,0.05188057561946402
3279.0,0.05188057561946402
3278.0,0.05192951848105887
3277.0,0.05197846685889629
3276.0,0.05207638016827354
3275.0,0.05212534510230182
3274.0,0.05212534510230182
3273.0,0.05207638016827354
3272.0,0.05197846685889629
3271.0,0.05188057561946402
3270.0,0.05178270644002936
3269.0,0.05173378011970464
3268.0,0.05163594401163074
3267.0,0.0515870342213991
3266.0,0.05153812993871654
3265.0,0.05153812993871654
3264.0,0.05148923116234294
3263.0,0.05153812993871654
3262.0,0.05163594401163074
3261.0,0.05173378011970464
3260.0,0.051684859310652254
3259.0,0.0515870342213991
3258.0,0.05144033789103841
3257.0,0.05139145012356372
3256.0,0.05139145012356372
3255.0,0.05139145012356372
3254.0,0.05144033789103841
3253.0,0.05144033789103841
3252.0,0.05148923116234294
3251.0,0.05153812993871654
3250.0,0.05153812993871654
3249.0,0.05163594401163074
3248.0,0.05173378011970464
3247.0,0.0518316382728683
3246.0,0.05188057561946402
3245.0,0.05188057561946402
3244.0,0.0518316382728683
3243.0,0.05173378011970464
3242.0,0.05153812993871654
3241.0,0.05134256785867963
3240.0,0.051244819831730126
3239.0,0.05119595406718891
3238.0,0.05119595406718891
3237.0,0.051098239029786274
3236.0,0.05100054597304693
3235.0,0.05095170768433621
3234.0,0.05100054597304693
3233.0,0.05114709380028648
3232.0,0.051244819831730126
3231.0,0.051244819831730126
3230.0,0.05119595406718891
3229.0,0.051098239029786274
3228.0,0.05100054597304693
3227.0,0.05100054597304693
3226.0,0.051049389754451946
3225.0,0.051098239029786274
3224.0,0.05114709380028648
3223.0,0.05119595406718891
3222.0,0.05129369109514803
3221.0,0.05134256785867963
3220.0,0.05139145012356372
3219.0,0.05139145012356372
3218.0,0.05129369109514803
3217.0,0.05129369109514803
3216.0,0.05129369109514803
3215.0,0.05139145012356372
3214.0,0.05144033789103841
3213.0,0.05139145012356372
3212.0,0.05129369109514803
3211.0,0.051098239029786274
3210.0,0.05100054597304693
3209.0,0.051049389754451946
3208.0,0.051244819831730126
3207.0,0.05139145012356372
3206.0,0.05144033789103841
3205.0,0.05129369109514803
3204.0,0.051098239029786274
3203.0,0.05095170768433621
3202.0,0.050902874887084115
3201.0,0.050902874887084115
3200.0,0.05095170768433621
3199.0,0.05100054597304693
3198.0,0.05114709380028648
3197.0,0.05129369109514803
3196.0,0.05134256785867963
3195.0,0.051244819831730126
3194.0,0.051049389754451946
3193.0,0.05085404758005607
3192.0,0.050805225762017736
3191.0,0.05085404758005607
3190.0,0.050902874887084115
3189.0,0.05100054597304693
3188.0,0.051049389754451946
3187.0,0.05100054597304693
3186.0,0.05095170768433621
3185.0,0.05075640943173498
3184.0,0.05056119896349576
3183.0,0.05036607620073763
3182.0,0.05021979163799939
3181.0,0.05012229596312534
3180.0,0.05012229596312534
3179.0,0.050171041064686284
3178.0,0.050317309204795935
3177.0,0.050463626623857394
3176.0,0.05056119896349576
3175.0,0.050463626623857394
3174.0,0.05021979163799939
3173.0,0.049927370249842395
3172.0,0.04968383607539972
3171.0,0.04953778109440221
3170.0,0.04948910701400333
3169.0,0.04958646063061889
3168.0,0.04973253198641148
3167.0,0.049927370249842395
3166.0,0.050073556332087765
3165.0,0.050171041064686284
3164.0,0.05021979163799939
3163.0,0.05012229596312534
3162.0,0.04987865248862655
3161.0,0.04953778109440221
3160.0,0.04919717703534143
3159.0,0.04900266601119507
3158.0,0.04900266601119507
3157.0,0.04905128560059957
3156.0,0.049148541111453614
3155.0,0.049148541111453614
3154.0,0.04919717703534143
3153.0,0.049245818406496555
3152.0,0.049294465226138895
3151.0,0.049245818406496555
3150.0,0.04919717703534143
3149.0,0.049148541111453614
3148.0,0.04919717703534143
3147.0,0.04919717703534143
3146.0,0.049148541111453614
3145.0,0.04905128560059957
3144.0,0.04885683989244738
3143.0,0.04871106272232795
3142.0,0.04871106272232795
3141.0,0.04871106272232795
3140.0,0.04875964967565971
3139.0,0.04871106272232795
3138.0,0.048565334467987054
3137.0,0.04837110616336182
3136.0,0.04827402457540786
3135.0,0.04827402457540786
3134.0,0.04827402457540786
3133.0,0.048225491918274965
3132.0,0.048128442871635535
3131.0,0.047982909952573705
3130.0,0.0478374257855374
3129.0,0.0478374257855374
3128.0,0.04778894189133087
3127.0,0.04778894189133087
3126.0,0.04774046340917959
3125.0,0.04774046340917959
3124.0,0.04774046340917959
3123.0,0.047643522676209304
3122.0,0.04749815213697639
3121.0,0.04740126547022694
3120.0,0.04730440041308315
3119.0,0.04715914332429838
3118.0,0.047062332249019345
3117.0,0.0469171560879138
3116.0,0.04677202844014605
3115.0,0.04672366333269573
3114.0,0.04677202844014605
3113.0,0.04682039893436585
3112.0,0.04677202844014605
3111.0,0.04667530361081473
3110.0,0.04653025674659861
3109.0,0.04643358574299339
3108.0,0.04643358574299339
3107.0,0.04643358574299339
3106.0,0.04643358574299339
3105.0,0.04633693625290869
3104.0,0.04628861957244457
3103.0,0.04628861957244457
3102.0,0.04633693625290869
3101.0,0.04638525830935958
3100.0,0.04628861957244457
3099.0,0.046143701775014145
3098.0,0.045902279520810385
3097.0,0.045660991397539874
3096.0,0.0454680573730859
3095.0,0.04537162249272897
3094.0,0.045323413081356456
3093.0,0.04522701031028298
3092.0,0.0451788169482068
3091.0,0.04513062893352182
3090.0,0.04513062893352182
3089.0,0.04508244626504121
3088.0,0.04503426894157925
3087.0,0.044937930324967956
3086.0,0.04484161307420642
3085.0,0.04474531717982
3084.0,0.04464904263234004
3083.0,0.04460091336073302
3082.0,0.04460091336073302
3081.0,0.04460091336073302
3080.0,0.04450467081587295
3079.0,0.044360346976747955
3078.0,0.044167989767578186
3077.0,0.04402377775167454
3076.0,0.04397571771932274
3075.0,0.0439276630048171
3074.0,0.04387961360698034
3073.0,0.0437835307566099
3072.0,0.04368746915880539
3071.0,0.04363944632667782
3070.0,0.04368746915880539
3069.0,0.043735497301724546
3068.0,0.0437835307566099
3067.0,0.043735497301724546
3066.0,0.04363944632667782
3065.0,0.043495409683302455
3064.0,0.04339941178682327
3063.0,0.04325545471730896
3062.0,0.04315950984076644
3061.0,0.043063586155803746
3060.0,0.042967683653061695
3059.0,0.04287180232318688
3058.0,0.042775942156833
3057.0,0.04268010314465909
3056.0,0.04248848854552012
3055.0,0.04229695845116854
3054.0,0.04210551278710151
3053.0,0.04196198390166317
3052.0,0.0417706858116178
3051.0,0.041579471947481794
3050.0,0.04138834223512067
3049.0,0.041197296600497646
3048.0,0.041149548320321694
3047.0,0.04105406750606355
3046.0,0.041006334969674096
3045.0,0.04086316882962593
3044.0,0.04076775094900409
3043.0,0.040672354027829094
3042.0,0.04062466342415694
3041.0,0.040529297924893015
3040.0,0.0402909757535701
3039.0,0.040005161671583744
3038.0,0.03967194946985697
3037.0,0.039338992729018196
3036.0,0.039006291057664066
3035.0,0.03862637240519895
3034.0,0.03829421599749461
3033.0,0.038057116858612794
3032.0,0.03791491948264003
3031.0,0.03777276864991497
3030.0,0.03767802727041558
3029.0,0.03744126420403626
3028.0,0.0371573187987575
3027.0,0.036779013477011624
3026.0,0.03635381351515665
3025.0,0.03597620715996652
3024.0,0.035693217696063595
3023.0,0.03541041251009669
3022.0,0.03517488211661135
3021.0,0.03484535401307465
3020.0,0.034469056377139484
3019.0,0.033952178923546183
3018.0,0.033482823553208085
3017.0,0.03301397488206215
3016.0,0.032686081712916426
3015.0,0.03235843591698884
3014.0,0.032031037121307726
3013.0,0.03161045815293173
3012.0,0.031096969696171817
3011.0,0.030537492025363155
3010.0,0.03002526987828502
3009.0,0.029560137048236124
3008.0,0.029141943003497595
3007.0,0.02863136320857662
3006.0,0.028167720075074953
3005.0,0.027658283674251827
3004.0,0.027195677663422346
3003.0,0.026733563891471412
3002.0,0.026271941311972746
3001.0,0.025810808881832736
3000.0,0.025350165561278004
2999.0,0.024890010313838973
2998.0,0.024522236834125355
2997.0,0.024246610963712723
2996.0,0.024017056287453542
2995.0,0.023741750742954926
2994.0,0.023466619608062178
2993.0,0.02300845469384938
2992.0,0.022413561996148967
2991.0,0.02168250325324883
2990.0,0.020952673052035298
2989.0,0.020406104151069693
2988.0,0.020178569969774962
2987.0,0.02022406727031445
2986.0,0.02058821736556471
2985.0,0.021043834782408455
2984.0,0.02159120737696063
2983.0,0.02200219004126036
2982.0,0.022322112326006227
2981.0,0.02259651912656535
2980.0,0.023054249440757957
2979.0,0.023787622882622816
2978.0,0.024798037742147727
2977.0,0.026087429580295085
2976.0,0.02751945012352408
2975.0,0.029095501846216454
2974.0,0.030910397045078586
2973.0,0.03301397488206215
2972.0,0.03550466044490741
2971.0,0.03857890593355173
2970.0,0.04210551278710151
2969.0,0.046143701775014145
2968.0,0.05056119896349576
2967.0,0.05536929814372171
2966.0,0.060430831344098435
2965.0,0.06565307326174441
2964.0,0.07088774334533943
2963.0,0.0759792995259323
2962.0,0.08055578953476306
2961.0,0.08460016478773014
2960.0,0.08799062441302175
2959.0,0.09087205801073917
2958.0,0.09361107884716913
2957.0,0.09653017149282994
2956.0,0.09996076451267522
2955.0,0.10419084983086901
2954.0,0.10929960230112479
2953.0,0.11520463605101905
2952.0,0.12159311241900439
2951.0,0.12784372725170723
2950.0,0.13324021650489182
2949.0,0.1370342410222376
2948.0,0.1385253311428314
2947.0,0.13739163603505822
2946.0,0.13365357725039817
2945.0,0.12784372725170723
2944.0,0.12084675381575383
2943.0,0.11339648571328764
2942.0,0.10623823794205656
2941.0,0.09979678698310646
2940.0,0.09441997176475758
2939.0,0.09033701484598189
2938.0,0.08745911720936239
2937.0,0.08576265223225898
2936.0,0.08533956941077814
2935.0,0.08608023504853413
2934.0,0.08799062441302175
2933.0,0.09087205801073917
2932.0,0.09463593123310776
2931.0,0.09919606518963042
2930.0,0.10441172433373724
2929.0,0.11008231656379408
2928.0,0.11605480496572018
2927.0,0.12211057462851604
2926.0,0.12819363554127072
2925.0,0.13406733180681396
2924.0,0.13978181533124334
2923.0,0.14551177495556966
2922.0,0.1513798825658661
2921.0,0.15745316350498495
2920.0,0.16367588429324842
2919.0,0.16973219906635828
2918.0,0.1751585282462993
2917.0,0.17920761891179637
2916.0,0.1815101777957866
2915.0,0.1818401136028147
2914.0,0.180587688790675
2913.0,0.17815907279954568
2912.0,0.1752235375244544
2911.0,0.1721140172101443
2910.0,0.16902660267734948
2909.0,0.166151950468852
2908.0,0.163359458427226
2907.0,0.1605219526258017
2906.0,0.1577028656719348
2905.0,0.15477789357098626
2904.0,0.1517492853229574
2903.0,0.14855818532794496
2902.0,0.1450869776921444
2901.0,0.14164329470222659
2900.0,0.1384058553561347
2899.0,0.13554825284181704
2898.0,0.13282724882135022
2897.0,0.13012318673323353
2896.0,0.12743585690934855
2895.0,0.12482294018529605
2894.0,0.12245589228405596
2893.0,0.1203880929341492
2892.0,0.11861534322942724
2891.0,0.11719095860756013
2890.0,0.11605480496572018
2889.0,0.11526126223036814
2888.0,0.1148084593931522
2887.0,0.1145256971708426
2886.0,0.11446916681190777
2885.0,0.11458223488906394
2884.0,0.11492161585077598
2883.0,0.11577123036739612
2882.0,0.1170772093974013
2881.0,0.11890078161098283
2880.0,0.12101887660626365
2879.0,0.12314735239865637
2878.0,0.1251124891538875
2877.0,0.126621263590859
2876.0,0.12761061158217912
2875.0,0.1280769681176266
2874.0,0.1281352979118051
2873.0,0.1281352979118051
2872.0,0.12842706445412122
2871.0,0.12918657608440243
2870.0,0.13041629228657614
2869.0,0.13200248965504868
2868.0,0.13383085236622927
2867.0,0.13566694496660703
2866.0,0.13697470377052956
2865.0,0.13721290176465573
2864.0,0.13596381727422502
2863.0,0.13324021650489182
2862.0,0.12930354201075
2861.0,0.12464930342071079
2860.0,0.11981544717356662
2859.0,0.11520463605101905
2858.0,0.11109074073646874
2857.0,0.10757145305477
2856.0,0.10457745396059215
2855.0,0.1022080180607754
2854.0,0.10039834085387778
2853.0,0.09914149529800831
2852.0,0.09826930827078129
2851.0,0.09772507952549825
2850.0,0.0975619438013351
2849.0,0.09783387072894878
2848.0,0.09870518283443275
2847.0,0.10023419805561384
2846.0,0.10242788617426934
2845.0,0.1052410056281079
2844.0,0.10868560061785693
2843.0,0.11277666863747693
2842.0,0.11730473761840288
2841.0,0.12211057462851604
2840.0,0.12685384867174432
2839.0,0.1311792938024825
2838.0,0.134659094375416
2837.0,0.13697470377052956
2836.0,0.13780896894840278
2835.0,0.1370342410222376
2834.0,0.13471831500438958
2833.0,0.1311205537629121
2832.0,0.12679569072295926
2831.0,0.12222565000860186
2830.0,0.11776015198117662
2829.0,0.1137349409702435
2828.0,0.11025022473596224
2827.0,0.10723776538418317
2826.0,0.10468797552421272
2825.0,0.10242788617426934
2824.0,0.10039834085387778
2823.0,0.09859617317474823
2822.0,0.09712721455392082
2821.0,0.09598811640261173
2820.0,0.0950141189006366
2819.0,0.09415017335768128
2818.0,0.09318028453345462
2817.0,0.09231997575758011
2816.0,0.09151498112135026
2815.0,0.0908185240221473
2814.0,0.09023008526723086
2813.0,0.08964244272712252
2812.0,0.08900228368935714
2811.0,0.08836306687055773
2810.0,0.08772478950118767
2809.0,0.08714052483764512
2808.0,0.08661005636824437
2807.0,0.08608023504853413
2806.0,0.08555105930144569
2805.0,0.08502252755566908
2804.0,0.08444188458847957
2803.0,0.0838620168928248
2802.0,0.08333553545860273
2801.0,0.08286224724355584
2800.0,0.08249449044745338
2799.0,0.08212704480115218
2798.0,0.08175990977858505
2797.0,0.08144546944972642
2796.0,0.08107890990866418
2795.0,0.08071265949561734
2794.0,0.08029446545087904
2793.0,0.07992887570247587
2792.0,0.07956359344924135
2791.0,0.07925073872429178
2790.0,0.0788860261633193
2789.0,0.07852161962430992
2788.0,0.0781575185941421
2787.0,0.07784567476894111
2786.0,0.07758597585436577
2785.0,0.07727454200674
2784.0,0.07701518429111709
2783.0,0.07680780957933253
2782.0,0.07665234350217442
2781.0,0.07644514193245056
2780.0,0.07618627890881036
2779.0,0.07587584681417514
2778.0,0.07551395626608493
2777.0,0.07520400420208784
2776.0,0.07489427319033615
2775.0,0.07463633264589853
2774.0,0.07448164182257
2773.0,0.07432700607875953
2772.0,0.07427547306393745
2771.0,0.07422394616325367
2770.0,0.07412091069849924
2769.0,0.07391491307485598
2768.0,0.07365755337434488
2767.0,0.07329750581735506
2766.0,0.07293775650699996
2765.0,0.07268097504034388
2764.0,0.0725783049495814
2763.0,0.07247565912497134
2762.0,0.07247565912497134
2761.0,0.07242434530888953
2760.0,0.07237303755504598
2759.0,0.07232173586200852
2758.0,0.07221915065262552
2757.0,0.07211658966929302
2756.0,0.07196279359311708
2755.0,0.0718090519612431
2754.0,0.0716553647351379
2753.0,0.07155293679081787
2752.0,0.07150173187630915
2751.0,0.07139934015547578
2750.0,0.07129697256940304
2749.0,0.07119462910671581
2748.0,0.07114346641808922
2747.0,0.0710411591191702
2746.0,0.0709900145060387
2745.0,0.07083661679493547
2744.0,0.07073438174693436
2743.0,0.07058107428570715
2742.0,0.07052998382251041
2741.0,0.07047889936889606
2740.0,0.07047889936889606
2739.0,0.07047889936889606
2738.0,0.07042782092345012
2737.0,0.07042782092345012
2736.0,0.07042782092345012
2735.0,0.07042782092345012
2734.0,0.07047889936889606
2733.0,0.07058107428570715
2732.0,0.07068327324650436
2731.0,0.07088774334533943
2730.0,0.07109230975604719
2729.0,0.07129697256940304
2728.0,0.07150173187630915
2727.0,0.0716553647351379
2726.0,0.07175781684269089
2725.0,0.07186029312488018
2724.0,0.0720140529005715
2723.0,0.07216786713341827
2722.0,0.07232173586200852
2721.0,0.07237303755504598
2720.0,0.07232173586200852
2719.0,0.07221915065262552
2718.0,0.07206531825882068
2717.0,0.07186029312488018
2716.0,0.07170658776779781
2715.0,0.07155293679081787
2714.0,0.07145053299833615
2713.0,0.07129697256940304
2712.0,0.07109230975604719
2711.0,0.07078549626260622
2710.0,0.07047889936889606
2709.0,0.07017251876930874
2708.0,0.06996838504902692
2707.0,0.06986635415888243
2706.0,0.06986635415888243
2705.0,0.06986635415888243
2704.0,0.06981534770138009
2703.0,0.06976434723371505
2702.0,0.06966236426227002
2701.0,0.06956040523329987
2700.0,0.06945847013556561
2699.0,0.06935655895783555
2698.0,0.06935655895783555
2697.0,0.06930561233546473
2696.0,0.06925467168888666
2695.0,0.0691018855898955
2694.0,0.06894915322260897
2693.0,0.06884736147670667
2692.0,0.06874559358358656
2691.0,0.0685421293109949
2690.0,0.06833876031551878
2689.0,0.0681862960408608
2688.0,0.0681862960408608
2687.0,0.06828793294324442
2686.0,0.068389593637038
2685.0,0.0684912781333824
2684.0,0.0685421293109949
2683.0,0.06859298644342648
2682.0,0.06859298644342648
2681.0,0.0685421293109949
2680.0,0.0684912781333824
2679.0,0.06844043290919477
2678.0,0.06833876031551878
2677.0,0.06823711151882228
2676.0,0.0681862960408608
2675.0,0.0681862960408608
2674.0,0.0681862960408608
2673.0,0.0681862960408608
2672.0,0.0681862960408608
2671.0,0.0681862960408608
2670.0,0.06813548650796819
2669.0,0.06813548650796819
2668.0,0.06813548650796819
2667.0,0.0680846829187538
2666.0,0.06798309356579857
2665.0,0.06788152797087754
2664.0,0.06777998612288094
2663.0,0.06767846801070698
2662.0,0.0676277178520861
2661.0,0.0676277178520861
2660.0,0.06772922410050963
2659.0,0.0678307540792078
2658.0,0.06788152797087754
2657.0,0.06788152797087754
2656.0,0.06777998612288094
2655.0,0.06767846801070698
2654.0,0.06752623532284674
2653.0,0.06742477650170953
2652.0,0.06737405597821788
2651.0,0.06737405597821788
2650.0,0.06737405597821788
2649.0,0.06737405597821788
2648.0,0.06742477650170953
2647.0,0.06742477650170953
2646.0,0.06742477650170953
2645.0,0.06737405597821788
2644.0,0.06732334137759932
2643.0,0.06727263269847072
2642.0,0.06722192993944942
2641.0,0.06712054217620067
2640.0,0.06701917807680191
2639.0,0.06691783763020887
2638.0,0.06686717627326577
2637.0,0.06691783763020887
2636.0,0.06691783763020887
2635.0,0.06691783763020887
2634.0,0.06681652082538614
2633.0,0.06676587128519196
2632.0,0.06676587128519196
2631.0,0.06686717627326577
2630.0,0.06696850489759454
2629.0,0.06706985716921054
2628.0,0.06706985716921054
2627.0,0.06696850489759454
2626.0,0.06686717627326577
2625.0,0.06681652082538614
2624.0,0.06676587128519196
2623.0,0.06671522765130522
2622.0,0.06661395809694559
2621.0,0.06661395809694559
2620.0,0.06671522765130522
2619.0,0.06681652082538614
2618.0,0.06691783763020887
2617.0,0.06696850489759454
2616.0,0.06701917807680191
2615.0,0.06712054217620067
2614.0,0.06727263269847072
2613.0,0.06737405597821788
2612.0,0.06747550294945781
2611.0,0.06742477650170953
2610.0,0.06737405597821788
2609.0,0.06722192993944942
2608.0,0.06712054217620067
2607.0,0.06696850489759454
2606.0,0.06676587128519196
2605.0,0.06671522765130522
2604.0,0.06671522765130522
2603.0,0.06676587128519196
2602.0,0.06681652082538614
2601.0,0.06676587128519196
2600.0,0.06671522765130522
2599.0,0.06661395809694559
2598.0,0.06646209802829528
2597.0,0.0663102910421054
2596.0,0.0663102910421054
2595.0,0.06641148980334699
2594.0,0.06656333217371957
2593.0,0.0666645899223488
2592.0,0.06671522765130522
2591.0,0.06671522765130522
2590.0,0.06671522765130522
2589.0,0.06671522765130522
2588.0,0.06671522765130522
2587.0,0.06681652082538614
2586.0,0.06691783763020887
2585.0,0.0671712330991534
2584.0,0.06737405597821788
2583.0,0.06752623532284674
2582.0,0.06752623532284674
2581.0,0.06742477650170953
2580.0,0.06732334137759932
2579.0,0.06727263269847072
2578.0,0.06722192993944942
2577.0,0.06727263269847072
2576.0,0.06727263269847072
2575.0,0.06727263269847072
2574.0,0.06722192993944942
2573.0,0.0671712330991534
2572.0,0.06701917807680191
2571.0,0.06681652082538614
2570.0,0.06671522765130522
2569.0,0.0666645899223488
2568.0,0.06661395809694559
2567.0,0.06656333217371957
2566.0,0.0665127121512945
2565.0,0.0665127121512945
2564.0,0.06656333217371957
2563.0,0.06656333217371957
2562.0,0.06656333217371957
2561.0,0.06656333217371957
2560.0,0.0665127121512945
2559.0,0.06641148980334699
2558.0,0.0663102910421054
2557.0,0.06625970050306473
2556.0,0.06620911585658007
2555.0,0.06625970050306473
2554.0,0.06641148980334699
2553.0,0.0665127121512945
2552.0,0.0665127121512945
2551.0,0.0665127121512945
2550.0,0.0665127121512945
2549.0,0.0665127121512945
2548.0,0.06646209802829528
2547.0,0.06636088747507496
2546.0,0.06625970050306473
2545.0,0.06620911585658007
2544.0,0.06620911585658007
2543.0,0.06615853710127872
2542.0,0.06605739725873905
2541.0,0.06600683616875758
2540.0,0.06600683616875758
2539.0,0.06610796423578891
2538.0,0.06615853710127872
2537.0,0.06615853710127872
2536.0,0.06615853710127872
2535.0,0.06615853710127872
2534.0,0.06615853710127872
2533.0,0.06615853710127872
2532.0,0.06625970050306473
2531.0,0.06636088747507496
2530.0,0.06636088747507496
2529.0,0.0663102910421054
2528.0,0.06615853710127872
2527.0,0.06600683616875758
2526.0,0.0659562809644747
2525.0,0.06590573164451952
2524.0,0.06590573164451952
2523.0,0.06590573164451952
2522.0,0.0658551882075229
2521.0,0.0658551882075229
2520.0,0.06590573164451952
2519.0,0.06600683616875758
2518.0,0.06610796423578891
2517.0,0.06615853710127872
2516.0,0.06605739725873905
2515.0,0.06590573164451952
2514.0,0.06570359318059427
2513.0,0.0655520510510299
2512.0,0.06550154875643233
2511.0,0.06550154875643233
2510.0,0.06550154875643233
2509.0,0.0655520510510299
2508.0,0.06565307326174441
2507.0,0.0658551882075229
2506.0,0.06600683616875758
2505.0,0.06605739725873905
2504.0,0.06600683616875758
2503.0,0.06590573164451952
2502.0,0.06580465065211571
2501.0,0.0658551882075229
2500.0,0.0659562809644747
2499.0,0.06600683616875758
2498.0,0.06600683616875758
2497.0,0.0659562809644747
2496.0,0.0659562809644747
2495.0,0.0659562809644747
2494.0,0.0659562809644747
2493.0,0.0659562809644747
2492.0,0.0659562809644747
2491.0,0.06590573164451952
2490.0,0.0658551882075229
2489.0,0.06575411897692884
2488.0,0.06580465065211571
2487.0,0.06590573164451952
2486.0,0.06605739725873905
2485.0,0.06615853710127872
2484.0,0.06615853710127872
2483.0,0.06610796423578891
2482.0,0.0659562809644747
2481.0,0.06590573164451952
2480.0,0.06590573164451952
2479.0,0.06590573164451952
2478.0,0.0659562809644747
2477.0,0.06605739725873905
2476.0,0.06605739725873905
2475.0,0.06605739725873905
2474.0,0.06600683616875758
2473.0,0.0659562809644747
2472.0,0.0659562809644747
2471.0,0.06590573164451952
2470.0,0.0658551882075229
2469.0,0.0658551882075229
2468.0,0.06590573164451952
2467.0,0.06590573164451952
2466.0,0.06590573164451952
2465.0,0.0658551882075229
2464.0,0.06590573164451952
2463.0,0.0659562809644747
2462.0,0.06605739725873905
2461.0,0.06610796423578891
2460.0,0.06615853710127872
2459.0,0.06615853710127872
2458.0,0.06610796423578891
2457.0,0.06610796423578891
2456.0,0.06610796423578891
2455.0,0.06615853710127872
2454.0,0.06615853710127872
2453.0,0.06605739725873905
2452.0,0.0659562809644747
2451.0,0.0659562809644747
2450.0,0.06610796423578891
2449.0,0.0663102910421054
2448.0,0.06641148980334699
2447.0,0.06641148980334699
2446.0,0.06625970050306473
2445.0,0.06620911585658007
2444.0,0.06620911585658007
2443.0,0.06625970050306473
2442.0,0.06636088747507496
2441.0,0.06636088747507496
2440.0,0.0663102910421054
2439.0,0.06625970050306473
2438.0,0.06625970050306473
2437.0,0.0663102910421054
2436.0,0.06636088747507496
2435.0,0.06636088747507496
2434.0,0.06641148980334699
2433.0,0.06646209802829528
2432.0,0.06656333217371957
2431.0,0.06656333217371957
2430.0,0.0665127121512945
2429.0,0.0665127121512945
2428.0,0.06661395809694559
2427.0,0.06676587128519196
2426.0,0.06691783763020887
2425.0,0.06691783763020887
2424.0,0.06681652082538614
2423.0,0.06676587128519196
2422.0,0.06676587128519196
2421.0,0.06691783763020887
2420.0,0.06701917807680191
2419.0,0.06706985716921054
2418.0,0.06701917807680191
2417.0,0.06686717627326577
2416.0,0.06671522765130522
2415.0,0.06656333217371957
2414.0,0.06646209802829528
2413.0,0.06641148980334699
2412.0,0.06646209802829528
2411.0,0.0665127121512945
2410.0,0.06656333217371957
2409.0,0.06661395809694559
2408.0,0.0666645899223488
2407.0,0.0666645899223488
2406.0,0.06661395809694559
2405.0,0.0666645899223488
2404.0,0.06671522765130522
2403.0,0.06681652082538614
2402.0,0.06681652082538614
2401.0,0.06681652082538614
2400.0,0.06681652082538614
2399.0,0.06691783763020887
2398.0,0.06706985716921054
2397.0,0.06722192993944942
2396.0,0.06722192993944942
2395.0,0.0671712330991534
2394.0,0.06712054217620067
2393.0,0.06706985716921054
2392.0,0.06701917807680191
2391.0,0.06701917807680191
2390.0,0.06696850489759454
2389.0,0.06696850489759454
2388.0,0.06696850489759454
2387.0,0.06696850489759454
2386.0,0.06691783763020887
2385.0,0.06691783763020887
2384.0,0.06691783763020887
2383.0,0.06681652082538614
2382.0,0.06661395809694559
2381.0,0.06636088747507496
2380.0,0.06605739725873905
2379.0,0.06580465065211571
2378.0,0.06565307326174441
2377.0,0.06560255921901192
2376.0,0.06565307326174441
2375.0,0.06580465065211571
2374.0,0.06610796423578891
2373.0,0.0665127121512945
2372.0,0.06676587128519196
2371.0,0.06661395809694559
2370.0,0.06610796423578891
2369.0,0.06565307326174441
2368.0,0.06529959828457499
2367.0,0.06484555278383164
2366.0,0.06408986356949264
2365.0,0.0636873663378068
2364.0,0.06429125215733666
2363.0,0.06560255921901192
2362.0,0.06656333217371957
2361.0,0.06661395809694559
2360.0,0.06610796423578891
2359.0,0.06575411897692884
2358.0,0.06590573164451952
2357.0,0.06620911585658007
2356.0,0.06615853710127872
2355.0,0.0655520510510299
2354.0,0.06464390705442691
2353.0,0.06403953101083348
2352.0,0.06403953101083348
2351.0,0.06459351024765114
2350.0,0.06545105233385295
2349.0,0.06620911585658007
2348.0,0.06656333217371957
2347.0,0.06625970050306473
2346.0,0.06570359318059427
2345.0,0.0653500770992892
2344.0,0.0654005617819271
2343.0,0.06575411897692884
2342.0,0.06600683616875758
2341.0,0.06580465065211571
2340.0,0.06529959828457499
2339.0,0.06474471821595262
2338.0,0.06434161389936577
2337.0,0.06434161389936577
2336.0,0.06464390705442691
2335.0,0.06514819703433927
2334.0,0.06550154875643233
2333.0,0.0655520510510299
2332.0,0.06519865825346338
2331.0,0.06474471821595262
2330.0,0.06449273417528723
2329.0,0.06459351024765114
2328.0,0.06504729218214189
2327.0,0.06565307326174441
2326.0,0.06605739725873905
2325.0,0.06620911585658007
2324.0,0.06610796423578891
2323.0,0.06590573164451952
2322.0,0.06580465065211571
2321.0,0.0658551882075229
2320.0,0.06605739725873905
2319.0,0.06641148980334699
2318.0,0.06681652082538614
2317.0,0.0671712330991534
2316.0,0.06727263269847072
2315.0,0.06706985716921054
2314.0,0.06676587128519196
2313.0,0.06656333217371957
2312.0,0.06661395809694559
2311.0,0.06681652082538614
2310.0,0.06701917807680191
2309.0,0.06722192993944942
2308.0,0.06742477650170953
2307.0,0.0675769736232612
2306.0,0.06772922410050963
2305.0,0.0678307540792078
2304.0,0.06793230779927839
2303.0,0.06798309356579857
2302.0,0.06798309356579857
2301.0,0.06798309356579857
2300.0,0.06793230779927839
2299.0,0.06788152797087754
2298.0,0.0678307540792078
2297.0,0.0678307540792078
2296.0,0.06793230779927839
2295.0,0.06803388527182741
2294.0,0.06823711151882228
2293.0,0.06833876031551878
2292.0,0.068389593637038
2291.0,0.06833876031551878
2290.0,0.06828793294324442
2289.0,0.06828793294324442
2288.0,0.06833876031551878
2287.0,0.06833876031551878
2286.0,0.068389593637038
2285.0,0.06844043290919477
2284.0,0.0685421293109949
2283.0,0.06859298644342648
2282.0,0.06859298644342648
2281.0,0.0685421293109949
2280.0,0.0685421293109949
2279.0,0.0684912781333824
2278.0,0.0684912781333824
2277.0,0.068389593637038
2276.0,0.06828793294324442
2275.0,0.0681862960408608
2274.0,0.06813548650796819
2273.0,0.06823711151882228
2272.0,0.068389593637038
2271.0,0.0684912781333824
2270.0,0.0684912781333824
2269.0,0.0684912781333824
2268.0,0.0685421293109949
2267.0,0.06859298644342648
2266.0,0.06864384953207203
2265.0,0.06864384953207203
2264.0,0.06859298644342648
2263.0,0.06859298644342648
2262.0,0.06864384953207203
2261.0,0.06879647454924775
2260.0,0.0690000580438479
2259.0,0.06915280831750303
2258.0,0.0692037370166998
2257.0,0.0692037370166998
2256.0,0.06915280831750303
2255.0,0.06905096883247697
2254.0,0.0690000580438479
2253.0,0.06894915322260897
2252.0,0.06894915322260897
2251.0,0.0690000580438479
2250.0,0.06905096883247697
2249.0,0.06905096883247697
2248.0,0.0690000580438479
2247.0,0.06905096883247697
2246.0,0.06915280831750303
2245.0,0.0692037370166998
2244.0,0.06925467168888666
2243.0,0.0692037370166998
2242.0,0.0692037370166998
2241.0,0.06925467168888666
2240.0,0.06935655895783555
2239.0,0.06940751155740177
2238.0,0.06930561233546473
2237.0,0.0692037370166998
2236.0,0.0691018855898955
2235.0,0.0691018855898955
2234.0,0.06915280831750303
2233.0,0.0692037370166998
2232.0,0.06915280831750303
2231.0,0.0691018855898955
2230.0,0.06915280831750303
2229.0,0.06930561233546473
2228.0,0.06950943469373039
2227.0,0.06961138175567827
2226.0,0.06966236426227002
2225.0,0.06971335275448043
2224.0,0.06971335275448043
2223.0,0.06971335275448043
2222.0,0.06971335275448043
2221.0,0.06976434723371505
2220.0,0.06986635415888243
2219.0,0.0699173666076287
2218.0,0.06996838504902692
2217.0,0.06996838504902692
2216.0,0.06996838504902692
2215.0,0.07001940948448526
2214.0,0.07001940948448526
2213.0,0.07001940948448526
2212.0,0.06996838504902692
2211.0,0.06996838504902692
2210.0,0.06996838504902692
2209.0,0.06996838504902692
2208.0,0.07001940948448526
2207.0,0.06996838504902692
2206.0,0.0699173666076287
2205.0,0.06986635415888243
2204.0,0.0699173666076287
2203.0,0.06996838504902692
2202.0,0.07001940948448526
2201.0,0.07007043991541217
2200.0,0.07007043991541217
2199.0,0.07007043991541217
2198.0,0.07007043991541217
2197.0,0.07007043991541217
2196.0,0.07007043991541217
2195.0,0.07007043991541217
2194.0,0.07007043991541217
2193.0,0.07012147634321675
2192.0,0.07022356719509815
2191.0,0.07022356719509815
2190.0,0.07017251876930874
2189.0,0.07012147634321675
2188.0,0.07012147634321675
2187.0,0.07012147634321675
2186.0,0.07017251876930874
2185.0,0.07022356719509815
2184.0,0.0702746216219956
2183.0,0.07037674848475972
2182.0,0.07052998382251041
2181.0,0.07063217075990047
2180.0,0.07068327324650436
2179.0,0.07068327324650436
2178.0,0.07063217075990047
2177.0,0.07058107428570715
2176.0,0.07052998382251041
2175.0,0.07052998382251041
2174.0,0.07052998382251041
2173.0,0.07063217075990047
2172.0,0.07073438174693436
2171.0,0.07078549626260622
2170.0,0.07083661679493547
2169.0,0.07083661679493547
2168.0,0.07083661679493547
2167.0,0.07078549626260622
2166.0,0.07078549626260622
2165.0,0.07083661679493547
2164.0,0.07088774334533943
2163.0,0.07093887591523451
2162.0,0.07093887591523451
2161.0,0.0709900145060387
2160.0,0.0710411591191702
2159.0,0.0710411591191702
2158.0,0.07109230975604719
2157.0,0.07114346641808922
2156.0,0.07114346641808922
2155.0,0.07114346641808922
2154.0,0.07114346641808922
2153.0,0.07114346641808922
2152.0,0.07119462910671581
2151.0,0.07124579782334672
2150.0,0.07114346641808922
2149.0,0.0710411591191702
2148.0,0.07093887591523451
2147.0,0.07083661679493547
2146.0,0.07078549626260622
2145.0,0.07083661679493547
2144.0,0.07088774334533943
2143.0,0.0709900145060387
2142.0,0.0710411591191702
2141.0,0.07109230975604719
2140.0,0.07114346641808922
2139.0,0.07114346641808922
2138.0,0.07114346641808922
2137.0,0.07109230975604719
2136.0,0.07114346641808922
2135.0,0.07129697256940304
2134.0,0.07145053299833615
2133.0,0.07150173187630915
2132.0,0.07145053299833615
2131.0,0.07145053299833615
2130.0,0.07139934015547578
2129.0,0.07139934015547578
2128.0,0.0713481533463054
2127.0,0.0713481533463054
2126.0,0.0713481533463054
2125.0,0.0713481533463054
2124.0,0.07139934015547578
2123.0,0.07150173187630915
2122.0,0.07150173187630915
2121.0,0.07150173187630915
2120.0,0.07145053299833615
2119.0,0.07145053299833615
2118.0,0.07150173187630915
2117.0,0.07160414774328627
2116.0,0.0716553647351379
2115.0,0.0716553647351379
2114.0,0.07160414774328627
2113.0,0.07155293679081787
2112.0,0.07150173187630915
2111.0,0.07155293679081787
2110.0,0.0716553647351379
2109.0,0.0718090519612431
2108.0,0.07196279359311708
2107.0,0.07196279359311708
2106.0,0.07191154033502922
2105.0,0.0718090519612431
2104.0,0.0718090519612431
2103.0,0.07186029312488018
2102.0,0.07191154033502922
2101.0,0.07196279359311708
2100.0,0.0720140529005715
2099.0,0.07211658966929302
2098.0,0.07216786713341827
2097.0,0.07216786713341827
2096.0,0.07216786713341827
2095.0,0.07211658966929302
2094.0,0.07206531825882068
2093.0,0.07206531825882068
2092.0,0.07206531825882068
2091.0,0.0720140529005715
2090.0,0.0720140529005715
2089.0,0.0720140529005715
2088.0,0.0720140529005715
2087.0,0.07206531825882068
2086.0,0.07211658966929302
2085.0,0.07221915065262552
2084.0,0.07227044022834539
2083.0,0.07227044022834539
2082.0,0.07221915065262552
2081.0,0.07221915065262552
2080.0,0.07227044022834539
2079.0,0.07221915065262552
2078.0,0.07216786713341827
2077.0,0.07206531825882068
2076.0,0.07211658966929302
2075.0,0.07221915065262552
2074.0,0.07237303755504598
2073.0,0.07247565912497134
2072.0,0.0725783049495814
2071.0,0.07262963696097646
2070.0,0.07262963696097646
2069.0,0.07262963696097646
2068.0,0.07252697900472405
2067.0,0.07232173586200852
2066.0,0.07221915065262552
2065.0,0.07216786713341827
2064.0,0.07221915065262552
2063.0,0.07232173586200852
2062.0,0.07242434530888953
2061.0,0.07242434530888953
2060.0,0.07242434530888953
2059.0,0.07242434530888953
2058.0,0.07242434530888953
2057.0,0.07247565912497134
2056.0,0.07252697900472405
2055.0,0.07262963696097646
2054.0,0.07273231918911849
2053.0,0.07278366940873537
2052.0,0.07278366940873537
2051.0,0.07273231918911849
2050.0,0.07273231918911849
2049.0,0.07273231918911849
2048.0,0.07283502570063005
2047.0,0.07288638806623937
2046.0,0.07288638806623937
2045.0,0.07283502570063005
2044.0,0.07268097504034388
2043.0,0.07262963696097646
2042.0,0.07268097504034388
2041.0,0.07278366940873537
2040.0,0.07283502570063005
2039.0,0.07288638806623937
2038.0,0.07293775650699996
2037.0,0.0729891310243489
2036.0,0.07309189829456408
2035.0,0.07309189829456408
2034.0,0.07309189829456408
2033.0,0.07309189829456408
2032.0,0.07304051161972436
2031.0,0.07304051161972436
2030.0,0.07304051161972436
2029.0,0.07309189829456408
2028.0,0.07319468988839395
2027.0,0.07319468988839395
2026.0,0.07314329105030759
2025.0,0.07314329105030759
2024.0,0.07314329105030759
2023.0,0.07314329105030759
2022.0,0.07314329105030759
2021.0,0.07314329105030759
2020.0,0.07314329105030759
2019.0,0.07314329105030759
2018.0,0.07314329105030759
2017.0,0.07309189829456408
2016.0,0.07309189829456408
2015.0,0.07309189829456408
2014.0,0.07314329105030759
2013.0,0.07319468988839395
2012.0,0.0732460948102629
2011.0,0.07329750581735506
2010.0,0.07329750581735506
2009.0,0.07334892291111106
2008.0,0.0734517753643813
2007.0,0.07355465218161061
2006.0,0.07355465218161061
2005.0,0.07350321072677968
2004.0,0.0734517753643813
2003.0,0.07350321072677968
2002.0,0.07365755337434488
2001.0,0.07376047895413773
2000.0,0.07381195089279391
1999.0,0.07381195089279391
1998.0,0.07370901311513656
1997.0,0.07365755337434488
1996.0,0.07365755337434488
1995.0,0.07376047895413773
1994.0,0.07381195089279391
1993.0,0.07391491307485598
1992.0,0.07396640332115534
1991.0,0.07401789967289685
1990.0,0.07401789967289685
1989.0,0.07401789967289685
1988.0,0.07401789967289685
1987.0,0.07401789967289685
1986.0,0.07401789967289685
1985.0,0.07401789967289685
1984.0,0.07401789967289685
1983.0,0.07396640332115534
1982.0,0.07391491307485598
1981.0,0.07386342893255127
1980.0,0.07381195089279391
1979.0,0.07381195089279391
1978.0,0.07386342893255127
1977.0,0.07386342893255127
1976.0,0.07391491307485598
1975.0,0.07401789967289685
1974.0,0.07412091069849924
1973.0,0.07422394616325367
1972.0,0.07432700607875953
1971.0,0.07432700607875953
1970.0,0.07427547306393745
1969.0,0.07417242537525759
1968.0,0.07417242537525759
1967.0,0.07422394616325367
1966.0,0.07437854520917098
1965.0,0.07443009045662374
1964.0,0.07437854520917098
1963.0,0.07432700607875953
1962.0,0.07427547306393745
1961.0,0.07432700607875953
1960.0,0.07443009045662374
1959.0,0.07448164182257
1958.0,0.07453319930846214
1957.0,0.07448164182257
1956.0,0.07437854520917098
1955.0,0.07432700607875953
1954.0,0.07427547306393745
1953.0,0.07427547306393745
1952.0,0.07427547306393745
1951.0,0.07427547306393745
1950.0,0.07427547306393745
1949.0,0.07437854520917098
1948.0,0.07448164182257
1947.0,0.07458476291575367
1946.0,0.07463633264589853
1945.0,0.07458476291575367
1944.0,0.07448164182257
1943.0,0.07448164182257
1942.0,0.07458476291575367
1941.0,0.07468790850035045
1940.0,0.07468790850035045
1939.0,0.07458476291575367
1938.0,0.07453319930846214
1937.0,0.07453319930846214
1936.0,0.07458476291575367
1935.0,0.07453319930846214
1934.0,0.07453319930846214
1933.0,0.07453319930846214
1932.0,0.07458476291575367
1931.0,0.07473949048056472
1930.0,0.07489427319033615
1929.0,0.07499749231902242
1928.0,0.07504911108438939
1927.0,0.07504911108438939
1926.0,0.07504911108438939
1925.0,0.07504911108438939
1924.0,0.07504911108438939
1923.0,0.07504911108438939
1922.0,0.07504911108438939
1921.0,0.07504911108438939
1920.0,0.07499749231902242
1919.0,0.07499749231902242
1918.0,0.07504911108438939
1917.0,0.07515236702446293
1916.0,0.07520400420208784
1915.0,0.07515236702446293
1914.0,0.07515236702446293
1913.0,0.07515236702446293
1912.0,0.07520400420208784
1911.0,0.07525564752005143
1910.0,0.07530729697981409
1909.0,0.07546228222451012
1908.0,0.07551395626608493
1907.0,0.07546228222451012
1906.0,0.07541061433058172
1905.0,0.07541061433058172
1904.0,0.07551395626608493
1903.0,0.0756173227980268
1902.0,0.07566901529132153
1901.0,0.07566901529132153
1900.0,0.07566901529132153
1899.0,0.07572071393811841
1898.0,0.07572071393811841
1897.0,0.07582412969807906
1896.0,0.07587584681417514
1895.0,0.07592757008963713
1894.0,0.0759792995259323
1893.0,0.0759792995259323
1892.0,0.0759792995259323
1891.0,0.0759792995259323
1890.0,0.0759792995259323
1889.0,0.0759792995259323
1888.0,0.0759792995259323
1887.0,0.0759792995259323
1886.0,0.0759792995259323
1885.0,0.07592757008963713
1884.0,0.07592757008963713
1883.0,0.0759792995259323
1882.0,0.0760310351245288
1881.0,0.0760310351245288
1880.0,0.0759792995259323
1879.0,0.07587584681417514
1878.0,0.07587584681417514
1877.0,0.0759792995259323
1876.0,0.07613452481449845
1875.0,0.07634157820669385
1874.0,0.07649693305789551
1873.0,0.07660053384128362
1872.0,0.07665234350217442
1871.0,0.07665234350217442
1870.0,0.07660053384128362
1869.0,0.07665234350217442
1868.0,0.07675598136972361
1867.0,0.07680780957933253
1866.0,0.07675598136972361
1865.0,0.07665234350217442
1864.0,0.07660053384128362
1863.0,0.07649693305789551
1862.0,0.07649693305789551
1861.0,0.07649693305789551
1860.0,0.07654873036034848
1859.0,0.07654873036034848
1858.0,0.07660053384128362
1857.0,0.07660053384128362
1856.0,0.07665234350217442
1855.0,0.07665234350217442
1854.0,0.07665234350217442
1853.0,0.07670415934449615
1852.0,0.07675598136972361
1851.0,0.07680780957933253
1850.0,0.07680780957933253
1849.0,0.07680780957933253
1848.0,0.07675598136972361
1847.0,0.07680780957933253
1846.0,0.07685964397479927
1845.0,0.07706704344478843
1844.0,0.07727454200674
1843.0,0.07743023101428781
1842.0,0.07737832847680104
1841.0,0.0772226580712021
1840.0,0.07711890879170658
1839.0,0.07706704344478843
1838.0,0.07706704344478843
1837.0,0.07711890879170658
1836.0,0.0772226580712021
1835.0,0.07732643214144574
1834.0,0.07737832847680104
1833.0,0.07737832847680104
1832.0,0.07727454200674
1831.0,0.07717078033335123
1830.0,0.07717078033335123
1829.0,0.0772226580712021
1828.0,0.0772226580712021
1827.0,0.0772226580712021
1826.0,0.07711890879170658
1825.0,0.07706704344478843
1824.0,0.07706704344478843
1823.0,0.07711890879170658
1822.0,0.07717078033335123
1821.0,0.07727454200674
1820.0,0.07732643214144574
1819.0,0.07737832847680104
1818.0,0.07732643214144574
1817.0,0.0772226580712021
1816.0,0.0772226580712021
1815.0,0.0772226580712021
1814.0,0.07727454200674
1813.0,0.07737832847680104
1812.0,0.07748213975538865
1811.0,0.07753405470158659
1810.0,0.07753405470158659
1809.0,0.07748213975538865
1808.0,0.07737832847680104
1807.0,0.07732643214144574
1806.0,0.07732643214144574
1805.0,0.07737832847680104
1804.0,0.07748213975538865
1803.0,0.07748213975538865
1802.0,0.07743023101428781
1801.0,0.07743023101428781
1800.0,0.07748213975538865
1799.0,0.07748213975538865
1798.0,0.07753405470158659
1797.0,0.07763790321520991
1796.0,0.07779372256098371
1795.0,0.07794959783282618
1794.0,0.07810552907089763
1793.0,0.0781575185941421
1792.0,0.0781575185941421
1791.0,0.07805354577058976
1790.0,0.07789763319239285
1789.0,0.07789763319239285
1788.0,0.07794959783282618
1787.0,0.07805354577058976
1786.0,0.07810552907089763
1785.0,0.0781575185941421
1784.0,0.07820951434181311
1783.0,0.07820951434181311
1782.0,0.0781575185941421
1781.0,0.0781575185941421
1780.0,0.0781575185941421
1779.0,0.07826151631540124
1778.0,0.07831352451639795
1777.0,0.07836553894629472
1776.0,0.07841755960658348
1775.0,0.07846958649875768
1774.0,0.07841755960658348
1773.0,0.07846958649875768
1772.0,0.07852161962430992
1771.0,0.07857365898473456
1770.0,0.07857365898473456
1769.0,0.07852161962430992
1768.0,0.07857365898473456
1767.0,0.07867775641617802
1766.0,0.07872981449018734
1765.0,0.07872981449018734
1764.0,0.07872981449018734
1763.0,0.07878187880504961
1762.0,0.0788860261633193
1761.0,0.07899019850296574
1760.0,0.07904229404455076
1759.0,0.07893810920972144
1758.0,0.07883394936226118
1757.0,0.07878187880504961
1756.0,0.0788860261633193
1755.0,0.079094395835976
1754.0,0.07919861817434581
1753.0,0.07925073872429178
1752.0,0.07935499859321249
1751.0,0.07956359344924135
1750.0,0.07982447798997727
1749.0,0.07998108397108505
1748.0,0.08003329851661278
1747.0,0.07998108397108505
1746.0,0.07987667370927598
1745.0,0.07987667370927598
1744.0,0.07998108397108505
1743.0,0.08018997982980403
1742.0,0.08034671768963575
1741.0,0.0805035121369384
1740.0,0.08066036321258663
1739.0,0.08081727095749947
1738.0,0.08092190762392604
1737.0,0.0809742354126397
1736.0,0.0809742354126397
1735.0,0.0809742354126397
1734.0,0.0809742354126397
1733.0,0.08081727095749947
1732.0,0.08060807322614072
1731.0,0.08055578953476306
1730.0,0.08055578953476306
1729.0,0.08060807322614072
1728.0,0.08076496207674921
1727.0,0.08092190762392604
1726.0,0.08107890990866418
1725.0,0.08118360963962057
1724.0,0.0812359689720008
1723.0,0.0812883346176787
1722.0,0.08134070657817682
1721.0,0.08139308485501817
1720.0,0.08139308485501817
1719.0,0.08149786036382611
1718.0,0.08170748724464438
1717.0,0.08191721535781271
1716.0,0.08181233864107451
1715.0,0.08160266115629988
1714.0,0.08160266115629988
1713.0,0.08175990977858505
1712.0,0.08196966321511989
1711.0,0.08207457793525874
1710.0,0.08207457793525874
1709.0,0.08212704480115218
1708.0,0.08217951800630297
1707.0,0.08223199755224364
1706.0,0.08223199755224364
1705.0,0.0823369756726251
1704.0,0.08244197917456386
1703.0,0.08249449044745338
1702.0,0.08244197917456386
1701.0,0.08265206237222844
1700.0,0.08317771540408803
1699.0,0.08365134772453975
1698.0,0.08375666953466032
1697.0,0.08375666953466032
1696.0,0.08370400543686918
1695.0,0.08370400543686918
1694.0,0.08370400543686918
1693.0,0.08370400543686918
1692.0,0.08375666953466032
1691.0,0.08380934001946239
1690.0,0.08402008585977572
1689.0,0.08433639649422697
1688.0,0.08460016478773014
1687.0,0.08481129482684358
1686.0,0.08481129482684358
1685.0,0.08481129482684358
1684.0,0.08491689834879956
1683.0,0.08502252755566908
1682.0,0.08507535179485148
1681.0,0.08528671302637614
1680.0,0.08549817717268593
1679.0,0.0856568428805593
1678.0,0.08581556657675371
1677.0,0.08586848736910624
1676.0,0.08602728844902896
1675.0,0.08634506491338012
1674.0,0.08661005636824437
1673.0,0.08666307406737683
1672.0,0.08661005636824437
1671.0,0.08661005636824437
1670.0,0.0867160982395816
1669.0,0.0867691288864394
1668.0,0.08682216600953208
1667.0,0.08687520961044104
1666.0,0.08698131625203986
1665.0,0.08708744882390307
1664.0,0.0872466963286771
1663.0,0.08740600224789441
1662.0,0.08756536662442538
1661.0,0.08772478950118767
1660.0,0.08783110394037297
1659.0,0.08799062441302175
1658.0,0.08804381092731295
1657.0,0.08799062441302175
1656.0,0.08783110394037297
1655.0,0.08767164203958999
1654.0,0.08761850108119962
1653.0,0.0877779434675845
1652.0,0.08788427092114603
1651.0,0.08788427092114603
1650.0,0.08783110394037297
1649.0,0.08783110394037297
1648.0,0.08804381092731295
1647.0,0.08836306687055773
1646.0,0.0885227828938977
1645.0,0.08841629901892434
1644.0,0.08830984124613894
1643.0,0.08830984124613894
1642.0,0.08836306687055773
1641.0,0.08841629901892434
1640.0,0.08841629901892434
1639.0,0.08836306687055773
1638.0,0.08825662214406838
1637.0,0.08804381092731295
1636.0,0.08793744441149753
1635.0,0.08788427092114603
1634.0,0.08788427092114603
1633.0,0.08799062441302175
1632.0,0.0881502035005799
1631.0,0.08830984124613894
1630.0,0.08836306687055773
1629.0,0.08841629901892434
1628.0,0.08841629901892434
1627.0,0.08836306687055773
1626.0,0.08825662214406838
1625.0,0.0880970039559672
1624.0,0.08804381092731295
1623.0,0.0880970039559672
1622.0,0.0881502035005799
1621.0,0.0881502035005799
1620.0,0.0880970039559672
1619.0,0.08804381092731295
1618.0,0.0880970039559672
1617.0,0.08804381092731295
1616.0,0.0877779434675845
1615.0,0.08745911720936239
1614.0,0.0872466963286771
1613.0,0.08714052483764512
1612.0,0.08708744882390307
1611.0,0.0870343792958963
1610.0,0.0870343792958963
1609.0,0.08692825969074924
1608.0,0.08687520961044104
1607.0,0.08687520961044104
1606.0,0.08692825969074924
1605.0,0.08692825969074924
1604.0,0.08682216600953208
1603.0,0.0867160982395816
1602.0,0.08650404038287651
1601.0,0.0862920860195171
1600.0,0.0861331881037608
1599.0,0.08608023504853413
1598.0,0.08602728844902896
1597.0,0.08602728844902896
1596.0,0.08608023504853413
1595.0,0.0861331881037608
1594.0,0.08608023504853413
1593.0,0.08602728844902896
1592.0,0.08586848736910624
1591.0,0.08576265223225898
1590.0,0.08560394787021397
1589.0,0.08549817717268593
1588.0,0.08539243222891946
1587.0,0.08539243222891946
1586.0,0.08539243222891946
1585.0,0.08533956941077814
1584.0,0.08533956941077814
1583.0,0.08539243222891946
1582.0,0.08539243222891946
1581.0,0.0854453014823664
1580.0,0.08539243222891946
1579.0,0.08528671302637614
1578.0,0.08518101955252688
1577.0,0.08518101955252688
1576.0,0.08518101955252688
1575.0,0.08518101955252688
1574.0,0.08518101955252688
1573.0,0.08518101955252688
1572.0,0.08523386307414738
1571.0,0.08523386307414738
1570.0,0.08523386307414738
1569.0,0.08518101955252688
1568.0,0.08507535179485148
1567.0,0.08502252755566908
1566.0,0.08502252755566908
1565.0,0.08512818245994969
1564.0,0.08533956941077814
1563.0,0.08555105930144569
1562.0,0.0856568428805593
1561.0,0.08539243222891946
1560.0,0.08496970974083906
1559.0,0.08486409337798806
1558.0,0.08496970974083906
1557.0,0.08502252755566908
1556.0,0.08523386307414738
1555.0,0.08528671302637614
1554.0,0.08533956941077814
1553.0,0.08533956941077814
1552.0,0.08528671302637614
1551.0,0.08518101955252688
1550.0,0.08502252755566908
1549.0,0.08502252755566908
1548.0,0.08512818245994969
1547.0,0.08512818245994969
1546.0,0.08512818245994969
1545.0,0.08507535179485148
1544.0,0.08518101955252688
1543.0,0.08533956941077814
1542.0,0.08533956941077814
1541.0,0.08523386307414738
1540.0,0.08475850269380558
1539.0,0.08412549714230844
1538.0,0.0839147001562972
1537.0,0.08407278830288423
1536.0,0.08417821237960132
1535.0,0.08412549714230844
1534.0,0.08402008585977572
1533.0,0.0839147001562972
1532.0,0.0838620168928248
1531.0,0.0838620168928248
1530.0,0.0838620168928248
1529.0,0.0838620168928248
1528.0,0.08380934001946239
1527.0,0.08375666953466032
1526.0,0.08370400543686918
1525.0,0.08365134772453975
1524.0,0.08354605145007499
1523.0,0.08349341288484435
1522.0,0.08333553545860273
1521.0,0.08312512146131668
1520.0,0.08286224724355584
1519.0,0.08259953204474924
1518.0,0.08238947425013277
1517.0,0.08217951800630297
1516.0,0.08196966321511989
1515.0,0.08186477383364066
1514.0,0.08181233864107451
1513.0,0.08175990977858505
1512.0,0.08170748724464438
1511.0,0.08155025759884227
1510.0,0.08139308485501817
1509.0,0.0812883346176787
1508.0,0.08155025759884227
1507.0,0.08139308485501817
1506.0,0.08045124103115198
1505.0,0.07998108397108505
1504.0,0.08008551934056851
1503.0,0.08018997982980403
1502.0,0.08024221949810584
1501.0,0.08013774644446192
1500.0,0.08008551934056851
1499.0,0.07987667370927598
1498.0,0.07966792846041071
1497.0,0.07951143534170213
1496.0,0.0794071379151915
1495.0,0.07925073872429178
1494.0,0.07899019850296574
1493.0,0.07872981449018734
1492.0,0.07852161962430992
1491.0,0.07831352451639795
1490.0,0.07810552907089763
1489.0,0.07794959783282618
1488.0,0.07779372256098371
1487.0,0.07753405470158659
1486.0,0.07727454200674
1485.0,0.07711890879170658
1484.0,0.07706704344478843
1483.0,0.07691148455760066
1482.0,0.07665234350217442
1481.0,0.07654873036034848
1480.0,0.07660053384128362
1479.0,0.07670415934449615
1478.0,0.07675598136972361
1477.0,0.07701518429111709
1476.0,0.07758597585436577
1475.0,0.07836553894629472
1474.0,0.07951143534170213
1473.0,0.08165507103772507
1472.0,0.08491689834879956
1471.0,0.08836306687055773
1470.0,0.09183679994445204
1469.0,0.09571734235437201
1468.0,0.10012480397898926
1467.0,0.1052410056281079
1466.0,0.11159583226295333
1465.0,0.11958660012208333
1464.0,0.1280186461566306
1463.0,0.134659094375416
1462.0,0.13936258322624528
1461.0,0.14302956651750764
1460.0,0.14618015414323682
1459.0,0.1489251947711132
1458.0,0.15168769637271562
1457.0,0.1548399223480541
1456.0,0.157390760389438
1455.0,0.15870311250971825
1454.0,0.15958022226351387
1453.0,0.16058480731610647
1452.0,0.16133977401105848
1451.0,0.16159172150581314
1450.0,0.16108797259400132
1449.0,0.15945481236316117
1448.0,0.1562690348879079
1447.0,0.15168769637271562
1446.0,0.14684956355215717
1445.0,0.1423660148499919
1444.0,0.13816700234205515
1443.0,0.13424477592854833
1442.0,0.1308269726783169
1441.0,0.1283103343144847
1440.0,0.12644690648638135
1439.0,0.1251124891538875
1438.0,0.12459143992293642
1437.0,0.124996646399959
1436.0,0.12575017722159698
1435.0,0.12569216687196105
1434.0,0.12453358413361437
1433.0,0.12251347193039863
1432.0,0.11975822410451964
1431.0,0.11662251025166115
1430.0,0.1136220932414278
1429.0,0.11109074073646874
1428.0,0.10902040301031102
1427.0,0.10746019534136453
1426.0,0.10623823794205656
1425.0,0.10501970907203151
1424.0,0.10385974855798041
1423.0,0.1028679566179056
1422.0,0.10209812573177213
1421.0,0.10132965703447017
1420.0,0.10028890542885538
1419.0,0.09903237608087578
1418.0,0.09805153492691598
1417.0,0.09734452478207412
1416.0,0.09674718310604158
1415.0,0.09620485725896466
1414.0,0.09566320779750503
1413.0,0.0950141189006366
1412.0,0.09425807260839858
1411.0,0.0935033402006471
1410.0,0.09280368972839836
1409.0,0.09215885741705532
1408.0,0.09151498112135026
1407.0,0.09092559859909577
1406.0,0.09044397075882471
1405.0,0.0900163050601559
1404.0,0.08958906008531176
1403.0,0.08932224525729482
1402.0,0.0892155652071629
1401.0,0.08905559425002108
1400.0,0.08868255767596933
1399.0,0.08825662214406838
1398.0,0.08772478950118767
1397.0,0.08692825969074924
1396.0,0.08570974433405087
1395.0,0.08428366205400617
1394.0,0.08317771540408803
1393.0,0.08270459905431071
1392.0,0.08254700807033655
1391.0,0.08249449044745338
1390.0,0.08223199755224364
1389.0,0.08170748724464438
1388.0,0.08086958613938555
1387.0,0.08029446545087904
1386.0,0.0805035121369384
1385.0,0.08175990977858505
1384.0,0.08433639649422697
1383.0,0.08900228368935714
1382.0,0.0964759355287379
1381.0,0.10729336219433439
1380.0,0.12205304837081177
1379.0,0.14116214857141451
1378.0,0.16298005145909156
1377.0,0.1840903491132253
1376.0,0.2010042655561186
1375.0,0.2107013888405589
1374.0,0.21098367320662526
1373.0,0.20342566678957041
1372.0,0.19273564472389304
1371.0,0.18157614490792118
1370.0,0.1705032502798176
1369.0,0.1600194423216572
1368.0,0.15107228677292173
1367.0,0.14442027749828212
1366.0,0.1397219002477652
1365.0,0.13643923547375736
1364.0,0.13436311230037123
1363.0,0.13347637446715632
1362.0,0.13371266091580503
1361.0,0.13501453934020602
1360.0,0.13685565374733244
1359.0,0.1385253311428314
1358.0,0.13948232253825377
1357.0,0.13936258322624528
1356.0,0.13816700234205515
1355.0,0.136142038116027
1354.0,0.13365357725039817
1353.0,0.1311792938024825
1352.0,0.12901118623942476
1351.0,0.12702836926155658
1350.0,0.12517042212027807
1349.0,0.12349349573411894
1348.0,0.12205304837081177
1347.0,0.1207893947082408
1346.0,0.11970100857424737
1345.0,0.11872949607064243
1344.0,0.11787408022996826
1343.0,0.11713408027837091
1342.0,0.11645212073195621
1341.0,0.1157145376603248
1340.0,0.11503480179926728
1339.0,0.11441264381034388
1338.0,0.11390426756225258
1337.0,0.11356568037106163
1336.0,0.1133401021387972
1335.0,0.11322735694556196
1334.0,0.11317099532301778
1333.0,0.1133401021387972
1332.0,0.1136220932414278
1331.0,0.11396072443355765
1330.0,0.11424311893073247
1329.0,0.11441264381034388
1328.0,0.11441264381034388
1327.0,0.11429961987167014
1326.0,0.11401718864502697
1325.0,0.11356568037106163
1324.0,0.11305829401658474
1323.0,0.1125514997500463
1322.0,0.11210151190312767
1321.0,0.11176432672943282
1320.0,0.11159583226295333
1319.0,0.11131515334030118
1318.0,0.11103465569966264
1317.0,0.1106422631110684
1316.0,0.11036219959333216
1315.0,0.11013827874181148
1314.0,0.11002636159600376
1313.0,0.10997041383658313
1312.0,0.10991447328367476
1311.0,0.1098585399354226
1310.0,0.10980261378997125
1309.0,0.1098585399354226
1308.0,0.11013827874181148
1307.0,0.11058623595729111
1306.0,0.11120293254331926
1305.0,0.11176432672943282
1304.0,0.11210151190312767
1303.0,0.11210151190312767
1302.0,0.11193288659256306
1301.0,0.1117081546434846
1300.0,0.11159583226295333
1299.0,0.1117081546434846
1298.0,0.11198908775497118
1297.0,0.11227020271196975
1296.0,0.1125514997500463
1295.0,0.11272036546997688
1294.0,0.11277666863747693
1293.0,0.11277666863747693
1292.0,0.11277666863747693
1291.0,0.11266406960083297
1290.0,0.11243895906999102
1289.0,0.11210151190312767
1288.0,0.11182050608167504
1287.0,0.11153968196461372
1286.0,0.11137127461477392
1285.0,0.11120293254331926
1284.0,0.11097857790477517
1283.0,0.11075433910702048
1282.0,0.11058623595729111
1281.0,0.11036219959333216
1280.0,0.11019424813191447
1279.0,0.11008231656379408
1278.0,0.10997041383658313
1277.0,0.1098585399354226
1276.0,0.10969078310005154
1275.0,0.10963487855187593
1274.0,0.10963487855187593
1273.0,0.10963487855187593
1272.0,0.10957898119908571
1271.0,0.10941133229451272
1270.0,0.10918790104487552
1269.0,0.10896458468468917
1268.0,0.10885296955122903
1267.0,0.10879717273970457
1266.0,0.10879717273970457
1265.0,0.10879717273970457
1264.0,0.10879717273970457
1263.0,0.10885296955122903
1262.0,0.10896458468468917
1261.0,0.10913206118855912
1260.0,0.10929960230112479
1259.0,0.10952309103982927
1258.0,0.10980261378997125
1257.0,0.11013827874181148
1256.0,0.11041819785037621
1255.0,0.11058623595729111
1254.0,0.11058623595729111
1253.0,0.11036219959333216
1252.0,0.11002636159600376
1251.0,0.10969078310005154
1250.0,0.10952309103982927
1249.0,0.10952309103982927
1248.0,0.10957898119908571
1247.0,0.10957898119908571
1246.0,0.10941133229451272
1245.0,0.10918790104487552
1244.0,0.10890877353227624
1243.0,0.10857405715200596
1242.0,0.10840679565103484
1241.0,0.10851829616048003
1240.0,0.10885296955122903
1239.0,0.10929960230112479
1238.0,0.10946720807225518
1237.0,0.10946720807225518
1236.0,0.10929960230112479
1235.0,0.10913206118855912
1234.0,0.10896458468468917
1233.0,0.10885296955122903
1232.0,0.10879717273970457
1231.0,0.10874138309586101
1230.0,0.10885296955122903
1229.0,0.10902040301031102
1228.0,0.10918790104487552
1227.0,0.10935546370475246
1226.0,0.10952309103982927
1225.0,0.10974669484546551
1224.0,0.11013827874181148
1223.0,0.1106422631110684
1222.0,0.11120293254331926
1221.0,0.11176432672943282
1220.0,0.11221396516162851
1219.0,0.11260778102815316
1218.0,0.1128329791052256
1217.0,0.1130019543289007
1216.0,0.11311464101399138
1215.0,0.11322735694556196
1214.0,0.1133401021387972
1213.0,0.11350927482751816
1212.0,0.11367851344052027
1211.0,0.1137349409702435
1210.0,0.11379137583250243
1209.0,0.1138478180292033
1208.0,0.11396072443355765
1207.0,0.11407366019856902
1206.0,0.11424311893073247
1205.0,0.11435612816423602
1204.0,0.1145256971708426
1203.0,0.11463877996848804
1202.0,0.11475189221861393
1201.0,0.114865033936566
1200.0,0.1149782051377024
1199.0,0.11514801725400226
1198.0,0.11531789579397489
1197.0,0.11554450392951199
1196.0,0.11577123036739612
1195.0,0.11594135290606156
1194.0,0.11611154211151953
1193.0,0.11616828667054757
1192.0,0.11628179803604044
1191.0,0.1163953390777075
1190.0,0.11662251025166115
1189.0,0.11679296664760996
1188.0,0.11690664142431006
1187.0,0.11702034596270106
1186.0,0.11702034596270106
1185.0,0.1170772093974013
1184.0,0.11719095860756013
1183.0,0.11736163830396129
1182.0,0.1175323851046286
1181.0,0.11758931562603192
1180.0,0.11770319906234805
1179.0,0.11793105556385153
1178.0,0.11827306462358211
1177.0,0.11872949607064243
1176.0,0.11924355548978971
1175.0,0.11987267778337518
1174.0,0.1207320431753871
1173.0,0.12205304837081177
1172.0,0.12372441132212098
1171.0,0.12563416426995122
1170.0,0.12749410065407507
1169.0,0.12912810493225724
1168.0,0.13053358991913355
1167.0,0.1314731132317961
1166.0,0.13200248965504868
1165.0,0.13212021654162043
1164.0,0.13194363817695853
1163.0,0.13159069668503998
1162.0,0.1311792938024825
1161.0,0.1308856730206247
1160.0,0.13070959579060148
1159.0,0.13076828026902376
1158.0,0.1308856730206247
1157.0,0.13100309751286465
1156.0,0.1311792938024825
1155.0,0.1314731132317961
1154.0,0.1318847946727828
1153.0,0.1322379753497993
1152.0,0.13247358880025661
1151.0,0.13259144347720886
1150.0,0.1325325121409484
1149.0,0.13235576609690147
1148.0,0.13212021654162043
1147.0,0.13182595914036166
1146.0,0.13141433344123432
1145.0,0.1308856730206247
1144.0,0.13035765534840538
1143.0,0.12983027886355947
1142.0,0.12924505510985984
1141.0,0.12877744324029283
1140.0,0.12842706445412122
1139.0,0.1281352979118051
1138.0,0.1277271537757949
1137.0,0.12726117252733116
1136.0,0.12691201440971422
1135.0,0.1267375405612734
1134.0,0.12656313677796316
1133.0,0.12644690648638135
1132.0,0.1263307072932056
1131.0,0.1263307072932056
1130.0,0.1263307072932056
1129.0,0.12627261935332057
1128.0,0.126156466776564
1127.0,0.12598229613781387
1126.0,0.12575017722159698
1125.0,0.12563416426995122
1124.0,0.12563416426995122
1123.0,0.12569216687196105
1122.0,0.12557616941349803
1121.0,0.12540223129680017
1120.0,0.12517042212027807
1119.0,0.124996646399959
1118.0,0.1249387366082999
1117.0,0.1248808345374317
1116.0,0.1248808345374317
1115.0,0.1248808345374317
1114.0,0.12482294018529605
1113.0,0.12476505354983503
1112.0,0.12470717462899183
1111.0,0.12459143992293642
1110.0,0.1244757360506914
1109.0,0.12441789567211425
1108.0,0.1244757360506914
1107.0,0.12476505354983503
1106.0,0.12517042212027807
1105.0,0.12575017722159698
1104.0,0.12638880300353272
1103.0,0.12702836926155658
1102.0,0.1275523522109867
1101.0,0.12778543660241448
1100.0,0.12778543660241448
1099.0,0.12761061158217912
1098.0,0.12726117252733116
1097.0,0.12679569072295926
1096.0,0.12627261935332057
1095.0,0.12569216687196105
1094.0,0.1251124891538875
1093.0,0.1244757360506914
1092.0,0.12383991517437187
1091.0,0.12314735239865637
1090.0,0.12251347193039863
1089.0,0.12182301950849372
1088.0,0.12113366304327466
1087.0,0.12044539906102569
1086.0,0.11975822410451964
1085.0,0.11912926746757657
1084.0,0.11850122038501709
1083.0,0.11798803837334138
1082.0,0.1174754620451195
1081.0,0.11684980031672243
1080.0,0.11616828667054757
1079.0,0.11543118508166672
1078.0,0.11475189221861393
1077.0,0.11407366019856902
1076.0,0.1136220932414278
1075.0,0.1133401021387972
1074.0,0.11328372588352176
1073.0,0.11345287660889425
1072.0,0.1138478180292033
1071.0,0.11418662533951118
1070.0,0.11418662533951118
1069.0,0.11367851344052027
1068.0,0.11272036546997688
1067.0,0.11182050608167504
1066.0,0.1114835389250548
1065.0,0.11176432672943282
1064.0,0.11238269966426384
1063.0,0.11288929687511629
1062.0,0.11311464101399138
1061.0,0.11305829401658474
1060.0,0.11272036546997688
1059.0,0.11227020271196975
1058.0,0.11198908775497118
1057.0,0.11193288659256306
1056.0,0.1120452961911984
1055.0,0.11227020271196975
1054.0,0.11238269966426384
1053.0,0.11243895906999102
1052.0,0.1125514997500463
1051.0,0.11277666863747693
1050.0,0.1130019543289007
1049.0,0.11317099532301778
1048.0,0.11339648571328764
1047.0,0.11379137583250243
1046.0,0.11424311893073247
1045.0,0.11475189221861393
1044.0,0.11520463605101905
1043.0,0.11554450392951199
1042.0,0.11582793047608719
1041.0,0.11611154211151953
1040.0,0.11633856484638239
1039.0,0.1165657063169907
1038.0,0.11684980031672243
1037.0,0.11736163830396129
1036.0,0.11815903167507247
1035.0,0.11907213473291511
1034.0,0.11992991593593283
1033.0,0.12056003400478299
1032.0,0.12101887660626365
1031.0,0.12119106764079435
1030.0,0.12096149476276286
1029.0,0.12050271275057156
1028.0,0.12015894401343741
1027.0,0.12027350336042275
1026.0,0.1207893947082408
1025.0,0.12142076193778073
1024.0,0.12193801870998744
1023.0,0.12234075588839133
1022.0,0.12268625668776156
1021.0,0.12303203256741524
1020.0,0.12326270285933538
1019.0,0.12343578601615435
1018.0,0.12355121312165873
1017.0,0.1236666709136196
1016.0,0.12383991517437187
1015.0,0.12401322857151209
1014.0,0.12418661116024232
1013.0,0.12430223801979201
1012.0,0.1244757360506914
1011.0,0.12470717462899183
1010.0,0.125054563914468
1009.0,0.12540223129680017
1008.0,0.1258081953209289
1007.0,0.126156466776564
1006.0,0.126621263590859
1005.0,0.12720296001040166
1004.0,0.1280186461566306
1003.0,0.12918657608440243
1002.0,0.13076828026902376
1001.0,0.13300418688935212
1000.0,0.13572630319562085
999.0,0.13846558914096208
998.0,0.14038142122781938
997.0,0.14110204276799654
996.0,0.14056146454494378
995.0,0.13912320359670227
994.0,0.13727247168202528
993.0,0.13554825284181704
992.0,0.1341264717921853
991.0,0.1331221856625011
990.0,0.13229686672990226
989.0,0.1316495003520317
988.0,0.1311792938024825
987.0,0.1308856730206247
986.0,0.1306509192409071
985.0,0.13041629228657614
984.0,0.13012318673323353
983.0,0.12994741830645506
982.0,0.13006458935314003
981.0,0.1306509192409071
980.0,0.13182595914036166
979.0,0.13353543402825974
978.0,0.13578566953867033
977.0,0.13864483980673992
976.0,0.141884067809934
975.0,0.14520830594601453
974.0,0.14813039927023364
973.0,0.1502121757623145
972.0,0.15107228677292173
971.0,0.15045774799498335
970.0,0.14874165128092476
969.0,0.14648430324307138
968.0,0.14423862766005224
967.0,0.1423660148499919
966.0,0.1409217752530305
965.0,0.13978181533124334
964.0,0.1388241644869712
963.0,0.1380476250785483
962.0,0.1374512304752069
961.0,0.13709378643700187
960.0,0.13685565374733244
959.0,0.13661765155921235
958.0,0.13626089265478303
957.0,0.13584504399797437
956.0,0.1354889189416082
955.0,0.13519237097385295
954.0,0.13489602535887202
953.0,0.134659094375416
952.0,0.13436311230037123
951.0,0.13406733180681396
950.0,0.13394907599072514
949.0,0.13406733180681396
948.0,0.13430394008392943
947.0,0.13442229258007088
946.0,0.13430394008392943
945.0,0.13430394008392943
944.0,0.13448148092522594
943.0,0.1349552783069008
942.0,0.13542959314656988
941.0,0.13578566953867033
940.0,0.1360826230421397
939.0,0.13626089265478303
938.0,0.13632033212410222
937.0,0.13626089265478303
936.0,0.136142038116027
935.0,0.1360232160956132
934.0,0.13578566953867033
933.0,0.1354889189416082
932.0,0.13519237097385295
931.0,0.1349552783069008
930.0,0.13483678049391368
929.0,0.13471831500438958
928.0,0.134659094375416
927.0,0.13471831500438958
926.0,0.13477754370982087
925.0,0.13489602535887202
924.0,0.13483678049391368
923.0,0.13471831500438958
922.0,0.13454067733803532
921.0,0.13442229258007088
920.0,0.13442229258007088
919.0,0.1345998818206986
918.0,0.134659094375416
917.0,0.1345998818206986
916.0,0.13454067733803532
915.0,0.13454067733803532
914.0,0.1345998818206986
913.0,0.1345998818206986
912.0,0.13442229258007088
911.0,0.13406733180681396
910.0,0.13371266091580503
909.0,0.13359450162194508
908.0,0.1337717526203528
907.0,0.13424477592854833
906.0,0.13477754370982087
905.0,0.13531096586314884
904.0,0.13596381727422502
903.0,0.1369151746796402
902.0,0.1384058553561347
901.0,0.14038142122781938
900.0,0.14248658522331015
899.0,0.14423862766005224
898.0,0.14514763758216587
897.0,0.14514763758216587
896.0,0.14435971910985468
895.0,0.1432711096171173
894.0,0.14230574221345038
893.0,0.1415831222765116
892.0,0.14116214857141451
891.0,0.14086170270546927
890.0,0.14062149557439896
889.0,0.14038142122781938
888.0,0.1400815147992842
887.0,0.13978181533124334
886.0,0.13936258322624528
885.0,0.13900356324280416
884.0,0.1388241644869712
883.0,0.13870460647330418
882.0,0.13870460647330418
881.0,0.1387643813659596
880.0,0.13900356324280416
879.0,0.13948232253825377
878.0,0.1399616101928065
877.0,0.14026143380285316
876.0,0.14026143380285316
875.0,0.1399616101928065
874.0,0.1397219002477652
873.0,0.13960209487268727
872.0,0.1396619934290062
871.0,0.13978181533124334
870.0,0.13984173868172167
869.0,0.14002155835797914
868.0,0.1402014525194344
867.0,0.14038142122781938
866.0,0.14032142337155173
865.0,0.1402014525194344
864.0,0.14002155835797914
863.0,0.1400815147992842
862.0,0.14026143380285316
861.0,0.14068153490288382
860.0,0.14110204276799654
859.0,0.14140265500530758
858.0,0.14164329470222659
857.0,0.14182386201765573
856.0,0.1419442819496357
855.0,0.14200450443907608
854.0,0.14206473528057106
853.0,0.14200450443907608
852.0,0.14200450443907608
851.0,0.14206473528057106
850.0,0.14218522202899342
849.0,0.14248658522331015
848.0,0.1430899396992138
847.0,0.14393604666690019
846.0,0.14520830594601453
845.0,0.14691047014813452
844.0,0.14923127307111983
843.0,0.15211900255462485
842.0,0.1548399223480541
841.0,0.15645578805436489
840.0,0.15645578805436489
839.0,0.15496400648658493
838.0,0.15285938258659382
837.0,0.15088783381542248
836.0,0.14941502364796855
835.0,0.14843591773651155
834.0,0.14782509557969692
833.0,0.14764201633217278
832.0,0.14752000636314366
831.0,0.14733705565543076
830.0,0.14709324120304634
829.0,0.14684956355215717
828.0,0.14684956355215717
827.0,0.14703230897118158
826.0,0.14709324120304634
825.0,0.14703230897118158
824.0,0.14691047014813452
823.0,0.14672777597931685
822.0,0.1465451586319333
821.0,0.14642345638035836
820.0,0.1463626180414057
819.0,0.1463626180414057
818.0,0.1463626180414057
817.0,0.14642345638035836
816.0,0.14684956355215717
815.0,0.1475810070629986
814.0,0.14861933203440336
813.0,0.15002808767114995
812.0,0.1517492853229574
811.0,0.15366288787019466
810.0,0.15564710368910672
809.0,0.15732836623921154
808.0,0.15851539066460685
807.0,0.1590787998012282
806.0,0.1590787998012282
805.0,0.15870311250971825
804.0,0.15807768832054925
803.0,0.15732836623921154
802.0,0.15645578805436489
801.0,0.15552282425431851
800.0,0.15471587365200845
799.0,0.1542200328881107
798.0,0.15403423845451636
797.0,0.1540961611012175
796.0,0.1542200328881107
795.0,0.1542200328881107
794.0,0.15403423845451636
793.0,0.15372475758778692
792.0,0.1534154971019539
791.0,0.15323004646278116
790.0,0.15310645668337486
789.0,0.15323004646278116
788.0,0.15347733158371324
787.0,0.15360102696532518
786.0,0.1535391748706676
785.0,0.1534154971019539
784.0,0.1532918545439932
783.0,0.1532918545439932
782.0,0.15323004646278116
781.0,0.15310645668337486
780.0,0.15298290206464582
779.0,0.15292113793428452
778.0,0.15298290206464582
777.0,0.15310645668337486
776.0,0.1531682471767426
775.0,0.15298290206464582
774.0,0.15279763601907614
773.0,0.1527358982292355
772.0,0.15285938258659382
771.0,0.1531682471767426
770.0,0.1532918545439932
769.0,0.1532918545439932
768.0,0.1532918545439932
767.0,0.1534154971019539
766.0,0.15366288787019466
765.0,0.15397232463562127
764.0,0.15434394001645568
763.0,0.15471587365200845
762.0,0.15490195998574308
761.0,0.15515019919336104
760.0,0.15539858037365328
759.0,0.15558495952617557
758.0,0.15564710368910672
757.0,0.15558495952617557
756.0,0.15539858037365328
755.0,0.15521228117215347
754.0,0.1550260618531123
753.0,0.15508812608785938
752.0,0.15527437202677397
751.0,0.15558495952617557
750.0,0.15577141869837208
749.0,0.1559579579589836
748.0,0.15614457737683884
747.0,0.1565180569600424
746.0,0.15682953548010214
745.0,0.15701652987778258
744.0,0.15714123755470633
743.0,0.15726598105173029
742.0,0.15745316350498495
741.0,0.15757799664235028
740.0,0.15757799664235028
739.0,0.15751557558842988
738.0,0.15732836623921154
737.0,0.15726598105173029
736.0,0.15732836623921154
735.0,0.15757799664235028
734.0,0.15789023655938994
733.0,0.15826522102525642
732.0,0.15870311250971825
731.0,0.15914144595812063
730.0,0.15958022226351387
729.0,0.15983115075924403
728.0,0.15989390554324223
727.0,0.15983115075924403
726.0,0.15958022226351387
725.0,0.15932943866659088
724.0,0.15914144595812063
723.0,0.15901616267962204
722.0,0.15926676538819318
721.0,0.15983115075924403
720.0,0.16039627052916305
719.0,0.1607105439938532
718.0,0.1607105439938532
717.0,0.1607105439938532
716.0,0.1607105439938532
715.0,0.16058480731610647
714.0,0.16020781555467067
713.0,0.15958022226351387
712.0,0.1590787998012282
711.0,0.158765704493959
710.0,0.1588909155318461
709.0,0.15932943866659088
708.0,0.15989390554324223
707.0,0.1603334431175667
706.0,0.1605219526258017
705.0,0.16039627052916305
704.0,0.1600194423216572
703.0,0.159517512786558
702.0,0.15914144595812063
701.0,0.15914144595812063
700.0,0.159517512786558
699.0,0.159956669396506
698.0,0.16020781555467067
697.0,0.16039627052916305
696.0,0.1605219526258017
695.0,0.1605219526258017
694.0,0.16045910703103106
693.0,0.16039627052916305
692.0,0.1605219526258017
691.0,0.16045910703103106
690.0,0.15989390554324223
689.0,0.15895353459069628
688.0,0.15826522102525642
687.0,0.15801519540988607
686.0,0.15814019022493886
685.0,0.1583902878315646
684.0,0.158765704493959
683.0,0.1590787998012282
682.0,0.1590787998012282
681.0,0.15895353459069628
680.0,0.1588909155318461
679.0,0.158765704493959
678.0,0.1583902878315646
677.0,0.15789023655938994
676.0,0.15751557558842988
675.0,0.15726598105173029
674.0,0.15682953548010214
673.0,0.1562068016740874
672.0,0.15552282425431851
671.0,0.1550260618531123
670.0,0.15539858037365328
669.0,0.15776531365276036
668.0,0.16152872092807113
667.0,0.16354928627984533
666.0,0.16316971351112097
665.0,0.16184381524785207
664.0,0.16108797259400132
663.0,0.16108797259400132
662.0,0.16108797259400132
661.0,0.16058480731610647
660.0,0.15958022226351387
659.0,0.15832774992636556
658.0,0.15707887924001773
657.0,0.15602015552184012
656.0,0.15564710368910672
655.0,0.15614457737683884
654.0,0.15695418946543072
653.0,0.1577028656719348
652.0,0.15845283474344662
651.0,0.15970566838856382
650.0,0.16108797259400132
649.0,0.16196991701467978
648.0,0.16184381524785207
647.0,0.16096212661169407
646.0,0.1600194423216572
645.0,0.15970566838856382
644.0,0.160145015398115
643.0,0.16127680996862814
642.0,0.1626009756579776
641.0,0.16354928627984533
640.0,0.16380251922107458
639.0,0.1637391971415132
638.0,0.16411926818260536
637.0,0.16596098184053343
636.0,0.16915480769138846
635.0,0.17204947169736973
634.0,0.17224313702138327
633.0,0.16941133131485575
632.0,0.16557929631846746
631.0,0.163359458427226
630.0,0.16342272515935097
629.0,0.16475346000368907
628.0,0.1657700971483227
627.0,0.16596098184053343
626.0,0.16557929631846746
625.0,0.16545214231905137
624.0,0.16564288728159493
623.0,0.16564288728159493
622.0,0.16500739626697003
621.0,0.16405589990615188
620.0,0.16342272515935097
619.0,0.16316971351112097
618.0,0.16310648362356628
617.0,0.16304326294044946
616.0,0.16323295260579473
615.0,0.16380251922107458
614.0,0.16456310519814177
613.0,0.16519794595130088
612.0,0.16564288728159493
611.0,0.1660882849286216
610.0,0.16704424939540163
609.0,0.16883436609055757
608.0,0.17082492608291244
607.0,0.17172688794793012
606.0,0.1711468403233598
605.0,0.1699248335702499
604.0,0.16941133131485575
603.0,0.16966800654803826
602.0,0.1699248335702499
601.0,0.17031035910102887
600.0,0.17121125181504682
