nm,Intensity
526.5,829.5
526.637,830.8
526.774,830.1
526.91,829.2
527.047,830.0
527.184,830.8
527.32,829.2
527.457,830.2
527.594,829.9
527.73,830.4
527.867,828.8
528.004,830.0
528.14,830.7
528.277,829.3
528.414,829.1
528.55,830.2
528.687,830.1
528.823,830.1
528.96,829.4
529.096,829.6
529.233,830.7
529.37,830.8
529.506,829.6
529.643,829.4
529.779,830.9
529.916,831.9
530.052,829.4
530.189,829.8
530.325,831.1
530.462,829.1
530.598,829.0
530.735,829.9
530.871,829.0
531.008,829.4
531.144,829.6
531.28,830.1
531.417,829.3
531.553,830.1
531.69,829.2
531.826,830.6
531.962,832.3
532.099,844.3
532.235,850.6
532.372,835.9
532.508,831.0
532.644,830.3
532.781,831.2
532.917,830.0
533.053,829.5
533.19,829.2
533.326,829.4
533.462,832.4
533.599,840.0
533.735,921.1
533.871,1316.1
534.007,1974.5
534.144,2291.1
534.28,2305.9
534.416,2216.7
534.552,2137.7
534.689,2098.7
534.825,2066.6
534.961,1960.6
535.097,1901.2
535.234,1864.1
535.37,1829.1
535.506,1804.5
535.642,1788.0
535.778,1766.1
535.914,1735.6
536.051,1694.3
536.187,1663.0
536.323,1654.4
536.459,1633.8
536.595,1613.3
536.731,1618.9
536.867,1616.1
537.003,1617.8
537.14,1592.8
537.276,1582.5
537.412,1596.8
537.548,1585.8
537.684,1588.2
537.82,1578.7
537.956,1579.4
538.092,1588.9
538.228,1587.9
538.364,1596.7
538.5,1596.2
538.636,1584.2
538.772,1575.8
538.908,1596.5
539.044,1582.5
539.18,1586.0
539.316,1597.1
539.452,1603.5
539.588,1618.7
539.724,1625.8
539.86,1645.6
539.996,1646.8
540.132,1641.9
540.268,1639.8
540.403,1636.5
540.539,1622.3
540.675,1615.9
540.811,1619.8
540.947,1623.4
541.083,1618.7
541.219,1611.6
541.355,1623.7
541.49,1617.2
541.626,1629.7
541.762,1628.6
541.898,1622.5
542.034,1640.7
542.17,1631.5
542.305,1630.0
542.441,1629.6
542.577,1634.3
542.713,1650.2
542.848,1648.0
542.984,1651.6
543.12,1659.5
543.256,1667.0
543.391,1664.7
543.527,1667.4
543.663,1675.7
543.799,1681.1
543.934,1680.4
544.07,1684.9
544.206,1677.0
544.341,1679.4
544.477,1691.3
544.613,1692.9
544.748,1691.9
544.884,1680.5
545.02,1694.3
545.155,1702.0
545.291,1703.8
545.427,1714.2
545.562,1707.9
545.698,1719.3
545.833,1710.5
545.969,1720.5
546.105,1725.3
546.24,1727.1
546.376,1724.2
546.511,1720.4
546.647,1727.7
546.782,1734.7
546.918,1727.4
547.053,1734.6
547.189,1741.2
547.325,1743.7
547.46,1738.5
547.596,1743.4
547.731,1746.5
547.867,1737.1
548.002,1763.2
548.137,1755.7
548.273,1758.3
548.408,1749.0
548.544,1769.3
548.679,1765.6
548.815,1781.4
548.95,1783.2
549.086,1780.2
549.221,1775.8
549.356,1779.5
549.492,1788.6
549.627,1793.4
549.763,1789.3
549.898,1792.4
550.033,1794.9
550.169,1794.2
550.304,1792.8
550.439,1830.3
550.575,1935.7
550.71,2117.5
550.845,1968.5
550.981,1848.4
551.116,1815.4
551.251,1811.1
551.387,1826.2
551.522,1834.5
551.657,1828.2
551.793,1825.9
551.928,1830.5
552.063,1833.7
552.198,1837.2
552.334,1843.0
552.469,1848.7
552.604,1851.5
552.739,1895.5
552.874,1920.3
553.01,1906.3
553.145,1883.2
553.28,1856.6
553.415,1858.1
553.55,1860.1
553.686,1880.7
553.821,1890.2
553.956,1887.5
554.091,1878.5
554.226,1887.3
554.361,1889.6
554.497,1882.9
554.632,1889.3
554.767,1896.8
554.902,1911.0
555.037,1908.9
555.172,1902.3
555.307,1908.7
555.442,1920.5
555.577,1951.8
555.712,1978.6
555.848,1962.0
555.983,1950.2
556.118,1961.2
556.253,1962.0
556.388,1973.4
556.523,1981.2
556.658,1996.6
556.793,1992.4
556.928,2002.4
557.063,2031.1
557.198,2037.9
557.333,2113.7
557.468,2227.4
557.603,2397.3
557.738,2412.6
557.873,2229.0
558.008,2090.2
558.142,2038.0
558.277,2029.7
558.412,2024.2
558.547,2027.0
558.682,2005.8
558.817,1999.9
558.952,1996.9
559.087,2010.7
559.222,1998.4
559.357,1980.2
559.492,1995.1
559.626,2000.6
559.761,2002.5
559.896,2006.0
560.031,2011.9
560.166,2018.8
560.301,2010.9
560.435,2034.4
560.57,2026.9
560.705,2037.2
560.84,2025.8
560.975,2037.2
561.109,2041.2
561.244,2039.0
561.379,2043.1
561.514,2052.4
561.649,2063.4
561.783,2077.0
561.918,2099.1
562.053,2115.3
562.188,2132.9
562.322,2117.1
562.457,2109.0
562.592,2106.9
562.726,2102.2
562.861,2106.9
562.996,2110.5
563.131,2104.7
563.265,2112.7
563.4,2119.8
563.535,2115.9
563.669,2116.8
563.804,2137.4
563.939,2144.3
564.073,2148.9
564.208,2151.9
564.342,2178.4
564.477,2187.1
564.612,2206.5
564.746,2235.7
564.881,2282.3
565.015,2359.9
565.15,2415.9
565.285,2369.9
565.419,2320.6
565.554,2317.8
565.688,2336.3
565.823,2355.7
565.957,2352.1
566.092,2295.6
566.227,2280.0
566.361,2231.5
566.496,2227.1
566.63,2200.2
566.765,2206.9
566.899,2199.6
567.034,2193.4
567.168,2186.4
567.303,2198.8
567.437,2230.7
567.572,2270.2
567.706,2297.1
567.84,2314.3
567.975,2316.8
568.109,2291.9
568.244,2264.8
568.378,2240.5
568.513,2240.9
568.647,2233.6
568.781,2233.4
568.916,2239.1
569.05,2256.2
569.185,2256.9
569.319,2268.4
569.453,2295.4
569.588,2271.0
569.722,2283.3
569.857,2299.1
569.991,2297.3
570.125,2308.2
570.26,2308.9
570.394,2359.1
570.528,2376.3
570.663,2401.2
570.797,2446.2
570.931,2516.6
571.065,2625.7
571.2,2722.8
571.334,2790.0
571.468,2797.8
571.603,2739.2
571.737,2607.9
571.871,2544.8
572.005,2523.0
572.14,2471.3
572.274,2416.7
572.408,2390.5
572.542,2380.6
572.677,2375.9
572.811,2363.5
572.945,2355.9
573.079,2351.6
573.213,2361.0
573.348,2363.5
573.482,2375.7
573.616,2378.0
573.75,2377.5
573.884,2376.0
574.018,2407.7
574.153,2405.9
574.287,2394.9
574.421,2393.3
574.555,2399.2
574.689,2407.8
574.823,2395.1
574.957,2406.2
575.092,2426.8
575.226,2467.1
575.36,2488.7
575.494,2510.2
575.628,2507.8
575.762,2465.6
575.896,2438.4
576.03,2446.9
576.164,2459.6
576.298,2459.0
576.432,2458.4
576.566,2471.7
576.7,2470.8
576.834,2501.4
576.968,2505.5
577.103,2499.2
577.237,2497.5
577.371,2500.4
577.505,2478.0
577.639,2470.1
577.773,2462.5
577.907,2455.1
578.04,2482.4
578.174,2456.5
578.308,2476.3
578.442,2477.1
578.576,2471.8
578.71,2493.8
578.844,2489.0
578.978,2480.5
579.112,2489.0
579.246,2498.0
579.38,2498.5
579.514,2485.1
579.648,2507.9
579.782,2504.5
579.916,2499.6
580.049,2514.9
580.183,2520.7
580.317,2507.5
580.451,2509.0
580.585,2521.7
580.719,2528.7
580.853,2530.8
580.986,2546.7
581.12,2558.1
581.254,2564.6
581.388,2577.0
581.522,2598.9
581.656,2691.7
581.789,2859.0
581.923,3200.1
582.057,3825.8
582.191,4448.1
582.325,4096.7
582.458,3231.7
582.592,2812.2
582.726,2689.2
582.86,2645.9
582.993,2619.1
583.127,2612.2
583.261,2607.2
583.395,2602.6
583.528,2594.8
583.662,2597.3
583.796,2601.2
583.93,2606.6
584.063,2601.0
584.197,2607.7
584.331,2622.2
584.464,2616.5
584.598,2627.8
584.732,2638.8
584.865,2639.5
584.999,2641.3
585.133,2669.2
585.266,2683.5
585.4,2729.9
585.534,2834.5
585.667,3036.9
585.801,3305.0
585.935,3514.1
586.068,3638.6
586.202,3544.0
586.336,3395.2
586.469,3213.3
586.603,3050.9
586.736,2904.9
586.87,2810.7
587.004,2732.2
587.137,2711.3
587.271,2691.8
587.404,2690.0
587.538,2693.6
587.671,2675.7
587.805,2676.9
587.938,2688.6
588.072,2668.5
588.206,2679.0
588.339,2679.8
588.473,2668.0
588.606,2673.6
588.74,2672.9
588.873,2667.1
589.007,2671.0
589.14,2659.4
589.274,2661.3
589.407,2667.8
589.541,2659.3
589.674,2676.7
589.808,2674.7
589.941,2658.6
590.074,2656.1
590.208,2678.9
590.341,2674.7
590.475,2703.4
590.608,2683.8
590.742,2693.1
590.875,2692.4
591.009,2696.7
591.142,2689.5
591.275,2695.1
591.409,2698.6
591.542,2693.3
591.676,2696.5
591.809,2706.9
591.942,2709.7
592.076,2702.6
592.209,2712.1
592.342,2710.0
592.476,2702.6
592.609,2707.7
592.743,2703.1
592.876,2694.5
593.009,2684.7
593.143,2714.8
593.276,2691.1
593.409,2687.5
593.543,2722.3
593.676,2717.3
593.809,2703.7
593.942,2707.2
594.076,2718.2
594.209,2719.6
594.342,2722.4
594.476,2715.4
594.609,2724.9
594.742,2713.6
594.875,2738.2
595.009,2708.0
595.142,2737.4
595.275,2755.2
595.408,2760.2
595.542,2746.1
595.675,2766.2
595.808,2748.9
595.941,2778.1
596.075,2767.8
596.208,2767.2
596.341,2769.8
596.474,2754.3
596.607,2785.2
596.741,2776.7
596.874,2782.5
597.007,2792.0
597.14,2795.0
597.273,2780.2
597.406,2788.6
597.54,2784.0
597.673,2802.4
597.806,2792.7
597.939,2811.2
598.072,2821.8
598.205,2812.8
598.338,2841.4
598.472,2822.2
598.605,2832.9
598.738,2837.5
598.871,2837.0
599.004,2842.1
599.137,2846.0
599.27,2844.8
599.403,2827.8
599.536,2839.6
599.67,2865.3
599.803,2847.2
599.936,2849.3
600.069,2863.4
600.202,2874.5
600.335,2847.6
600.468,2847.9
600.601,2835.3
600.734,2847.6
600.867,2861.8
601.0,2852.1
601.133,2856.3
601.266,2848.7
601.399,2849.0
601.532,2856.2
601.665,2850.2
601.798,2851.7
601.931,2851.9
602.064,2863.0
602.197,2873.2
602.33,2867.7
602.463,2868.2
602.596,2858.8
602.729,2892.4
602.862,2885.7
602.995,2885.4
603.128,2901.1
603.261,2895.3
603.394,2919.7
603.527,2907.9
603.66,2904.8
603.793,2909.4
603.925,2917.8
604.058,2909.1
604.191,2930.1
604.324,2928.9
604.457,2933.3
604.59,2912.2
604.723,2924.5
604.856,2909.8
604.989,2897.9
605.122,2902.1
605.254,2910.5
605.387,2896.1
605.52,2902.3
605.653,2902.6
605.786,2887.9
605.919,2895.2
606.052,2879.5
606.184,2895.5
606.317,2904.0
606.45,2888.5
606.583,2928.2
606.716,2910.2
606.849,2919.3
606.981,2919.4
607.114,2932.8
607.247,2943.4
607.38,2929.1
607.513,2950.6
607.645,2959.1
607.778,2964.2
607.911,2984.8
608.044,2957.1
608.177,2974.5
608.309,2995.9
608.442,2975.4
608.575,2992.9
608.708,3004.4
608.84,3017.9
608.973,3024.6
609.106,3027.6
609.239,3023.1
609.371,3014.8
609.504,3013.1
609.637,3023.0
609.769,3016.2
609.902,3031.1
610.035,3042.2
610.168,3038.9
610.3,3029.5
610.433,3038.4
610.566,3041.5
610.698,3060.6
610.831,3056.3
610.964,3050.2
611.096,3075.2
611.229,3074.4
611.362,3087.0
611.494,3100.7
611.627,3125.2
611.76,3101.1
611.892,3115.1
612.025,3105.7
612.158,3146.4
612.29,3143.4
612.423,3169.1
612.556,3178.7
612.688,3191.9
612.821,3182.6
612.953,3219.2
613.086,3222.3
613.219,3211.5
613.351,3246.1
613.484,3245.0
613.616,3259.0
613.749,3254.5
613.882,3273.3
614.014,3277.4
614.147,3283.9
614.279,3279.8
614.412,3265.8
614.544,3307.4
614.677,3294.2
614.809,3296.5
614.942,3316.5
615.075,3336.8
615.207,3322.5
615.34,3345.1
615.472,3319.1
615.605,3343.6
615.737,3330.3
615.87,3347.2
616.002,3351.8
616.135,3352.7
616.267,3365.3
616.4,3362.6
616.532,3368.2
616.665,3380.6
616.797,3382.9
616.93,3406.3
617.062,3407.2
617.195,3436.7
617.327,3437.8
617.46,3441.1
617.592,3438.7
617.725,3461.5
617.857,3457.7
617.989,3456.7
618.122,3484.1
618.254,3506.7
618.387,3497.2
618.519,3516.4
618.652,3516.6
618.784,3532.7
618.917,3525.5
619.049,3524.1
619.181,3509.0
619.314,3520.4
619.446,3551.2
619.579,3546.4
619.711,3546.1
619.843,3541.6
619.976,3551.6
620.108,3556.8
620.241,3580.4
620.373,3573.7
620.505,3589.9
620.638,3580.6
620.77,3584.7
620.902,3592.0
621.035,3609.3
621.167,3601.8
621.299,3625.3
621.432,3622.7
621.564,3648.6
621.696,3626.8
621.829,3652.3
621.961,3669.5
622.093,3665.0
622.226,3667.8
622.358,3690.2
622.49,3707.8
622.623,3691.4
622.755,3746.8
622.887,3725.6
623.02,3744.9
623.152,3736.4
623.284,3745.2
623.416,3749.4
623.549,3773.1
623.681,3794.0
623.813,3787.3
623.946,3798.6
624.078,3821.6
624.21,3820.7
624.342,3833.4
624.475,3839.4
624.607,3854.4
624.739,3897.9
624.871,3871.5
625.004,3888.2
625.136,3878.5
625.268,3890.3
625.4,3892.0
625.533,3881.7
625.665,3903.6
625.797,3913.7
625.929,3928.7
626.061,3924.0
626.194,3917.7
626.326,3897.7
626.458,3938.7
626.59,3946.1
626.722,3930.5
626.855,3957.5
626.987,3972.9
627.119,3943.7
627.251,3974.4
627.383,3985.6
627.516,3962.4
627.648,3986.2
627.78,4001.1
627.912,4016.8
628.044,4005.4
628.176,4014.8
628.308,4042.6
628.441,4047.3
628.573,4046.9
628.705,4079.7
628.837,4076.2
628.969,4111.4
629.101,4097.0
629.233,4125.2
629.366,4130.5
629.498,4132.4
629.63,4140.0
629.762,4173.4
629.894,4168.6
630.026,4133.3
630.158,4145.3
630.29,4160.5
630.422,4172.4
630.554,4171.5
630.687,4195.3
630.819,4203.5
630.951,4211.4
631.083,4233.3
631.215,4273.6
631.347,4293.2
631.479,4309.9
631.611,4320.6
631.743,4373.3
631.875,4381.7
632.007,4396.0
632.139,4393.3
632.271,4383.7
632.403,4368.0
632.535,4354.3
632.667,4353.5
632.799,4341.2
632.931,4349.6
633.063,4314.5
633.195,4356.3
633.328,4326.4
633.46,4359.3
633.592,4371.6
633.724,4351.7
633.856,4322.7
633.988,4334.6
634.12,4313.4
634.252,4317.1
634.384,4344.3
634.516,4337.7
634.647,4314.9
634.779,4330.3
634.911,4360.9
635.043,4373.5
635.175,4350.0
635.307,4383.6
635.439,4405.2
635.571,4422.5
635.703,4448.7
635.835,4495.9
635.967,4544.8
636.099,4580.8
636.231,4630.6
636.363,4707.7
636.495,4815.3
636.627,4875.3
636.759,4816.5
636.891,4719.2
637.023,4653.8
637.155,4598.1
637.286,4540.2
637.418,4512.0
637.55,4528.5
637.682,4517.9
637.814,4504.9
637.946,4500.7
638.078,4521.1
638.21,4497.4
638.342,4500.8
638.474,4502.5
638.605,4531.2
638.737,4533.7
638.869,4533.1
639.001,4526.8
639.133,4553.1
639.265,4538.2
639.397,4538.9
639.529,4553.2
639.66,4554.1
639.792,4584.7
639.924,4571.7
640.056,4580.2
640.188,4568.3
640.32,4594.3
640.452,4578.6
640.583,4585.7
640.715,4593.9
640.847,4594.0
640.979,4604.2
641.111,4619.4
641.243,4619.1
641.374,4629.0
641.506,4626.2
641.638,4644.6
641.77,4614.1
641.902,4638.9
642.033,4642.0
642.165,4660.2
642.297,4658.5
642.429,4660.9
642.561,4655.6
642.692,4631.5
642.824,4648.4
642.956,4640.1
643.088,4639.0
643.22,4647.9
643.351,4619.7
643.483,4618.9
643.615,4619.5
643.747,4617.9
643.878,4593.2
644.01,4619.1
644.142,4612.9
644.274,4603.4
644.405,4605.6
644.537,4611.8
644.669,4616.0
644.801,4606.0
644.932,4645.5
645.064,4616.1
645.196,4641.4
645.328,4616.2
645.459,4617.6
645.591,4634.6
645.723,4645.3
645.854,4632.5
645.986,4639.7
646.118,4638.8
646.25,4652.3
646.381,4651.8
646.513,4647.0
646.645,4688.0
646.776,4685.0
646.908,4673.0
647.04,4671.9
647.172,4695.5
647.303,4686.6
647.435,4707.9
647.567,4695.8
647.698,4696.8
647.83,4697.6
647.962,4694.3
648.093,4695.8
648.225,4692.7
648.357,4699.1
648.488,4700.9
648.62,4714.0
648.752,4704.4
648.883,4712.9
649.015,4682.8
649.147,4684.8
649.278,4688.7
649.41,4686.6
649.542,4680.6
649.673,4686.4
649.805,4688.4
649.937,4685.2
650.068,4699.1
650.2,4690.8
650.331,4665.5
650.463,4692.5
650.595,4689.6
650.726,4671.2
650.858,4688.2
650.99,4677.3
651.121,4697.9
651.253,4698.2
651.384,4703.8
651.516,4677.5
651.648,4697.5
651.779,4706.9
651.911,4703.1
652.042,4714.6
652.174,4751.2
652.306,4746.0
652.437,4731.3
652.569,4724.0
652.7,4745.5
652.832,4742.2
652.963,4753.6
653.095,4741.3
653.227,4750.6
653.358,4736.4
653.49,4736.2
653.621,4758.8
653.753,4754.6
653.884,4763.5
654.016,4758.3
654.148,4737.0
654.279,4772.6
654.411,4744.7
654.542,4772.1
654.674,4762.5
654.805,4741.3
654.937,4731.1
655.068,4746.0
655.2,4758.9
655.331,4737.9
655.463,4761.1
655.595,4751.9
655.726,4757.8
655.858,4760.2
655.989,4751.4
656.121,4788.2
656.252,4742.4
656.384,4736.4
656.515,4758.8
656.647,4737.3
656.778,4760.1
656.91,4769.6
657.041,4764.2
657.173,4751.7
657.304,4762.4
657.436,4766.5
657.567,4775.0
657.699,4777.0
657.83,4779.4
657.962,4755.0
658.093,4787.7
658.225,4771.2
658.356,4785.8
658.488,4824.8
658.619,4794.1
658.751,4819.2
658.882,4794.4
659.013,4785.3
659.145,4800.9
659.276,4840.0
659.408,4804.5
659.539,4814.6
659.671,4791.1
659.802,4819.1
659.934,4818.1
660.065,4779.8
660.197,4791.9
660.328,4798.6
660.459,4765.6
660.591,4778.8
660.722,4788.1
660.854,4752.2
660.985,4745.0
661.117,4747.9
661.248,4745.6
661.38,4772.8
661.511,4726.9
661.642,4735.1
661.774,4745.6
661.905,4767.6
662.037,4733.8
662.168,4716.9
662.299,4738.3
662.431,4719.8
662.562,4711.6
662.694,4746.2
662.825,4727.0
662.957,4690.4
663.088,4710.5
