cm-1,A
4000.0,0.08942895151874142
3999.0,0.08969583193143116
3998.0,0.08990945440593179
3997.0,0.09017663034908807
3996.0,0.09039048950983108
3995.0,0.09065796163869155
3994.0,0.09087205801073917
3993.0,0.09097914578884403
3992.0,0.09108625997902897
3991.0,0.09113982698272349
3990.0,0.09108625997902897
3989.0,0.09092559859909577
3988.0,0.09076499663169257
3987.0,0.09065796163869155
3986.0,0.09065796163869155
3985.0,0.09071147583774919
3984.0,0.0908185240221473
3983.0,0.09087205801073917
3982.0,0.09087205801073917
3981.0,0.0908185240221473
3980.0,0.09076499663169257
3979.0,0.09071147583774919
3978.0,0.09071147583774919
3977.0,0.09065796163869155
3976.0,0.09060445403289452
3975.0,0.0905509530187334
3974.0,0.0905509530187334
3973.0,0.0905509530187334
3972.0,0.09065796163869155
3971.0,0.09076499663169257
3970.0,0.09092559859909577
3969.0,0.09108625997902897
3968.0,0.09135416109288674
3967.0,0.09156860103399356
3966.0,0.0917295005042762
3965.0,0.09167586072382083
3964.0,0.09156860103399356
3963.0,0.09140776115243066
3962.0,0.09135416109288674
3961.0,0.09130056764777605
3960.0,0.09130056764777605
3959.0,0.09130056764777605
3958.0,0.09130056764777605
3957.0,0.09124698081546634
3956.0,0.0910326995816122
3955.0,0.09071147583774919
3954.0,0.09039048950983108
3953.0,0.09017663034908807
3952.0,0.0900163050601559
3951.0,0.0900697402471693
3950.0,0.09023008526723086
3949.0,0.09044397075882471
3948.0,0.09071147583774919
3947.0,0.0908185240221473
3946.0,0.09076499663169257
3945.0,0.09065796163869155
3944.0,0.09060445403289452
3943.0,0.09060445403289452
3942.0,0.09065796163869155
3941.0,0.0908185240221473
3940.0,0.09108625997902897
3939.0,0.09151498112135026
3938.0,0.0919441259012328
3937.0,0.09205147838772776
3936.0,0.0919441259012328
3935.0,0.0917831469106074
3934.0,0.09156860103399356
3933.0,0.09135416109288674
3932.0,0.09113982698272349
3931.0,0.0910326995816122
3930.0,0.0910326995816122
3929.0,0.0910326995816122
3928.0,0.09087205801073917
3927.0,0.09071147583774919
3926.0,0.09065796163869155
3925.0,0.09065796163869155
3924.0,0.09060445403289452
3923.0,0.09044397075882471
3922.0,0.09049745859458458
3921.0,0.09071147583774919
3920.0,0.09087205801073917
3919.0,0.0908185240221473
3918.0,0.0908185240221473
3917.0,0.09108625997902897
3916.0,0.09151498112135026
3915.0,0.09189045960744768
3914.0,0.0922125568893839
3913.0,0.09253489323414388
3912.0,0.09264239186882706
3911.0,0.09242742120144909
3910.0,0.09210516458371698
3909.0,0.0917295005042762
3908.0,0.09146136782804049
3907.0,0.09113982698272349
3906.0,0.09076499663169257
3905.0,0.09039048950983108
3904.0,0.09017663034908807
3903.0,0.0900697402471693
3902.0,0.09023008526723086
3901.0,0.09076499663169257
3900.0,0.0916222275676053
3899.0,0.0922125568893839
3898.0,0.09226626300234453
3897.0,0.09205147838772776
3896.0,0.0917831469106074
3895.0,0.0916222275676053
3894.0,0.09130056764777605
3893.0,0.09119340059432579
3892.0,0.09151498112135026
3891.0,0.09205147838772776
3890.0,0.0919441259012328
3889.0,0.09130056764777605
3888.0,0.09113982698272349
3887.0,0.09183679994445204
3886.0,0.09253489323414388
3885.0,0.09248115389337075
3884.0,0.0916222275676053
3883.0,0.09092559859909577
3882.0,0.09097914578884403
3881.0,0.09151498112135026
3880.0,0.09189045960744768
3879.0,0.09189045960744768
3878.0,0.0917831469106074
3877.0,0.09189045960744768
3876.0,0.09237369515673355
3875.0,0.09248115389337075
3874.0,0.09189045960744768
3873.0,0.09097914578884403
3872.0,0.09060445403289452
3871.0,0.09130056764777605
3870.0,0.09231997575758011
3869.0,0.0922125568893839
3868.0,0.09113982698272349
3867.0,0.0905509530187334
3866.0,0.0910326995816122
3865.0,0.09146136782804049
3864.0,0.09108625997902897
3863.0,0.0908185240221473
3862.0,0.09119340059432579
3861.0,0.09183679994445204
3860.0,0.0922125568893839
3859.0,0.09226626300234453
3858.0,0.09210516458371698
3857.0,0.09189045960744768
3856.0,0.0917295005042762
3855.0,0.09167586072382083
3854.0,0.09205147838772776
3853.0,0.09296504751658308
3852.0,0.09318028453345462
3851.0,0.0922125568893839
3850.0,0.09210516458371698
3849.0,0.09307265269104414
3848.0,0.0935572061829677
3847.0,0.09344948089854999
3846.0,0.09318028453345462
3845.0,0.09307265269104414
3844.0,0.09291125492570451
3843.0,0.09248115389337075
3842.0,0.09183679994445204
3841.0,0.09119340059432579
3840.0,0.09092559859909577
3839.0,0.09113982698272349
3838.0,0.0916222275676053
3837.0,0.09183679994445204
3836.0,0.0916222275676053
3835.0,0.09124698081546634
3834.0,0.09135416109288674
3833.0,0.0919441259012328
3832.0,0.09258863922541383
3831.0,0.09285746899685954
3830.0,0.09280368972839836
3829.0,0.09280368972839836
3828.0,0.09312646527792956
3827.0,0.09361107884716913
3826.0,0.09371884422784693
3825.0,0.09318028453345462
3824.0,0.09248115389337075
3823.0,0.09237369515673355
3822.0,0.09274991711867164
3821.0,0.09301884677114591
3820.0,0.09274991711867164
3819.0,0.0919977988274463
3818.0,0.09215885741705532
3817.0,0.09344948089854999
3816.0,0.09447395156495153
3815.0,0.09441997176475758
3814.0,0.09382663635595145
3813.0,0.09393445524476318
3812.0,0.09474395125154866
3811.0,0.09512223303659528
3810.0,0.09474395125154866
3809.0,0.09431203228814788
3808.0,0.09447395156495153
3807.0,0.09485199814398393
3806.0,0.09458193129745807
3805.0,0.0935572061829677
3804.0,0.09296504751658308
3803.0,0.09344948089854999
3802.0,0.09398837472858723
3801.0,0.09388054245443844
3800.0,0.09301884677114591
3799.0,0.0922125568893839
3798.0,0.09274991711867164
3797.0,0.09398837472858723
3796.0,0.09479797133768142
3795.0,0.0950141189006366
3794.0,0.09517630019905599
3793.0,0.09550084460218011
3792.0,0.09571734235437201
3791.0,0.0955549589230904
3790.0,0.09523037409340485
3789.0,0.09496007192378841
3788.0,0.09479797133768142
3787.0,0.09468993788391455
3786.0,0.09463593123310776
3785.0,0.09463593123310776
3784.0,0.09452793807529569
3783.0,0.09425807260839858
3782.0,0.09415017335768128
3781.0,0.09441997176475758
3780.0,0.09490603167212863
3779.0,0.09533854208447545
3778.0,0.09550084460218011
3777.0,0.09560907998763835
3776.0,0.0957714836599215
3775.0,0.09604229147682952
3774.0,0.09593394808549704
3773.0,0.0955549589230904
3772.0,0.09539263618455207
3771.0,0.0955549589230904
3770.0,0.09582563171583658
3769.0,0.09571734235437201
3768.0,0.09533854208447545
3767.0,0.09523037409340485
3766.0,0.09560907998763835
3765.0,0.09593394808549704
3764.0,0.09571734235437201
3763.0,0.09533854208447545
3762.0,0.09523037409340485
3761.0,0.09523037409340485
3760.0,0.09490603167212863
3759.0,0.09441997176475758
3758.0,0.09425807260839858
3757.0,0.09425807260839858
3756.0,0.09409623378338305
3755.0,0.0937727369476411
3754.0,0.09361107884716913
3753.0,0.09328794305703592
3752.0,0.09280368972839836
3751.0,0.09280368972839836
3750.0,0.09371884422784693
3749.0,0.09436599867304518
3748.0,0.09382663635595145
3747.0,0.0935572061829677
3746.0,0.09458193129745807
3745.0,0.09631326826349751
3744.0,0.09745322068600859
3743.0,0.09680145295702158
3742.0,0.09517630019905599
3741.0,0.09474395125154866
3740.0,0.09490603167212863
3739.0,0.09431203228814788
3738.0,0.09323411045927221
3737.0,0.09242742120144909
3736.0,0.09189045960744768
3735.0,0.09135416109288674
3734.0,0.09130056764777605
3733.0,0.09231997575758011
3732.0,0.09382663635595145
3731.0,0.09479797133768142
3730.0,0.09490603167212863
3729.0,0.09490603167212863
3728.0,0.09517630019905599
3727.0,0.09539263618455207
3726.0,0.09523037409340485
3725.0,0.09485199814398393
3724.0,0.09452793807529569
3723.0,0.09425807260839858
3722.0,0.09398837472858723
3721.0,0.09382663635595145
3720.0,0.09398837472858723
3719.0,0.09441997176475758
3718.0,0.09496007192378841
3717.0,0.09517630019905599
3716.0,0.0950141189006366
3715.0,0.09468993788391455
3714.0,0.09452793807529569
3713.0,0.09431203228814788
3712.0,0.09409623378338305
3711.0,0.09420411963213149
3710.0,0.09474395125154866
3709.0,0.09528445472131919
3708.0,0.0957714836599215
3707.0,0.0960964733098364
3706.0,0.0960964733098364
3705.0,0.09587978652380036
3704.0,0.09560907998763835
3703.0,0.09550084460218011
3702.0,0.0955549589230904
3701.0,0.09571734235437201
3700.0,0.0957714836599215
3699.0,0.09593394808549704
3698.0,0.09636748391576244
3697.0,0.09685572959046151
3696.0,0.09696430321150284
3695.0,0.09653017149282994
3694.0,0.09598811640261173
3693.0,0.0955549589230904
3692.0,0.09517630019905599
3691.0,0.09496007192378841
3690.0,0.09544673702322726
3689.0,0.09658441423091357
3688.0,0.09739886933346864
3687.0,0.09718153191774648
3686.0,0.09674718310604158
3685.0,0.09701860020249709
3684.0,0.09767069414168117
3683.0,0.0978882765519955
3682.0,0.09772507952549825
3681.0,0.09745322068600859
3680.0,0.09718153191774648
3679.0,0.09642170633694569
3678.0,0.09539263618455207
3677.0,0.09490603167212863
3676.0,0.09506817260434741
3675.0,0.09550084460218011
3674.0,0.09528445472131919
3673.0,0.09468993788391455
3672.0,0.09533854208447545
3671.0,0.0964759355287379
3670.0,0.09685572959046151
3669.0,0.09691001300805646
3668.0,0.09707290398273716
3667.0,0.0975619438013351
3666.0,0.09843270997155007
3665.0,0.0989778267519208
3664.0,0.0990869322623309
3663.0,0.09903237608087578
3662.0,0.0989778267519208
3661.0,0.0989778267519208
3660.0,0.09881421986284966
3659.0,0.09859617317474823
3658.0,0.09865067458435761
3657.0,0.09892328427374508
3656.0,0.0990869322623309
3655.0,0.09870518283443275
3654.0,0.0978882765519955
3653.0,0.09745322068600859
3652.0,0.09729018703012282
3651.0,0.09663866374468144
3650.0,0.0955549589230904
3649.0,0.09523037409340485
3648.0,0.09582563171583658
3647.0,0.09642170633694569
3646.0,0.09685572959046151
3645.0,0.09739886933346864
3644.0,0.09821485469640057
3643.0,0.0989778267519208
3642.0,0.09930522554760213
3641.0,0.09935981601739963
3640.0,0.09941441335003853
3639.0,0.09957824654226233
3638.0,0.09968750301627338
3637.0,0.09963287134352972
3636.0,0.09957824654226233
3635.0,0.09963287134352972
3634.0,0.09963287134352972
3633.0,0.09925064193892053
3632.0,0.09859617317474823
3631.0,0.09821485469640057
3630.0,0.09821485469640057
3629.0,0.09854167860388774
3628.0,0.09903237608087578
3627.0,0.0990869322623309
3626.0,0.09914149529800831
3625.0,0.09974214156222239
3624.0,0.10017949757290379
3623.0,0.10001543745060903
3622.0,0.09957824654226233
3621.0,0.09925064193892053
3620.0,0.09903237608087578
3619.0,0.09881421986284966
3618.0,0.09848719087006019
3617.0,0.09805153492691598
3616.0,0.09799710864927058
3615.0,0.09837823590664274
3614.0,0.09886874864462802
3613.0,0.09903237608087578
3612.0,0.09892328427374508
3611.0,0.09886874864462802
3610.0,0.09930522554760213
3609.0,0.10007011727213588
3608.0,0.10083635852278117
3607.0,0.10132965703447017
3606.0,0.10138450258381404
3605.0,0.1012199867101744
3604.0,0.10105553313349058
3603.0,0.10083635852278117
3602.0,0.10067205012234592
3601.0,0.1005078038618683
3600.0,0.10034361969436434
3599.0,0.10001543745060903
3598.0,0.09974214156222239
3597.0,0.09952362861074304
3596.0,0.09930522554760213
3595.0,0.09914149529800831
3594.0,0.0989778267519208
3593.0,0.0989778267519208
3592.0,0.09914149529800831
3591.0,0.09952362861074304
3590.0,0.09996076451267522
3589.0,0.10017949757290379
3588.0,0.10023419805561384
3587.0,0.10039834085387778
3586.0,0.10061729446673495
3585.0,0.10083635852278117
3584.0,0.10116516193172598
3583.0,0.10149421446564144
3582.0,0.10154908080162528
3581.0,0.10132965703447017
3580.0,0.10116516193172598
3579.0,0.10111034407341357
3578.0,0.1012199867101744
3577.0,0.10138450258381404
3576.0,0.10154908080162528
3575.0,0.10165883427249067
3574.0,0.10182351650232357
3573.0,0.10193333935836524
3572.0,0.10198826120249849
3571.0,0.10182351650232357
3570.0,0.10132965703447017
3569.0,0.10072681268239614
3568.0,0.10012480397898926
3567.0,0.09985143928065598
3566.0,0.10001543745060903
3565.0,0.10034361969436434
3564.0,0.10072681268239614
3563.0,0.10116516193172598
3562.0,0.10154908080162528
3561.0,0.10187842445889239
3560.0,0.10209812573177213
3559.0,0.10231793820358015
3558.0,0.10253786198693682
3557.0,0.10275789719463457
3556.0,0.10292299679057959
3555.0,0.10297804393963661
3554.0,0.10303309806684524
3553.0,0.10319830233507843
3552.0,0.1033635694704158
3551.0,0.10341867249426717
3550.0,0.10341867249426717
3549.0,0.1033635694704158
3548.0,0.1033635694704158
3547.0,0.10330847343711591
3546.0,0.1033635694704158
3545.0,0.10352889952072264
3544.0,0.10369429253391926
3543.0,0.1038045895457893
3542.0,0.10391491457671487
3541.0,0.10408045468998406
3540.0,0.10430127304069425
3539.0,0.10446696051592963
3538.0,0.10463271122663809
3537.0,0.10463271122663809
3536.0,0.10457745396059215
3535.0,0.10435649517592083
3534.0,0.10413564875270076
3533.0,0.10402526764093545
3532.0,0.10385974855798041
3531.0,0.10374943753836186
3530.0,0.10363915453068362
3529.0,0.10341867249426717
3528.0,0.10319830233507843
3527.0,0.10297804393963661
3526.0,0.10297804393963661
3525.0,0.10341867249426717
3524.0,0.10413564875270076
3523.0,0.10468797552421272
3522.0,0.10485381062400778
3521.0,0.10463271122663809
3520.0,0.10435649517592083
3519.0,0.10430127304069425
3518.0,0.10446696051592963
3517.0,0.10468797552421272
3516.0,0.10496440254767725
3515.0,0.1052410056281079
3514.0,0.10540705207704448
3513.0,0.10540705207704448
3512.0,0.10513034325474746
3511.0,0.10468797552421272
3510.0,0.10424605792627206
3509.0,0.10408045468998406
3508.0,0.10413564875270076
3507.0,0.10435649517592083
3506.0,0.10463271122663809
3505.0,0.10485381062400778
3504.0,0.10513034325474746
3503.0,0.10546241500425357
3502.0,0.10579474085791629
3501.0,0.10585015323207791
3500.0,0.10557316203581202
3499.0,0.10518567091669917
3498.0,0.10490910306560064
3497.0,0.10485381062400778
3496.0,0.10507502264045665
3495.0,0.10540705207704448
3494.0,0.10557316203581202
3493.0,0.10557316203581202
3492.0,0.10551778498990938
3491.0,0.10557316203581202
3490.0,0.10568393731556158
3489.0,0.10573933555301185
3488.0,0.10568393731556158
3487.0,0.10551778498990938
3486.0,0.10540705207704448
3485.0,0.10540705207704448
3484.0,0.10540705207704448
3483.0,0.10535169620648288
3482.0,0.10529634739076998
3481.0,0.1052410056281079
3480.0,0.10535169620648288
3479.0,0.10568393731556158
3478.0,0.10601643278815298
3477.0,0.10612732120491852
3476.0,0.1060718734573931
3475.0,0.10590557267730127
3474.0,0.10585015323207791
3473.0,0.10601643278815298
3472.0,0.1062937069352865
3471.0,0.10646015643533868
3470.0,0.10657115822045493
3469.0,0.10662666975397506
3468.0,0.10673771411200872
3467.0,0.10701544928928342
3466.0,0.10723776538418317
3465.0,0.10723776538418317
3464.0,0.10707101764479421
3463.0,0.10690433390377163
3462.0,0.10673771411200872
3461.0,0.10668218838388821
3460.0,0.10673771411200872
3459.0,0.10684878687013422
3458.0,0.10701544928928342
3457.0,0.10723776538418317
3456.0,0.10734896612269962
3455.0,0.10729336219433439
3454.0,0.10723776538418317
3453.0,0.10729336219433439
3452.0,0.10746019534136453
3451.0,0.10757145305477
3450.0,0.10768273927751948
3449.0,0.10768273927751948
3448.0,0.10773839308446487
3447.0,0.10796107965870849
3446.0,0.1082953237608173
3445.0,0.10874138309586101
3444.0,0.10918790104487552
3443.0,0.10946720807225518
3442.0,0.10946720807225518
3441.0,0.10935546370475246
3440.0,0.10924374808178183
3439.0,0.10929960230112479
3438.0,0.10957898119908571
3437.0,0.10980261378997125
3436.0,0.11008231656379408
3435.0,0.11030620855581463
3434.0,0.11058623595729111
3433.0,0.11086644403327606
3432.0,0.11109074073646874
3431.0,0.11120293254331926
3430.0,0.11120293254331926
3429.0,0.11120293254331926
3428.0,0.11125903931710734
3427.0,0.11131515334030118
3426.0,0.11131515334030118
3425.0,0.11125903931710734
3424.0,0.11125903931710734
3423.0,0.11120293254331926
3422.0,0.11109074073646874
3421.0,0.11097857790477517
3420.0,0.11081038795292675
3419.0,0.11075433910702048
3418.0,0.11081038795292675
3417.0,0.11092250734993603
3416.0,0.11109074073646874
3415.0,0.11120293254331926
3414.0,0.11120293254331926
3413.0,0.11109074073646874
3412.0,0.11097857790477517
3411.0,0.11086644403327606
3410.0,0.11081038795292675
3409.0,0.11075433910702048
3408.0,0.11075433910702048
3407.0,0.11081038795292675
3406.0,0.11092250734993603
3405.0,0.11086644403327606
3404.0,0.11053021603049262
3403.0,0.11002636159600376
3402.0,0.10963487855187593
3401.0,0.10941133229451272
3400.0,0.10946720807225518
3399.0,0.10957898119908571
3398.0,0.10974669484546551
3397.0,0.10980261378997125
3396.0,0.10969078310005154
3395.0,0.10946720807225518
3394.0,0.10918790104487552
3393.0,0.10907622851098608
3392.0,0.10913206118855912
3391.0,0.10941133229451272
3390.0,0.10963487855187593
3389.0,0.10969078310005154
3388.0,0.10963487855187593
3387.0,0.10946720807225518
3386.0,0.10941133229451272
3385.0,0.10952309103982927
3384.0,0.10969078310005154
3383.0,0.10980261378997125
3382.0,0.1098585399354226
3381.0,0.10991447328367476
3380.0,0.1098585399354226
3379.0,0.1098585399354226
3378.0,0.1098585399354226
3377.0,0.10980261378997125
3376.0,0.10980261378997125
3375.0,0.10974669484546551
3374.0,0.10980261378997125
3373.0,0.10997041383658313
3372.0,0.11008231656379408
3371.0,0.11002636159600376
3370.0,0.10980261378997125
3369.0,0.10952309103982927
3368.0,0.10929960230112479
3367.0,0.10929960230112479
3366.0,0.10952309103982927
3365.0,0.10969078310005154
3364.0,0.10963487855187593
3363.0,0.10941133229451272
3362.0,0.10913206118855912
3361.0,0.10902040301031102
3360.0,0.10907622851098608
3359.0,0.10929960230112479
3358.0,0.10952309103982927
3357.0,0.10974669484546551
3356.0,0.10974669484546551
3355.0,0.10963487855187593
3354.0,0.10952309103982927
3353.0,0.10952309103982927
3352.0,0.10952309103982927
3351.0,0.10963487855187593
3350.0,0.10969078310005154
3349.0,0.10974669484546551
3348.0,0.10969078310005154
3347.0,0.10957898119908571
3346.0,0.10941133229451272
3345.0,0.10941133229451272
3344.0,0.10963487855187593
3343.0,0.10991447328367476
3342.0,0.11008231656379408
3341.0,0.11002636159600376
3340.0,0.10980261378997125
3339.0,0.10963487855187593
3338.0,0.10957898119908571
3337.0,0.10980261378997125
3336.0,0.11002636159600376
3335.0,0.11025022473596224
3334.0,0.11036219959333216
3333.0,0.11030620855581463
3332.0,0.11013827874181148
3331.0,0.10991447328367476
3330.0,0.10980261378997125
3329.0,0.10991447328367476
3328.0,0.11008231656379408
3327.0,0.11013827874181148
3326.0,0.11008231656379408
3325.0,0.11002636159600376
3324.0,0.10997041383658313
3323.0,0.11013827874181148
3322.0,0.11030620855581463
3321.0,0.11041819785037621
3320.0,0.11053021603049262
3319.0,0.11053021603049262
3318.0,0.11053021603049262
3317.0,0.11041819785037621
3316.0,0.11025022473596224
3315.0,0.11013827874181148
3314.0,0.11019424813191447
3313.0,0.11047420332880886
3312.0,0.11075433910702048
3311.0,0.11092250734993603
3310.0,0.11092250734993603
3309.0,0.1106422631110684
3308.0,0.11036219959333216
3307.0,0.11019424813191447
3306.0,0.11013827874181148
3305.0,0.11025022473596224
3304.0,0.11041819785037621
3303.0,0.11058623595729111
3302.0,0.11069829749368965
3301.0,0.11069829749368965
3300.0,0.11058623595729111
3299.0,0.11041819785037621
3298.0,0.11025022473596224
3297.0,0.11019424813191447
3296.0,0.11025022473596224
3295.0,0.11036219959333216
3294.0,0.11041819785037621
3293.0,0.11036219959333216
3292.0,0.11030620855581463
3291.0,0.11036219959333216
3290.0,0.11058623595729111
3289.0,0.11081038795292675
3288.0,0.11092250734993603
3287.0,0.11086644403327606
3286.0,0.11075433910702048
3285.0,0.1106422631110684
3284.0,0.11053021603049262
3283.0,0.11036219959333216
3282.0,0.11019424813191447
3281.0,0.11008231656379408
3280.0,0.11019424813191447
3279.0,0.11047420332880886
3278.0,0.11075433910702048
3277.0,0.11097857790477517
3276.0,0.11109074073646874
3275.0,0.11114683301706374
3274.0,0.11109074073646874
3273.0,0.11092250734993603
3272.0,0.11081038795292675
3271.0,0.11075433910702048
3270.0,0.11081038795292675
3269.0,0.11081038795292675
3268.0,0.11075433910702048
3267.0,0.1106422631110684
3266.0,0.1106422631110684
3265.0,0.11075433910702048
3264.0,0.11092250734993603
3263.0,0.11114683301706374
3262.0,0.11120293254331926
3261.0,0.11109074073646874
3260.0,0.11081038795292675
3259.0,0.11047420332880886
3258.0,0.11019424813191447
3257.0,0.11002636159600376
3256.0,0.10997041383658313
3255.0,0.10997041383658313
3254.0,0.10991447328367476
3253.0,0.10991447328367476
3252.0,0.10997041383658313
3251.0,0.11013827874181148
3250.0,0.11041819785037621
3249.0,0.11075433910702048
3248.0,0.11092250734993603
3247.0,0.11092250734993603
3246.0,0.11081038795292675
3245.0,0.1106422631110684
3244.0,0.1106422631110684
3243.0,0.11075433910702048
3242.0,0.11092250734993603
3241.0,0.11097857790477517
3240.0,0.11092250734993603
3239.0,0.11075433910702048
3238.0,0.11069829749368965
3237.0,0.11075433910702048
3236.0,0.11081038795292675
3235.0,0.11086644403327606
3234.0,0.11086644403327606
3233.0,0.11086644403327606
3232.0,0.11081038795292675
3231.0,0.11086644403327606
3230.0,0.11092250734993603
3229.0,0.11103465569966264
3228.0,0.11097857790477517
3227.0,0.11086644403327606
3226.0,0.11081038795292675
3225.0,0.11075433910702048
3224.0,0.11086644403327606
3223.0,0.11103465569966264
3222.0,0.11125903931710734
3221.0,0.11142740314240007
3220.0,0.11153968196461372
3219.0,0.11159583226295333
3218.0,0.11153968196461372
3217.0,0.1114835389250548
3216.0,0.11137127461477392
3215.0,0.11125903931710734
3214.0,0.11131515334030118
3213.0,0.11142740314240007
3212.0,0.11153968196461372
3211.0,0.11159583226295333
3210.0,0.11142740314240007
3209.0,0.11125903931710734
3208.0,0.11120293254331926
3207.0,0.11114683301706374
3206.0,0.11120293254331926
3205.0,0.11120293254331926
3204.0,0.11120293254331926
3203.0,0.11120293254331926
3202.0,0.11120293254331926
3201.0,0.11125903931710734
3200.0,0.11131515334030118
3199.0,0.11137127461477392
3198.0,0.11142740314240007
3197.0,0.11159583226295333
3196.0,0.1117081546434846
3195.0,0.1117081546434846
3194.0,0.11142740314240007
3193.0,0.11109074073646874
3192.0,0.11092250734993603
3191.0,0.11097857790477517
3190.0,0.11114683301706374
3189.0,0.11125903931710734
3188.0,0.11120293254331926
3187.0,0.11103465569966264
3186.0,0.11092250734993603
3185.0,0.11086644403327606
3184.0,0.11097857790477517
3183.0,0.11125903931710734
3182.0,0.11153968196461372
3181.0,0.11176432672943282
3180.0,0.11182050608167504
3179.0,0.11182050608167504
3178.0,0.1117081546434846
3177.0,0.11165198982195101
3176.0,0.11159583226295333
3175.0,0.11159583226295333
3174.0,0.11153968196461372
3173.0,0.11159583226295333
3172.0,0.1117081546434846
3171.0,0.11187669270209155
3170.0,0.11198908775497118
3169.0,0.1120452961911984
3168.0,0.11187669270209155
3167.0,0.11165198982195101
3166.0,0.1114835389250548
3165.0,0.11142740314240007
3164.0,0.11137127461477392
3163.0,0.11137127461477392
3162.0,0.11131515334030118
3161.0,0.11131515334030118
3160.0,0.1114835389250548
3159.0,0.1117081546434846
3158.0,0.11193288659256306
3157.0,0.11210151190312767
3156.0,0.11210151190312767
3155.0,0.1120452961911984
3154.0,0.11198908775497118
3153.0,0.1120452961911984
3152.0,0.11215773489264302
3151.0,0.11232644754555254
3150.0,0.11232644754555254
3149.0,0.11221396516162851
3148.0,0.11198908775497118
3147.0,0.11182050608167504
3146.0,0.11182050608167504
3145.0,0.11198908775497118
3144.0,0.11215773489264302
3143.0,0.11221396516162851
3142.0,0.11210151190312767
3141.0,0.11187669270209155
3140.0,0.1117081546434846
3139.0,0.11165198982195101
3138.0,0.11176432672943282
3137.0,0.11198908775497118
3136.0,0.11221396516162851
3135.0,0.11238269966426384
3134.0,0.11243895906999102
3133.0,0.11243895906999102
3132.0,0.11238269966426384
3131.0,0.11232644754555254
3130.0,0.11232644754555254
3129.0,0.11243895906999102
3128.0,0.1125514997500463
3127.0,0.11266406960083297
3126.0,0.11260778102815316
3125.0,0.11243895906999102
3124.0,0.11232644754555254
3123.0,0.11243895906999102
3122.0,0.11266406960083297
3121.0,0.1128329791052256
3120.0,0.112945621949043
3119.0,0.11288929687511629
3118.0,0.11277666863747693
3117.0,0.11272036546997688
3116.0,0.11277666863747693
3115.0,0.112945621949043
3114.0,0.11311464101399138
3113.0,0.11322735694556196
3112.0,0.11322735694556196
3111.0,0.11311464101399138
3110.0,0.112945621949043
3109.0,0.11288929687511629
3108.0,0.11305829401658474
3107.0,0.1133401021387972
3106.0,0.11367851344052027
3105.0,0.11396072443355765
3104.0,0.1141301390960936
3103.0,0.11429961987167014
3102.0,0.11441264381034388
3101.0,0.11446916681190777
3100.0,0.11446916681190777
3099.0,0.11435612816423602
3098.0,0.11424311893073247
3097.0,0.11418662533951118
3096.0,0.11418662533951118
3095.0,0.11424311893073247
3094.0,0.11424311893073247
3093.0,0.1141301390960936
3092.0,0.11396072443355765
3091.0,0.1137349409702435
3090.0,0.1136220932414278
3089.0,0.1136220932414278
3088.0,0.11367851344052027
3087.0,0.11379137583250243
3086.0,0.1138478180292033
3085.0,0.11401718864502697
3084.0,0.11418662533951118
3083.0,0.11446916681190777
3082.0,0.11469533241103202
3081.0,0.11492161585077598
3080.0,0.11509140583739286
3079.0,0.11526126223036814
3078.0,0.11537453674376552
3077.0,0.11548784080960606
3076.0,0.11543118508166672
3075.0,0.11531789579397489
3074.0,0.11509140583739286
3073.0,0.11492161585077598
3072.0,0.1148084593931522
3071.0,0.114865033936566
3070.0,0.1149782051377024
3069.0,0.11520463605101905
3068.0,0.11548784080960606
3067.0,0.1157145376603248
3066.0,0.11582793047608719
3065.0,0.11577123036739612
3064.0,0.11565785235294102
3063.0,0.11560117444331386
3062.0,0.11560117444331386
3061.0,0.11565785235294102
3060.0,0.11560117444331386
3059.0,0.11543118508166672
3058.0,0.11531789579397489
3057.0,0.11531789579397489
3056.0,0.11548784080960606
3055.0,0.11565785235294102
3054.0,0.11594135290606156
3053.0,0.11622503864474187
3052.0,0.11645212073195621
3051.0,0.11662251025166115
3050.0,0.11662251025166115
3049.0,0.1165089098110701
3048.0,0.11628179803604044
3047.0,0.11605480496572018
3046.0,0.11588463798833115
3045.0,0.1157145376603248
3044.0,0.11543118508166672
3043.0,0.11503480179926728
3042.0,0.11469533241103202
3041.0,0.11446916681190777
3040.0,0.11424311893073247
3039.0,0.11401718864502697
3038.0,0.11379137583250243
3037.0,0.1136220932414278
3036.0,0.11356568037106163
3035.0,0.11356568037106163
3034.0,0.11356568037106163
3033.0,0.11356568037106163
3032.0,0.11350927482751816
3031.0,0.11350927482751816
3030.0,0.11350927482751816
3029.0,0.11350927482751816
3028.0,0.11356568037106163
3027.0,0.1136220932414278
3026.0,0.11367851344052027
3025.0,0.1136220932414278
3024.0,0.11350927482751816
3023.0,0.1133401021387972
3022.0,0.11322735694556196
3021.0,0.11322735694556196
3020.0,0.11328372588352176
3019.0,0.11339648571328764
3018.0,0.11339648571328764
3017.0,0.11345287660889425
3016.0,0.11356568037106163
3015.0,0.11390426756225258
3014.0,0.11424311893073247
3013.0,0.11463877996848804
3012.0,0.1149782051377024
3011.0,0.11520463605101905
3010.0,0.11543118508166672
3009.0,0.11560117444331386
3008.0,0.11582793047608719
3007.0,0.11594135290606156
3006.0,0.11611154211151953
3005.0,0.11622503864474187
3004.0,0.11633856484638239
3003.0,0.1165089098110701
3002.0,0.116736140415026
3001.0,0.11702034596270106
3000.0,0.11724784438692004
2999.0,0.11741854644554883
2998.0,0.11764625361128611
2997.0,0.11804502866039956
2996.0,0.11844417020668851
2995.0,0.11878658374498086
2994.0,0.1190150095132465
2993.0,0.11924355548978971
2992.0,0.11941504393502012
2991.0,0.11958660012208333
2990.0,0.11958660012208333
2989.0,0.11941504393502012
2988.0,0.11930071078129845
2987.0,0.11935787359571504
2986.0,0.11958660012208333
2985.0,0.11992991593593283
2984.0,0.12027350336042275
2983.0,0.12056003400478299
2982.0,0.12090412049992727
2981.0,0.12136332697348307
2980.0,0.12182301950849372
2979.0,0.12239832027072817
2978.0,0.12303203256741524
2977.0,0.12372441132212098
2976.0,0.1244757360506914
2975.0,0.1252863112422209
2974.0,0.12604034525664676
2973.0,0.1267375405612734
2972.0,0.12726117252733116
2971.0,0.1277271537757949
2970.0,0.12819363554127072
2969.0,0.1286022185125162
2968.0,0.1290696416513042
2967.0,0.1295960947209729
2966.0,0.13012318673323353
2965.0,0.1304749371427727
2964.0,0.1305922506177981
2963.0,0.1306509192409071
2962.0,0.1306509192409071
2961.0,0.1308269726783169
2960.0,0.13106182166708868
2959.0,0.13123804178794973
2958.0,0.13123804178794973
2957.0,0.1311792938024825
2956.0,0.13100309751286465
2955.0,0.1308856730206247
2954.0,0.1308856730206247
2953.0,0.13076828026902376
2952.0,0.13053358991913355
2951.0,0.13006458935314003
2950.0,0.12953756841108
2949.0,0.12912810493225724
2948.0,0.12877744324029283
2947.0,0.1284854412916181
2946.0,0.12819363554127072
2945.0,0.12778543660241448
2944.0,0.12743585690934855
2943.0,0.1270865583796048
2942.0,0.12667939818460128
2941.0,0.12627261935332057
2940.0,0.12586622117202761
2939.0,0.12557616941349803
2938.0,0.12522836281570182
2937.0,0.1248808345374317
2936.0,0.12453358413361437
2935.0,0.12424442074194553
2934.0,0.12418661116024232
2933.0,0.12418661116024232
2932.0,0.12412880927263426
2931.0,0.12383991517437187
2930.0,0.12355121312165873
2929.0,0.1233203895807995
2928.0,0.12326270285933538
2927.0,0.12320502379929943
2926.0,0.12320502379929943
2925.0,0.12320502379929943
2924.0,0.12320502379929943
2923.0,0.12320502379929943
2922.0,0.12308968865537295
2921.0,0.12297438413275108
2920.0,0.12285911021517903
2919.0,0.12285911021517903
2918.0,0.12285911021517903
2917.0,0.12285911021517903
2916.0,0.12291674334934943
2915.0,0.12314735239865637
2914.0,0.12355121312165873
2913.0,0.12395544975390482
2912.0,0.12430223801979201
2911.0,0.12459143992293642
2910.0,0.1248808345374317
2909.0,0.12517042212027807
2908.0,0.12551818230053358
2907.0,0.1258081953209289
2906.0,0.12598229613781387
2905.0,0.126156466776564
2904.0,0.12627261935332057
2903.0,0.12627261935332057
2902.0,0.12621453918179926
2901.0,0.1260984021355387
2900.0,0.12586622117202761
2899.0,0.12557616941349803
2898.0,0.12517042212027807
2897.0,0.12476505354983503
2896.0,0.12453358413361437
2895.0,0.12441789567211425
2894.0,0.1244757360506914
2893.0,0.12453358413361437
2892.0,0.1244757360506914
2891.0,0.12441789567211425
2890.0,0.1244757360506914
2889.0,0.12453358413361437
2888.0,0.12453358413361437
2887.0,0.1244757360506914
2886.0,0.1244757360506914
2885.0,0.12453358413361437
2884.0,0.12464930342071079
2883.0,0.12470717462899183
2882.0,0.12470717462899183
2881.0,0.12470717462899183
2880.0,0.12464930342071079
2879.0,0.12453358413361437
2878.0,0.12441789567211425
2877.0,0.12441789567211425
2876.0,0.1244757360506914
2875.0,0.12453358413361437
2874.0,0.12453358413361437
2873.0,0.12441789567211425
2872.0,0.12424442074194553
2871.0,0.12407101507707297
2870.0,0.12401322857151209
2869.0,0.12407101507707297
2868.0,0.12418661116024232
2867.0,0.12418661116024232
2866.0,0.12412880927263426
2865.0,0.12407101507707297
2864.0,0.12401322857151209
2863.0,0.12389767862220635
2862.0,0.12389767862220635
2861.0,0.12407101507707297
2860.0,0.12436006299583169
2859.0,0.12470717462899183
2858.0,0.1249387366082999
2857.0,0.1249387366082999
2856.0,0.12476505354983503
2855.0,0.1244757360506914
2854.0,0.12424442074194553
2853.0,0.12412880927263426
2852.0,0.12407101507707297
2851.0,0.12407101507707297
2850.0,0.12401322857151209
2849.0,0.12389767862220635
2848.0,0.12378215940835768
2847.0,0.1236666709136196
2846.0,0.12360893818081231
2845.0,0.12349349573411894
2844.0,0.12337808396572703
2843.0,0.12320502379929943
2842.0,0.12303203256741524
2841.0,0.12285911021517903
2840.0,0.12274386688641381
2839.0,0.12268625668776156
2838.0,0.12274386688641381
2837.0,0.12280148472821018
2836.0,0.12285911021517903
2835.0,0.12285911021517903
2834.0,0.12280148472821018
2833.0,0.12274386688641381
2832.0,0.12280148472821018
2831.0,0.12280148472821018
2830.0,0.12280148472821018
2829.0,0.12280148472821018
2828.0,0.12274386688641381
2827.0,0.12262865413022594
2826.0,0.12245589228405596
2825.0,0.12239832027072817
2824.0,0.12239832027072817
2823.0,0.12245589228405596
2822.0,0.12251347193039863
2821.0,0.12251347193039863
2820.0,0.12251347193039863
2819.0,0.12251347193039863
2818.0,0.12257105921178035
2817.0,0.12257105921178035
2816.0,0.12251347193039863
2815.0,0.12245589228405596
2814.0,0.12239832027072817
2813.0,0.12234075588839133
2812.0,0.12228319913502328
2811.0,0.12216810850710624
2810.0,0.12211057462851604
2809.0,0.12211057462851604
2808.0,0.12211057462851604
2807.0,0.12216810850710624
2806.0,0.12222565000860186
2805.0,0.12228319913502328
2804.0,0.12228319913502328
2803.0,0.12222565000860186
2802.0,0.12216810850710624
2801.0,0.12211057462851604
2800.0,0.12205304837081177
2799.0,0.12205304837081177
2798.0,0.12211057462851604
2797.0,0.12222565000860186
2796.0,0.12239832027072817
2795.0,0.12262865413022594
2794.0,0.12274386688641381
2793.0,0.12280148472821018
2792.0,0.12274386688641381
2791.0,0.12257105921178035
2790.0,0.12239832027072817
2789.0,0.12228319913502328
2788.0,0.12228319913502328
2787.0,0.12234075588839133
2786.0,0.12239832027072817
2785.0,0.12239832027072817
2784.0,0.12234075588839133
2783.0,0.12222565000860186
2782.0,0.12211057462851604
2781.0,0.1219955297319748
2780.0,0.12182301950849372
2779.0,0.12170805075020397
2778.0,0.12170805075020397
2777.0,0.12176553132495593
2776.0,0.12193801870998744
2775.0,0.12205304837081177
2774.0,0.12216810850710624
2773.0,0.12222565000860186
2772.0,0.12234075588839133
2771.0,0.12239832027072817
2770.0,0.12245589228405596
2769.0,0.12239832027072817
2768.0,0.12228319913502328
2767.0,0.12205304837081177
2766.0,0.12188051530283239
2765.0,0.12176553132495593
2764.0,0.12182301950849372
2763.0,0.12193801870998744
2762.0,0.12205304837081177
2761.0,0.12216810850710624
2760.0,0.12228319913502328
2759.0,0.12239832027072817
2758.0,0.12239832027072817
2757.0,0.12234075588839133
2756.0,0.12211057462851604
2755.0,0.12193801870998744
2754.0,0.12176553132495593
2753.0,0.12165057778222454
2752.0,0.12165057778222454
2751.0,0.12182301950849372
2750.0,0.12216810850710624
2749.0,0.12251347193039863
2748.0,0.12274386688641381
2747.0,0.12280148472821018
2746.0,0.12274386688641381
2745.0,0.12262865413022594
2744.0,0.12251347193039863
2743.0,0.12239832027072817
2742.0,0.12222565000860186
2741.0,0.12205304837081177
2740.0,0.1219955297319748
2739.0,0.12216810850710624
2738.0,0.12239832027072817
2737.0,0.12262865413022594
2736.0,0.12280148472821018
2735.0,0.12285911021517903
2734.0,0.12280148472821018
2733.0,0.12268625668776156
2732.0,0.12251347193039863
2731.0,0.12239832027072817
2730.0,0.12239832027072817
2729.0,0.12245589228405596
2728.0,0.12251347193039863
2727.0,0.12262865413022594
2726.0,0.12274386688641381
2725.0,0.12280148472821018
2724.0,0.12280148472821018
2723.0,0.12268625668776156
2722.0,0.12251347193039863
2721.0,0.12245589228405596
2720.0,0.12245589228405596
2719.0,0.12251347193039863
2718.0,0.12262865413022594
2717.0,0.12262865413022594
2716.0,0.12251347193039863
2715.0,0.12234075588839133
2714.0,0.12234075588839133
2713.0,0.12239832027072817
2712.0,0.12257105921178035
2711.0,0.12262865413022594
2710.0,0.12257105921178035
2709.0,0.12245589228405596
2708.0,0.12239832027072817
2707.0,0.12234075588839133
2706.0,0.12234075588839133
2705.0,0.12234075588839133
2704.0,0.12228319913502328
2703.0,0.12222565000860186
2702.0,0.12216810850710624
2701.0,0.12211057462851604
2700.0,0.12211057462851604
2699.0,0.12216810850710624
2698.0,0.12228319913502328
2697.0,0.12228319913502328
2696.0,0.12222565000860186
2695.0,0.12222565000860186
2694.0,0.12228319913502328
2693.0,0.12234075588839133
2692.0,0.12251347193039863
2691.0,0.12268625668776156
2690.0,0.12274386688641381
2689.0,0.12274386688641381
2688.0,0.12268625668776156
2687.0,0.12262865413022594
2686.0,0.12262865413022594
2685.0,0.12262865413022594
2684.0,0.12262865413022594
2683.0,0.12257105921178035
2682.0,0.12251347193039863
2681.0,0.12245589228405596
2680.0,0.12251347193039863
2679.0,0.12257105921178035
2678.0,0.12280148472821018
2677.0,0.12297438413275108
2676.0,0.12314735239865637
2675.0,0.12314735239865637
2674.0,0.12308968865537295
2673.0,0.12291674334934943
2672.0,0.12280148472821018
2671.0,0.12285911021517903
2670.0,0.12308968865537295
2669.0,0.12326270285933538
2668.0,0.12326270285933538
2667.0,0.12314735239865637
2666.0,0.12297438413275108
2665.0,0.12285911021517903
2664.0,0.12280148472821018
2663.0,0.12274386688641381
2662.0,0.12268625668776156
2661.0,0.12262865413022594
2660.0,0.12257105921178035
2659.0,0.12251347193039863
2658.0,0.12245589228405596
2657.0,0.12239832027072817
2656.0,0.12245589228405596
2655.0,0.12251347193039863
2654.0,0.12257105921178035
2653.0,0.12262865413022594
2652.0,0.12274386688641381
2651.0,0.12280148472821018
2650.0,0.12285911021517903
2649.0,0.12274386688641381
2648.0,0.12262865413022594
2647.0,0.12251347193039863
2646.0,0.12245589228405596
2645.0,0.12257105921178035
2644.0,0.12268625668776156
2643.0,0.12280148472821018
2642.0,0.12274386688641381
2641.0,0.12262865413022594
2640.0,0.12262865413022594
2639.0,0.12274386688641381
2638.0,0.12291674334934943
2637.0,0.12308968865537295
2636.0,0.12326270285933538
2635.0,0.12337808396572703
2634.0,0.12349349573411894
2633.0,0.12349349573411894
2632.0,0.12343578601615435
2631.0,0.12343578601615435
2630.0,0.12337808396572703
2629.0,0.1233203895807995
2628.0,0.12320502379929943
2627.0,0.12303203256741524
2626.0,0.12303203256741524
2625.0,0.12303203256741524
2624.0,0.12314735239865637
2623.0,0.12326270285933538
2622.0,0.1233203895807995
2621.0,0.1233203895807995
2620.0,0.12320502379929943
2619.0,0.12308968865537295
2618.0,0.12308968865537295
2617.0,0.12320502379929943
2616.0,0.12337808396572703
2615.0,0.12349349573411894
2614.0,0.12349349573411894
2613.0,0.12349349573411894
2612.0,0.12343578601615435
2611.0,0.12343578601615435
2610.0,0.12343578601615435
2609.0,0.12343578601615435
2608.0,0.12343578601615435
2607.0,0.12349349573411894
2606.0,0.12349349573411894
2605.0,0.12349349573411894
2604.0,0.12349349573411894
2603.0,0.12355121312165873
2602.0,0.1236666709136196
2601.0,0.12378215940835768
2600.0,0.12383991517437187
2599.0,0.12383991517437187
2598.0,0.12383991517437187
2597.0,0.12395544975390482
2596.0,0.12407101507707297
2595.0,0.12418661116024232
2594.0,0.12430223801979201
2593.0,0.12436006299583169
2592.0,0.12441789567211425
2591.0,0.12441789567211425
2590.0,0.12436006299583169
2589.0,0.12430223801979201
2588.0,0.12424442074194553
2587.0,0.12430223801979201
2586.0,0.1244757360506914
2585.0,0.12470717462899183
2584.0,0.1248808345374317
2583.0,0.1249387366082999
2582.0,0.1248808345374317
2581.0,0.12476505354983503
2580.0,0.12464930342071079
2579.0,0.12459143992293642
2578.0,0.12464930342071079
2577.0,0.12482294018529605
2576.0,0.1248808345374317
2575.0,0.1249387366082999
2574.0,0.1248808345374317
2573.0,0.1248808345374317
2572.0,0.1249387366082999
2571.0,0.1251124891538875
2570.0,0.1252863112422209
2569.0,0.12551818230053358
2568.0,0.12563416426995122
2567.0,0.12569216687196105
2566.0,0.12563416426995122
2565.0,0.12557616941349803
2564.0,0.12546020292898974
2563.0,0.12534426740189897
2562.0,0.12517042212027807
2561.0,0.125054563914468
2560.0,0.124996646399959
2559.0,0.125054563914468
2558.0,0.1252863112422209
2557.0,0.12551818230053358
2556.0,0.12569216687196105
2555.0,0.12569216687196105
2554.0,0.12569216687196105
2553.0,0.12569216687196105
2552.0,0.12563416426995122
2551.0,0.12557616941349803
2550.0,0.12557616941349803
2549.0,0.12563416426995122
2548.0,0.12586622117202761
2547.0,0.1260984021355387
2546.0,0.12621453918179926
2545.0,0.126156466776564
2544.0,0.12604034525664676
2543.0,0.12598229613781387
2542.0,0.12598229613781387
2541.0,0.12604034525664676
2540.0,0.12598229613781387
2539.0,0.12586622117202761
2538.0,0.12575017722159698
2537.0,0.12569216687196105
2536.0,0.12569216687196105
2535.0,0.1258081953209289
2534.0,0.12598229613781387
2533.0,0.126156466776564
2532.0,0.1263307072932056
2531.0,0.12650501774383094
2530.0,0.12667939818460128
2529.0,0.1267375405612734
2528.0,0.12667939818460128
2527.0,0.12650501774383094
2526.0,0.1263307072932056
2525.0,0.126156466776564
2524.0,0.1260984021355387
2523.0,0.1260984021355387
2522.0,0.126156466776564
2521.0,0.12621453918179926
2520.0,0.1263307072932056
2519.0,0.12638880300353272
2518.0,0.12656313677796316
2517.0,0.126621263590859
2516.0,0.126621263590859
2515.0,0.12650501774383094
2514.0,0.12644690648638135
2513.0,0.12638880300353272
2512.0,0.1263307072932056
2511.0,0.1263307072932056
2510.0,0.12638880300353272
2509.0,0.12638880300353272
2508.0,0.12644690648638135
2507.0,0.12644690648638135
2506.0,0.12650501774383094
2505.0,0.126621263590859
2504.0,0.12679569072295926
2503.0,0.12685384867174432
2502.0,0.12691201440971422
2501.0,0.12685384867174432
2500.0,0.12679569072295926
2499.0,0.12679569072295926
2498.0,0.12679569072295926
2497.0,0.12685384867174432
2496.0,0.12691201440971422
2495.0,0.12685384867174432
2494.0,0.12685384867174432
2493.0,0.12685384867174432
2492.0,0.12679569072295926
2491.0,0.12667939818460128
2490.0,0.12650501774383094
2489.0,0.1263307072932056
2488.0,0.1263307072932056
2487.0,0.12650501774383094
2486.0,0.12679569072295926
2485.0,0.12714475529518965
2484.0,0.12731939284807026
2483.0,0.12737762097471172
2482.0,0.12720296001040166
2481.0,0.12691201440971422
2480.0,0.126621263590859
2479.0,0.12650501774383094
2478.0,0.12650501774383094
2477.0,0.12656313677796316
2476.0,0.1267375405612734
2475.0,0.12685384867174432
2474.0,0.12691201440971422
2473.0,0.12679569072295926
2472.0,0.1267375405612734
2471.0,0.12667939818460128
2470.0,0.12679569072295926
2469.0,0.12691201440971422
2468.0,0.12697018793895576
2467.0,0.12691201440971422
2466.0,0.12679569072295926
2465.0,0.1267375405612734
2464.0,0.1267375405612734
2463.0,0.12667939818460128
2462.0,0.1267375405612734
2461.0,0.1267375405612734
2460.0,0.1267375405612734
2459.0,0.126621263590859
2458.0,0.12656313677796316
2457.0,0.126621263590859
2456.0,0.1267375405612734
2455.0,0.12679569072295926
2454.0,0.12679569072295926
2453.0,0.1267375405612734
2452.0,0.1267375405612734
2451.0,0.1267375405612734
2450.0,0.1267375405612734
2449.0,0.12667939818460128
2448.0,0.12656313677796316
2447.0,0.12644690648638135
2446.0,0.12644690648638135
2445.0,0.12650501774383094
2444.0,0.126621263590859
2443.0,0.1267375405612734
2442.0,0.12685384867174432
2441.0,0.12685384867174432
2440.0,0.12679569072295926
2439.0,0.12667939818460128
2438.0,0.126621263590859
2437.0,0.126621263590859
2436.0,0.12667939818460128
2435.0,0.12667939818460128
2434.0,0.1267375405612734
2433.0,0.12685384867174432
2432.0,0.12691201440971422
2431.0,0.12685384867174432
2430.0,0.12679569072295926
2429.0,0.12679569072295926
2428.0,0.12685384867174432
2427.0,0.12702836926155658
2426.0,0.12720296001040166
2425.0,0.12726117252733116
2424.0,0.12720296001040166
2423.0,0.1270865583796048
2422.0,0.12691201440971422
2421.0,0.12685384867174432
2420.0,0.12685384867174432
2419.0,0.12685384867174432
2418.0,0.12679569072295926
2417.0,0.1267375405612734
2416.0,0.12679569072295926
2415.0,0.12685384867174432
2414.0,0.12702836926155658
2413.0,0.1270865583796048
2412.0,0.12720296001040166
2411.0,0.12731939284807026
2410.0,0.12737762097471172
2409.0,0.12749410065407507
2408.0,0.12749410065407507
2407.0,0.12743585690934855
2406.0,0.12737762097471172
2405.0,0.12737762097471172
2404.0,0.12737762097471172
2403.0,0.12737762097471172
2402.0,0.12737762097471172
2401.0,0.12743585690934855
2400.0,0.1275523522109867
2399.0,0.12778543660241448
2398.0,0.1280186461566306
2397.0,0.1282519810081284
2396.0,0.12836869546244634
2395.0,0.1283103343144847
2394.0,0.1281352979118051
2393.0,0.12796033202671375
2392.0,0.12778543660241448
2391.0,0.12778543660241448
2390.0,0.12784372725170723
2389.0,0.12796033202671375
2388.0,0.1280769681176266
2387.0,0.1280186461566306
2386.0,0.12778543660241448
2385.0,0.12761061158217912
2384.0,0.12743585690934855
2383.0,0.12737762097471172
2382.0,0.12720296001040166
2381.0,0.12691201440971422
2380.0,0.1263307072932056
2379.0,0.12563416426995122
2378.0,0.12482294018529605
2377.0,0.12401322857151209
2376.0,0.12337808396572703
2375.0,0.12320502379929943
2374.0,0.12337808396572703
2373.0,0.12372441132212098
2372.0,0.12395544975390482
2371.0,0.12395544975390482
2370.0,0.12383991517437187
2369.0,0.1236666709136196
2368.0,0.12337808396572703
2367.0,0.12303203256741524
2366.0,0.12274386688641381
2365.0,0.12268625668776156
2364.0,0.12303203256741524
2363.0,0.12320502379929943
2362.0,0.12251347193039863
2361.0,0.1207893947082408
2360.0,0.11918640771920863
2359.0,0.11872949607064243
2358.0,0.11930071078129845
2357.0,0.12033079436794658
2356.0,0.12124847982699793
2355.0,0.12193801870998744
2354.0,0.12216810850710624
2353.0,0.12205304837081177
2352.0,0.12182301950849372
2351.0,0.12142076193778073
2350.0,0.1207320431753871
2349.0,0.11987267778337518
2348.0,0.11970100857424737
2347.0,0.12015894401343741
2346.0,0.1207893947082408
2345.0,0.12113366304327466
2344.0,0.1207320431753871
2343.0,0.11970100857424737
2342.0,0.11867241589944855
2341.0,0.11844417020668851
2340.0,0.11890078161098283
2339.0,0.11918640771920863
2338.0,0.11924355548978971
2337.0,0.11924355548978971
2336.0,0.11941504393502012
2335.0,0.11970100857424737
2334.0,0.11992991593593283
2333.0,0.12033079436794658
2332.0,0.12124847982699793
2331.0,0.12251347193039863
2330.0,0.12355121312165873
2329.0,0.1236666709136196
2328.0,0.12326270285933538
2327.0,0.12285911021517903
2326.0,0.12280148472821018
2325.0,0.12297438413275108
2324.0,0.12326270285933538
2323.0,0.12389767862220635
2322.0,0.12453358413361437
2321.0,0.1249387366082999
2320.0,0.1251124891538875
2319.0,0.12517042212027807
2318.0,0.1251124891538875
2317.0,0.1249387366082999
2316.0,0.12482294018529605
2315.0,0.12482294018529605
2314.0,0.125054563914468
2313.0,0.12517042212027807
2312.0,0.12517042212027807
2311.0,0.12522836281570182
2310.0,0.12540223129680017
2309.0,0.12569216687196105
2308.0,0.12592425477696523
2307.0,0.12598229613781387
2306.0,0.12598229613781387
2305.0,0.12598229613781387
2304.0,0.12604034525664676
2303.0,0.1260984021355387
2302.0,0.12621453918179926
2301.0,0.12638880300353272
2300.0,0.12656313677796316
2299.0,0.1267375405612734
2298.0,0.12685384867174432
2297.0,0.12697018793895576
2296.0,0.12697018793895576
2295.0,0.12697018793895576
2294.0,0.12702836926155658
2293.0,0.12720296001040166
2292.0,0.12737762097471172
2291.0,0.1275523522109867
2290.0,0.1276688787697493
2289.0,0.12784372725170723
2288.0,0.1280186461566306
2287.0,0.1282519810081284
2286.0,0.1284854412916181
2285.0,0.1287190271420271
2284.0,0.12877744324029283
2283.0,0.1287190271420271
2282.0,0.1286022185125162
2281.0,0.12842706445412122
2280.0,0.12836869546244634
2279.0,0.12836869546244634
2278.0,0.1284854412916181
2277.0,0.1286022185125162
2276.0,0.12866061890013913
2275.0,0.12854382597704617
2274.0,0.12836869546244634
2273.0,0.1282519810081284
2272.0,0.1283103343144847
2271.0,0.12842706445412122
2270.0,0.1284854412916181
2269.0,0.12854382597704617
2268.0,0.1284854412916181
2267.0,0.12842706445412122
2266.0,0.12842706445412122
2265.0,0.12842706445412122
2264.0,0.1284854412916181
2263.0,0.1286022185125162
2262.0,0.12877744324029283
2261.0,0.12889429901441463
2260.0,0.12895273869450063
2259.0,0.12889429901441463
2258.0,0.12883586719705065
2257.0,0.12877744324029283
2256.0,0.1287190271420271
2255.0,0.12866061890013913
2254.0,0.12866061890013913
2253.0,0.12866061890013913
2252.0,0.12866061890013913
2251.0,0.12866061890013913
2250.0,0.1286022185125162
2249.0,0.12854382597704617
2248.0,0.1286022185125162
2247.0,0.12866061890013913
2246.0,0.12877744324029283
2245.0,0.12883586719705065
2244.0,0.12883586719705065
2243.0,0.1287190271420271
2242.0,0.12866061890013913
2241.0,0.1286022185125162
2240.0,0.12866061890013913
2239.0,0.1287190271420271
2238.0,0.12883586719705065
2237.0,0.12889429901441463
2236.0,0.12883586719705065
2235.0,0.1287190271420271
2234.0,0.12854382597704617
2233.0,0.12842706445412122
2232.0,0.12842706445412122
2231.0,0.1284854412916181
2230.0,0.1286022185125162
2229.0,0.1287190271420271
2228.0,0.12877744324029283
2227.0,0.12889429901441463
2226.0,0.12901118623942476
2225.0,0.12912810493225724
2224.0,0.12924505510985984
2223.0,0.12924505510985984
2222.0,0.12918657608440243
2221.0,0.12901118623942476
2220.0,0.12889429901441463
2219.0,0.12883586719705065
2218.0,0.12877744324029283
2217.0,0.12877744324029283
2216.0,0.12877744324029283
2215.0,0.12883586719705065
2214.0,0.12877744324029283
2213.0,0.1287190271420271
2212.0,0.12854382597704617
2211.0,0.12842706445412122
2210.0,0.12836869546244634
2209.0,0.12836869546244634
2208.0,0.12836869546244634
2207.0,0.12842706445412122
2206.0,0.1284854412916181
2205.0,0.12854382597704617
2204.0,0.12842706445412122
2203.0,0.1283103343144847
2202.0,0.12819363554127072
2201.0,0.1281352979118051
2200.0,0.1281352979118051
2199.0,0.1281352979118051
2198.0,0.1280769681176266
2197.0,0.1280769681176266
2196.0,0.1280186461566306
2195.0,0.1280769681176266
2194.0,0.1281352979118051
2193.0,0.1281352979118051
2192.0,0.1280769681176266
2191.0,0.1280186461566306
2190.0,0.1280186461566306
2189.0,0.1280186461566306
2188.0,0.1280769681176266
2187.0,0.12819363554127072
2186.0,0.1282519810081284
2185.0,0.1282519810081284
2184.0,0.12819363554127072
2183.0,0.1280769681176266
2182.0,0.12796033202671375
2181.0,0.12784372725170723
2180.0,0.12778543660241448
2179.0,0.1277271537757949
2178.0,0.1276688787697493
2177.0,0.1276688787697493
2176.0,0.1275523522109867
2175.0,0.12743585690934855
2174.0,0.12743585690934855
2173.0,0.12743585690934855
2172.0,0.12749410065407507
2171.0,0.12761061158217912
2170.0,0.1277271537757949
2169.0,0.12778543660241448
2168.0,0.12784372725170723
2167.0,0.12784372725170723
2166.0,0.1277271537757949
2165.0,0.12761061158217912
2164.0,0.1275523522109867
2163.0,0.1275523522109867
2162.0,0.12761061158217912
2161.0,0.1277271537757949
2160.0,0.1277271537757949
2159.0,0.1277271537757949
2158.0,0.12778543660241448
2157.0,0.12790202572577325
2156.0,0.12796033202671375
2155.0,0.12784372725170723
2154.0,0.1277271537757949
2153.0,0.12761061158217912
2152.0,0.1276688787697493
2151.0,0.12790202572577325
2150.0,0.1280186461566306
2149.0,0.1280769681176266
2148.0,0.1280186461566306
2147.0,0.12790202572577325
2146.0,0.12784372725170723
2145.0,0.12784372725170723
2144.0,0.12790202572577325
2143.0,0.12790202572577325
2142.0,0.12796033202671375
2141.0,0.12796033202671375
2140.0,0.12796033202671375
2139.0,0.1280186461566306
2138.0,0.1281352979118051
2137.0,0.1282519810081284
2136.0,0.1283103343144847
2135.0,0.12819363554127072
2134.0,0.1280186461566306
2133.0,0.12790202572577325
2132.0,0.12784372725170723
2131.0,0.12778543660241448
2130.0,0.12778543660241448
2129.0,0.12784372725170723
2128.0,0.12790202572577325
2127.0,0.12784372725170723
2126.0,0.12778543660241448
2125.0,0.1277271537757949
2124.0,0.12778543660241448
2123.0,0.12796033202671375
2122.0,0.1281352979118051
2121.0,0.1282519810081284
2120.0,0.12836869546244634
2119.0,0.12842706445412122
2118.0,0.12842706445412122
2117.0,0.12854382597704617
2116.0,0.12866061890013913
2115.0,0.12877744324029283
2114.0,0.12877744324029283
2113.0,0.12866061890013913
2112.0,0.12854382597704617
2111.0,0.1284854412916181
2110.0,0.1286022185125162
2109.0,0.1287190271420271
2108.0,0.1287190271420271
2107.0,0.1287190271420271
2106.0,0.12866061890013913
2105.0,0.1286022185125162
2104.0,0.12854382597704617
2103.0,0.12854382597704617
2102.0,0.12854382597704617
2101.0,0.12854382597704617
2100.0,0.12854382597704617
2099.0,0.12854382597704617
2098.0,0.12866061890013913
2097.0,0.12883586719705065
2096.0,0.12895273869450063
2095.0,0.12901118623942476
2094.0,0.12889429901441463
2093.0,0.12866061890013913
2092.0,0.12836869546244634
2091.0,0.1280769681176266
2090.0,0.12790202572577325
2089.0,0.12790202572577325
2088.0,0.1280186461566306
2087.0,0.12819363554127072
2086.0,0.1283103343144847
2085.0,0.1283103343144847
2084.0,0.12819363554127072
2083.0,0.1280769681176266
2082.0,0.12796033202671375
2081.0,0.12790202572577325
2080.0,0.12790202572577325
2079.0,0.12784372725170723
2078.0,0.12778543660241448
2077.0,0.1276688787697493
2076.0,0.12761061158217912
2075.0,0.12761061158217912
2074.0,0.1277271537757949
2073.0,0.12784372725170723
2072.0,0.12796033202671375
2071.0,0.12796033202671375
2070.0,0.1277271537757949
2069.0,0.12743585690934855
2068.0,0.1270865583796048
2067.0,0.12685384867174432
2066.0,0.12679569072295926
2065.0,0.12685384867174432
2064.0,0.12691201440971422
2063.0,0.12691201440971422
2062.0,0.12691201440971422
2061.0,0.12685384867174432
2060.0,0.1267375405612734
2059.0,0.12656313677796316
2058.0,0.12650501774383094
2057.0,0.12644690648638135
2056.0,0.12644690648638135
2055.0,0.12650501774383094
2054.0,0.12656313677796316
2053.0,0.12656313677796316
2052.0,0.12650501774383094
2051.0,0.12638880300353272
2050.0,0.12621453918179926
2049.0,0.1260984021355387
2048.0,0.12598229613781387
2047.0,0.12592425477696523
2046.0,0.1258081953209289
2045.0,0.12569216687196105
2044.0,0.12557616941349803
2043.0,0.12546020292898974
2042.0,0.1252863112422209
2041.0,0.12522836281570182
2040.0,0.12517042212027807
2039.0,0.12517042212027807
2038.0,0.1251124891538875
2037.0,0.1251124891538875
2036.0,0.1251124891538875
2035.0,0.124996646399959
2034.0,0.12476505354983503
2033.0,0.12464930342071079
2032.0,0.12453358413361437
2031.0,0.12453358413361437
2030.0,0.12459143992293642
2029.0,0.12453358413361437
2028.0,0.12436006299583169
2027.0,0.12418661116024232
2026.0,0.12401322857151209
2025.0,0.12383991517437187
2024.0,0.12378215940835768
2023.0,0.12372441132212098
2022.0,0.1236666709136196
2021.0,0.1236666709136196
2020.0,0.12372441132212098
2019.0,0.1236666709136196
2018.0,0.12360893818081231
2017.0,0.12355121312165873
2016.0,0.12355121312165873
2015.0,0.12360893818081231
2014.0,0.12355121312165873
2013.0,0.12343578601615435
2012.0,0.12320502379929943
2011.0,0.12303203256741524
2010.0,0.12303203256741524
2009.0,0.12308968865537295
2008.0,0.12320502379929943
2007.0,0.12314735239865637
2006.0,0.12308968865537295
2005.0,0.12297438413275108
2004.0,0.12285911021517903
2003.0,0.12280148472821018
2002.0,0.12280148472821018
2001.0,0.12285911021517903
2000.0,0.12291674334934943
1999.0,0.12291674334934943
1998.0,0.12285911021517903
1997.0,0.12285911021517903
1996.0,0.12280148472821018
1995.0,0.12280148472821018
1994.0,0.12280148472821018
1993.0,0.12285911021517903
1992.0,0.12291674334934943
1991.0,0.12291674334934943
1990.0,0.12291674334934943
1989.0,0.12285911021517903
1988.0,0.12274386688641381
1987.0,0.12262865413022594
1986.0,0.12257105921178035
1985.0,0.12257105921178035
1984.0,0.12257105921178035
1983.0,0.12257105921178035
1982.0,0.12257105921178035
1981.0,0.12251347193039863
1980.0,0.12245589228405596
1979.0,0.12234075588839133
1978.0,0.12234075588839133
1977.0,0.12234075588839133
1976.0,0.12245589228405596
1975.0,0.12257105921178035
1974.0,0.12268625668776156
1973.0,0.12262865413022594
1972.0,0.12257105921178035
1971.0,0.12251347193039863
1970.0,0.12257105921178035
1969.0,0.12262865413022594
1968.0,0.12268625668776156
1967.0,0.12280148472821018
1966.0,0.12297438413275108
1965.0,0.12320502379929943
1964.0,0.12337808396572703
1963.0,0.12343578601615435
1962.0,0.12337808396572703
1961.0,0.1233203895807995
1960.0,0.12337808396572703
1959.0,0.12360893818081231
1958.0,0.12383991517437187
1957.0,0.12395544975390482
1956.0,0.12395544975390482
1955.0,0.12395544975390482
1954.0,0.12401322857151209
1953.0,0.12401322857151209
1952.0,0.12401322857151209
1951.0,0.12401322857151209
1950.0,0.12389767862220635
1949.0,0.12372441132212098
1948.0,0.12355121312165873
1947.0,0.12343578601615435
1946.0,0.12337808396572703
1945.0,0.1233203895807995
1944.0,0.1233203895807995
1943.0,0.1233203895807995
1942.0,0.1233203895807995
1941.0,0.12326270285933538
1940.0,0.12308968865537295
1939.0,0.12285911021517903
1938.0,0.12257105921178035
1937.0,0.12222565000860186
1936.0,0.12193801870998744
1935.0,0.12165057778222454
1934.0,0.12142076193778073
1933.0,0.12119106764079435
1932.0,0.12101887660626365
1931.0,0.1207893947082408
1930.0,0.12056003400478299
1929.0,0.1202162199095842
1928.0,0.11987267778337518
1927.0,0.11958660012208333
1926.0,0.11935787359571504
1925.0,0.11918640771920863
1924.0,0.11895789180659433
1923.0,0.11867241589944855
1922.0,0.11844417020668851
1921.0,0.11833009232793867
1920.0,0.11833009232793867
1919.0,0.11827306462358211
1918.0,0.11810202642698875
1917.0,0.11776015198117662
1916.0,0.11741854644554883
1915.0,0.1170772093974013
1914.0,0.11684980031672243
1913.0,0.11662251025166115
1912.0,0.11628179803604044
1911.0,0.11599807523121286
1910.0,0.1157145376603248
1909.0,0.11554450392951199
1908.0,0.11537453674376552
1907.0,0.11520463605101905
1906.0,0.11503480179926728
1905.0,0.11492161585077598
1904.0,0.1148084593931522
1903.0,0.11469533241103202
1902.0,0.11458223488906394
1901.0,0.11446916681190777
1900.0,0.11418662533951118
1899.0,0.1138478180292033
1898.0,0.11345287660889425
1897.0,0.11311464101399138
1896.0,0.112945621949043
1895.0,0.11277666863747693
1894.0,0.11260778102815316
1893.0,0.11243895906999102
1892.0,0.11227020271196975
1891.0,0.11210151190312767
1890.0,0.11198908775497118
1889.0,0.11187669270209155
1888.0,0.11153968196461372
1887.0,0.11109074073646874
1886.0,0.11058623595729111
1885.0,0.11013827874181148
1884.0,0.1098585399354226
1883.0,0.10969078310005154
1882.0,0.10952309103982927
1881.0,0.10941133229451272
1880.0,0.10924374808178183
1879.0,0.10907622851098608
1878.0,0.10885296955122903
1877.0,0.10862982530385179
1876.0,0.10840679565103484
1875.0,0.10812816955441629
1874.0,0.10784972209863586
1873.0,0.10757145305477
1872.0,0.10734896612269962
1871.0,0.10718217569042365
1870.0,0.10695988804288215
1869.0,0.10673771411200872
1868.0,0.10646015643533868
1867.0,0.10612732120491852
1866.0,0.10579474085791629
1865.0,0.10546241500425357
1864.0,0.10507502264045665
1863.0,0.1047432468551055
1862.0,0.10441172433373724
1861.0,0.10413564875270076
1860.0,0.10385974855798041
1859.0,0.10363915453068362
1858.0,0.10352889952072264
1857.0,0.10352889952072264
1856.0,0.10341867249426717
1855.0,0.10325338439259446
1854.0,0.10292299679057959
1853.0,0.10259286033841963
1852.0,0.1022080180607754
1851.0,0.10187842445889239
1850.0,0.10165883427249067
1849.0,0.10149421446564144
1848.0,0.10132965703447017
1847.0,0.10132965703447017
1846.0,0.10138450258381404
1845.0,0.10138450258381404
1844.0,0.10100072911021085
1843.0,0.10045306890913297
1842.0,0.10007011727213588
1841.0,0.09996076451267522
1840.0,0.09990609845660159
1839.0,0.09979678698310646
1838.0,0.09957824654226233
1837.0,0.09946901754724413
1836.0,0.09941441335003853
1835.0,0.09935981601739963
1834.0,0.09925064193892053
1833.0,0.0990869322623309
1832.0,0.09892328427374508
1831.0,0.09870518283443275
1830.0,0.09843270997155007
1829.0,0.09821485469640057
1828.0,0.09805153492691598
1827.0,0.09799710864927058
1826.0,0.0978882765519955
1825.0,0.09750757884139638
1824.0,0.09696430321150284
1823.0,0.09653017149282994
1822.0,0.096150661903319
1821.0,0.09587978652380036
1820.0,0.09560907998763835
1819.0,0.09539263618455207
1818.0,0.09512223303659528
1817.0,0.09479797133768142
1816.0,0.09436599867304518
1815.0,0.0937727369476411
1814.0,0.09318028453345462
1813.0,0.09258863922541383
1812.0,0.09205147838772776
1811.0,0.09156860103399356
1810.0,0.09113982698272349
1809.0,0.0908185240221473
1808.0,0.09039048950983108
1807.0,0.08990945440593179
1806.0,0.0892689019566193
1805.0,0.08857603462370545
1804.0,0.08793744441149753
1803.0,0.08740600224789441
1802.0,0.08698131625203986
1801.0,0.08650404038287651
1800.0,0.08576265223225898
1799.0,0.08486409337798806
1798.0,0.0839147001562972
1797.0,0.08317771540408803
1796.0,0.08270459905431071
1795.0,0.08238947425013277
1794.0,0.08212704480115218
1793.0,0.08144546944972642
1792.0,0.08029446545087904
1791.0,0.07893810920972144
1790.0,0.07784567476894111
1789.0,0.07711890879170658
1788.0,0.07649693305789551
1787.0,0.07587584681417514
1786.0,0.07510073598571654
1785.0,0.07422394616325367
1784.0,0.07319468988839395
1783.0,0.07216786713341827
1782.0,0.07119462910671581
1781.0,0.07007043991541217
1780.0,0.06869471857832687
1779.0,0.06742477650170953
1778.0,0.0663102910421054
1777.0,0.06545105233385295
1776.0,0.06408986356949264
1775.0,0.06258241852286206
1774.0,0.06133019897732073
1773.0,0.060131455540490375
1772.0,0.059135024033278416
1771.0,0.058190526991161784
1770.0,0.057049929922901255
1769.0,0.055566682299785564
1768.0,0.05413767551038262
1767.0,0.052468254304406825
1766.0,0.050902874887084115
1765.0,0.04987865248862655
1764.0,0.04905128560059957
1763.0,0.047934409814949674
1762.0,0.046143701775014145
1761.0,0.04387961360698034
1760.0,0.042057664554595586
1759.0,0.041149548320321694
1758.0,0.04062466342415694
1757.0,0.03967194946985697
1756.0,0.038341651362284734
1755.0,0.037488606492403154
1754.0,0.03767802727041558
1753.0,0.038341651362284734
1752.0,0.03886378261277468
1751.0,0.039338992729018196
1750.0,0.040338629726504704
1749.0,0.042201225070002124
1748.0,0.04508244626504121
1747.0,0.04905128560059957
1746.0,0.05399011523423525
1745.0,0.05968277842578207
1744.0,0.06641148980334699
1743.0,0.07448164182257
1742.0,0.08333553545860273
1741.0,0.09285746899685954
1740.0,0.1038045895457893
1739.0,0.11633856484638239
1738.0,0.12877744324029283
1737.0,0.1394224487555844
1736.0,0.148864004988426
1735.0,0.1600822243213189
1734.0,0.1769172034671962
1733.0,0.19688444510997294
1732.0,0.2135325232597176
1731.0,0.2274582673590566
1730.0,0.24214865631442017
1729.0,0.258612007520731
1728.0,0.2759700270644023
1727.0,0.2931116050183822
1726.0,0.3103360349842297
1725.0,0.328271911760442
1724.0,0.3482375526198891
1723.0,0.3702846673528677
1722.0,0.3923305633117571
1721.0,0.4122890349810886
1720.0,0.4299242946783959
1719.0,0.44794046581211555
1718.0,0.4715975620463826
1717.0,0.5015515968260003
1716.0,0.5285615926107008
1715.0,0.5471406642041476
1714.0,0.5594057381601691
1713.0,0.5662301660751343
1712.0,0.5670307091255942
1711.0,0.5624079677460387
1710.0,0.5543957967264024
1709.0,0.5437858446420112
1708.0,0.5310621943345386
1707.0,0.5165553519014647
1706.0,0.5000381344038098
1705.0,0.4829361265173453
1704.0,0.4681380509041906
1703.0,0.456677099353088
1702.0,0.4462383016099958
1701.0,0.4328559548043429
1700.0,0.41600820080168366
1699.0,0.4011001129361169
1698.0,0.39136701050996314
1697.0,0.383839687152417
1696.0,0.3749963989851366
1695.0,0.3653212478213177
1694.0,0.3571399474155086
1693.0,0.35115229162710637
1692.0,0.3458234581220394
1691.0,0.33998877871066924
1690.0,0.3336692556980314
1689.0,0.3279945549770482
1688.0,0.3234892897174464
1687.0,0.3195738291418546
1686.0,0.31515463835558766
1685.0,0.3098925605436693
1684.0,0.30548254618884374
1683.0,0.3031196283172377
1682.0,0.3014645074379989
1681.0,0.2993828043179432
1680.0,0.2965366581167068
1679.0,0.29353826236864533
1678.0,0.29073003902416916
1677.0,0.28785558578511417
1676.0,0.28474897112115083
1675.0,0.28149831113272583
1674.0,0.2784366816425192
1673.0,0.27572413039921084
1672.0,0.27310985925817843
1671.0,0.2704302736980302
1670.0,0.2678475819347863
1669.0,0.2654401784205238
1668.0,0.26320524507563947
1667.0,0.2610609687965204
1666.0,0.25884840114821506
1665.0,0.25633347855378696
1664.0,0.25352149006996894
1663.0,0.2506502394025234
1662.0,0.2482591261890994
1661.0,0.24626377782498987
1660.0,0.24435378054332002
1659.0,0.242376254091611
1658.0,0.24025663240227502
1657.0,0.23807216157947098
1656.0,0.23597339230796277
1655.0,0.23358715288760057
1654.0,0.23091821288178105
1653.0,0.22914798835785577
1652.0,0.22767829327708022
1651.0,0.22562904015008334
1650.0,0.224608028303388
1649.0,0.22380748525292793
1648.0,0.222500680409635
1647.0,0.22112552799726037
1646.0,0.22018713682941948
1645.0,0.21910689131292105
1644.0,0.2178141335079835
1643.0,0.21659671887743648
1642.0,0.21545402594547736
1641.0,0.21431433171909875
1640.0,0.2130357405642671
1639.0,0.21183162885883222
1638.0,0.21063084640851826
1637.0,0.20943337485392344
1636.0,0.20844969497266996
1635.0,0.20795868928791772
1634.0,0.20725821416525125
1633.0,0.20641913263184408
1632.0,0.20551195334083028
1631.0,0.20446755728984556
1630.0,0.2033562962148836
1629.0,0.20224787134928923
1628.0,0.20128031481499375
1627.0,0.200521601162019
1626.0,0.19976421067264605
1625.0,0.19893947015214453
1624.0,0.19797924822802404
1623.0,0.19702114466473808
1622.0,0.19633807676377568
1621.0,0.19565608152013425
1620.0,0.19490712165732704
1619.0,0.1941594511853273
1618.0,0.19341306567219707
1617.0,0.1932097284159331
1616.0,0.19382002601611292
1615.0,0.19456711186786002
1614.0,0.19517932127883775
1613.0,0.19551981089400727
1612.0,0.19538358301274483
1611.0,0.19497515557019485
1610.0,0.19449914184159978
1609.0,0.19395576425191186
1608.0,0.1932097284159331
1607.0,0.19226207798589923
1606.0,0.1912490276504053
1605.0,0.19017103893211385
1604.0,0.18896149139578422
1603.0,0.1878891587969005
1602.0,0.18701983396051958
1601.0,0.18628560811885508
1600.0,0.18535293054814383
1599.0,0.18422307970163732
1598.0,0.18302996224270052
1597.0,0.1818401136028147
1596.0,0.18071935302751885
1595.0,0.17966715510059017
1594.0,0.1788141173911546
1593.0,0.17809362264767703
1592.0,0.17743966305730785
1591.0,0.17678668671733244
1590.0,0.17613469067548881
1589.0,0.1754836719927908
1588.0,0.17483362774345035
1587.0,0.1742494186519723
1586.0,0.17392519729917355
1585.0,0.17379557650074728
1584.0,0.17386038206408516
1583.0,0.17444406770964305
1582.0,0.17567887514922864
1581.0,0.17737432122585917
1580.0,0.17920761891179637
1579.0,0.18111458540599013
1578.0,0.18256685588861554
1577.0,0.1835598320438614
1576.0,0.18402399902801458
1575.0,0.1838250095711984
1574.0,0.1831623690979649
1573.0,0.18243463044021913
1572.0,0.18137827362411096
1571.0,0.17992996568767428
1570.0,0.17829000270162365
1569.0,0.17685194018930606
1568.0,0.1754836719927908
1567.0,0.17431429197824166
1566.0,0.17327747983100794
1565.0,0.17224313702138327
1564.0,0.1712756728612086
1563.0,0.17056756638240134
1562.0,0.17018181256112253
1561.0,0.1693471862025755
1560.0,0.16793838540927308
1559.0,0.16717187046064663
1558.0,0.1674910872937636
1557.0,0.1667891197173912
1556.0,0.166151950468852
1555.0,0.16557929631846746
1554.0,0.16494389827988365
1553.0,0.16418264570652719
1552.0,0.16348600110932865
1551.0,0.16298005145909156
1550.0,0.16253782851400533
1549.0,0.16209605540705763
1548.0,0.16152872092807113
1547.0,0.16089921729284673
1546.0,0.16020781555467067
1545.0,0.15939212099070987
1544.0,0.15864052954514496
1543.0,0.15789023655938994
1542.0,0.15701652987778258
1541.0,0.15614457737683884
1540.0,0.15564710368910672
1539.0,0.15515019919336104
1538.0,0.15428198203334142
1537.0,0.1537866361206126
1536.0,0.15366288787019466
1535.0,0.15347733158371324
1534.0,0.15304467498017615
1533.0,0.15285938258659382
1532.0,0.15292113793428452
1531.0,0.15285938258659382
1530.0,0.15267416921457633
1529.0,0.15242734085788778
1528.0,0.15224231160766877
1527.0,0.15193410459600853
1526.0,0.1515645446685292
1525.0,0.15101079374883275
1524.0,0.15045774799498335
1523.0,0.14978275820161047
1522.0,0.148864004988426
1521.0,0.14800825203784274
1520.0,0.1472151313194523
1519.0,0.14666689499766483
1518.0,0.1461193498754576
1517.0,0.14545106418704923
1516.0,0.1446020033459312
1515.0,0.14381507327283027
1514.0,0.14315032127482774
1513.0,0.14260718907909875
1512.0,0.14218522202899342
1511.0,0.14206473528057106
1510.0,0.1425468829647336
1509.0,0.14375459920994582
1508.0,0.14697138528701026
1507.0,0.15577141869837208
1506.0,0.16915480769138846
1505.0,0.17750501472124913
1504.0,0.17953580942231584
1503.0,0.17861750025270084
1502.0,0.17593928258134706
1501.0,0.17204947169736973
1500.0,0.1674910872937636
1499.0,0.1627904721987936
1498.0,0.15826522102525642
1497.0,0.15415809257824264
1496.0,0.15051916275601385
1495.0,0.14739803066176504
1494.0,0.14514763758216587
1493.0,0.14363367634075197
1492.0,0.14242629585250421
1491.0,0.14110204276799654
1490.0,0.13984173868172167
1489.0,0.1390633792999063
1488.0,0.1387643813659596
1487.0,0.1385253311428314
1486.0,0.1384058553561347
1485.0,0.13858508136400327
1484.0,0.13912320359670227
1483.0,0.1399616101928065
1482.0,0.1410419452819942
1481.0,0.1423660148499919
1480.0,0.14381507327283027
1479.0,0.1450869776921444
1478.0,0.14624096692523136
1477.0,0.14745901423020125
1476.0,0.148864004988426
1475.0,0.1500894416985039
1474.0,0.15107228677292173
1473.0,0.15181088300860135
1472.0,0.15236565568174498
1471.0,0.1523039792658345
1470.0,0.1517492853229574
1469.0,0.15113378850522063
1468.0,0.15058058620310066
1467.0,0.1502121757623145
1466.0,0.1499667423102311
1465.0,0.1499667423102311
1464.0,0.15033494452126717
1463.0,0.1509493094304879
1462.0,0.1515645446685292
1461.0,0.15236565568174498
1460.0,0.15335367142288248
1459.0,0.15428198203334142
1458.0,0.15552282425431851
1457.0,0.15732836623921154
1456.0,0.15882830550046778
1455.0,0.15932943866659088
1454.0,0.159517512786558
1453.0,0.15964294079664376
1452.0,0.15958022226351387
1451.0,0.15926676538819318
1450.0,0.158765704493959
1449.0,0.15826522102525642
1448.0,0.15751557558842988
1447.0,0.1565180569600424
1446.0,0.15558495952617557
1445.0,0.15465386258859137
1444.0,0.1537866361206126
1443.0,0.15298290206464582
1442.0,0.15224231160766877
1441.0,0.15162611615539823
1440.0,0.15113378850522063
1439.0,0.15076490868527737
1438.0,0.1500894416985039
1437.0,0.148864004988426
1436.0,0.14697138528701026
1435.0,0.14472319616990825
1434.0,0.14260718907909875
1433.0,0.14056146454494378
1432.0,0.13816700234205515
1431.0,0.13537027545448765
1430.0,0.13235576609690147
1429.0,0.12936203678919433
1428.0,0.126621263590859
1427.0,0.12430223801979201
1426.0,0.12222565000860186
1425.0,0.11987267778337518
1424.0,0.1174754620451195
1423.0,0.11554450392951199
1422.0,0.11446916681190777
1421.0,0.11379137583250243
1420.0,0.11328372588352176
1419.0,0.11339648571328764
1418.0,0.1148084593931522
1417.0,0.11787408022996826
1416.0,0.12268625668776156
1415.0,0.12965462891904034
1414.0,0.1390633792999063
1413.0,0.15125681810431635
1412.0,0.16647041824135633
1411.0,0.1838250095711984
1410.0,0.20114226825251436
1409.0,0.2160964207272651
1408.0,0.22723835285596783
1407.0,0.2334384473624691
1406.0,0.23433144524098592
1405.0,0.23054882059796222
1404.0,0.22388020094701222
1403.0,0.21623930425607596
1402.0,0.2087305190897315
1401.0,0.2016256233184388
1400.0,0.19456711186786002
1399.0,0.18748771571001743
1398.0,0.18091692425629735
1397.0,0.1754836719927908
1396.0,0.17082492608291244
1395.0,0.16621562534352097
1394.0,0.16159172150581314
1393.0,0.15757799664235028
1392.0,0.1545918603782066
1391.0,0.1523039792658345
1390.0,0.1503963419175529
1389.0,0.14855818532794496
1388.0,0.14684956355215717
1387.0,0.14526898278605782
1386.0,0.14381507327283027
1385.0,0.14260718907909875
1384.0,0.14170347546611461
1383.0,0.1410419452819942
1382.0,0.1405014418122239
1381.0,0.1400815147992842
1380.0,0.13984173868172167
1379.0,0.1397219002477652
1378.0,0.13984173868172167
1377.0,0.14002155835797914
1376.0,0.14026143380285316
1375.0,0.1405014418122239
1374.0,0.1409818561111058
1373.0,0.1415229581866595
1372.0,0.14206473528057106
1371.0,0.1423660148499919
1370.0,0.14230574221345038
1369.0,0.14164329470222659
1368.0,0.14038142122781938
1367.0,0.13858508136400327
1366.0,0.13632033212410222
1365.0,0.13359450162194508
1364.0,0.13041629228657614
1363.0,0.12685384867174432
1362.0,0.12314735239865637
1361.0,0.11981544717356662
1360.0,0.11713408027837091
1359.0,0.11492161585077598
1358.0,0.11288929687511629
1357.0,0.11109074073646874
1356.0,0.10957898119908571
1355.0,0.10846254232743546
1354.0,0.10773839308446487
1353.0,0.10762709260156367
1352.0,0.10812816955441629
1351.0,0.10935546370475246
1350.0,0.11137127461477392
1349.0,0.11435612816423602
1348.0,0.11850122038501709
1347.0,0.12395544975390482
1346.0,0.13094438129809216
1345.0,0.13984173868172167
1344.0,0.15076490868527737
1343.0,0.163359458427226
1342.0,0.17711305216584927
1341.0,0.19178902707577805
1340.0,0.20683847075444928
1339.0,0.22054781659593825
1338.0,0.23003219867055757
1337.0,0.23403357521428614
1336.0,0.2326956825467268
1335.0,0.22687207596666514
1334.0,0.21724080737600282
1333.0,0.20453710560962013
1332.0,0.18996921359416064
1331.0,0.1748985884019969
1330.0,0.16058480731610647
1329.0,0.14776406058811253
1328.0,0.1369151746796402
1327.0,0.1280186461566306
1326.0,0.12096149476276286
1325.0,0.11531789579397489
1324.0,0.11092250734993603
1323.0,0.1075158206353124
1322.0,0.10496440254767725
1321.0,0.10303309806684524
1320.0,0.10149421446564144
1319.0,0.10034361969436434
1318.0,0.09957824654226233
1317.0,0.09914149529800831
1316.0,0.09881421986284966
1315.0,0.09870518283443275
1314.0,0.09875969792669093
1313.0,0.09914149529800831
1312.0,0.09990609845660159
1311.0,0.10105553313349058
1310.0,0.10242788617426934
1309.0,0.10402526764093545
1308.0,0.10562854614376227
1307.0,0.10723776538418317
1306.0,0.10885296955122903
1305.0,0.11036219959333216
1304.0,0.1117081546434846
1303.0,0.11311464101399138
1302.0,0.114865033936566
1301.0,0.11724784438692004
1300.0,0.12044539906102569
1299.0,0.12436006299583169
1298.0,0.12895273869450063
1297.0,0.13388996015562338
1296.0,0.13912320359670227
1295.0,0.14466259553045968
1294.0,0.1503963419175529
1293.0,0.1562690348879079
1292.0,0.16215913834447737
1291.0,0.16793838540927308
1290.0,0.17353645090719882
1289.0,0.1789452449531117
1288.0,0.18422307970163732
1287.0,0.18943147078358713
1286.0,0.19429529556613567
1285.0,0.19887081242029603
1284.0,0.2032175882986922
1283.0,0.2074682380986923
1282.0,0.21140744407964052
1281.0,0.21524010533599514
1280.0,0.21896306137886823
1279.0,0.22279074185431513
1278.0,0.2267256516625462
1277.0,0.23099212905622624
1276.0,0.23574912456122687
1275.0,0.24108810760202637
1274.0,0.24718356881172854
1273.0,0.2543787786930616
1272.0,0.2629664686661224
1271.0,0.27310985925817843
1270.0,0.2846653162076871
1269.0,0.29739715865957295
1268.0,0.3113132757158765
1267.0,0.32633412375429804
1266.0,0.3419886033428876
1265.0,0.3580304022979406
1264.0,0.3740705072837054
1263.0,0.3898723869240046
1262.0,0.40483458520977056
1261.0,0.41850545770910075
1260.0,0.43062609038495414
1259.0,0.4408118109952246
1258.0,0.449038247701824
1257.0,0.4558078892349675
1256.0,0.4621809049267258
1255.0,0.4687766254669732
1254.0,0.4758636234074314
1253.0,0.484126156288321
1252.0,0.4941719661451638
1251.0,0.5064025509994732
1250.0,0.5204246898250116
1249.0,0.5359577945611893
1248.0,0.5529971015338377
1247.0,0.5712174885030454
1246.0,0.5898979233571393
1245.0,0.6085355881608967
1244.0,0.6267201067225039
1243.0,0.6434005642750291
1242.0,0.6573799574466519
1241.0,0.6681679555637514
1240.0,0.6757175447023074
1239.0,0.679853713888946
1238.0,0.6796459671823281
1237.0,0.6757175447023074
1236.0,0.6695862266508092
1235.0,0.6613443344212997
1234.0,0.6509168312204097
1233.0,0.6394065864347511
1232.0,0.6276404174756762
1231.0,0.6160052105582672
1230.0,0.604149623981219
1229.0,0.592099459857365
1228.0,0.5807052782465394
1227.0,0.5697636465884894
1226.0,0.5590909179347823
1225.0,0.5489815478445426
1224.0,0.5398541825082497
1223.0,0.5316526695878427
1222.0,0.5236031732746698
1221.0,0.5158425756346192
1220.0,0.5084982337626736
1219.0,0.5012760292520952
1218.0,0.49376564038787407
1217.0,0.4861168143889072
1216.0,0.47860037188462434
1215.0,0.4713403547650101
1214.0,0.4640732586044307
1213.0,0.45680141436235333
1212.0,0.449771646944906
1211.0,0.44297427761361674
1210.0,0.4361630813354551
1209.0,0.4295738216410274
1208.0,0.42331319479900453
1207.0,0.41714153777550056
1206.0,0.411056357259985
1205.0,0.4049449102406961
1204.0,0.39913596369016036
1203.0,0.3934036908207148
1202.0,0.3877460939035626
1201.0,0.38226596463598206
1200.0,0.3769575657536184
1199.0,0.37181549192658747
1198.0,0.36653154442041336
1197.0,0.36131111330987653
1196.0,0.3560540872519333
1195.0,0.35095736591382365
1194.0,0.3458234581220394
1193.0,0.3406543642538229
1192.0,0.3355460714188425
1191.0,0.33049716589565703
1190.0,0.3252306859845737
1189.0,0.32011805788713765
1188.0,0.31524437789137605
1187.0,0.3106911408763797
1186.0,0.30636097383845184
1185.0,0.302160631781637
1184.0,0.2983456826742519
1183.0,0.2948207551263238
1182.0,0.2915790998652872
1181.0,0.28878347567891005
1180.0,0.2865934678323092
1179.0,0.2849163293050727
1178.0,0.28366271211045135
1177.0,0.2825791632776251
1176.0,0.28166442109149337
1175.0,0.2808345059107866
1174.0,0.27975798171294297
1173.0,0.27827180142721186
1172.0,0.27605202356835656
1171.0,0.27310985925817843
1170.0,0.2692177243336109
1169.0,0.26472055193954325
1168.0,0.2597162803181208
1167.0,0.25445679800197585
1166.0,0.2490290155626811
1165.0,0.2439727870265589
1164.0,0.23927602785804836
1163.0,0.23500240071511946
1162.0,0.23106605781321843
1161.0,0.22738495015082916
1160.0,0.22380748525292793
1159.0,0.2204035087421754
1158.0,0.21702600505595182
1157.0,0.2137456042102197
1156.0,0.2107013888405589
1155.0,0.20795868928791772
1154.0,0.2054422487452383
1153.0,0.20314825095011302
1152.0,0.2010042655561186
1151.0,0.19921420967223735
1150.0,0.19777376230892996
1149.0,0.196747788569543
1148.0,0.19613336571501572
1147.0,0.19592875111433883
1146.0,0.1962698290254561
1145.0,0.1969527895088714
1144.0,0.19797924822802404
1143.0,0.1994203784308699
1142.0,0.20134935455473113
1141.0,0.2037726859705613
1140.0,0.2069083998234198
1139.0,0.21063084640851826
1138.0,0.2148838049780799
1137.0,0.21961067152904712
1136.0,0.2246808781705225
1135.0,0.23040115161255348
1134.0,0.23694655970038525
1133.0,0.24443001937120012
1132.0,0.25297682254837217
1131.0,0.2624893093265239
1130.0,0.27286557623951135
1129.0,0.28408018256642054
1128.0,0.2960211749916142
1127.0,0.3084764778318456
1126.0,0.3212085656337562
1125.0,0.3341376997968448
1124.0,0.34756025241057986
1123.0,0.3614109167072832
1122.0,0.37540854087315223
1121.0,0.38933983691012
1120.0,0.40263394973397215
1119.0,0.414313721547503
1118.0,0.4238891058791603
1117.0,0.4310945850171213
1116.0,0.43545228824405213
1115.0,0.43663759051339257
1114.0,0.4349790716547062
1113.0,0.4315635855831146
1112.0,0.4280583649255376
1111.0,0.42608455957844926
1110.0,0.4265481779645146
1109.0,0.4301581005962385
1108.0,0.437231456983481
1107.0,0.44757515429591455
1106.0,0.46029676105217443
1105.0,0.4749551929631548
1104.0,0.49093195498283837
1103.0,0.5075189898711234
1102.0,0.5236031732746698
1101.0,0.5388017113775068
1100.0,0.5531522898441912
1099.0,0.5662301660751343
1098.0,0.5774101601485178
1097.0,0.5868679495651279
1096.0,0.5946536398242912
1095.0,0.6010189333418687
1094.0,0.605198222837289
1093.0,0.6071272545979205
1092.0,0.6073030467403342
1091.0,0.606073993414163
1090.0,0.6036262724634935
1089.0,0.6006724678413211
1088.0,0.5975666537806881
1087.0,0.5943122133272225
1086.0,0.5904049806031844
1085.0,0.5860300282519386
1084.0,0.582030357785263
1083.0,0.5780671867214915
1082.0,0.5734887386354248
1081.0,0.5684754158125491
1080.0,0.5630426693305504
1079.0,0.556893543262734
1078.0,0.5497508916806388
1077.0,0.5421181032660076
1076.0,0.5343197884017221
1075.0,0.5266590358140646
1074.0,0.5187007266671442
1073.0,0.5107448316307395
1072.0,0.5030703519267852
1071.0,0.4958010814605551
1070.0,0.4883839794308624
1069.0,0.4810914263085857
1068.0,0.4741780478433373
1067.0,0.4677553563734178
1066.0,0.46155194828978274
1065.0,0.4556838582525726
1064.0,0.4502612687351011
1063.0,0.44514756562794555
1062.0,0.43985416015095247
1061.0,0.43462449728592634
1060.0,0.4294570601181025
1059.0,0.42458120878564
1058.0,0.4197594917346237
1057.0,0.41555569283482385
1056.0,0.4120646513636439
1055.0,0.4090467648120142
1054.0,0.40604970473601254
1053.0,0.4031830640844094
1052.0,0.40077213722620364
1051.0,0.39913596369016036
1050.0,0.39772291569980744
1049.0,0.3964226318485333
1048.0,0.3954499674287386
1047.0,0.39458720184694873
1046.0,0.3936186348893951
1045.0,0.39265222323158655
1044.0,0.3917949922956738
1043.0,0.39104630072413715
1042.0,0.39008558991400233
1041.0,0.38870163770357125
1040.0,0.38689848303308727
1039.0,0.3847866651986416
1038.0,0.38237070224215786
1037.0,0.37965570024550677
1036.0,0.37664731846200805
1035.0,0.37335173152598977
1034.0,0.36957212497497616
1033.0,0.3652205418540484
1032.0,0.3604139133265736
1031.0,0.3550692920864127
1030.0,0.3493040202393891
1029.0,0.3432312207339834
1028.0,0.3376199799837525
1027.0,0.3333884315809701
1026.0,0.3318005158013382
1025.0,0.3338565727084417
1024.0,0.3405592181296824
1023.0,0.35222594973116994
1022.0,0.36865771351606735
1021.0,0.38965928854784315
1020.0,0.41465208890540906
1019.0,0.44177157819667423
1018.0,0.46801044858744967
1017.0,0.489454989793388
1016.0,0.5027938192960455
1015.0,0.5066813917678985
1014.0,0.5019652763129732
1013.0,0.4914702810287135
1012.0,0.47860037188462434
1011.0,0.46571999479491843
1010.0,0.45432185020797444
1009.0,0.44454278279535053
1008.0,0.4365189146055892
1007.0,0.42922363120525175
1006.0,0.4223933226374643
1005.0,0.41600820080168366
1004.0,0.4104972037362362
1003.0,0.40604970473601254
1002.0,0.40208552879747184
1001.0,0.3987006898056624
1000.0,0.39555793373927695
999.0,0.3925449767853315
998.0,0.38976582466561127
997.0,0.3870043439676525
996.0,0.384365531122584
995.0,0.3817426551595986
994.0,0.3789276288563741
993.0,0.3762339998660691
992.0,0.3740705072837054
991.0,0.37222462477069707
990.0,0.3705904008972811
989.0,0.3687592197644909
988.0,0.36703683183273883
987.0,0.3658251282373999
986.0,0.3651198592334737
985.0,0.3646167959525015
984.0,0.36411431471872735
983.0,0.3636124141868433
982.0,0.3632113109656252
981.0,0.3630108981877709
980.0,0.3634118162701576
979.0,0.36451625318508785
978.0,0.36612773734166737
977.0,0.36804917374078294
976.0,0.36997914888659
975.0,0.3719177390093207
974.0,0.3736596326249577
973.0,0.3753054687279187
972.0,0.3769575657536184
971.0,0.3785121354193697
970.0,0.3797598101541686
969.0,0.38028073438827303
968.0,0.3803849942571935
967.0,0.37986394502624243
966.0,0.37882371822496475
965.0,0.3773715738706751
964.0,0.37582107425197764
963.0,0.3743789185750923
962.0,0.37304404856455253
961.0,0.37181549192658747
960.0,0.37048846579954686
959.0,0.36886074974318883
958.0,0.36693572730850077
957.0,0.3650191999487715
956.0,0.36331155204671717
955.0,0.3617104645857432
954.0,0.3601152580836957
953.0,0.3585258894959005
952.0,0.3568435343802938
951.0,0.3552660725528074
950.0,0.3534982499683881
949.0,0.351835221425999
948.0,0.3503731131594705
947.0,0.34901290561655496
946.0,0.34775365899667676
945.0,0.3464016181567102
944.0,0.34495765866879835
943.0,0.3435184842095014
942.0,0.34217954398430295
941.0,0.3411304077980377
940.0,0.34036898839299945
939.0,0.339608901597533
938.0,0.3388501427552135
937.0,0.33790355458207655
936.0,0.3370533856673754
935.0,0.3362048777805924
934.0,0.33507610656191833
933.0,0.3338565727084417
932.0,0.3327338806177258
931.0,0.33170728955177897
930.0,0.3305901327122174
929.0,0.32938311359967454
928.0,0.328179439816751
927.0,0.3268868957617663
926.0,0.32569011105852286
925.0,0.32449661527204343
924.0,0.3234892897174464
923.0,0.32275815405334596
922.0,0.32184596198956283
921.0,0.32066296947920603
920.0,0.31930197030236496
919.0,0.3178549236261683
918.0,0.3164126824272331
917.0,0.31506491735911046
916.0,0.31398970868471454
915.0,0.3130957304318227
914.0,0.3122927203751811
913.0,0.31149119234347866
912.0,0.31060233717871766
911.0,0.30962669308394086
910.0,0.3086532358651781
909.0,0.30794663496591923
908.0,0.3075937651663696
907.0,0.30750559249691567
906.0,0.30750559249691567
905.0,0.3075937651663696
904.0,0.3078583906332164
903.0,0.30803489723263966
902.0,0.30803489723263966
901.0,0.30803489723263966
900.0,0.30794663496591923
899.0,0.30803489723263966
898.0,0.30794663496591923
897.0,0.3075937651663696
896.0,0.30697693207630605
895.0,0.3060093895392233
894.0,0.3046058917088901
893.0,0.30303235925597694
892.0,0.301377570297902
891.0,0.2996424721773401
890.0,0.2977418368379059
889.0,0.29550630299070124
888.0,0.29328221766324125
887.0,0.29106946419338375
886.0,0.28878347567891005
885.0,0.28676153845433827
884.0,0.28533500713746296
883.0,0.2852512392749402
882.0,0.28692967414436055
881.0,0.2905604258675891
880.0,0.29584948316020077
879.0,0.30242196634888674
878.0,0.31006989598178203
877.0,0.31875876262441283
876.0,0.32882715728491685
875.0,0.3407495312273392
874.0,0.3540867249661557
873.0,0.3677452233152865
872.0,0.3795516152882912
871.0,0.38732208168349813
870.0,0.3901922306712977
869.0,0.389020620077003
868.0,0.3853136577179874
867.0,0.3801764995427219
866.0,0.37448177102836233
865.0,0.36886074974318883
864.0,0.36391348489692743
863.0,0.3600157519584115
862.0,0.356942316248547
861.0,0.354381261757305
860.0,0.3520305416370282
859.0,0.34978964533964096
858.0,0.34775365899667676
857.0,0.3463052046849182
856.0,0.3455346664798542
855.0,0.34543844525825684
854.0,0.34543844525825684
853.0,0.3455346664798542
852.0,0.34591976469342933
851.0,0.3468840068344332
850.0,0.34852814780095764
849.0,0.35056777675838346
848.0,0.3528127021040104
847.0,0.3546759984377066
846.0,0.35585694949008095
845.0,0.3565473235138126
844.0,0.3568435343802938
843.0,0.3565473235138126
842.0,0.3555614105321614
841.0,0.35418488170335816
840.0,0.35291057128344505
839.0,0.3520305416370282
838.0,0.35124978730198064
837.0,0.3502758140704776
836.0,0.34901290561655496
835.0,0.34756025241057986
834.0,0.34620881261218805
833.0,0.344861565188618
832.0,0.3435184842095014
831.0,0.3419886033428876
830.0,0.3400837999301498
829.0,0.33818731446273875
828.0,0.3362048777805924
827.0,0.33432521900610657
826.0,0.332547047110046
825.0,0.3310552655422663
824.0,0.33003263009149597
823.0,0.32901239698996587
822.0,0.3278097488117475
821.0,0.3264262035769485
820.0,0.325414397697086
819.0,0.3246800166607078
818.0,0.3239468753481285
817.0,0.3233063903751334
816.0,0.3226668485800983
815.0,0.32202824718926015
814.0,0.3208447587166461
813.0,0.31939257100821217
812.0,0.31812587787135316
811.0,0.317223353685566
810.0,0.3164126824272331
809.0,0.3154239126115448
808.0,0.31425826139773627
807.0,0.3130957304318227
806.0,0.3119363030536557
805.0,0.3109576609718283
804.0,0.3098925605436693
803.0,0.3086532358651781
802.0,0.30715308072277003
801.0,0.30530707366851595
800.0,0.3031196283172377
799.0,0.30120374820956886
798.0,0.30033567979762665
797.0,0.30085631260551615
796.0,0.3028578737245404
795.0,0.30557030904291693
794.0,0.30812317744066875
793.0,0.3101585908624953
792.0,0.3112243447271552
791.0,0.31104653736258214
790.0,0.3097152974873705
789.0,0.3076819557407213
788.0,0.30557030904291693
787.0,0.3033815407677751
786.0,0.30076949711659084
785.0,0.2979142785641751
784.0,0.29507770877659834
783.0,0.29260016886675144
782.0,0.2903061302722081
781.0,0.2881084501194211
780.0,0.28583795390114686
779.0,0.28316227670047556
778.0,0.2803373169819534
777.0,0.2773660774661879
776.0,0.2744967311406845
775.0,0.27164621797877153
774.0,0.2688949487840795
773.0,0.26616099930285064
772.0,0.2634441528373641
771.0,0.26066503980392075
770.0,0.25758911941950746
769.0,0.25422278211024096
768.0,0.2503409679051003
767.0,0.2458811057745871
766.0,0.24086118371883347
765.0,0.23574912456122687
764.0,0.2306965398109182
763.0,0.22577509513108107
762.0,0.22069217241641415
761.0,0.21538270736712462
760.0,0.20992605157369537
759.0,0.2043980201058202
758.0,0.19880216554085117
757.0,0.19327749692381868
756.0,0.18815699382352258
755.0,0.18342730397389695
754.0,0.1785519809824696
753.0,0.17327747983100794
752.0,0.16723569505946845
751.0,0.1605219526258017
750.0,0.15360102696532518
749.0,0.1472151313194523
748.0,0.1415229581866595
747.0,0.13649869935854997
746.0,0.13176713157753506
745.0,0.12761061158217912
744.0,0.12430223801979201
743.0,0.1219955297319748
742.0,0.12067469921519258
741.0,0.12067469921519258
740.0,0.12320502379929943
739.0,0.12942053944731513
738.0,0.1402014525194344
737.0,0.15546069787099204
736.0,0.1742494186519723
735.0,0.19511125537760865
734.0,0.21724080737600282
733.0,0.24055880286630238
732.0,0.2656803191409931
731.0,0.2927705806727059
730.0,0.32221060893113895
729.0,0.3540867249661557
728.0,0.38817052050162637
727.0,0.42331319479900453
726.0,0.45680141436235333
725.0,0.4850539946919956
724.0,0.5047332556121895
723.0,0.5142785735184199
722.0,0.5152731957013381
721.0,0.5113083016830593
720.0,0.5065419490048115
719.0,0.5025174626326296
718.0,0.49921482708254405
717.0,0.4960731958064897
716.0,0.4932244633933567
715.0,0.4906630419823559
714.0,0.4882502886550171
713.0,0.485585079419631
712.0,0.4828041020500258
711.0,0.4797785641180399
710.0,0.47612352436186867
709.0,0.47262791717238817
708.0,0.46992843116262173
707.0,0.46801044858744967
706.0,0.46673648322128525
705.0,0.46546624399488445
704.0,0.4641997091751022
703.0,0.4625587165920524
702.0,0.4604221166546909
701.0,0.4581712332186876
700.0,0.45605605751709355
699.0,0.4535807331648083
698.0,0.45050628678498694
697.0,0.44757515429591455
696.0,0.44563199900991246
695.0,0.4441803169388088
694.0,0.4421320384319778
693.0,0.4390179444137645
692.0,0.4353339357479107
691.0,0.431798275933005
690.0,0.4281747509591709
689.0,0.424119684319354
688.0,0.4199878874705756
687.0,0.41600820080168366
686.0,0.411840383616908
685.0,0.4079343295677529
684.0,0.405165644416682
683.0,0.4041732229267767
682.0,0.40439356513439706
681.0,0.40483458520977056
680.0,0.40461401919085827
679.0,0.4032929703185537
678.0,0.40066286700751097
677.0,0.39772291569980744
676.0,0.3954499674287386
675.0,0.3938336853923794
674.0,0.39222339625830704
673.0,0.3904055907747799
672.0,0.38859536228840663
671.0,0.38742804593482383
670.0,0.38689848303308727
669.0,0.3856301604517114
668.0,0.38080228420705264
667.0,0.3762339998660691
666.0,0.3756147585797349
665.0,0.37551163748655103
664.0,0.37468754903832613
663.0,0.37427609047424415
662.0,0.3738650213646113
661.0,0.37273658343177885
660.0,0.37099838071300817
659.0,0.36896230346325964
658.0,0.3672391115205613
657.0,0.3662286539174444
656.0,0.3659259745125316
655.0,0.365421977146112
654.0,0.364013888199167
653.0,0.36241021416130015
652.0,0.36121133284260165
651.0,0.3600157519584115
650.0,0.3580304022979406
649.0,0.3557584141562713
648.0,0.3540867249661557
647.0,0.35369431971524135
646.0,0.35418488170335816
645.0,0.35487260074160876
644.0,0.3556599011736774
643.0,0.3560540872519333
642.0,0.35585694949008095
641.0,0.35595550718525115
640.0,0.3575354797578787
639.0,0.3604139133265736
638.0,0.3631110930162009
637.0,0.36471736200178806
636.0,0.3656235059116322
635.0,0.36643055744590813
634.0,0.36612773734166737
633.0,0.3638131048012756
632.0,0.3600157519584115
631.0,0.3562513145404742
630.0,0.35300846252287754
629.0,0.34988683555642863
628.0,0.3468840068344332
627.0,0.34438141645877796
626.0,0.3435184842095014
625.0,0.3447654929657058
624.0,0.34727030393075253
623.0,0.3493040202393891
622.0,0.34978964533964096
621.0,0.3489159107569886
620.0,0.3468840068344332
619.0,0.34313550845108276
618.0,0.33818731446273875
617.0,0.3347005005001029
616.0,0.33432521900610657
615.0,0.3358282946380693
614.0,0.3364875295848444
613.0,0.3360165453917334
612.0,0.3356401254488588
611.0,0.33611070137733856
610.0,0.3362990746103518
609.0,0.3358282946380693
608.0,0.3356401254488588
607.0,0.33611070137733856
606.0,0.3365817877473203
605.0,0.3365817877473203
604.0,0.33611070137733856
603.0,0.33432521900610657
602.0,0.3298469548078198
601.0,0.3234892897174464
600.0,0.3183970012691315
