cm-1,A
4000.0,0.025074013910237447
3999.0,0.02484402159331056
3998.0,0.024660115394541604
3997.0,0.024430342106337877
3996.0,0.024246610963712723
3995.0,0.02406295751688936
3994.0,0.02406295751688936
3993.0,0.024108863598207186
3992.0,0.024246610963712723
3991.0,0.024200690320592466
3990.0,0.024338466818941473
3989.0,0.024430342106337877
3988.0,0.024476287039668643
3987.0,0.02461415101053266
3986.0,0.024798037742147727
3985.0,0.024936003904763915
3984.0,0.024936003904763915
3983.0,0.02475205875931885
3982.0,0.024476287039668643
3981.0,0.024108863598207186
3980.0,0.023787622882622816
3979.0,0.023695883447997224
3978.0,0.023787622882622816
3977.0,0.024017056287453542
3976.0,0.024246610963712723
3975.0,0.024522236834125355
3974.0,0.024660115394541604
3973.0,0.02475205875931885
3972.0,0.02461415101053266
3971.0,0.02438440203310499
3970.0,0.024108863598207186
3969.0,0.023925268380126097
3968.0,0.023971159908874107
3967.0,0.024154774532432866
3966.0,0.024430342106337877
3965.0,0.02461415101053266
3964.0,0.024660115394541604
3963.0,0.024660115394541604
3962.0,0.024660115394541604
3961.0,0.024660115394541604
3960.0,0.024660115394541604
3959.0,0.024706084643793647
3958.0,0.02475205875931885
3957.0,0.02484402159331056
3956.0,0.024936003904763915
3955.0,0.025028005701930978
3954.0,0.02498200236711723
3953.0,0.02475205875931885
3952.0,0.02438440203310499
3951.0,0.024017056287453542
3950.0,0.023833499868024743
3949.0,0.023879381700184332
3948.0,0.02406295751688936
3947.0,0.024154774532432866
3946.0,0.024108863598207186
3945.0,0.023925268380126097
3944.0,0.023879381700184332
3943.0,0.023925268380126097
3942.0,0.024017056287453542
3941.0,0.024108863598207186
3940.0,0.024200690320592466
3939.0,0.024430342106337877
3938.0,0.024706084643793647
3937.0,0.024798037742147727
3936.0,0.02461415101053266
3935.0,0.024338466818941473
3934.0,0.024154774532432866
3933.0,0.024108863598207186
3932.0,0.024154774532432866
3931.0,0.024200690320592466
3930.0,0.024246610963712723
3929.0,0.024246610963712723
3928.0,0.024108863598207186
3927.0,0.023971159908874107
3926.0,0.023879381700184332
3925.0,0.023833499868024743
3924.0,0.023741750742954926
3923.0,0.023695883447997224
3922.0,0.023695883447997224
3921.0,0.023879381700184332
3920.0,0.024154774532432866
3919.0,0.024430342106337877
3918.0,0.024660115394541604
3917.0,0.02498200236711723
3916.0,0.025258095499050004
3915.0,0.025304128090317013
3914.0,0.025258095499050004
3913.0,0.025258095499050004
3912.0,0.025304128090317013
3911.0,0.025258095499050004
3910.0,0.025028005701930978
3909.0,0.024798037742147727
3908.0,0.02461415101053266
3907.0,0.024522236834125355
3906.0,0.024522236834125355
3905.0,0.024476287039668643
3904.0,0.024292536462819925
3903.0,0.023833499868024743
3902.0,0.023237476732539397
3901.0,0.02300845469384938
3900.0,0.02342078135989012
3899.0,0.024108863598207186
3898.0,0.024476287039668643
3897.0,0.024522236834125355
3896.0,0.024522236834125355
3895.0,0.024660115394541604
3894.0,0.02475205875931885
3893.0,0.02475205875931885
3892.0,0.024936003904763915
3891.0,0.02516604495145991
3890.0,0.02498200236711723
3889.0,0.024154774532432866
3888.0,0.023604163388120325
3887.0,0.023879381700184332
3886.0,0.02461415101053266
3885.0,0.025028005701930978
3884.0,0.024706084643793647
3883.0,0.023925268380126097
3882.0,0.023604163388120325
3881.0,0.023925268380126097
3880.0,0.024338466818941473
3879.0,0.024338466818941473
3878.0,0.023925268380126097
3877.0,0.02365002099672653
3876.0,0.023925268380126097
3875.0,0.024246610963712723
3874.0,0.024017056287453542
3873.0,0.023191662661933732
3872.0,0.022367834754000393
3871.0,0.02245929405346514
3870.0,0.02351246269481
3869.0,0.024522236834125355
3868.0,0.02461415101053266
3867.0,0.024292536462819925
3866.0,0.024430342106337877
3865.0,0.02475205875931885
3864.0,0.024568191490736968
3863.0,0.023971159908874107
3862.0,0.02355831062115543
3861.0,0.023466619608062178
3860.0,0.023604163388120325
3859.0,0.023741750742954926
3858.0,0.023741750742954926
3857.0,0.023466619608062178
3856.0,0.023054249440757957
3855.0,0.02259651912656535
3854.0,0.02277955336461468
3853.0,0.023787622882622816
3852.0,0.024660115394541604
3851.0,0.024430342106337877
3850.0,0.02461415101053266
3849.0,0.025672564576383117
3848.0,0.02636422658259252
3847.0,0.02613355016462182
3846.0,0.02558042614771394
3845.0,0.02512002699306959
3844.0,0.024798037742147727
3843.0,0.024522236834125355
3842.0,0.024154774532432866
3841.0,0.023787622882622816
3840.0,0.02351246269481
3839.0,0.023466619608062178
3838.0,0.023604163388120325
3837.0,0.023604163388120325
3836.0,0.02342078135989012
3835.0,0.023283295636617574
3834.0,0.02351246269481
3833.0,0.023971159908874107
3832.0,0.024476287039668643
3831.0,0.02475205875931885
3830.0,0.024890010313838973
3829.0,0.02498200236711723
3828.0,0.02521206778644225
3827.0,0.025488307262671706
3826.0,0.02544225514642018
3825.0,0.024890010313838973
3824.0,0.02406295751688936
3823.0,0.023604163388120325
3822.0,0.023695883447997224
3821.0,0.02406295751688936
3820.0,0.024017056287453542
3819.0,0.023191662661933732
3818.0,0.02291687968414724
3817.0,0.024108863598207186
3816.0,0.025810808881832736
3815.0,0.026733563891471412
3814.0,0.026410376572743033
3813.0,0.025856900097785074
3812.0,0.025995203102585407
3811.0,0.026225806029419818
3810.0,0.025949097207122573
3809.0,0.02544225514642018
3808.0,0.025304128090317013
3807.0,0.02562649291857677
3806.0,0.025718641122169483
3805.0,0.025074013910237447
3804.0,0.02438440203310499
3803.0,0.024476287039668643
3802.0,0.025074013910237447
3801.0,0.02539620791296726
3800.0,0.024890010313838973
3799.0,0.023879381700184332
3798.0,0.023787622882622816
3797.0,0.024798037742147727
3796.0,0.025810808881832736
3795.0,0.026225806029419818
3794.0,0.026225806029419818
3793.0,0.02636422658259252
3792.0,0.02677975314776626
3791.0,0.027195677663422346
3790.0,0.02738066094037661
3789.0,0.027334407733889066
3788.0,0.027056991894431892
3787.0,0.026733563891471412
3786.0,0.02654885597506529
3785.0,0.026595025589939425
3784.0,0.02664120011360227
3783.0,0.026502691267936695
3782.0,0.02613355016462182
3781.0,0.025902996205869
3780.0,0.025902996205869
3779.0,0.025995203102585407
3778.0,0.026041313893296225
3777.0,0.025995203102585407
3776.0,0.02613355016462182
3775.0,0.026502691267936695
3774.0,0.026687379547098322
3773.0,0.026595025589939425
3772.0,0.02636422658259252
3771.0,0.026318081496016443
3770.0,0.026502691267936695
3769.0,0.026410376572743033
3768.0,0.025902996205869
3767.0,0.02544225514642018
3766.0,0.025488307262671706
3765.0,0.025810808881832736
3764.0,0.025902996205869
3763.0,0.025672564576383117
3762.0,0.02553436426275746
3761.0,0.02562649291857677
3760.0,0.02558042614771394
3759.0,0.025304128090317013
3758.0,0.02484402159331056
3757.0,0.024338466818941473
3756.0,0.023879381700184332
3755.0,0.023604163388120325
3754.0,0.023604163388120325
3753.0,0.023741750742954926
3752.0,0.024017056287453542
3751.0,0.02461415101053266
3750.0,0.02544225514642018
3749.0,0.025718641122169483
3748.0,0.025074013910237447
3747.0,0.024430342106337877
3746.0,0.02461415101053266
3745.0,0.02544225514642018
3744.0,0.02617967564731627
3743.0,0.025810808881832736
3742.0,0.024660115394541604
3741.0,0.024476287039668643
3740.0,0.02516604495145991
3739.0,0.025304128090317013
3738.0,0.02461415101053266
3737.0,0.023971159908874107
3736.0,0.023695883447997224
3735.0,0.023787622882622816
3734.0,0.023925268380126097
3733.0,0.024154774532432866
3732.0,0.02461415101053266
3731.0,0.025074013910237447
3730.0,0.025304128090317013
3729.0,0.02553436426275746
3728.0,0.026041313893296225
3727.0,0.02654885597506529
3726.0,0.02664120011360227
3725.0,0.026410376572743033
3724.0,0.026087429580295085
3723.0,0.025949097207122573
3722.0,0.025949097207122573
3721.0,0.025902996205869
3720.0,0.025856900097785074
3719.0,0.025949097207122573
3718.0,0.026225806029419818
3717.0,0.026502691267936695
3716.0,0.026410376572743033
3715.0,0.026087429580295085
3714.0,0.025672564576383117
3713.0,0.025350165561278004
3712.0,0.02521206778644225
3711.0,0.02544225514642018
3710.0,0.025856900097785074
3709.0,0.025995203102585407
3708.0,0.026041313893296225
3707.0,0.02617967564731627
3706.0,0.02636422658259252
3705.0,0.02636422658259252
3704.0,0.02617967564731627
3703.0,0.025995203102585407
3702.0,0.025949097207122573
3701.0,0.026087429580295085
3700.0,0.026225806029419818
3699.0,0.026318081496016443
3698.0,0.02664120011360227
3697.0,0.027149444152769986
3696.0,0.027426919073445077
3695.0,0.027149444152769986
3694.0,0.026595025589939425
3693.0,0.025902996205869
3692.0,0.025258095499050004
3691.0,0.024798037742147727
3690.0,0.02484402159331056
3689.0,0.02553436426275746
3688.0,0.026318081496016443
3687.0,0.02654885597506529
3686.0,0.02654885597506529
3685.0,0.026872146400301444
3684.0,0.02738066094037661
3683.0,0.02747318213414429
3682.0,0.02710321556345563
3681.0,0.026687379547098322
3680.0,0.026318081496016443
3679.0,0.025856900097785074
3678.0,0.02512002699306959
3677.0,0.024522236834125355
3676.0,0.024660115394541604
3675.0,0.02539620791296726
3674.0,0.025488307262671706
3673.0,0.02461415101053266
3672.0,0.02438440203310499
3671.0,0.025074013910237447
3670.0,0.025856900097785074
3669.0,0.026502691267936695
3668.0,0.026687379547098322
3667.0,0.02677975314776626
3666.0,0.027288159452933503
3665.0,0.027936083991977778
3664.0,0.028353117935693284
3663.0,0.02839947976994095
3662.0,0.028306761050139073
3661.0,0.028167720075074953
3660.0,0.027936083991977778
3659.0,0.027750864037404455
3658.0,0.0277045713888604
3657.0,0.02798240132598462
3656.0,0.028306761050139073
3655.0,0.028214062120885508
3654.0,0.02747318213414429
3653.0,0.026687379547098322
3652.0,0.026225806029419818
3651.0,0.025856900097785074
3650.0,0.025718641122169483
3649.0,0.02617967564731627
3648.0,0.026733563891471412
3647.0,0.026595025589939425
3646.0,0.026225806029419818
3645.0,0.026318081496016443
3644.0,0.02691835039863255
3643.0,0.0277045713888604
3642.0,0.02826040911222183
3641.0,0.02849221828874393
3640.0,0.028538594975413334
3639.0,0.02858497661500481
3638.0,0.028677754757187035
3637.0,0.02863136320857662
3636.0,0.028445846553939003
3635.0,0.028353117935693284
3634.0,0.028306761050139073
3633.0,0.028075050815808744
3632.0,0.02747318213414429
3631.0,0.02691835039863255
3630.0,0.02677975314776626
3629.0,0.027288159452933503
3628.0,0.02812138297373412
3627.0,0.028167720075074953
3626.0,0.027889771597169544
3625.0,0.02826040911222183
3624.0,0.028816959143838528
3623.0,0.028770552723758724
3622.0,0.02826040911222183
3621.0,0.027750864037404455
3620.0,0.027612000892527133
3619.0,0.027612000892527133
3618.0,0.02738066094037661
3617.0,0.026687379547098322
3616.0,0.026041313893296225
3615.0,0.025856900097785074
3614.0,0.02613355016462182
3613.0,0.02654885597506529
3612.0,0.026872146400301444
3611.0,0.027056991894431892
3610.0,0.027195677663422346
3609.0,0.027426919073445077
3608.0,0.027658283674251827
3607.0,0.027889771597169544
3606.0,0.028028723600243666
3605.0,0.02812138297373412
3604.0,0.02826040911222183
3603.0,0.028306761050139073
3602.0,0.02839947976994095
3601.0,0.02858497661500481
3600.0,0.028816959143838528
3599.0,0.028863370523193765
3598.0,0.028677754757187035
3597.0,0.02826040911222183
3596.0,0.027797161620935595
3595.0,0.027426919073445077
3594.0,0.027288159452933503
3593.0,0.027334407733889066
3592.0,0.02738066094037661
3591.0,0.02747318213414429
3590.0,0.027612000892527133
3589.0,0.027797161620935595
3588.0,0.028075050815808744
3587.0,0.028353117935693284
3586.0,0.028306761050139073
3585.0,0.028167720075074953
3584.0,0.028306761050139073
3583.0,0.028863370523193765
3582.0,0.02942069428514915
3581.0,0.029746130405213123
3580.0,0.029746130405213123
3579.0,0.02960662792039992
3578.0,0.029374223311705583
3577.0,0.029281296279810798
3576.0,0.02932775731028059
3575.0,0.02960662792039992
3574.0,0.029885677714903025
3573.0,0.029978734171634214
3572.0,0.029746130405213123
3571.0,0.029281296279810798
3570.0,0.02872415126189476
3569.0,0.02826040911222183
3568.0,0.02798240132598462
3567.0,0.028028723600243666
3566.0,0.028353117935693284
3565.0,0.028677754757187035
3564.0,0.029002634427514717
3563.0,0.029467170231675777
3562.0,0.029932203450862893
3561.0,0.03025802323714588
3560.0,0.030397735151460825
3559.0,0.030397735151460825
3558.0,0.030351159519274695
3557.0,0.030490901403433135
3556.0,0.030770520137356927
3555.0,0.031096969696171817
3554.0,0.03133029827960798
3553.0,0.03137697904301118
3552.0,0.031143625385307683
3551.0,0.03081714076773867
3550.0,0.030490901403433135
3549.0,0.030351159519274695
3548.0,0.030351159519274695
3547.0,0.030444315779156517
3546.0,0.030537492025363155
3545.0,0.03058408764601861
3544.0,0.03058408764601861
3543.0,0.03063068826647264
3542.0,0.030770520137356927
3541.0,0.030910397045078586
3540.0,0.030957032694186815
3539.0,0.03105031901865729
3538.0,0.031236951802751545
3537.0,0.03151705144606498
3536.0,0.03184406285002961
3535.0,0.03207779326948268
3534.0,0.032031037121307726
3533.0,0.03184406285002961
3532.0,0.03161045815293173
3531.0,0.03137697904301118
3530.0,0.03128362253321426
3529.0,0.03133029827960798
3528.0,0.03151705144606498
3527.0,0.03161045815293173
3526.0,0.031657169041054534
3525.0,0.03161045815293173
3524.0,0.031563752288295444
3523.0,0.031657169041054534
3522.0,0.03179733185715028
3521.0,0.03207779326948268
3520.0,0.03240522732811035
3519.0,0.03263926003405038
3518.0,0.032592443402527316
3517.0,0.032311649546687526
3516.0,0.032031037121307726
3515.0,0.031984286006358165
3514.0,0.032218091924200776
3513.0,0.032592443402527316
3512.0,0.03277974021703267
3511.0,0.03282657704446046
3510.0,0.032873418923587305
3509.0,0.032920265855503006
3508.0,0.032920265855503006
3507.0,0.032920265855503006
3506.0,0.032920265855503006
3505.0,0.03301397488206215
3504.0,0.03310770413286357
3503.0,0.033154576345083564
3502.0,0.03310770413286357
3501.0,0.032920265855503006
3500.0,0.03277974021703267
3499.0,0.03277974021703267
3498.0,0.0329671178412978
3497.0,0.033295223342125535
3496.0,0.03357665405630694
3495.0,0.03376437590141812
3494.0,0.033905220553829274
3493.0,0.033952178923546183
3492.0,0.03399914237121604
3491.0,0.034046110897937076
3490.0,0.03409308450480819
3489.0,0.03409308450480819
3488.0,0.03409308450480819
3487.0,0.03399914237121604
3486.0,0.03385826726096752
3485.0,0.03367050483612166
3484.0,0.03352973627071565
3483.0,0.03352973627071565
3482.0,0.03352973627071565
3481.0,0.03352973627071565
3480.0,0.03343591590268957
3479.0,0.0332483359486222
3478.0,0.03301397488206215
3477.0,0.03277974021703267
3476.0,0.032592443402527316
3475.0,0.032545631817259224
3474.0,0.03273290844021437
3473.0,0.03301397488206215
3472.0,0.03338901331806565
3471.0,0.03357665405630694
3470.0,0.03357665405630694
3469.0,0.03343591590268957
3468.0,0.0332483359486222
3467.0,0.033154576345083564
3466.0,0.033060836978886954
3465.0,0.0329671178412978
3464.0,0.03282657704446046
3463.0,0.03277974021703267
3462.0,0.032873418923587305
3461.0,0.03301397488206215
3460.0,0.033060836978886954
3459.0,0.03310770413286357
3458.0,0.03310770413286357
3457.0,0.033154576345083564
3456.0,0.033295223342125535
3455.0,0.03343591590268957
3454.0,0.03343591590268957
3453.0,0.03334211579824231
3452.0,0.033154576345083564
3451.0,0.0329671178412978
3450.0,0.032873418923587305
3449.0,0.032920265855503006
3448.0,0.03310770413286357
3447.0,0.03334211579824231
3446.0,0.03334211579824231
3445.0,0.03301397488206215
3444.0,0.03263926003405038
3443.0,0.03245202378113787
3442.0,0.032592443402527316
3441.0,0.03282657704446046
3440.0,0.033060836978886954
3439.0,0.033201453616638954
3438.0,0.0332483359486222
3437.0,0.0332483359486222
3436.0,0.0332483359486222
3435.0,0.033295223342125535
3434.0,0.033295223342125535
3433.0,0.03338901331806565
3432.0,0.03343591590268957
3431.0,0.03352973627071565
3430.0,0.03362357691107709
3429.0,0.03376437590141812
3428.0,0.033952178923546183
3427.0,0.03399914237121604
3426.0,0.033952178923546183
3425.0,0.03385826726096752
3424.0,0.03367050483612166
3423.0,0.03352973627071565
3422.0,0.03338901331806565
3421.0,0.03334211579824231
3420.0,0.03343591590268957
3419.0,0.03357665405630694
3418.0,0.03367050483612166
3417.0,0.03357665405630694
3416.0,0.03343591590268957
3415.0,0.03338901331806565
3414.0,0.03357665405630694
3413.0,0.033905220553829274
3412.0,0.03414006319292828
3411.0,0.03423403581731388
3410.0,0.034187046963396917
3409.0,0.03414006319292828
3408.0,0.03414006319292828
3407.0,0.03414006319292828
3406.0,0.03409308450480819
3405.0,0.034046110897937076
3404.0,0.03409308450480819
3403.0,0.03423403581731388
3402.0,0.03442204208947208
3401.0,0.034516075754861264
3400.0,0.03456310022373987
3399.0,0.034516075754861264
3398.0,0.03437503289075727
3397.0,0.034187046963396917
3396.0,0.033952178923546183
3395.0,0.033905220553829274
3394.0,0.034046110897937076
3393.0,0.03432802877989327
3392.0,0.03461012978487776
3391.0,0.03479829897408804
3390.0,0.03489241415094413
3389.0,0.03475124903287918
3388.0,0.034469056377139484
3387.0,0.03409308450480819
3386.0,0.033905220553829274
3385.0,0.033905220553829274
3384.0,0.03414006319292828
3383.0,0.03442204208947208
3382.0,0.03456310022373987
3381.0,0.034516075754861264
3380.0,0.034516075754861264
3379.0,0.034516075754861264
3378.0,0.03456310022373987
3377.0,0.03456310022373987
3376.0,0.03442204208947208
3375.0,0.03423403581731388
3374.0,0.034046110897937076
3373.0,0.033952178923546183
3372.0,0.03399914237121604
3371.0,0.03414006319292828
3370.0,0.03423403581731388
3369.0,0.03432802877989327
3368.0,0.03437503289075727
3367.0,0.03437503289075727
3366.0,0.03442204208947208
3365.0,0.034516075754861264
3364.0,0.034516075754861264
3363.0,0.034469056377139484
3362.0,0.03432802877989327
3361.0,0.03423403581731388
3360.0,0.03423403581731388
3359.0,0.03428102975577918
3358.0,0.03432802877989327
3357.0,0.034469056377139484
3356.0,0.03456310022373987
3355.0,0.03470420418834386
3354.0,0.03489241415094413
3353.0,0.03503362516890207
3352.0,0.03522197797762394
3351.0,0.03531618502395939
3350.0,0.03531618502395939
3349.0,0.03522197797762394
3348.0,0.03508070571335731
3347.0,0.03489241415094413
3346.0,0.03470420418834386
3345.0,0.034469056377139484
3344.0,0.03423403581731388
3343.0,0.03414006319292828
3342.0,0.03428102975577918
3341.0,0.03456310022373987
3340.0,0.03484535401307465
3339.0,0.03503362516890207
3338.0,0.03503362516890207
3337.0,0.03503362516890207
3336.0,0.03503362516890207
3335.0,0.03498654972775217
3334.0,0.03489241415094413
3333.0,0.03479829897408804
3332.0,0.03470420418834386
3331.0,0.03456310022373987
3330.0,0.034469056377139484
3329.0,0.03432802877989327
3328.0,0.034187046963396917
3327.0,0.03414006319292828
3326.0,0.034187046963396917
3325.0,0.03437503289075727
3324.0,0.03470420418834386
3323.0,0.03498654972775217
3322.0,0.03517488211661135
3321.0,0.03526907894637077
3320.0,0.03531618502395939
3319.0,0.03541041251009669
3318.0,0.03541041251009669
3317.0,0.03522197797762394
3316.0,0.0349394793888016
3315.0,0.03465716443937783
3314.0,0.034516075754861264
3313.0,0.03461012978487776
3312.0,0.03479829897408804
3311.0,0.03508070571335731
3310.0,0.03526907894637077
3309.0,0.035363296211498474
3308.0,0.03531618502395939
3307.0,0.03526907894637077
3306.0,0.03517488211661135
3305.0,0.03522197797762394
3304.0,0.035363296211498474
3303.0,0.03550466044490741
3302.0,0.035646070707806565
3301.0,0.035740369803151095
3300.0,0.035740369803151095
3299.0,0.03578752703018084
3298.0,0.035693217696063595
3297.0,0.03555179208333925
3296.0,0.035363296211498474
3295.0,0.03517488211661135
3294.0,0.03508070571335731
3293.0,0.03517488211661135
3292.0,0.035363296211498474
3291.0,0.035693217696063595
3290.0,0.03597620715996652
3289.0,0.0360705779734416
3288.0,0.03597620715996652
3287.0,0.03578752703018084
3286.0,0.03555179208333925
3285.0,0.03545753392086315
3284.0,0.03541041251009669
3283.0,0.035363296211498474
3282.0,0.035363296211498474
3281.0,0.035363296211498474
3280.0,0.03526907894637077
3279.0,0.03512779136222477
3278.0,0.0349394793888016
3277.0,0.03479829897408804
3276.0,0.03489241415094413
3275.0,0.03512779136222477
3274.0,0.035363296211498474
3273.0,0.03559892883726867
3272.0,0.03578752703018084
3271.0,0.03597620715996652
3270.0,0.0360705779734416
3269.0,0.03602339000339416
3268.0,0.03592902944204468
3267.0,0.03583468937826462
3266.0,0.03597620715996652
3265.0,0.03625938114211591
3264.0,0.03658998431977123
3263.0,0.03682628362474838
3262.0,0.036873558918095295
3261.0,0.036779013477011624
3260.0,0.03658998431977123
3259.0,0.03625938114211591
3258.0,0.03597620715996652
3257.0,0.03578752703018084
3256.0,0.035740369803151095
3255.0,0.035646070707806565
3254.0,0.03555179208333925
3253.0,0.03541041251009669
3252.0,0.03545753392086315
3251.0,0.03578752703018084
3250.0,0.03625938114211591
3249.0,0.03668448861388862
3248.0,0.03692083935817303
3247.0,0.0369681249461018
3246.0,0.03692083935817303
3245.0,0.03682628362474838
3244.0,0.03668448861388862
3243.0,0.03649550058570927
3242.0,0.036401037402758574
3241.0,0.03635381351515665
3240.0,0.03625938114211591
3239.0,0.03616496929785207
3238.0,0.03602339000339416
3237.0,0.03597620715996652
3236.0,0.03597620715996652
3235.0,0.0360705779734416
3234.0,0.0360705779734416
3233.0,0.03602339000339416
3232.0,0.03597620715996652
3231.0,0.03597620715996652
3230.0,0.03602339000339416
3229.0,0.0360705779734416
3228.0,0.036117771071222604
3227.0,0.03621217265444465
3226.0,0.03630659476198117
3225.0,0.03625938114211591
3224.0,0.03621217265444465
3223.0,0.03616496929785207
3222.0,0.03616496929785207
3221.0,0.03616496929785207
3220.0,0.036117771071222604
3219.0,0.0360705779734416
3218.0,0.036117771071222604
3217.0,0.03616496929785207
3216.0,0.03630659476198117
3215.0,0.03644826642590382
3214.0,0.036542739883292485
3213.0,0.03668448861388862
3212.0,0.036731748473764814
3211.0,0.036731748473764814
3210.0,0.03668448861388862
3209.0,0.03668448861388862
3208.0,0.03663723389626394
3207.0,0.03658998431977123
3206.0,0.036542739883292485
3205.0,0.03663723389626394
3204.0,0.03682628362474838
3203.0,0.0369681249461018
3202.0,0.03701541568300293
3201.0,0.036873558918095295
3200.0,0.03668448861388862
3199.0,0.03658998431977123
3198.0,0.03658998431977123
3197.0,0.03658998431977123
3196.0,0.036542739883292485
3195.0,0.03644826642590382
3194.0,0.03630659476198117
3193.0,0.03625938114211591
3192.0,0.03635381351515665
3191.0,0.03644826642590382
3190.0,0.036542739883292485
3189.0,0.036542739883292485
3188.0,0.036542739883292485
3187.0,0.03658998431977123
3186.0,0.036731748473764814
3185.0,0.036873558918095295
3184.0,0.0369681249461018
3183.0,0.0369681249461018
3182.0,0.0369681249461018
3181.0,0.03701541568300293
3180.0,0.03701541568300293
3179.0,0.03701541568300293
3178.0,0.0369681249461018
3177.0,0.0369681249461018
3176.0,0.03701541568300293
3175.0,0.03701541568300293
3174.0,0.0369681249461018
3173.0,0.03682628362474838
3172.0,0.03668448861388862
3171.0,0.03663723389626394
3170.0,0.03663723389626394
3169.0,0.03663723389626394
3168.0,0.03668448861388862
3167.0,0.03663723389626394
3166.0,0.03658998431977123
3165.0,0.03658998431977123
3164.0,0.03663723389626394
3163.0,0.036731748473764814
3162.0,0.036779013477011624
3161.0,0.036779013477011624
3160.0,0.036731748473764814
3159.0,0.03663723389626394
3158.0,0.03663723389626394
3157.0,0.03663723389626394
3156.0,0.03663723389626394
3155.0,0.036731748473764814
3154.0,0.03682628362474838
3153.0,0.03692083935817303
3152.0,0.0369681249461018
3151.0,0.03701541568300293
3150.0,0.037062711569998186
3149.0,0.0371100126082089
3148.0,0.0371573187987575
3147.0,0.03720463014276687
3146.0,0.037251946641359446
3145.0,0.037251946641359446
3144.0,0.03720463014276687
3143.0,0.037062711569998186
3142.0,0.03692083935817303
3141.0,0.036873558918095295
3140.0,0.03692083935817303
3139.0,0.03701541568300293
3138.0,0.0371100126082089
3137.0,0.0371573187987575
3136.0,0.0371100126082089
3135.0,0.03701541568300293
3134.0,0.03692083935817303
3133.0,0.036873558918095295
3132.0,0.036873558918095295
3131.0,0.03682628362474838
3130.0,0.036779013477011624
3129.0,0.036731748473764814
3128.0,0.036731748473764814
3127.0,0.03668448861388862
3126.0,0.03663723389626394
3125.0,0.036542739883292485
3124.0,0.03649550058570927
3123.0,0.036542739883292485
3122.0,0.03663723389626394
3121.0,0.036731748473764814
3120.0,0.03668448861388862
3119.0,0.03663723389626394
3118.0,0.03658998431977123
3117.0,0.03663723389626394
3116.0,0.036731748473764814
3115.0,0.036873558918095295
3114.0,0.0369681249461018
3113.0,0.037062711569998186
3112.0,0.0371100126082089
3111.0,0.0371100126082089
3110.0,0.037062711569998186
3109.0,0.037062711569998186
3108.0,0.0371100126082089
3107.0,0.037062711569998186
3106.0,0.03692083935817303
3105.0,0.03682628362474838
3104.0,0.03682628362474838
3103.0,0.036873558918095295
3102.0,0.0369681249461018
3101.0,0.03701541568300293
3100.0,0.0371100126082089
3099.0,0.03720463014276687
3098.0,0.03720463014276687
3097.0,0.0371100126082089
3096.0,0.03692083935817303
3095.0,0.036731748473764814
3094.0,0.03658998431977123
3093.0,0.03649550058570927
3092.0,0.03658998431977123
3091.0,0.036779013477011624
3090.0,0.0369681249461018
3089.0,0.037062711569998186
3088.0,0.0371100126082089
3087.0,0.0371100126082089
3086.0,0.037062711569998186
3085.0,0.03692083935817303
3084.0,0.03682628362474838
3083.0,0.03682628362474838
3082.0,0.03692083935817303
3081.0,0.0371100126082089
3080.0,0.037251946641359446
3079.0,0.0371573187987575
3078.0,0.036873558918095295
3077.0,0.03658998431977123
3076.0,0.03644826642590382
3075.0,0.03649550058570927
3074.0,0.03663723389626394
3073.0,0.03668448861388862
3072.0,0.036731748473764814
3071.0,0.036731748473764814
3070.0,0.036779013477011624
3069.0,0.036731748473764814
3068.0,0.03668448861388862
3067.0,0.03658998431977123
3066.0,0.03644826642590382
3065.0,0.036401037402758574
3064.0,0.03644826642590382
3063.0,0.036542739883292485
3062.0,0.03668448861388862
3061.0,0.036731748473764814
3060.0,0.036731748473764814
3059.0,0.03668448861388862
3058.0,0.036731748473764814
3057.0,0.036779013477011624
3056.0,0.03682628362474838
3055.0,0.03682628362474838
3054.0,0.036731748473764814
3053.0,0.036731748473764814
3052.0,0.036731748473764814
3051.0,0.036731748473764814
3050.0,0.03658998431977123
3049.0,0.036401037402758574
3048.0,0.03625938114211591
3047.0,0.03625938114211591
3046.0,0.036401037402758574
3045.0,0.036542739883292485
3044.0,0.03663723389626394
3043.0,0.03663723389626394
3042.0,0.03649550058570927
3041.0,0.036401037402758574
3040.0,0.036401037402758574
3039.0,0.036401037402758574
3038.0,0.03635381351515665
3037.0,0.03616496929785207
3036.0,0.03592902944204468
3035.0,0.035693217696063595
3034.0,0.03555179208333925
3033.0,0.03545753392086315
3032.0,0.03541041251009669
3031.0,0.03541041251009669
3030.0,0.03541041251009669
3029.0,0.03541041251009669
3028.0,0.035363296211498474
3027.0,0.03531618502395939
3026.0,0.03541041251009669
3025.0,0.035646070707806565
3024.0,0.03588185684851508
3023.0,0.0360705779734416
3022.0,0.03616496929785207
3021.0,0.03625938114211591
3020.0,0.036401037402758574
3019.0,0.036542739883292485
3018.0,0.03668448861388862
3017.0,0.036779013477011624
3016.0,0.0369681249461018
3015.0,0.03720463014276687
3014.0,0.03744126420403626
3013.0,0.03763066432997886
3012.0,0.03796231343498735
3011.0,0.038341651362284734
3010.0,0.03886378261277468
3009.0,0.03948165721929198
3008.0,0.04014804520039483
3007.0,0.04072004986906119
3006.0,0.04124505013091051
3005.0,0.0417706858116178
3004.0,0.042392712939904875
3003.0,0.0431115453499229
3002.0,0.04397571771932274
3001.0,0.04488976902944808
3000.0,0.04575749056067524
2999.0,0.04657860031896477
2998.0,0.04744970610179822
2997.0,0.04827402457540786
2996.0,0.04900266601119507
2995.0,0.04948910701400333
2994.0,0.04982994019179987
2993.0,0.04997609347667353
2992.0,0.049927370249842395
2991.0,0.04958646063061889
2990.0,0.04900266601119507
2989.0,0.04827402457540786
2988.0,0.047643522676209304
2987.0,0.04715914332429838
2986.0,0.04677202844014605
2985.0,0.04628861957244457
2984.0,0.04580574818413763
2983.0,0.045323413081356456
2982.0,0.044986096961949995
2981.0,0.04469717723830824
2980.0,0.044456557540257124
2979.0,0.04411991377462465
2978.0,0.0437835307566099
2977.0,0.043495409683302455
2976.0,0.04325545471730896
2975.0,0.043063586155803746
2974.0,0.04291974034210022
2973.0,0.042775942156833
2972.0,0.04263219156847242
2971.0,0.04253638427006878
2970.0,0.04248848854552012
2969.0,0.04248848854552012
2968.0,0.042584285277331047
2967.0,0.04268010314465909
2966.0,0.042775942156833
2965.0,0.04287180232318688
2964.0,0.042967683653061695
2963.0,0.04315950984076644
2962.0,0.043495409683302455
2961.0,0.0437835307566099
2960.0,0.04402377775167454
2959.0,0.044167989767578186
2958.0,0.044312249686494276
2957.0,0.04455278942230456
2956.0,0.04484161307420642
2955.0,0.04503426894157925
2954.0,0.04522701031028298
2953.0,0.04541983725624266
2952.0,0.04575749056067524
2951.0,0.046143701775014145
2950.0,0.04662694927330402
2949.0,0.04725597598510167
2948.0,0.047885915093007325
2947.0,0.048565334467987054
2946.0,0.049148541111453614
2945.0,0.04968383607539972
2944.0,0.050171041064686284
2943.0,0.05051241005349638
2942.0,0.05065879322950262
2941.0,0.0506099933550872
2940.0,0.050317309204795935
2939.0,0.04997609347667353
2938.0,0.04963514562387683
2937.0,0.049294465226138895
2936.0,0.04909991063361274
2935.0,0.04885683989244738
2934.0,0.04851676924770687
2933.0,0.048128442871635535
2932.0,0.04774046340917959
2931.0,0.04740126547022694
2930.0,0.04715914332429838
2929.0,0.047062332249019345
2928.0,0.047062332249019345
2927.0,0.04711073508906982
2926.0,0.047062332249019345
2925.0,0.0469171560879138
2924.0,0.04672366333269573
2923.0,0.046481918555007384
2922.0,0.04633693625290869
2921.0,0.04628861957244457
2920.0,0.04628861957244457
2919.0,0.04628861957244457
2918.0,0.046192002334692894
2917.0,0.045902279520810385
2916.0,0.045564513671517703
2915.0,0.04527520902093718
2914.0,0.04503426894157925
2913.0,0.04484161307420642
2912.0,0.04469717723830824
2911.0,0.04450467081587295
2910.0,0.044312249686494276
2909.0,0.044167989767578186
2908.0,0.044071843103049346
2907.0,0.04402377775167454
2906.0,0.04397571771932274
2905.0,0.04397571771932274
2904.0,0.04387961360698034
2903.0,0.0437835307566099
2902.0,0.04368746915880539
2901.0,0.04359142880416744
2900.0,0.0435434165901003
2899.0,0.0435434165901003
2898.0,0.0435434165901003
2897.0,0.04344740808260106
2896.0,0.043303435105349175
2895.0,0.04320747962950522
2894.0,0.0431115453499229
2893.0,0.04320747962950522
2892.0,0.0433514207947967
2891.0,0.043495409683302455
2890.0,0.0435434165901003
2889.0,0.043495409683302455
2888.0,0.04344740808260106
2887.0,0.04339941178682327
2886.0,0.04339941178682327
2885.0,0.043495409683302455
2884.0,0.04363944632667782
2883.0,0.0437835307566099
2882.0,0.04387961360698034
2881.0,0.04397571771932274
2880.0,0.044071843103049346
2879.0,0.04421607108308856
2878.0,0.044360346976747955
2877.0,0.044456557540257124
2876.0,0.04440844959427559
2875.0,0.044360346976747955
2874.0,0.044312249686494276
2873.0,0.04426415772233416
2872.0,0.04411991377462465
2871.0,0.0439276630048171
2870.0,0.043735497301724546
2869.0,0.04359142880416744
2868.0,0.04344740808260106
2867.0,0.04339941178682327
2866.0,0.043303435105349175
2865.0,0.043303435105349175
2864.0,0.0433514207947967
2863.0,0.04344740808260106
2862.0,0.04359142880416744
2861.0,0.04368746915880539
2860.0,0.04368746915880539
2859.0,0.04363944632667782
2858.0,0.043735497301724546
2857.0,0.04383156952463674
2856.0,0.04397571771932274
2855.0,0.04402377775167454
2854.0,0.04402377775167454
2853.0,0.044071843103049346
2852.0,0.044167989767578186
2851.0,0.04426415772233416
2850.0,0.044167989767578186
2849.0,0.04397571771932274
2848.0,0.04368746915880539
2847.0,0.04344740808260106
2846.0,0.043303435105349175
2845.0,0.04325545471730896
2844.0,0.04320747962950522
2843.0,0.04320747962950522
2842.0,0.04315950984076644
2841.0,0.043063586155803746
2840.0,0.042967683653061695
2839.0,0.04287180232318688
2838.0,0.04287180232318688
2837.0,0.04282386959515394
2836.0,0.04272802000705722
2835.0,0.04263219156847242
2834.0,0.04248848854552012
2833.0,0.04244059810252043
2832.0,0.042392712939904875
2831.0,0.04244059810252043
2830.0,0.04248848854552012
2829.0,0.04253638427006878
2828.0,0.04253638427006878
2827.0,0.04253638427006878
2826.0,0.04253638427006878
2825.0,0.042584285277331047
2824.0,0.04248848854552012
2823.0,0.042344833056508824
2822.0,0.042201225070002124
2821.0,0.04215336629184985
2820.0,0.04229695845116854
2819.0,0.04248848854552012
2818.0,0.04268010314465909
2817.0,0.04268010314465909
2816.0,0.04263219156847242
2815.0,0.04248848854552012
2814.0,0.042392712939904875
2813.0,0.042344833056508824
2812.0,0.042344833056508824
2811.0,0.042344833056508824
2810.0,0.042344833056508824
2809.0,0.04229695845116854
2808.0,0.04224908912272074
2807.0,0.04215336629184985
2806.0,0.042057664554595586
2805.0,0.042057664554595586
2804.0,0.04210551278710151
2803.0,0.04224908912272074
2802.0,0.042344833056508824
2801.0,0.042344833056508824
2800.0,0.04229695845116854
2799.0,0.04224908912272074
2798.0,0.042344833056508824
2797.0,0.04248848854552012
2796.0,0.04263219156847242
2795.0,0.04263219156847242
2794.0,0.04248848854552012
2793.0,0.042392712939904875
2792.0,0.042344833056508824
2791.0,0.042392712939904875
2790.0,0.042344833056508824
2789.0,0.042201225070002124
2788.0,0.042057664554595586
2787.0,0.04196198390166317
2786.0,0.04196198390166317
2785.0,0.04200982159316968
2784.0,0.04210551278710151
2783.0,0.04215336629184985
2782.0,0.04215336629184985
2781.0,0.04215336629184985
2780.0,0.04215336629184985
2779.0,0.04210551278710151
2778.0,0.042057664554595586
2777.0,0.04210551278710151
2776.0,0.042201225070002124
2775.0,0.042392712939904875
2774.0,0.042584285277331047
2773.0,0.04263219156847242
2772.0,0.04253638427006878
2771.0,0.042392712939904875
2770.0,0.04224908912272074
2769.0,0.04224908912272074
2768.0,0.04229695845116854
2767.0,0.04229695845116854
2766.0,0.042201225070002124
2765.0,0.04200982159316968
2764.0,0.04186632432376469
2763.0,0.04186632432376469
2762.0,0.041914151478914974
2761.0,0.04210551278710151
2760.0,0.04229695845116854
2759.0,0.04244059810252043
2758.0,0.04248848854552012
2757.0,0.04248848854552012
2756.0,0.04248848854552012
2755.0,0.04248848854552012
2754.0,0.04248848854552012
2753.0,0.04244059810252043
2752.0,0.04248848854552012
2751.0,0.04253638427006878
2750.0,0.042584285277331047
2749.0,0.042584285277331047
2748.0,0.04253638427006878
2747.0,0.04244059810252043
2746.0,0.04244059810252043
2745.0,0.04244059810252043
2744.0,0.04248848854552012
2743.0,0.04248848854552012
2742.0,0.04248848854552012
2741.0,0.04253638427006878
2740.0,0.04263219156847242
2739.0,0.04268010314465909
2738.0,0.04268010314465909
2737.0,0.042584285277331047
2736.0,0.04248848854552012
2735.0,0.04248848854552012
2734.0,0.042584285277331047
2733.0,0.04268010314465909
2732.0,0.042584285277331047
2731.0,0.042392712939904875
2730.0,0.04229695845116854
2729.0,0.04244059810252043
2728.0,0.04268010314465909
2727.0,0.04291974034210022
2726.0,0.04301563225723992
2725.0,0.042967683653061695
2724.0,0.04287180232318688
2723.0,0.04272802000705722
2722.0,0.042584285277331047
2721.0,0.042584285277331047
2720.0,0.04263219156847242
2719.0,0.04272802000705722
2718.0,0.042775942156833
2717.0,0.04272802000705722
2716.0,0.04268010314465909
2715.0,0.042584285277331047
2714.0,0.04244059810252043
2713.0,0.04229695845116854
2712.0,0.042201225070002124
2711.0,0.042201225070002124
2710.0,0.042344833056508824
2709.0,0.04263219156847242
2708.0,0.04291974034210022
2707.0,0.04301563225723992
2706.0,0.04301563225723992
2705.0,0.04291974034210022
2704.0,0.04287180232318688
2703.0,0.04282386959515394
2702.0,0.04272802000705722
2701.0,0.04268010314465909
2700.0,0.04268010314465909
2699.0,0.04268010314465909
2698.0,0.04268010314465909
2697.0,0.04263219156847242
2696.0,0.04268010314465909
2695.0,0.042775942156833
2694.0,0.042967683653061695
2693.0,0.04315950984076644
2692.0,0.043303435105349175
2691.0,0.0433514207947967
2690.0,0.04339941178682327
2689.0,0.0433514207947967
2688.0,0.04325545471730896
2687.0,0.04315950984076644
2686.0,0.043063586155803746
2685.0,0.0431115453499229
2684.0,0.04325545471730896
2683.0,0.043303435105349175
2682.0,0.0433514207947967
2681.0,0.0433514207947967
2680.0,0.04339941178682327
2679.0,0.04344740808260106
2678.0,0.04339941178682327
2677.0,0.043303435105349175
2676.0,0.0433514207947967
2675.0,0.043495409683302455
2674.0,0.043735497301724546
2673.0,0.04387961360698034
2672.0,0.04387961360698034
2671.0,0.043735497301724546
2670.0,0.0435434165901003
2669.0,0.0435434165901003
2668.0,0.04368746915880539
2667.0,0.04387961360698034
2666.0,0.0439276630048171
2665.0,0.04387961360698034
2664.0,0.0437835307566099
2663.0,0.04363944632667782
2662.0,0.043495409683302455
2661.0,0.04339941178682327
2660.0,0.04344740808260106
2659.0,0.0435434165901003
2658.0,0.04363944632667782
2657.0,0.043735497301724546
2656.0,0.043735497301724546
2655.0,0.043735497301724546
2654.0,0.043735497301724546
2653.0,0.0437835307566099
2652.0,0.04383156952463674
2651.0,0.04387961360698034
2650.0,0.04387961360698034
2649.0,0.04387961360698034
2648.0,0.04383156952463674
2647.0,0.0437835307566099
2646.0,0.043735497301724546
2645.0,0.04368746915880539
2644.0,0.04363944632667782
2643.0,0.04359142880416744
2642.0,0.0435434165901003
2641.0,0.0435434165901003
2640.0,0.04359142880416744
2639.0,0.043735497301724546
2638.0,0.04387961360698034
2637.0,0.04397571771932274
2636.0,0.044071843103049346
2635.0,0.04411991377462465
2634.0,0.04411991377462465
2633.0,0.044167989767578186
2632.0,0.044312249686494276
2631.0,0.04450467081587295
2630.0,0.04460091336073302
2629.0,0.044456557540257124
2628.0,0.04426415772233416
2627.0,0.04402377775167454
2626.0,0.04387961360698034
2625.0,0.04383156952463674
2624.0,0.04387961360698034
2623.0,0.04402377775167454
2622.0,0.044167989767578186
2621.0,0.044312249686494276
2620.0,0.04440844959427559
2619.0,0.04440844959427559
2618.0,0.044312249686494276
2617.0,0.044167989767578186
2616.0,0.04397571771932274
2615.0,0.04387961360698034
2614.0,0.04383156952463674
2613.0,0.04387961360698034
2612.0,0.044071843103049346
2611.0,0.044312249686494276
2610.0,0.04450467081587295
2609.0,0.04460091336073302
2608.0,0.04455278942230456
2607.0,0.04440844959427559
2606.0,0.04426415772233416
2605.0,0.04421607108308856
2604.0,0.044312249686494276
2603.0,0.04450467081587295
2602.0,0.04455278942230456
2601.0,0.044456557540257124
2600.0,0.04426415772233416
2599.0,0.044167989767578186
2598.0,0.04426415772233416
2597.0,0.044456557540257124
2596.0,0.04464904263234004
2595.0,0.04469717723830824
2594.0,0.04469717723830824
2593.0,0.04460091336073302
2592.0,0.04460091336073302
2591.0,0.04460091336073302
2590.0,0.04464904263234004
2589.0,0.04469717723830824
2588.0,0.04469717723830824
2587.0,0.04464904263234004
2586.0,0.04455278942230456
2585.0,0.04455278942230456
2584.0,0.04460091336073302
2583.0,0.04464904263234004
2582.0,0.04464904263234004
2581.0,0.04455278942230456
2580.0,0.044456557540257124
2579.0,0.044360346976747955
2578.0,0.044360346976747955
2577.0,0.04440844959427559
2576.0,0.04450467081587295
2575.0,0.04464904263234004
2574.0,0.04484161307420642
2573.0,0.044986096961949995
2572.0,0.04503426894157925
2571.0,0.044937930324967956
2570.0,0.04474531717982
2569.0,0.04450467081587295
2568.0,0.044312249686494276
2567.0,0.04426415772233416
2566.0,0.04440844959427559
2565.0,0.04460091336073302
2564.0,0.04484161307420642
2563.0,0.044986096961949995
2562.0,0.044937930324967956
2561.0,0.04469717723830824
2560.0,0.044456557540257124
2559.0,0.04426415772233416
2558.0,0.04426415772233416
2557.0,0.044312249686494276
2556.0,0.04440844959427559
2555.0,0.044456557540257124
2554.0,0.044456557540257124
2553.0,0.044456557540257124
2552.0,0.044456557540257124
2551.0,0.044456557540257124
2550.0,0.04450467081587295
2549.0,0.04460091336073302
2548.0,0.04464904263234004
2547.0,0.04464904263234004
2546.0,0.04455278942230456
2545.0,0.044456557540257124
2544.0,0.044456557540257124
2543.0,0.044456557540257124
2542.0,0.044456557540257124
2541.0,0.04455278942230456
2540.0,0.04474531717982
2539.0,0.044937930324967956
2538.0,0.04508244626504121
2537.0,0.04513062893352182
2536.0,0.0451788169482068
2535.0,0.04522701031028298
2534.0,0.04527520902093718
2533.0,0.045323413081356456
2532.0,0.04537162249272897
2531.0,0.04537162249272897
2530.0,0.04527520902093718
2529.0,0.04513062893352182
2528.0,0.04503426894157925
2527.0,0.04503426894157925
2526.0,0.04503426894157925
2525.0,0.04508244626504121
2524.0,0.04503426894157925
2523.0,0.044937930324967956
2522.0,0.04484161307420642
2521.0,0.04474531717982
2520.0,0.04469717723830824
2519.0,0.04469717723830824
2518.0,0.044793462458058375
2517.0,0.04488976902944808
2516.0,0.044986096961949995
2515.0,0.04508244626504121
2514.0,0.0451788169482068
2513.0,0.04522701031028298
2512.0,0.04527520902093718
2511.0,0.04527520902093718
2510.0,0.04527520902093718
2509.0,0.04527520902093718
2508.0,0.04527520902093718
2507.0,0.045323413081356456
2506.0,0.04527520902093718
2505.0,0.04522701031028298
2504.0,0.0451788169482068
2503.0,0.0451788169482068
2502.0,0.04527520902093718
2501.0,0.04541983725624266
2500.0,0.045516282844447975
2499.0,0.045612749855485024
2498.0,0.04570923829887308
2497.0,0.04575749056067524
2496.0,0.04575749056067524
2495.0,0.045612749855485024
2494.0,0.045516282844447975
2493.0,0.045516282844447975
2492.0,0.045612749855485024
2491.0,0.04570923829887308
2490.0,0.04575749056067524
2489.0,0.04570923829887308
2488.0,0.045660991397539874
2487.0,0.045612749855485024
2486.0,0.0454680573730859
2485.0,0.045323413081356456
2484.0,0.04522701031028298
2483.0,0.04527520902093718
2482.0,0.0454680573730859
2481.0,0.045564513671517703
2480.0,0.045564513671517703
2479.0,0.04541983725624266
2478.0,0.04527520902093718
2477.0,0.0451788169482068
2476.0,0.04522701031028298
2475.0,0.04537162249272897
2474.0,0.045612749855485024
2473.0,0.04575749056067524
2472.0,0.04585401117045196
2471.0,0.045902279520810385
2470.0,0.045902279520810385
2469.0,0.045902279520810385
2468.0,0.04595055323640551
2467.0,0.04599883231842972
2466.0,0.04595055323640551
2465.0,0.04585401117045196
2464.0,0.045660991397539874
2463.0,0.0454680573730859
2462.0,0.04537162249272897
2461.0,0.045323413081356456
2460.0,0.045323413081356456
2459.0,0.045323413081356456
2458.0,0.04527520902093718
2457.0,0.04522701031028298
2456.0,0.0451788169482068
2455.0,0.0451788169482068
2454.0,0.0451788169482068
2453.0,0.045323413081356456
2452.0,0.045564513671517703
2451.0,0.04585401117045196
2450.0,0.046047116768076934
2449.0,0.046047116768076934
2448.0,0.045902279520810385
2447.0,0.04575749056067524
2446.0,0.045660991397539874
2445.0,0.045564513671517703
2444.0,0.045516282844447975
2443.0,0.045612749855485024
2442.0,0.04575749056067524
2441.0,0.04595055323640551
2440.0,0.046047116768076934
2439.0,0.04609540658654021
2438.0,0.04609540658654021
2437.0,0.046143701775014145
2436.0,0.04624030826677128
2435.0,0.04638525830935958
2434.0,0.04643358574299339
2433.0,0.04643358574299339
2432.0,0.04628861957244457
2431.0,0.04609540658654021
2430.0,0.04595055323640551
2429.0,0.04585401117045196
2428.0,0.045902279520810385
2427.0,0.04599883231842972
2426.0,0.046143701775014145
2425.0,0.04628861957244457
2424.0,0.04643358574299339
2423.0,0.04653025674659861
2422.0,0.04662694927330402
2421.0,0.04672366333269573
2420.0,0.04677202844014605
2419.0,0.04682039893436585
2418.0,0.04686877481655505
2417.0,0.04686877481655505
2416.0,0.04682039893436585
2415.0,0.04682039893436585
2414.0,0.04682039893436585
2413.0,0.0469171560879138
2412.0,0.04696554274964315
2411.0,0.047062332249019345
2410.0,0.04711073508906982
2409.0,0.04711073508906982
2408.0,0.04701393480294458
2407.0,0.0469171560879138
2406.0,0.04682039893436585
2405.0,0.04682039893436585
2404.0,0.04686877481655505
2403.0,0.04701393480294458
2402.0,0.04711073508906982
2401.0,0.04720755695590784
2400.0,0.04725597598510167
2399.0,0.04725597598510167
2398.0,0.04720755695590784
2397.0,0.04725597598510167
2396.0,0.04740126547022694
2395.0,0.04749815213697639
2394.0,0.04754660357696672
2393.0,0.04749815213697639
2392.0,0.04744970610179822
2391.0,0.04740126547022694
2390.0,0.04740126547022694
2389.0,0.047352830241056854
2388.0,0.04730440041308315
2387.0,0.04720755695590784
2386.0,0.04711073508906982
2385.0,0.04711073508906982
2384.0,0.04715914332429838
2383.0,0.04720755695590784
2382.0,0.04715914332429838
2381.0,0.04711073508906982
2380.0,0.04715914332429838
2379.0,0.04725597598510167
2378.0,0.04720755695590784
2377.0,0.0469171560879138
2376.0,0.046481918555007384
2375.0,0.046192002334692894
2374.0,0.046192002334692894
2373.0,0.04643358574299339
2372.0,0.04696554274964315
2371.0,0.04744970610179822
2370.0,0.047643522676209304
2369.0,0.047595060422975566
2368.0,0.04740126547022694
2367.0,0.04754660357696672
2366.0,0.048225491918274965
2365.0,0.049148541111453614
2364.0,0.04948910701400333
2363.0,0.04817696468408794
2362.0,0.04585401117045196
2361.0,0.04460091336073302
2360.0,0.045323413081356456
2359.0,0.04682039893436585
2358.0,0.047643522676209304
2357.0,0.047982909952573705
2356.0,0.04900266601119507
2355.0,0.05036607620073763
2354.0,0.05085404758005607
2353.0,0.050171041064686284
2352.0,0.048808242065293994
2351.0,0.04749815213697639
2350.0,0.04667530361081473
2349.0,0.04701393480294458
2348.0,0.048128442871635535
2347.0,0.04866248120408234
2346.0,0.04778894189133087
2345.0,0.04595055323640551
2344.0,0.04464904263234004
2343.0,0.044360346976747955
2342.0,0.044793462458058375
2341.0,0.04508244626504121
2340.0,0.04469717723830824
2339.0,0.044167989767578186
2338.0,0.044071843103049346
2337.0,0.04474531717982
2336.0,0.04575749056067524
2335.0,0.04653025674659861
2334.0,0.04682039893436585
2333.0,0.04711073508906982
2332.0,0.047595060422975566
2331.0,0.04778894189133087
2330.0,0.04720755695590784
2329.0,0.046192002334692894
2328.0,0.045660991397539874
2327.0,0.045660991397539874
2326.0,0.04609540658654021
2325.0,0.04633693625290869
2324.0,0.04667530361081473
2323.0,0.0469171560879138
2322.0,0.04715914332429838
2321.0,0.04730440041308315
2320.0,0.04725597598510167
2319.0,0.04711073508906982
2318.0,0.0469171560879138
2317.0,0.04686877481655505
2316.0,0.047062332249019345
2315.0,0.04740126547022694
2314.0,0.047691990337874746
2313.0,0.04778894189133087
2312.0,0.047885915093007325
2311.0,0.04803141550708934
2310.0,0.048225491918274965
2309.0,0.04832256265669943
2308.0,0.04837110616336182
2307.0,0.04837110616336182
2306.0,0.04841965509660828
2305.0,0.04837110616336182
2304.0,0.04832256265669943
2303.0,0.048225491918274965
2302.0,0.048225491918274965
2301.0,0.04827402457540786
2300.0,0.04832256265669943
2299.0,0.04827402457540786
2298.0,0.04817696468408794
2297.0,0.047982909952573705
2296.0,0.04778894189133087
2295.0,0.047691990337874746
2294.0,0.047643522676209304
2293.0,0.047691990337874746
2292.0,0.0478374257855374
2291.0,0.047982909952573705
2290.0,0.04817696468408794
2289.0,0.04827402457540786
2288.0,0.04827402457540786
2287.0,0.04817696468408794
2286.0,0.04817696468408794
2285.0,0.04832256265669943
2284.0,0.04841965509660828
2283.0,0.048468209457651845
2282.0,0.04837110616336182
2281.0,0.04827402457540786
2280.0,0.04817696468408794
2279.0,0.04803141550708934
2278.0,0.0478374257855374
2277.0,0.047691990337874746
2276.0,0.047643522676209304
2275.0,0.047643522676209304
2274.0,0.047691990337874746
2273.0,0.04778894189133087
2272.0,0.047885915093007325
2271.0,0.047934409814949674
2270.0,0.047934409814949674
2269.0,0.047885915093007325
2268.0,0.0478374257855374
2267.0,0.04778894189133087
2266.0,0.04774046340917959
2265.0,0.047691990337874746
2264.0,0.047691990337874746
2263.0,0.047691990337874746
2262.0,0.04774046340917959
2261.0,0.047643522676209304
2260.0,0.04754660357696672
2259.0,0.04744970610179822
2258.0,0.04744970610179822
2257.0,0.047595060422975566
2256.0,0.04778894189133087
2255.0,0.047934409814949674
2254.0,0.04803141550708934
2253.0,0.048225491918274965
2252.0,0.04851676924770687
2251.0,0.04871106272232795
2250.0,0.04871106272232795
2249.0,0.048565334467987054
2248.0,0.04841965509660828
2247.0,0.04832256265669943
2246.0,0.04832256265669943
2245.0,0.04827402457540786
2244.0,0.04832256265669943
2243.0,0.04832256265669943
2242.0,0.04827402457540786
2241.0,0.04817696468408794
2240.0,0.04807992647970649
2239.0,0.04807992647970649
2238.0,0.04803141550708934
2237.0,0.047982909952573705
2236.0,0.047934409814949674
2235.0,0.04778894189133087
2234.0,0.047643522676209304
2233.0,0.04744970610179822
2232.0,0.047352830241056854
2231.0,0.04744970610179822
2230.0,0.047691990337874746
2229.0,0.047982909952573705
2228.0,0.048225491918274965
2227.0,0.04827402457540786
2226.0,0.04817696468408794
2225.0,0.04803141550708934
2224.0,0.047885915093007325
2223.0,0.0478374257855374
2222.0,0.0478374257855374
2221.0,0.04778894189133087
2220.0,0.04774046340917959
2219.0,0.04778894189133087
2218.0,0.0478374257855374
2217.0,0.047885915093007325
2216.0,0.047934409814949674
2215.0,0.047885915093007325
2214.0,0.047885915093007325
2213.0,0.047934409814949674
2212.0,0.04803141550708934
2211.0,0.048128442871635535
2210.0,0.04807992647970649
2209.0,0.04803141550708934
2208.0,0.047934409814949674
2207.0,0.047885915093007325
2206.0,0.047982909952573705
2205.0,0.04803141550708934
2204.0,0.048128442871635535
2203.0,0.04807992647970649
2202.0,0.04803141550708934
2201.0,0.047982909952573705
2200.0,0.04803141550708934
2199.0,0.048128442871635535
2198.0,0.04827402457540786
2197.0,0.04832256265669943
2196.0,0.048225491918274965
2195.0,0.04807992647970649
2194.0,0.047934409814949674
2193.0,0.0478374257855374
2192.0,0.0478374257855374
2191.0,0.04778894189133087
2190.0,0.047885915093007325
2189.0,0.047982909952573705
2188.0,0.048128442871635535
2187.0,0.04827402457540786
2186.0,0.04827402457540786
2185.0,0.04817696468408794
2184.0,0.04803141550708934
2183.0,0.047885915093007325
2182.0,0.04778894189133087
2181.0,0.04778894189133087
2180.0,0.04778894189133087
2179.0,0.0478374257855374
2178.0,0.0478374257855374
2177.0,0.047885915093007325
2176.0,0.047934409814949674
2175.0,0.04803141550708934
2174.0,0.04807992647970649
2173.0,0.04803141550708934
2172.0,0.047982909952573705
2171.0,0.047982909952573705
2170.0,0.047982909952573705
2169.0,0.047982909952573705
2168.0,0.04803141550708934
2167.0,0.04803141550708934
2166.0,0.04807992647970649
2165.0,0.048128442871635535
2164.0,0.048128442871635535
2163.0,0.04807992647970649
2162.0,0.04803141550708934
2161.0,0.047934409814949674
2160.0,0.047885915093007325
2159.0,0.04778894189133087
2158.0,0.04778894189133087
2157.0,0.04778894189133087
2156.0,0.04778894189133087
2155.0,0.04778894189133087
2154.0,0.04778894189133087
2153.0,0.04778894189133087
2152.0,0.047885915093007325
2151.0,0.04803141550708934
2150.0,0.048128442871635535
2149.0,0.04807992647970649
2148.0,0.04803141550708934
2147.0,0.04803141550708934
2146.0,0.04807992647970649
2145.0,0.048128442871635535
2144.0,0.048128442871635535
2143.0,0.04817696468408794
2142.0,0.048225491918274965
2141.0,0.04827402457540786
2140.0,0.04827402457540786
2139.0,0.048225491918274965
2138.0,0.048128442871635535
2137.0,0.04807992647970649
2136.0,0.048128442871635535
2135.0,0.04817696468408794
2134.0,0.04827402457540786
2133.0,0.04832256265669943
2132.0,0.04832256265669943
2131.0,0.04832256265669943
2130.0,0.04827402457540786
2129.0,0.048225491918274965
2128.0,0.04827402457540786
2127.0,0.04832256265669943
2126.0,0.04837110616336182
2125.0,0.048468209457651845
2124.0,0.048565334467987054
2123.0,0.0486139051197072
2122.0,0.0486139051197072
2121.0,0.048565334467987054
2120.0,0.048565334467987054
2119.0,0.048565334467987054
2118.0,0.048468209457651845
2117.0,0.04827402457540786
2116.0,0.04807992647970649
2115.0,0.047934409814949674
2114.0,0.047934409814949674
2113.0,0.047982909952573705
2112.0,0.04817696468408794
2111.0,0.04837110616336182
2110.0,0.04851676924770687
2109.0,0.048565334467987054
2108.0,0.04851676924770687
2107.0,0.048468209457651845
2106.0,0.04841965509660828
2105.0,0.04837110616336182
2104.0,0.04841965509660828
2103.0,0.04841965509660828
2102.0,0.04841965509660828
2101.0,0.048468209457651845
2100.0,0.04851676924770687
2099.0,0.048565334467987054
2098.0,0.048565334467987054
2097.0,0.048468209457651845
2096.0,0.04837110616336182
2095.0,0.04837110616336182
2094.0,0.048468209457651845
2093.0,0.04866248120408234
2092.0,0.048808242065293994
2091.0,0.04885683989244738
2090.0,0.04885683989244738
2089.0,0.048905443158337114
2088.0,0.04900266601119507
2087.0,0.049148541111453614
2086.0,0.04919717703534143
2085.0,0.04909991063361274
2084.0,0.04905128560059957
2083.0,0.04900266601119507
2082.0,0.04900266601119507
2081.0,0.04900266601119507
2080.0,0.04900266601119507
2079.0,0.04905128560059957
2078.0,0.049148541111453614
2077.0,0.049245818406496555
2076.0,0.04919717703534143
2075.0,0.04909991063361274
2074.0,0.04900266601119507
2073.0,0.04900266601119507
2072.0,0.04900266601119507
2071.0,0.04905128560059957
2070.0,0.04905128560059957
2069.0,0.04905128560059957
2068.0,0.04905128560059957
2067.0,0.04905128560059957
2066.0,0.04900266601119507
2065.0,0.048905443158337114
2064.0,0.04871106272232795
2063.0,0.0486139051197072
2062.0,0.0486139051197072
2061.0,0.04871106272232795
2060.0,0.04875964967565971
2059.0,0.04875964967565971
2058.0,0.04866248120408234
2057.0,0.0486139051197072
2056.0,0.0486139051197072
2055.0,0.0486139051197072
2054.0,0.048468209457651845
2053.0,0.04832256265669943
2052.0,0.04817696468408794
2051.0,0.04807992647970649
2050.0,0.047982909952573705
2049.0,0.047934409814949674
2048.0,0.047885915093007325
2047.0,0.047885915093007325
2046.0,0.047885915093007325
2045.0,0.0478374257855374
2044.0,0.0478374257855374
2043.0,0.04778894189133087
2042.0,0.04778894189133087
2041.0,0.0478374257855374
2040.0,0.047885915093007325
2039.0,0.047885915093007325
2038.0,0.0478374257855374
2037.0,0.04774046340917959
2036.0,0.047643522676209304
2035.0,0.047643522676209304
2034.0,0.047643522676209304
2033.0,0.047691990337874746
2032.0,0.047691990337874746
2031.0,0.04778894189133087
2030.0,0.047885915093007325
2029.0,0.047934409814949674
2028.0,0.0478374257855374
2027.0,0.047595060422975566
2026.0,0.04725597598510167
2025.0,0.0469171560879138
2024.0,0.04677202844014605
2023.0,0.04682039893436585
2022.0,0.04696554274964315
2021.0,0.047062332249019345
2020.0,0.04715914332429838
2019.0,0.04715914332429838
2018.0,0.04711073508906982
2017.0,0.04696554274964315
2016.0,0.0469171560879138
2015.0,0.04686877481655505
2014.0,0.04686877481655505
2013.0,0.04686877481655505
2012.0,0.04686877481655505
2011.0,0.04686877481655505
2010.0,0.04686877481655505
2009.0,0.0469171560879138
2008.0,0.04701393480294458
2007.0,0.04715914332429838
2006.0,0.04725597598510167
2005.0,0.04720755695590784
2004.0,0.04715914332429838
2003.0,0.047062332249019345
2002.0,0.047062332249019345
2001.0,0.047062332249019345
2000.0,0.047062332249019345
1999.0,0.047062332249019345
1998.0,0.04696554274964315
1997.0,0.04686877481655505
1996.0,0.04682039893436585
1995.0,0.04682039893436585
1994.0,0.04682039893436585
1993.0,0.04682039893436585
1992.0,0.04677202844014605
1991.0,0.04672366333269573
1990.0,0.04667530361081473
1989.0,0.04657860031896477
1988.0,0.04653025674659861
1987.0,0.04643358574299339
1986.0,0.04638525830935958
1985.0,0.04638525830935958
1984.0,0.04638525830935958
1983.0,0.046481918555007384
1982.0,0.04653025674659861
1981.0,0.04653025674659861
1980.0,0.04657860031896477
1979.0,0.04653025674659861
1978.0,0.04643358574299339
1977.0,0.04628861957244457
1976.0,0.046192002334692894
1975.0,0.046143701775014145
1974.0,0.046143701775014145
1973.0,0.04609540658654021
1972.0,0.04599883231842972
1971.0,0.04595055323640551
1970.0,0.045902279520810385
1969.0,0.04580574818413763
1968.0,0.04575749056067524
1967.0,0.04575749056067524
1966.0,0.04575749056067524
1965.0,0.04570923829887308
1964.0,0.045660991397539874
1963.0,0.045660991397539874
1962.0,0.04570923829887308
1961.0,0.04580574818413763
1960.0,0.045902279520810385
1959.0,0.04599883231842972
1958.0,0.04595055323640551
1957.0,0.04575749056067524
1956.0,0.045612749855485024
1955.0,0.045516282844447975
1954.0,0.0454680573730859
1953.0,0.04537162249272897
1952.0,0.04527520902093718
1951.0,0.04513062893352182
1950.0,0.044986096961949995
1949.0,0.04484161307420642
1948.0,0.044793462458058375
1947.0,0.044793462458058375
1946.0,0.044793462458058375
1945.0,0.04464904263234004
1944.0,0.044456557540257124
1943.0,0.044167989767578186
1942.0,0.0439276630048171
1941.0,0.043735497301724546
1940.0,0.04368746915880539
1939.0,0.04383156952463674
1938.0,0.04397571771932274
1937.0,0.04397571771932274
1936.0,0.0439276630048171
1935.0,0.04387961360698034
1934.0,0.04383156952463674
1933.0,0.043735497301724546
1932.0,0.0435434165901003
1931.0,0.043303435105349175
1930.0,0.043063586155803746
1929.0,0.04282386959515394
1928.0,0.04268010314465909
1927.0,0.04263219156847242
1926.0,0.042584285277331047
1925.0,0.04253638427006878
1924.0,0.042392712939904875
1923.0,0.04215336629184985
1922.0,0.041914151478914974
1921.0,0.04181850243505214
1920.0,0.04186632432376469
1919.0,0.041914151478914974
1918.0,0.04172287445230238
1917.0,0.041483896576958834
1916.0,0.041340572947066834
1915.0,0.041340572947066834
1914.0,0.041483896576958834
1913.0,0.041483896576958834
1912.0,0.041436116778032606
1911.0,0.041340572947066834
1910.0,0.041197296600497646
1909.0,0.041101805289228244
1908.0,0.040958607678906356
1907.0,0.04076775094900409
1906.0,0.040529297924893015
1905.0,0.040338629726504704
1904.0,0.040243327009005014
1903.0,0.04019568349166214
1902.0,0.04019568349166214
1901.0,0.04014804520039483
1900.0,0.0400527842915015
1899.0,0.03995754427315856
1898.0,0.03981472339538916
1897.0,0.03957679292217042
1896.0,0.03924390909822728
1895.0,0.038911280232103884
1894.0,0.03857890593355173
1893.0,0.038436537637930535
1892.0,0.03848398855105106
1891.0,0.03857890593355173
1890.0,0.03848398855105106
1889.0,0.03810452633214956
1888.0,0.03767802727041558
1887.0,0.03739392707587297
1886.0,0.037251946641359446
1885.0,0.0371100126082089
1884.0,0.0369681249461018
1883.0,0.03682628362474838
1882.0,0.03668448861388862
1881.0,0.03649550058570927
1880.0,0.03621217265444465
1879.0,0.03588185684851508
1878.0,0.03550466044490741
1877.0,0.03517488211661135
1876.0,0.03498654972775217
1875.0,0.03489241415094413
1874.0,0.03475124903287918
1873.0,0.03465716443937783
1872.0,0.03461012978487776
1871.0,0.03456310022373987
1870.0,0.03428102975577918
1869.0,0.03367050483612166
1868.0,0.032873418923587305
1867.0,0.03226486821611996
1866.0,0.031984286006358165
1865.0,0.032031037121307726
1864.0,0.032218091924200776
1863.0,0.03226486821611996
1862.0,0.03207779326948268
1861.0,0.03175060589208267
1860.0,0.03137697904301118
1859.0,0.03105031901865729
1858.0,0.03067729388779794
1857.0,0.030351159519274695
1856.0,0.030118356253500123
1855.0,0.029885677714903025
1854.0,0.029653123769906697
1853.0,0.02932775731028059
1852.0,0.029002634427514717
1851.0,0.02872415126189476
1850.0,0.028445846553939003
1849.0,0.028167720075074953
1848.0,0.027936083991977778
1847.0,0.027936083991977778
1846.0,0.027936083991977778
1845.0,0.027565723042634938
1844.0,0.026733563891471412
1843.0,0.025810808881832736
1842.0,0.025350165561278004
1841.0,0.025488307262671706
1840.0,0.025810808881832736
1839.0,0.025810808881832736
1838.0,0.02544225514642018
1837.0,0.02498200236711723
1836.0,0.02461415101053266
1835.0,0.024430342106337877
1834.0,0.02438440203310499
1833.0,0.024522236834125355
1832.0,0.02484402159331056
1831.0,0.02498200236711723
1830.0,0.024522236834125355
1829.0,0.02365002099672653
1828.0,0.023191662661933732
1827.0,0.023374947949272418
1826.0,0.023604163388120325
1825.0,0.023466619608062178
1824.0,0.023100049017062307
1823.0,0.02296266477531872
1822.0,0.02300845469384938
1821.0,0.023054249440757957
1820.0,0.02300845469384938
1819.0,0.02291687968414724
1818.0,0.02277955336461468
1817.0,0.02255077261765881
1816.0,0.022322112326006227
1815.0,0.02204787879853809
1814.0,0.021819483062586187
1813.0,0.021636852916117055
1812.0,0.0214542995372613
1811.0,0.021135015652343103
1810.0,0.02058821736556471
1809.0,0.020178569969774962
1808.0,0.020178569969774962
1807.0,0.020315076172974234
1806.0,0.02036058777709271
1805.0,0.020315076172974234
1804.0,0.020315076172974234
1803.0,0.020315076172974234
1802.0,0.020178569969774962
1801.0,0.019860222254245663
1800.0,0.019723858922159776
1799.0,0.019769308608968306
1798.0,0.019814763052665052
1797.0,0.01995115493504329
1796.0,0.02026956933771462
1795.0,0.020770406977844713
1794.0,0.02122621566987748
1793.0,0.0214542995372613
1792.0,0.02159120737696063
1791.0,0.021819483062586187
1790.0,0.022413561996148967
1789.0,0.023695883447997224
1788.0,0.025488307262671706
1787.0,0.027565723042634938
1786.0,0.02960662792039992
1785.0,0.03179733185715028
1784.0,0.03432802877989327
1783.0,0.0371573187987575
1782.0,0.0402909757535701
1781.0,0.04397571771932274
1780.0,0.04827402457540786
1779.0,0.05271335532220167
1778.0,0.0567528748621382
1777.0,0.060430831344098435
1776.0,0.06408986356949264
1775.0,0.0676277178520861
1774.0,0.07093887591523451
1773.0,0.07458476291575367
1772.0,0.07951143534170213
1771.0,0.08518101955252688
1770.0,0.09028354676565531
1769.0,0.09544673702322726
1768.0,0.1017686154869033
1767.0,0.10946720807225518
1766.0,0.11736163830396129
1765.0,0.1251124891538875
1764.0,0.13335827943396006
1763.0,0.14357322752975565
1762.0,0.15701652987778258
1761.0,0.17282465170130723
1760.0,0.18748771571001743
1759.0,0.19880216554085117
1758.0,0.2076783636484265
1757.0,0.2160964207272651
1756.0,0.22409842110832567
1755.0,0.22958986848609375
1754.0,0.23173198354845193
1753.0,0.2321023839819094
1752.0,0.23299263605019593
1751.0,0.23537560214901854
1750.0,0.2386736775785434
1749.0,0.24192117775038735
1748.0,0.24465881618845242
1747.0,0.2461106685401666
1746.0,0.2454987706130829
1745.0,0.24351603555739065
1744.0,0.24101245313238073
1743.0,0.23844801143581806
1742.0,0.23537560214901854
1741.0,0.2318801058152027
1740.0,0.22811867980990108
1739.0,0.22424396215590203
1738.0,0.2199708726626617
1737.0,0.21531140049857878
1736.0,0.2102078322693246
1735.0,0.20481541031757589
1734.0,0.20017716900668026
1733.0,0.19661117501638659
1732.0,0.1930742231162681
1731.0,0.18922998876563635
1730.0,0.18561920553006184
1729.0,0.18223636771963214
1728.0,0.17901082358395048
1727.0,0.17574396237031764
1726.0,0.1725014918665413
1725.0,0.16947548590274142
1724.0,0.16704424939540163
1723.0,0.16494389827988365
1722.0,0.16291684917681404
1721.0,0.1607105439938532
1720.0,0.15826522102525642
1719.0,0.15546069787099204
1718.0,0.1531682471767426
1717.0,0.15236565568174498
1716.0,0.15211900255462485
1715.0,0.15125681810431635
1714.0,0.1500894416985039
1713.0,0.14880282382583943
1712.0,0.1471541819850033
1711.0,0.14502632627358292
1710.0,0.14290884532648618
1709.0,0.1410419452819942
1708.0,0.13918303613546223
1707.0,0.13727247168202528
1706.0,0.13566694496660703
1705.0,0.134659094375416
1704.0,0.1337717526203528
1703.0,0.13241467345296387
1702.0,0.1305922506177981
1701.0,0.12889429901441463
1700.0,0.12796033202671375
1699.0,0.12702836926155658
1698.0,0.12569216687196105
1697.0,0.12464930342071079
1696.0,0.12401322857151209
1695.0,0.12337808396572703
1694.0,0.12239832027072817
1693.0,0.12142076193778073
1692.0,0.1203880929341492
1691.0,0.11907213473291511
1690.0,0.11776015198117662
1689.0,0.1169634899723202
1688.0,0.1165089098110701
1687.0,0.11588463798833115
1686.0,0.11469533241103202
1685.0,0.11345287660889425
1684.0,0.11339648571328764
1683.0,0.11367851344052027
1682.0,0.11322735694556196
1681.0,0.11260778102815316
1680.0,0.11198908775497118
1679.0,0.11137127461477392
1678.0,0.11075433910702048
1677.0,0.11008231656379408
1676.0,0.10929960230112479
1675.0,0.10874138309586101
1674.0,0.1082953237608173
1673.0,0.10762709260156367
1672.0,0.10679324694015202
1671.0,0.10585015323207791
1670.0,0.10535169620648288
1669.0,0.10540705207704448
1668.0,0.10540705207704448
1667.0,0.10507502264045665
1666.0,0.10457745396059215
1665.0,0.10397008760377302
1664.0,0.10325338439259446
1663.0,0.10259286033841963
1662.0,0.1022080180607754
1661.0,0.10193333935836524
1660.0,0.10154908080162528
1659.0,0.10105553313349058
1658.0,0.1005625457138224
1657.0,0.10007011727213588
1656.0,0.09974214156222239
1655.0,0.09930522554760213
1654.0,0.09914149529800831
1653.0,0.10017949757290379
1652.0,0.10001543745060903
1651.0,0.09816040794877057
1650.0,0.0972358560759139
1649.0,0.09685572959046151
1648.0,0.09636748391576244
1647.0,0.09620485725896466
1646.0,0.09658441423091357
1645.0,0.0964759355287379
1644.0,0.09593394808549704
1643.0,0.09533854208447545
1642.0,0.09479797133768142
1641.0,0.09436599867304518
1640.0,0.09388054245443844
1639.0,0.09344948089854999
1638.0,0.09301884677114591
1637.0,0.09274991711867164
1636.0,0.09280368972839836
1635.0,0.09323411045927221
1634.0,0.09307265269104414
1633.0,0.09269615116603047
1632.0,0.09231997575758011
1631.0,0.0919441259012328
1630.0,0.09156860103399356
1629.0,0.09130056764777605
1628.0,0.09119340059432579
1627.0,0.09113982698272349
1626.0,0.0910326995816122
1625.0,0.09087205801073917
1624.0,0.09071147583774919
1623.0,0.09071147583774919
1622.0,0.09071147583774919
1621.0,0.09039048950983108
1620.0,0.08990945440593179
1619.0,0.08937559511079884
1618.0,0.08884239126002336
1617.0,0.08857603462370545
1616.0,0.0884695376928375
1615.0,0.08830984124613894
1614.0,0.08825662214406838
1613.0,0.08825662214406838
1612.0,0.0880970039559672
1611.0,0.0877779434675845
1610.0,0.08756536662442538
1609.0,0.08735289378168276
1608.0,0.0870343792958963
1607.0,0.0867160982395816
1606.0,0.08645104209348209
1605.0,0.08618614761628329
1604.0,0.08586848736910624
1603.0,0.0856568428805593
1602.0,0.08555105930144569
1601.0,0.08560394787021397
1600.0,0.08560394787021397
1599.0,0.08539243222891946
1598.0,0.08512818245994969
1597.0,0.08481129482684358
1596.0,0.08449463824562353
1595.0,0.08428366205400617
1594.0,0.08412549714230844
1593.0,0.08396738981143059
1592.0,0.08370400543686918
1591.0,0.08344078069888616
1590.0,0.0832303157168639
1589.0,0.08301995267961781
1588.0,0.08275714209253371
1587.0,0.08244197917456386
1586.0,0.08212704480115218
1585.0,0.08186477383364066
1584.0,0.08160266115629988
1583.0,0.08144546944972642
1582.0,0.08139308485501817
1581.0,0.08134070657817682
1580.0,0.0812359689720008
1579.0,0.08118360963962057
1578.0,0.08107890990866418
1577.0,0.08076496207674921
1576.0,0.08029446545087904
1575.0,0.07977228854307139
1574.0,0.0794071379151915
1573.0,0.0794592834975203
1572.0,0.07951143534170213
1571.0,0.07914650387874067
1570.0,0.07878187880504961
1569.0,0.07867775641617802
1568.0,0.07872981449018734
1567.0,0.07878187880504961
1566.0,0.07872981449018734
1565.0,0.07846958649875768
1564.0,0.07810552907089763
1563.0,0.07789763319239285
1562.0,0.07779372256098371
1561.0,0.07743023101428781
1560.0,0.07654873036034848
1559.0,0.07613452481449845
1558.0,0.07618627890881036
1557.0,0.07556563645676939
1556.0,0.07541061433058172
1555.0,0.07556563645676939
1554.0,0.07546228222451012
1553.0,0.07525564752005143
1552.0,0.07510073598571654
1551.0,0.07520400420208784
1550.0,0.07535895258283709
1549.0,0.07541061433058172
1548.0,0.07535895258283709
1547.0,0.07530729697981409
1546.0,0.07510073598571654
1545.0,0.07479107858799638
1544.0,0.07453319930846214
1543.0,0.07432700607875953
1542.0,0.07406940213152868
1541.0,0.07391491307485598
1540.0,0.07401789967289685
1539.0,0.07365755337434488
1538.0,0.07278366940873537
1537.0,0.07252697900472405
1536.0,0.07273231918911849
1535.0,0.07283502570063005
1534.0,0.07262963696097646
1533.0,0.07237303755504598
1532.0,0.07211658966929302
1531.0,0.07191154033502922
1530.0,0.0718090519612431
1529.0,0.0718090519612431
1528.0,0.07186029312488018
1527.0,0.07186029312488018
1526.0,0.07170658776779781
1525.0,0.07150173187630915
1524.0,0.07145053299833615
1523.0,0.07124579782334672
1522.0,0.07083661679493547
1521.0,0.0702746216219956
1520.0,0.06971335275448043
1519.0,0.06935655895783555
1518.0,0.0692037370166998
1517.0,0.06894915322260897
1516.0,0.06864384953207203
1515.0,0.0685421293109949
1514.0,0.06859298644342648
1513.0,0.06859298644342648
1512.0,0.068389593637038
1511.0,0.06803388527182741
1510.0,0.06772922410050963
1509.0,0.06752623532284674
1508.0,0.06727263269847072
1507.0,0.06696850489759454
1506.0,0.06641148980334699
1505.0,0.06545105233385295
1504.0,0.06504729218214189
1503.0,0.06514819703433927
1502.0,0.0653500770992892
1501.0,0.0654005617819271
1500.0,0.06529959828457499
1499.0,0.06509774167768612
1498.0,0.06459351024765114
1497.0,0.06403953101083348
1496.0,0.06348625752110681
1495.0,0.06288348923294618
1494.0,0.06248210798265341
1493.0,0.06223143295006417
1492.0,0.06198090252378963
1491.0,0.06133019897732073
1490.0,0.060530669156469985
1489.0,0.05988213325228142
1488.0,0.05948351506743288
1487.0,0.059035506507200575
1486.0,0.058538260652670315
1485.0,0.05824018618530458
1484.0,0.05794231615860479
1483.0,0.05754547365752294
1482.0,0.05685187064143715
1481.0,0.05610995175152733
1480.0,0.05546797900801881
1479.0,0.05502409158795207
1478.0,0.05453141486818014
1477.0,0.05399011523423525
1476.0,0.05354773498692689
1475.0,0.053203972728539606
1474.0,0.05290953578037816
1473.0,0.05261529831525902
1472.0,0.05256627811294923
1471.0,0.052762392129333646
1470.0,0.05354773498692689
1469.0,0.055122694036304765
1468.0,0.057198533682059516
1467.0,0.05968277842578207
1466.0,0.06263258248271053
1465.0,0.06671522765130522
1464.0,0.07196279359311708
1463.0,0.07737832847680104
1462.0,0.0823369756726251
1461.0,0.08714052483764512
1460.0,0.09205147838772776
1459.0,0.09734452478207412
1458.0,0.10402526764093545
1457.0,0.11317099532301778
1456.0,0.12142076193778073
1455.0,0.12522836281570182
1454.0,0.12691201440971422
1453.0,0.12836869546244634
1452.0,0.12977172098820566
1451.0,0.13076828026902376
1450.0,0.13135556160517425
1449.0,0.1318847946727828
1448.0,0.1325325121409484
1447.0,0.13288622016802298
1446.0,0.13247358880025661
1445.0,0.13141433344123432
1444.0,0.12977172098820566
1443.0,0.12761061158217912
1442.0,0.1248808345374317
1441.0,0.12182301950849372
1440.0,0.11855827805860697
1439.0,0.11526126223036814
1438.0,0.11176432672943282
1437.0,0.10779405402422748
1436.0,0.10363915453068362
1435.0,0.09990609845660159
1434.0,0.09701860020249709
1433.0,0.09474395125154866
1432.0,0.09264239186882706
1431.0,0.0905509530187334
1430.0,0.08857603462370545
1429.0,0.0867691288864394
1428.0,0.08523386307414738
1427.0,0.0838620168928248
1426.0,0.08265206237222844
1425.0,0.08139308485501817
1424.0,0.08003329851661278
1423.0,0.07883394936226118
1422.0,0.07784567476894111
1421.0,0.07680780957933253
1420.0,0.07541061433058172
1419.0,0.07381195089279391
1418.0,0.07232173586200852
1417.0,0.07124579782334672
1416.0,0.07052998382251041
1415.0,0.06986635415888243
1414.0,0.06905096883247697
1413.0,0.06803388527182741
1412.0,0.06706985716921054
1411.0,0.06620911585658007
1410.0,0.0653500770992892
1409.0,0.06444235490698613
1408.0,0.06343599486473406
1407.0,0.06248210798265341
1406.0,0.06153031163235467
1405.0,0.060530669156469985
1404.0,0.05953332233647113
1403.0,0.058786812414678646
1402.0,0.05824018618530458
1401.0,0.057743849580535134
1400.0,0.057198533682059516
1399.0,0.056950888991593285
1398.0,0.0571489934456626
1397.0,0.05784307153250956
1396.0,0.05898575629443026
1395.0,0.060880282351513104
1394.0,0.06348625752110681
1393.0,0.06636088747507496
1392.0,0.06945847013556561
1391.0,0.0729891310243489
1390.0,0.07706704344478843
1389.0,0.08170748724464438
1388.0,0.08719360733870762
1387.0,0.09344948089854999
1386.0,0.09930522554760213
1385.0,0.1038045895457893
1384.0,0.10695988804288215
1383.0,0.10935546370475246
1382.0,0.11109074073646874
1381.0,0.11187669270209155
1380.0,0.11142740314240007
1379.0,0.10980261378997125
1378.0,0.10718217569042365
1377.0,0.10408045468998406
1376.0,0.10116516193172598
1375.0,0.0989778267519208
1374.0,0.09837823590664274
1373.0,0.09952362861074304
1372.0,0.10198826120249849
1371.0,0.10496440254767725
1370.0,0.10801676914803293
1369.0,0.11069829749368965
1368.0,0.11288929687511629
1367.0,0.11446916681190777
1366.0,0.11548784080960606
1365.0,0.11633856484638239
1364.0,0.1174754620451195
1363.0,0.11947222180119477
1362.0,0.12228319913502328
1361.0,0.12522836281570182
1360.0,0.12778543660241448
1359.0,0.12994741830645506
1358.0,0.13170831198214428
1357.0,0.13294519952329842
1356.0,0.13353543402825974
1355.0,0.13359450162194508
1354.0,0.1331221856625011
1353.0,0.13212021654162043
1352.0,0.1306509192409071
1351.0,0.1287190271420271
1350.0,0.126621263590859
1349.0,0.12441789567211425
1348.0,0.12216810850710624
1347.0,0.1199871616332282
1346.0,0.11781711236973003
1345.0,0.11565785235294102
1344.0,0.11356568037106163
1343.0,0.11165198982195101
1342.0,0.1098585399354226
1341.0,0.10801676914803293
1340.0,0.10623823794205656
1339.0,0.10452220372428545
1338.0,0.10297804393963661
1337.0,0.10165883427249067
1336.0,0.10039834085387778
1335.0,0.09919606518963042
1334.0,0.09810596802617932
1333.0,0.09701860020249709
1332.0,0.09598811640261173
1331.0,0.09496007192378841
1330.0,0.09388054245443844
1329.0,0.09296504751658308
1328.0,0.09205147838772776
1327.0,0.09130056764777605
1326.0,0.0905509530187334
1325.0,0.08985603893548699
1324.0,0.0892689019566193
1323.0,0.08873582900163002
1322.0,0.08830984124613894
1321.0,0.08783110394037297
1320.0,0.08735289378168276
1319.0,0.08687520961044104
1318.0,0.08639805027084257
1317.0,0.08597434830367123
1316.0,0.08549817717268593
1315.0,0.08507535179485148
1314.0,0.08470571697731355
1313.0,0.08433639649422697
1312.0,0.08412549714230844
1311.0,0.08412549714230844
1310.0,0.08433639649422697
1309.0,0.08470571697731355
1308.0,0.08528671302637614
1307.0,0.08592141461088798
1306.0,0.08661005636824437
1305.0,0.08714052483764512
1304.0,0.08740600224789441
1303.0,0.08751223866767632
1302.0,0.0872997918091396
1301.0,0.08698131625203986
1300.0,0.08650404038287651
1299.0,0.08608023504853413
1298.0,0.08570974433405087
1297.0,0.0854453014823664
1296.0,0.08518101955252688
1295.0,0.08481129482684358
1294.0,0.08438913733853282
1293.0,0.08375666953466032
1292.0,0.08270459905431071
1291.0,0.08113125661901543
1290.0,0.07904229404455076
1289.0,0.07680780957933253
1288.0,0.07463633264589853
1287.0,0.07293775650699996
1286.0,0.07175781684269089
1285.0,0.07119462910671581
1284.0,0.07114346641808922
1283.0,0.0716553647351379
1282.0,0.07252697900472405
1281.0,0.07370901311513656
1280.0,0.07499749231902242
1279.0,0.07644514193245056
1278.0,0.07805354577058976
1277.0,0.07982447798997727
1276.0,0.08149786036382611
1275.0,0.08301995267961781
1274.0,0.08433639649422697
1273.0,0.08560394787021397
1272.0,0.0867691288864394
1271.0,0.0877779434675845
1270.0,0.08857603462370545
1269.0,0.0892155652071629
1268.0,0.08964244272712252
1267.0,0.08990945440593179
1266.0,0.0900163050601559
1265.0,0.0900163050601559
1264.0,0.08985603893548699
1263.0,0.08948231448273347
1262.0,0.08894897967187343
1261.0,0.0881502035005799
1260.0,0.0872466963286771
1259.0,0.086239113587677
1258.0,0.08523386307414738
1257.0,0.08423093401631587
1256.0,0.08317771540408803
1255.0,0.08202211740709164
1254.0,0.08076496207674921
1253.0,0.0794592834975203
1252.0,0.07810552907089763
1251.0,0.07685964397479927
1250.0,0.07566901529132153
1249.0,0.07458476291575367
1248.0,0.07355465218161061
1247.0,0.07252697900472405
1246.0,0.07160414774328627
1245.0,0.07073438174693436
1244.0,0.06996838504902692
1243.0,0.06930561233546473
1242.0,0.06879647454924775
1241.0,0.06828793294324442
1240.0,0.06777998612288094
1239.0,0.06732334137759932
1238.0,0.06696850489759454
1237.0,0.06676587128519196
1236.0,0.06671522765130522
1235.0,0.0666645899223488
1234.0,0.06671522765130522
1233.0,0.06686717627326577
1232.0,0.06727263269847072
1231.0,0.0680846829187538
1230.0,0.06930561233546473
1229.0,0.0710411591191702
1228.0,0.0732460948102629
1227.0,0.07592757008963713
1226.0,0.079094395835976
1225.0,0.08275714209253371
1224.0,0.08682216600953208
1223.0,0.09135416109288674
1222.0,0.09625905937846135
1221.0,0.1014393550602879
1220.0,0.10690433390377163
1219.0,0.11249522576462212
1218.0,0.11827306462358211
1217.0,0.12424442074194553
1216.0,0.1304749371427727
1215.0,0.1369151746796402
1214.0,0.14321071124668383
1213.0,0.1490476002065071
1212.0,0.15397232463562127
1211.0,0.15782777061438424
1210.0,0.16045910703103106
1209.0,0.16209605540705763
1208.0,0.16310648362356628
1207.0,0.16361258067358908
1206.0,0.16386585053462532
1205.0,0.16405589990615188
1204.0,0.16449967213268124
1203.0,0.16532502553725603
1202.0,0.16659787076814148
1201.0,0.16825816635436186
1200.0,0.17018181256112253
1199.0,0.17224313702138327
1198.0,0.1745089701205691
1197.0,0.17711305216584927
1196.0,0.18032448000570733
1195.0,0.1842894602110372
1194.0,0.18882730493344568
1193.0,0.19395576425191186
1192.0,0.19962664510865036
1191.0,0.20606999322731534
1190.0,0.2134615195021976
1189.0,0.221921138062545
1188.0,0.23150989482875484
1187.0,0.24222450898807435
1186.0,0.25383303562271453
1185.0,0.2663213443229122
1184.0,0.2795925991968915
1183.0,0.2933675491267054
1182.0,0.30680085484628283
1181.0,0.31893975636818817
1180.0,0.32910504647979
1179.0,0.3364875295848444
1178.0,0.3404640928457836
1177.0,0.3409399277590617
1176.0,0.3382819423053407
1175.0,0.332640453816913
1174.0,0.32440494361325367
1173.0,0.3143478158844757
1172.0,0.3032069149182557
1171.0,0.2912392763096834
1170.0,0.278684119394101
1169.0,0.2660808489876092
1168.0,0.2536772349100471
1167.0,0.24169381827469305
1166.0,0.2302535328205466
1165.0,0.21961067152904712
1164.0,0.20978522975602076
1163.0,0.200521601162019
1162.0,0.1917214904172322
1161.0,0.18336105510153855
1160.0,0.1754186237665174
1159.0,0.16787445746599094
1158.0,0.16064767110457878
1157.0,0.15360102696532518
1156.0,0.14697138528701026
1155.0,0.14062149557439896
1154.0,0.134659094375416
1153.0,0.12924505510985984
1152.0,0.12436006299583169
1151.0,0.11992991593593283
1150.0,0.11605480496572018
1149.0,0.112945621949043
1148.0,0.11086644403327606
1147.0,0.10997041383658313
1146.0,0.11041819785037621
1145.0,0.11232644754555254
1144.0,0.11588463798833115
1143.0,0.12096149476276286
1142.0,0.12731939284807026
1141.0,0.13483678049391368
1140.0,0.14333151638846497
1139.0,0.15267416921457633
1138.0,0.1627904721987936
1137.0,0.17347169365934856
1136.0,0.18462151503408197
1135.0,0.19592875111433883
1134.0,0.20683847075444928
1133.0,0.21695442788530706
1132.0,0.22621355501880647
1131.0,0.23433144524098592
1130.0,0.241315150117559
1129.0,0.24695343837347083
1128.0,0.2511145599904834
1127.0,0.25352149006996894
1126.0,0.2536772349100471
1125.0,0.25181197299379954
1124.0,0.24833605373901335
1123.0,0.24351603555739065
1122.0,0.2376215706880358
1121.0,0.23099212905622624
1120.0,0.22409842110832567
1119.0,0.21709759402535544
1118.0,0.2102078322693246
1117.0,0.20391157131933157
1116.0,0.19845909380968174
1115.0,0.1941594511853273
1114.0,0.1910467008440888
1113.0,0.18922998876563635
1112.0,0.1887602272467106
1111.0,0.18963304631837485
1110.0,0.1919917000896001
1109.0,0.19545169161194398
1108.0,0.19990181982522426
1107.0,0.20488501436963658
1106.0,0.2102078322693246
1105.0,0.2158107946190393
1104.0,0.22177637323390353
1103.0,0.2278984307229881
1102.0,0.23418248469008174
1101.0,0.24078556876575608
1100.0,0.24779784682347894
1099.0,0.2550814575586471
1098.0,0.2624893093265239
1097.0,0.2700257143004443
1096.0,0.27777753603026967
1095.0,0.28567024025476706
1094.0,0.29353826236864533
1093.0,0.3014645074379989
1092.0,0.3098039199714864
1091.0,0.3184874133610378
1090.0,0.32725580169340085
1089.0,0.3358282946380693
1088.0,0.3444774037465823
1087.0,0.3528127021040104
1086.0,0.3607127740897633
1085.0,0.3679478332941901
1084.0,0.374790474618119
1083.0,0.38090666937325723
1082.0,0.3856301604517114
1081.0,0.389020620077003
1080.0,0.39147396642280596
1079.0,0.393511149557352
1078.0,0.3949105381184195
1077.0,0.3958819938079652
1076.0,0.3963144503853002
1075.0,0.3957739469155299
1074.0,0.39426410612325324
1073.0,0.39211625564301
1072.0,0.3899789753358547
1071.0,0.38753403604685777
1070.0,0.3844707763628672
1069.0,0.38080228420705264
1068.0,0.37664731846200805
1067.0,0.37212230542002844
1066.0,0.36693572730850077
1065.0,0.36131111330987653
1064.0,0.35585694949008095
1063.0,0.35047043405218115
1062.0,0.344861565188618
1061.0,0.3390397082239165
1060.0,0.3332948638801012
1059.0,0.3279945549770482
1058.0,0.32312356802686293
1057.0,0.31921138849331765
1056.0,0.3163227011813081
1055.0,0.3143478158844757
1054.0,0.31291715539562936
1053.0,0.31202537996544444
1052.0,0.3118472444084337
1051.0,0.31247103878536575
1050.0,0.31354248953088826
1049.0,0.31524437789137605
1048.0,0.31758413832264143
1047.0,0.3205721033878812
1046.0,0.3239468753481285
1045.0,0.32762502125392046
1044.0,0.3315208970674144
1043.0,0.33517005885690954
1042.0,0.33818731446273875
1041.0,0.3406543642538229
1040.0,0.34313550845108276
1039.0,0.34563090902471405
1038.0,0.34756025241057986
1037.0,0.34852814780095764
1036.0,0.34852814780095764
1035.0,0.34736693191688994
1034.0,0.34534224535047553
1033.0,0.3428484980990334
1032.0,0.3404640928457836
1031.0,0.3386606599939601
1030.0,0.3370533856673754
1029.0,0.33545203775345334
1028.0,0.3340439705460432
1027.0,0.33282732752113153
1026.0,0.3315208970674144
1025.0,0.3298469548078198
1024.0,0.32808698755841315
1023.0,0.326610421811695
1022.0,0.325414397697086
1021.0,0.32440494361325367
1020.0,0.3233063903751334
1019.0,0.3219370950256548
1018.0,0.32020882901964565
1017.0,0.3184874133610378
1016.0,0.31686286851699297
1015.0,0.31506491735911046
1014.0,0.31300643373532155
1013.0,0.3108688027655022
1012.0,0.30883006586839623
1011.0,0.3070649974688622
1010.0,0.30521936398793836
1009.0,0.3032942190660828
1008.0,0.3015514619846711
1007.0,0.29990229538694635
1006.0,0.29808678878765615
1005.0,0.2960211749916142
1004.0,0.2940508050897044
1003.0,0.2923446764688131
1002.0,0.29106946419338375
1001.0,0.2899673009342465
1000.0,0.28878347567891005
999.0,0.2873502983727887
998.0,0.28583795390114686
997.0,0.2844980547067162
996.0,0.2833290244398645
995.0,0.2822463067892844
994.0,0.28100036212128177
993.0,0.2795099315499485
992.0,0.277942228668536
991.0,0.27646223846794316
990.0,0.27506908580760214
989.0,0.27384353382724513
988.0,0.27278417909150754
987.0,0.2719710455794817
986.0,0.2714838952402334
985.0,0.2710783536271406
984.0,0.2706731903531392
983.0,0.2700257143004443
982.0,0.26937920211271726
981.0,0.2688949487840795
980.0,0.26833066817136375
979.0,0.2676062401770314
978.0,0.26648174856551243
977.0,0.26496029496627926
976.0,0.26328486639438897
975.0,0.26145725907121475
974.0,0.2597162803181208
973.0,0.2582970160422602
972.0,0.25743196563385795
971.0,0.2568039185512987
970.0,0.2560984495148211
969.0,0.25515960321462083
968.0,0.2539888922480742
967.0,0.25266589038409504
966.0,0.25134690657573255
965.0,0.2503409679051003
964.0,0.2499546879882324
963.0,0.2500319164905971
962.0,0.2501091587285782
961.0,0.2501091587285782
960.0,0.25018641470706227
959.0,0.25018641470706227
958.0,0.25018641470706227
957.0,0.2501091587285782
956.0,0.2499546879882324
955.0,0.2498002721708179
954.0,0.24956875133979795
953.0,0.24933735386594424
952.0,0.24918315735024543
951.0,0.2490290155626811
950.0,0.24848994972995864
949.0,0.24764419584649922
948.0,0.2465701584245772
947.0,0.24557521072274135
946.0,0.24473510858775338
945.0,0.2440489589958681
944.0,0.24359212745104175
943.0,0.2432878398352285
942.0,0.2429077798810675
941.0,0.24222450898807435
940.0,0.241315150117559
939.0,0.24033215531036944
938.0,0.2395021247734732
937.0,0.23882418684426865
936.0,0.23822246249182188
935.0,0.2376215706880358
934.0,0.23687162320086297
933.0,0.23619777592540725
932.0,0.23567439437401605
931.0,0.23537560214901854
930.0,0.23507701535011138
929.0,0.23462951970835144
928.0,0.23403357521428614
927.0,0.23358715288760057
926.0,0.23358715288760057
925.0,0.23395913961861092
924.0,0.23433144524098592
923.0,0.23433144524098592
922.0,0.23418248469008174
921.0,0.2341080235699846
920.0,0.23425695857895557
919.0,0.23433144524098592
918.0,0.23403357521428614
917.0,0.23358715288760057
916.0,0.2334384473624691
915.0,0.23358715288760057
914.0,0.23388471677858602
913.0,0.23395913961861092
912.0,0.23373590934800448
911.0,0.23314118897858238
910.0,0.23232477597203993
909.0,0.23158391178366822
908.0,0.23099212905622624
907.0,0.23040115161255348
906.0,0.22973726182940668
905.0,0.22892721677880523
904.0,0.22833904065111255
903.0,0.2280452510360509
902.0,0.2278984307229881
901.0,0.22767829327708022
900.0,0.2274582673590566
899.0,0.22753159694671954
898.0,0.22782503917538577
897.0,0.22819212100089437
896.0,0.22819212100089437
895.0,0.2277516600281464
894.0,0.22701854965503632
893.0,0.22628667472297836
892.0,0.22548303427145044
891.0,0.22446236521904295
890.0,0.22322619758789308
889.0,0.221921138062545
888.0,0.22090879615450087
887.0,0.22025924882325953
886.0,0.2196826878598488
885.0,0.21881927906273835
884.0,0.21767073100316314
883.0,0.21645371772965016
882.0,0.21552535623748348
881.0,0.21502629004559926
880.0,0.21495504166845603
879.0,0.2150975501133452
878.0,0.21573941743391623
877.0,0.21716919479740815
876.0,0.2195386671382824
875.0,0.22271820832898515
874.0,0.22650610772902935
873.0,0.23077041826340627
872.0,0.23515164280658918
871.0,0.23927602785804836
870.0,0.24252805223433205
869.0,0.2448114143916751
868.0,0.24626377782498987
867.0,0.24718356881172854
866.0,0.24772101453988138
865.0,0.24787469270210183
864.0,0.24787469270210183
863.0,0.24764419584649922
862.0,0.24756739073852607
861.0,0.24764419584649922
860.0,0.24749059921115713
859.0,0.24680008580058388
858.0,0.24542234395526963
857.0,0.24382048315619098
856.0,0.242376254091611
855.0,0.2412394560900204
854.0,0.2399546720341894
853.0,0.23859844250136897
852.0,0.23717144681090963
851.0,0.2361229685043451
850.0,0.23530093620163206
849.0,0.2347040703019434
848.0,0.23403357521428614
847.0,0.23336411368973242
846.0,0.2327699018892817
845.0,0.2326214758858196
844.0,0.2327699018892817
843.0,0.23291837863667775
842.0,0.2326956825467268
841.0,0.2321023839819094
840.0,0.2312139530919859
839.0,0.2301059641878309
838.0,0.22892721677880523
837.0,0.22782503917538577
836.0,0.22701854965503632
835.0,0.22650610772902935
834.0,0.2261404476233131
833.0,0.2258481410452895
832.0,0.2254100497352054
831.0,0.22489950112097512
830.0,0.2243895519936392
829.0,0.22395292881822026
828.0,0.22358941119265774
827.0,0.22322619758789308
826.0,0.22279074185431513
825.0,0.22235572230351508
824.0,0.22199353857649173
823.0,0.22184874961635637
822.0,0.2216316566441261
821.0,0.22127007600388815
820.0,0.22098102808512943
819.0,0.22098102808512943
818.0,0.22119779598676126
817.0,0.22127007600388815
816.0,0.22105327203138314
815.0,0.2204035087421754
814.0,0.21961067152904712
813.0,0.21917882414652712
812.0,0.21903497039168318
811.0,0.21917882414652712
810.0,0.21917882414652712
809.0,0.21896306137886823
808.0,0.21867554433301217
807.0,0.21817284706757212
806.0,0.21774242633669827
805.0,0.21745571598998992
804.0,0.21759904750347014
803.0,0.21802932608744796
802.0,0.21831641549264935
801.0,0.2181010806488508
800.0,0.2173840679683965
799.0,0.21659671887743648
798.0,0.2160964207272651
797.0,0.21566805197785177
796.0,0.21516882187553077
795.0,0.21445663004340698
794.0,0.21381665443236653
793.0,0.21367456560992992
792.0,0.2137456042102197
791.0,0.21367456560992992
790.0,0.2130357405642671
789.0,0.2119731159041962
788.0,0.2108425080885603
787.0,0.20992605157369537
786.0,0.20950372303289044
785.0,0.20964445358561346
784.0,0.20999647960951062
783.0,0.2101373699536182
782.0,0.20985563495709947
781.0,0.20915209603456808
780.0,0.20837951730718585
779.0,0.2076783636484265
778.0,0.20732821085843267
777.0,0.20774842809673588
776.0,0.20866029603486047
775.0,0.20950372303289044
774.0,0.20985563495709947
773.0,0.20964445358561346
772.0,0.20915209603456808
771.0,0.2085198839799991
770.0,0.20781850385032108
769.0,0.20725821416525125
768.0,0.20704829174986794
767.0,0.20718822875185294
766.0,0.20781850385032108
765.0,0.20866029603486047
764.0,0.20943337485392344
763.0,0.2100669190682496
762.0,0.21077194273266486
761.0,0.2121146490590755
760.0,0.21431433171909875
759.0,0.21731243176503368
758.0,0.22112552799726037
757.0,0.22562904015008334
756.0,0.2304749798289496
755.0,0.23492779889720805
754.0,0.23852322045529828
753.0,0.24101245313238073
752.0,0.24222450898807435
751.0,0.2420728168866706
750.0,0.24101245313238073
749.0,0.23965292147009354
748.0,0.23859844250136897
747.0,0.23754651763645307
746.0,0.23672178898102136
745.0,0.23627259623430175
744.0,0.23672178898102136
743.0,0.23754651763645307
742.0,0.23822246249182188
741.0,0.2386736775785434
740.0,0.23889946104185777
739.0,0.2391253619478111
738.0,0.23927602785804836
737.0,0.23957751657678794
736.0,0.24033215531036944
735.0,0.241315150117559
734.0,0.24199699070020086
733.0,0.24192117775038735
732.0,0.24086118371883347
731.0,0.23889946104185777
730.0,0.23604817396667577
729.0,0.2326956825467268
728.0,0.22914798835785577
727.0,0.22562904015008334
726.0,0.22242819530859004
725.0,0.22011503680735567
724.0,0.21910689131292105
723.0,0.21881927906273835
722.0,0.2186036948032093
721.0,0.21846003139405834
720.0,0.21889116427053357
719.0,0.22011503680735567
718.0,0.22199353857649173
717.0,0.22409842110832567
716.0,0.22621355501880647
715.0,0.22782503917538577
714.0,0.22885365118501477
713.0,0.22951619056889205
712.0,0.2301797422364078
711.0,0.23084430928560118
710.0,0.23150989482875484
709.0,0.23254728190222673
708.0,0.23395913961861092
707.0,0.23500240071511946
706.0,0.23515164280658918
705.0,0.23448045690204733
704.0,0.23395913961861092
703.0,0.23418248469008174
702.0,0.23485320989197467
701.0,0.23530093620163206
700.0,0.23545028093553277
699.0,0.23582386760966934
698.0,0.23694655970038525
697.0,0.23852322045529828
696.0,0.2395021247734732
695.0,0.23942674605560588
694.0,0.23859844250136897
693.0,0.23822246249182188
692.0,0.23882418684426865
691.0,0.23987921473543228
690.0,0.24063437834407142
689.0,0.24093681183951277
688.0,0.24093681183951277
687.0,0.24070996697569602
686.0,0.24018112262517377
685.0,0.23965292147009354
684.0,0.2397283394579368
683.0,0.2404832405378119
682.0,0.2412394560900204
681.0,0.24161805822532467
680.0,0.24176959154225042
679.0,0.24161805822532467
678.0,0.2415423113895343
677.0,0.24161805822532467
676.0,0.24199699070020086
675.0,0.242376254091611
674.0,0.2423003749122612
673.0,0.24184537803260997
672.0,0.2412394560900204
671.0,0.24063437834407142
670.0,0.23957751657678794
669.0,0.2376966367122315
668.0,0.23507701535011138
667.0,0.23358715288760057
666.0,0.23403357521428614
665.0,0.23522628308895954
664.0,0.2363474294354697
663.0,0.2377717157135255
662.0,0.23942674605560588
661.0,0.24086118371883347
660.0,0.24093681183951277
659.0,0.2389747482886273
658.0,0.23545028093553277
657.0,0.2316579413554667
656.0,0.22900079483605928
655.0,0.2277516600281464
654.0,0.2278984307229881
653.0,0.22914798835785577
652.0,0.23084430928560118
651.0,0.2316579413554667
650.0,0.23099212905622624
649.0,0.23003219867055757
648.0,0.2301797422364078
647.0,0.23136189875238555
646.0,0.23225063265442003
645.0,0.23247310059161808
644.0,0.23254728190222673
643.0,0.2326214758858196
642.0,0.2318801058152027
641.0,0.2302535328205466
640.0,0.22892721677880523
639.0,0.22885365118501477
638.0,0.2299584456803314
637.0,0.23150989482875484
636.0,0.23314118897858238
635.0,0.23462951970835144
634.0,0.23559967704361195
633.0,0.23545028093553277
632.0,0.2341080235699846
631.0,0.23150989482875484
630.0,0.22841251911874472
629.0,0.22665245801917688
628.0,0.22753159694671954
627.0,0.2306965398109182
626.0,0.23336411368973242
625.0,0.2334384473624691
624.0,0.23158391178366822
623.0,0.2303273359445075
622.0,0.23113999915704286
621.0,0.2330669061627162
620.0,0.2344059446805551
619.0,0.23448045690204733
618.0,0.2334384473624691
617.0,0.23143589048642665
616.0,0.22870655737094037
615.0,0.22621355501880647
614.0,0.22533707746217768
613.0,0.22635980673997413
612.0,0.22833904065111255
611.0,0.22951619056889205
610.0,0.22958986848609375
609.0,0.22900079483605928
608.0,0.22797183467514515
607.0,0.2259942697417905
606.0,0.22300841514359493
605.0,0.22054781659593825
604.0,0.2206199885083442
603.0,0.22329881601158919
602.0,0.2261404476233131
601.0,0.22621355501880647
600.0,0.22264568691579112
