cm-1,A
4000.0,-0.43546212055982103
3999.0,-0.4354939871982695
3998.0,-0.43547805417132457
3997.0,-0.43539838026736
3996.0,-0.43520710324074763
3995.0,-0.4349997913501733
3994.0,-0.43488812086731565
3993.0,-0.4349359831617168
3992.0,-0.4350316919291437
3991.0,-0.43507953840449387
3990.0,-0.43501574193256065
3989.0,-0.43488812086731565
3988.0,-0.4347285417797577
3987.0,-0.4345848704495938
3986.0,-0.43448906315118974
3985.0,-0.434521001265773
3984.0,-0.43468065661714217
3983.0,-0.4348562097403752
3982.0,-0.43496788842781253
3981.0,-0.4349997913501733
3980.0,-0.43498384018193814
3979.0,-0.4349359831617168
3978.0,-0.4348721655969414
3977.0,-0.43477642166315356
3976.0,-0.4346008362780207
3975.0,-0.4343612872003133
3974.0,-0.4341056224624227
3973.0,-0.4339297656084642
3972.0,-0.43396174487889594
3971.0,-0.43413758878673425
3970.0,-0.4344092075875001
3969.0,-0.4346966189246655
3968.0,-0.43496788842781253
3967.0,-0.4351592708179992
3966.0,-0.43519115968517763
3965.0,-0.43507953840449387
3964.0,-0.43488812086731565
3963.0,-0.43466469372290906
3962.0,-0.4345050325020732
3961.0,-0.4344251798749519
3960.0,-0.4344092075875001
3959.0,-0.4343932347126054
3958.0,-0.4343453125628294
3957.0,-0.4343453125628294
3956.0,-0.43437726125022413
3955.0,-0.4344411515750033
3954.0,-0.43447309321307914
3953.0,-0.4345050325020732
3952.0,-0.4345689040341987
3951.0,-0.4346168015195224
3950.0,-0.4345848704495938
3949.0,-0.4344411515750033
3948.0,-0.43420151437756216
3947.0,-0.43402569635624655
3946.0,-0.43399372179470763
3945.0,-0.43405766856385863
3944.0,-0.4341216059186892
3943.0,-0.4341056224624227
3942.0,-0.43405766856385863
3941.0,-0.43396174487889594
3940.0,-0.4338817922871452
3939.0,-0.4338018249736004
3938.0,-0.4337698339248659
3937.0,-0.4338338136659807
3936.0,-0.43396174487889594
3935.0,-0.4340097093697395
3934.0,-0.4339297656084642
3933.0,-0.4338178196143132
3932.0,-0.43375383751675667
3931.0,-0.4337058447569433
3930.0,-0.4335778381295623
3929.0,-0.43341777677003
3928.0,-0.43338575741793806
3927.0,-0.4334337855608572
3926.0,-0.43338575741793806
3925.0,-0.4332416411126818
3924.0,-0.4332416411126818
3923.0,-0.43338575741793806
3922.0,-0.43349781482372096
3921.0,-0.433449793761596
3920.0,-0.43338575741793806
3919.0,-0.43341777677003
3918.0,-0.4334017673890713
3917.0,-0.43320960877147385
3916.0,-0.433033388650613
3915.0,-0.4331134975697162
3914.0,-0.4333697468565858
3913.0,-0.4335778381295623
3912.0,-0.4336738466370611
3911.0,-0.4337858297437993
3910.0,-0.4338817922871452
3909.0,-0.4339297656084642
3908.0,-0.43396174487889594
3907.0,-0.4340416827542719
3906.0,-0.4340736537850507
3905.0,-0.4339777336311075
3904.0,-0.4337698339248659
3903.0,-0.4336098433237181
3902.0,-0.43352982591549516
3901.0,-0.4333697468565858
3900.0,-0.433033388650613
3899.0,-0.4327448741290496
3898.0,-0.4327609077429142
3897.0,-0.43301736509343547
3896.0,-0.4332576563973487
3895.0,-0.43338575741793806
3894.0,-0.433449793761596
3893.0,-0.43338575741793806
3892.0,-0.433033388650613
3891.0,-0.43253638326425614
3890.0,-0.4325042988610277
3889.0,-0.4331775740674759
3888.0,-0.4338817922871452
3887.0,-0.4338658000023532
3886.0,-0.43330569870812274
3885.0,-0.433033388650613
3884.0,-0.4331935917148453
3883.0,-0.4331615558293218
3882.0,-0.4326326222545829
3881.0,-0.4319745637086605
3880.0,-0.4317014174634197
3879.0,-0.43187817876683976
3878.0,-0.43219937875330494
3877.0,-0.4324722120873221
3876.0,-0.43252034135892936
3875.0,-0.4324882557705063
3874.0,-0.43266469717940526
3873.0,-0.43300134094503795
3872.0,-0.43301736509343547
3871.0,-0.43242407748135436
3870.0,-0.43179784163830615
3869.0,-0.43200668726959846
3868.0,-0.43292121133321215
3867.0,-0.43335373570497193
3866.0,-0.4327609077429142
3865.0,-0.4319745637086605
3864.0,-0.4319424377714558
3863.0,-0.43224753826860063
3862.0,-0.43200668726959846
3861.0,-0.43149242494556095
3860.0,-0.43146026332212273
3859.0,-0.4320388084546214
3858.0,-0.43288915534840955
3857.0,-0.433737840519429
3856.0,-0.43437726125022413
3855.0,-0.4346008362780207
3854.0,-0.434521001265773
3853.0,-0.43479238045132673
3852.0,-0.43530275228461024
3851.0,-0.4353186917440621
3850.0,-0.4345050325020732
3849.0,-0.43320960877147385
3848.0,-0.4321833243946944
3847.0,-0.43166927131374555
3846.0,-0.43137984884193603
3845.0,-0.43109023336461094
3844.0,-0.4309131510046025
3843.0,-0.4309453531684033
3842.0,-0.4311867933179996
3841.0,-0.43146026332212273
3840.0,-0.4315888955279954
3839.0,-0.43157281858565355
3838.0,-0.43154066291542525
3837.0,-0.4314120164207895
3836.0,-0.4313315930058259
3835.0,-0.43146026332212273
3834.0,-0.43165319734657626
3833.0,-0.43166927131374555
3832.0,-0.43147634443155747
3831.0,-0.43125115469515496
3830.0,-0.4311707014832571
3829.0,-0.4311385160249177
3828.0,-0.43100975033369116
3827.0,-0.430816530184321
3826.0,-0.43084873951291547
3825.0,-0.43129941946935135
3824.0,-0.43179784163830615
3823.0,-0.4317817724291242
3822.0,-0.43123506524504984
3821.0,-0.4308970490272577
3820.0,-0.4311867933179996
3819.0,-0.4317014174634197
3818.0,-0.43191030945763265
3817.0,-0.43147634443155747
3816.0,-0.4309614533549482
3815.0,-0.43115460905224445
3814.0,-0.43173356123383666
3813.0,-0.4317496322269334
3812.0,-0.43110632818114514
3811.0,-0.43060711130139895
3810.0,-0.430752104359859
3809.0,-0.43109023336461094
3808.0,-0.4309453531684033
3807.0,-0.4305426544006976
3806.0,-0.4306554476996647
3805.0,-0.4313476788802988
3804.0,-0.4318460456987254
3803.0,-0.4316210476273552
3802.0,-0.43110632818114514
3801.0,-0.43109023336461094
3800.0,-0.43146026332212273
3799.0,-0.43147634443155747
3798.0,-0.4309453531684033
3797.0,-0.430187970343495
3796.0,-0.429816854306579
3795.0,-0.42989755868714763
3794.0,-0.4299298362406301
3793.0,-0.4296554005399318
3792.0,-0.4292676664331685
3791.0,-0.42907366949043846
3790.0,-0.42902515671151864
3789.0,-0.42892811489332017
3788.0,-0.42878251149695457
3787.0,-0.4287339661815657
3786.0,-0.42876633032808176
3785.0,-0.42879869206296295
3784.0,-0.4288310513865681
3783.0,-0.4289442900355742
3782.0,-0.4289928118480266
3781.0,-0.42881487202615265
3780.0,-0.42849115817551864
3779.0,-0.4283454081848852
3778.0,-0.42845877351558004
3777.0,-0.42862067267193904
3776.0,-0.4286044854719555
3775.0,-0.4284749661474083
3774.0,-0.42853973063798856
3773.0,-0.4288634082992564
3772.0,-0.42915451208144706
3771.0,-0.4291383447670887
3770.0,-0.4290574991662477
3769.0,-0.4291706787939735
3768.0,-0.4292838289341252
3767.0,-0.4291221768508535
3766.0,-0.42878251149695457
3765.0,-0.42862067267193904
3764.0,-0.4288472301442545
3763.0,-0.4291868449047129
3762.0,-0.4291221768508535
3761.0,-0.42875014855630056
3760.0,-0.42863685926860917
3759.0,-0.42892811489332017
3758.0,-0.42907366949043846
3757.0,-0.4289442900355742
3756.0,-0.4291221768508535
3755.0,-0.42978456835467016
3754.0,-0.43049430544635836
3753.0,-0.43102584813312195
3752.0,-0.43157281858565355
3751.0,-0.4321191010248553
3750.0,-0.4319424377714558
3749.0,-0.43125115469515496
3748.0,-0.43125115469515496
3747.0,-0.4318460456987254
3746.0,-0.4317014174634197
3745.0,-0.43033310338003217
3744.0,-0.4291221768508535
3743.0,-0.4292515033306934
3742.0,-0.42967154861786394
3741.0,-0.4290413282399559
3740.0,-0.4278105726759902
3739.0,-0.4271126760547097
3738.0,-0.42709643254931606
3737.0,-0.42703145245165564
3736.0,-0.4267551785189245
3735.0,-0.4266413675614449
3734.0,-0.4265112613645754
3733.0,-0.426153268215979
3732.0,-0.4259741609193761
3731.0,-0.4264787287242435
3730.0,-0.42746987955181215
3729.0,-0.42810238278343604
3728.0,-0.4279565022387559
3727.0,-0.42743741864426266
3726.0,-0.42724260223103583
3725.0,-0.42740495531027367
3724.0,-0.4273237863572472
3723.0,-0.4268527070353696
3722.0,-0.42638111617873387
3721.0,-0.42616954703532617
3720.0,-0.426153268215979
3719.0,-0.4262346562115513
3718.0,-0.42641365613168825
3717.0,-0.4267226641457791
3716.0,-0.4271614029259654
3715.0,-0.42746987955181215
3714.0,-0.4274536494013197
3713.0,-0.4273075507460411
3712.0,-0.42740495531027367
3711.0,-0.4276321477056588
3710.0,-0.4274536494013197
3709.0,-0.426933964071905
3708.0,-0.4265275267709141
3707.0,-0.4264461936467363
3706.0,-0.4266413675614449
3705.0,-0.4269014630816632
3704.0,-0.4269827109972466
3703.0,-0.4268364538035079
3702.0,-0.42662510641824714
3701.0,-0.4265112613645754
3700.0,-0.4264949953490338
3699.0,-0.4264949953490338
3698.0,-0.42639738645997216
3697.0,-0.42616954703532617
3696.0,-0.42612070874661523
3695.0,-0.42626720713960653
3694.0,-0.4263648452879276
3693.0,-0.42629975562811007
3692.0,-0.42638111617873387
3691.0,-0.42662510641824714
3690.0,-0.42659258230515595
3689.0,-0.4258764348879325
3688.0,-0.4251427878607661
3687.0,-0.42535485766551506
3686.0,-0.4262021028435803
3685.0,-0.42667388802137296
3684.0,-0.4264787287242435
3683.0,-0.42616954703532617
3682.0,-0.4261369887864239
3681.0,-0.42621837983257826
3680.0,-0.42638111617873387
3679.0,-0.4268527070353696
3678.0,-0.42750233803328497
3677.0,-0.4276483711869328
3676.0,-0.42709643254931606
3675.0,-0.4266413675614449
3674.0,-0.42673892163663396
3673.0,-0.42709643254931606
3672.0,-0.4271289189525853
3671.0,-0.42680394551486645
3670.0,-0.4268852116744015
3669.0,-0.42735625575892255
3668.0,-0.42719388446982
3667.0,-0.42641365613168825
3666.0,-0.4257460992957314
3665.0,-0.42548531070803186
3664.0,-0.42548531070803186
3663.0,-0.4254690062205069
3662.0,-0.4251754207256351
3661.0,-0.42470200402398506
3660.0,-0.4243261683092956
3659.0,-0.4241790135787822
3658.0,-0.4241135954680346
3657.0,-0.4240481675018226
3656.0,-0.4241299509195553
3655.0,-0.42439155441027765
3654.0,-0.4245713154446564
3653.0,-0.42434251575747073
3652.0,-0.423688137388436
3651.0,-0.4232458739368079
3650.0,-0.4235898955356787
3649.0,-0.4241463057551562
3648.0,-0.4239663686802855
3647.0,-0.4235080103454929
3646.0,-0.42349163145458135
3645.0,-0.4237208797347951
3644.0,-0.42385182444069125
3643.0,-0.4238027248025804
3642.0,-0.42367176528951767
3641.0,-0.4235080103454929
3640.0,-0.42322948515656833
3639.0,-0.42285237241616613
3638.0,-0.42254059732272564
3637.0,-0.4224749319312715
3636.0,-0.4224749319312715
3635.0,-0.4223599936000717
3634.0,-0.4223107250017959
3633.0,-0.4226390767975019
3632.0,-0.4231475319772442
3631.0,-0.4232622620986146
3630.0,-0.4229179807676622
3629.0,-0.4228031596473847
3628.0,-0.42322948515656833
3627.0,-0.4234261097131373
3626.0,-0.4230655633300948
3625.0,-0.42227787616418055
3624.0,-0.4214393902200495
3623.0,-0.4208794988754989
3622.0,-0.42053332269349974
3621.0,-0.42020337435329624
3620.0,-0.4200052849590512
3619.0,-0.420104340950183
3618.0,-0.4202363804698881
3617.0,-0.4201373545938254
3616.0,-0.41993923507764164
3615.0,-0.4197740664128746
3614.0,-0.4197245035618189
3613.0,-0.4198896910735681
3612.0,-0.4200548157787636
3611.0,-0.42003830613317783
3610.0,-0.4197905861063629
3609.0,-0.41947660442733925
3608.0,-0.4192120226230758
3607.0,-0.4188479592500616
3606.0,-0.4182184027839648
3605.0,-0.41752151380429625
3604.0,-0.41705629911911046
3603.0,-0.4168567687437319
3602.0,-0.41670706077981867
3601.0,-0.4164241381895839
3600.0,-0.415974411376566
3599.0,-0.4155909430873077
3598.0,-0.4154407980618182
3597.0,-0.4155909430873077
3596.0,-0.41590774555681653
3595.0,-0.4161576896321848
3594.0,-0.4160910519425527
3593.0,-0.41579105574234143
3592.0,-0.4155242183732293
3591.0,-0.41550753559278375
3590.0,-0.41564097989615423
3589.0,-0.415707686674859
3588.0,-0.41540742545013654
3587.0,-0.41448867223695185
3586.0,-0.4130481693178747
3585.0,-0.4119394175240436
3584.0,-0.41170386340597087
3583.0,-0.4120739625375207
3582.0,-0.4125781354312723
3581.0,-0.4129474905873636
3580.0,-0.41311527550750915
3579.0,-0.4131655983458926
3578.0,-0.4131655983458926
3577.0,-0.41314882471431646
3576.0,-0.4131320504348719
3575.0,-0.4130481693178747
3574.0,-0.4128971424684509
3573.0,-0.4126285205443754
3572.0,-0.41227570193583096
3571.0,-0.4118553057189458
3570.0,-0.41140082026007807
3569.0,-0.41094585868777456
3568.0,-0.41069289616325344
3567.0,-0.4107603672445874
3566.0,-0.4108446913583803
3565.0,-0.4106591566913673
3564.0,-0.4103385009107301
3563.0,-0.4100007125434617
3562.0,-0.4096964782179531
3561.0,-0.40952736701224035
3560.0,-0.40952736701224035
3559.0,-0.40973029255844606
3558.0,-0.4100007125434617
3557.0,-0.41020341708945374
3556.0,-0.4102203048650823
3555.0,-0.4100851842691484
3554.0,-0.4097471987414445
3553.0,-0.40920587418957366
3552.0,-0.4085452213154457
3551.0,-0.4080363420455253
3550.0,-0.40786658303077594
3549.0,-0.4079175177029626
3548.0,-0.40783262326363134
3547.0,-0.4072719033789052
3546.0,-0.40621646785326027
3545.0,-0.40495338758624433
3544.0,-0.4040293564250983
3543.0,-0.40380661054742273
3542.0,-0.404234866653423
3541.0,-0.4049875732350263
3540.0,-0.4057560397739559
3539.0,-0.40621646785326027
3538.0,-0.40616533327655313
3537.0,-0.4056877866727775
3536.0,-0.40517554621798935
3535.0,-0.4050388466632242
3534.0,-0.40532928180287575
3533.0,-0.40582428215025956
3532.0,-0.4062335113743232
3531.0,-0.40647205046567647
3530.0,-0.40659127089715197
3529.0,-0.40659127089715197
3528.0,-0.40645501630349257
3527.0,-0.406148287079636
3526.0,-0.4055853869044945
3525.0,-0.4047824189666427
3524.0,-0.4039608313992131
3523.0,-0.40342939552896384
3522.0,-0.4034122416045256
3521.0,-0.40384088658089645
3520.0,-0.40440605092126924
3519.0,-0.40488500821481344
3518.0,-0.4051413753629496
3517.0,-0.40517554621798935
3516.0,-0.4050217561930842
3515.0,-0.40466270087372225
3514.0,-0.4041834982126624
3513.0,-0.40375519142445837
3512.0,-0.40358375036668814
3511.0,-0.40372090862668975
3510.0,-0.4040464859922963
3509.0,-0.404269108905424
3508.0,-0.4043033484577836
3507.0,-0.40416637404879374
3506.0,-0.4038922955594204
3505.0,-0.4033950870025089
3504.0,-0.40260524191991465
3503.0,-0.40169341844075257
3502.0,-0.4010384778327678
3501.0,-0.4008832155483626
3500.0,-0.4011074654794564
3499.0,-0.4012971250215833
3498.0,-0.40127988666716785
3497.0,-0.40114195519372986
3496.0,-0.4011247106789706
3495.0,-0.4012626476284873
3494.0,-0.40143500722987024
3493.0,-0.4016072984535777
3492.0,-0.40181395773984807
3491.0,-0.402072143635273
3490.0,-0.40231297873399985
3489.0,-0.40231297873399985
3488.0,-0.4020549360166763
3487.0,-0.4017106403890809
3486.0,-0.4015383901659435
3485.0,-0.40169341844075257
3484.0,-0.4020893505720968
3483.0,-0.4023301761316658
3482.0,-0.4020377277162517
3481.0,-0.40115919902378927
3480.0,-0.400140639757697
3479.0,-0.3996045056896884
3478.0,-0.3998294166902232
3477.0,-0.400520720878379
3476.0,-0.40119368463002525
3475.0,-0.401555618262893
3474.0,-0.40164174849777146
3473.0,-0.401572845676446
3472.0,-0.4013488359797801
3471.0,-0.4008832155483626
3470.0,-0.4001060704285453
3469.0,-0.3991716568868364
3468.0,-0.3983740861513563
3467.0,-0.39795738010388737
3466.0,-0.3980963265499926
3465.0,-0.39879039275213923
3464.0,-0.39981211997867305
3463.0,-0.40071063677323115
3462.0,-0.4011074654794564
3461.0,-0.40086596075657255
3460.0,-0.400365273349939
3459.0,-0.40007149834749667
3458.0,-0.4002443312381505
3457.0,-0.40076241760693554
3456.0,-0.4013488359797801
3455.0,-0.40174508223706296
3454.0,-0.40183117490894826
3453.0,-0.40169341844075257
3452.0,-0.40146947094308905
3451.0,-0.401366071597677
3450.0,-0.4013833065315806
3449.0,-0.4013833065315806
3448.0,-0.401176442169203
3447.0,-0.4008487052792118
3446.0,-0.4005552572189064
3445.0,-0.4004689112174882
3444.0,-0.40058979081322343
3443.0,-0.40079693473315814
3442.0,-0.40098672990516393
3441.0,-0.4010384778327678
3440.0,-0.40083144911622526
3439.0,-0.4002788895640941
3438.0,-0.3993448481803674
3437.0,-0.3982352285563433
3436.0,-0.39726198028051174
3435.0,-0.39675711821996096
3434.0,-0.396896449142524
3433.0,-0.39750549689801984
3432.0,-0.39816578310636075
3431.0,-0.39849555013813687
3430.0,-0.3984261463054839
3429.0,-0.3982178682348767
3428.0,-0.3982178682348767
3427.0,-0.3986343245383921
3426.0,-0.39929289804391077
3425.0,-0.3999158899163029
3424.0,-0.40033072189744434
3423.0,-0.40058979081322343
3422.0,-0.4006933751232795
3421.0,-0.40064158605651023
3420.0,-0.400451639956946
3419.0,-0.4002443312381505
3418.0,-0.40003692351411324
3417.0,-0.3998294166902232
3416.0,-0.3995006613146104
3415.0,-0.3990677089490724
3414.0,-0.39856494288125877
3413.0,-0.39814842000863093
3412.0,-0.3979400086720375
3411.0,-0.3979921208831958
3410.0,-0.39816578310636075
3409.0,-0.3982699471175497
3408.0,-0.3983567313797538
3407.0,-0.3985128993634226
3406.0,-0.39877305460885903
3405.0,-0.39892907298543445
3404.0,-0.3987383762456109
3403.0,-0.3980442268420141
3402.0,-0.39693127488985835
3401.0,-0.39579800616339256
3400.0,-0.3951690748274208
3399.0,-0.39536134494107733
3398.0,-0.39621678829097196
3397.0,-0.3972097803787795
3396.0,-0.3977836345095138
3395.0,-0.3977836345095138
3394.0,-0.39731417390884527
3393.0,-0.3966700136885106
3392.0,-0.3961295753095948
3391.0,-0.3960248966085933
3390.0,-0.396530610090025
3389.0,-0.39750549689801984
3388.0,-0.3985475957349278
3387.0,-0.3992755799507215
3386.0,-0.3996045056896884
3385.0,-0.3996564185673561
3384.0,-0.3996564185673561
3383.0,-0.3996564185673561
3382.0,-0.3995698936568428
3381.0,-0.39939679210331214
3380.0,-0.3991716568868364
3379.0,-0.39901572564876453
3378.0,-0.39892907298543445
3377.0,-0.39891174037784927
3376.0,-0.39891174037784927
3375.0,-0.39894640490130673
3374.0,-0.39892907298543445
3373.0,-0.39866901121081977
3372.0,-0.3980094902307658
3371.0,-0.39701832704230844
3370.0,-0.3960248966085933
3369.0,-0.39536134494107733
3368.0,-0.3952390010815514
3367.0,-0.39560592931323013
3366.0,-0.3963214207557977
3365.0,-0.3971749769583255
3364.0,-0.39795738010388737
3363.0,-0.39846084960822337
3362.0,-0.39856494288125877
3361.0,-0.39833937591461277
3360.0,-0.3981136917305026
3359.0,-0.3982178682348767
3358.0,-0.3986516682209049
3357.0,-0.3991889791245149
3356.0,-0.3995698936568428
3355.0,-0.3996910237053748
3354.0,-0.3995698936568428
3353.0,-0.3991889791245149
3352.0,-0.39858228933471507
3351.0,-0.3979400086720375
3350.0,-0.397557661270421
3349.0,-0.3977141168044711
3348.0,-0.3983220197558772
3347.0,-0.3990330541068978
3346.0,-0.39948335150445224
3345.0,-0.3995179704348737
3344.0,-0.3992063006713078
3343.0,-0.3987557157733681
3342.0,-0.39833937591461277
3341.0,-0.3980094902307658
3340.0,-0.3976445879699173
3339.0,-0.3972445810103862
3338.0,-0.39694868671633765
3337.0,-0.39701832704230844
3336.0,-0.397557661270421
3335.0,-0.3983740861513563
3334.0,-0.3991716568868364
3333.0,-0.3997602257103656
3332.0,-0.4000887847320356
3331.0,-0.4002443312381505
3330.0,-0.4002616107448631
3329.0,-0.40019248859257583
3328.0,-0.4000196350651586
3327.0,-0.3997256260862314
3326.0,-0.3993794781526292
3325.0,-0.3991543339582164
3324.0,-0.39924094169245583
3323.0,-0.3996045056896884
3322.0,-0.40003692351411324
3321.0,-0.40039982205381985
3320.0,-0.40065884976497346
3319.0,-0.40083144911622526
3318.0,-0.400934975810852
3317.0,-0.4009694792256555
3316.0,-0.400934975810852
3315.0,-0.40086596075657255
3314.0,-0.4007278977371218
3313.0,-0.400451639956946
3312.0,-0.4000196350651586
3311.0,-0.3993794781526292
3310.0,-0.39858228933471507
3309.0,-0.39767935377860564
3308.0,-0.3968616206023148
3307.0,-0.39625166858027683
3306.0,-0.39595509678814356
3305.0,-0.3960946852126166
3304.0,-0.3967222785037734
3303.0,-0.3977488770479587
3302.0,-0.39889440707849566
3301.0,-0.39977752448879933
3300.0,-0.4002097701620615
3299.0,-0.4001233554370809
3298.0,-0.3996564185673561
3297.0,-0.39901572564876453
3296.0,-0.39846084960822337
3295.0,-0.3982005072194279
3294.0,-0.39814842000863093
3293.0,-0.3980963265499926
3292.0,-0.3980268588836866
3291.0,-0.39814842000863093
3290.0,-0.39859963509535223
3289.0,-0.3993275321586789
3288.0,-0.4000196350651586
3287.0,-0.4004861817912042
3286.0,-0.40064158605651023
3285.0,-0.4005552572189064
3284.0,-0.4003479979672955
3283.0,-0.4001752063353896
3282.0,-0.40003692351411324
3281.0,-0.39995047438631115
3280.0,-0.39988130269198585
3279.0,-0.39979482257821664
3278.0,-0.39970832524042077
3277.0,-0.39955258660593485
3276.0,-0.39929289804391077
3275.0,-0.3989637361255203
3274.0,-0.3985475957349278
3273.0,-0.3980094902307658
3272.0,-0.3974011493526106
3271.0,-0.3969138623652726
3270.0,-0.3968442052847423
3269.0,-0.39731417390884527
3268.0,-0.39814842000863093
3267.0,-0.39901572564876453
3266.0,-0.3996045056896884
3265.0,-0.3998467127129226
3264.0,-0.3998467127129226
3263.0,-0.39977752448879933
3262.0,-0.3997602257103656
3261.0,-0.399864008046825
3260.0,-0.40003692351411324
3259.0,-0.40019248859257583
3258.0,-0.4001579233904482
3257.0,-0.3998467127129226
3256.0,-0.3993794781526292
3255.0,-0.3990503818736486
3254.0,-0.39911968602793335
3253.0,-0.3995006613146104
3252.0,-0.3998985966484603
3251.0,-0.40003692351411324
3250.0,-0.39988130269198585
3249.0,-0.39955258660593485
3248.0,-0.3991543339582164
3247.0,-0.39877305460885903
3246.0,-0.3985302478956676
3245.0,-0.3985475957349278
3244.0,-0.3988250669622895
3243.0,-0.3992063006713078
3242.0,-0.3995698936568428
3241.0,-0.3998985966484603
3240.0,-0.4001752063353896
3239.0,-0.40033072189744434
3238.0,-0.4002443312381505
3237.0,-0.39988130269198585
3236.0,-0.3993102154465449
3235.0,-0.3986343245383921
3234.0,-0.3979921208831958
3233.0,-0.39762720402187535
3232.0,-0.3977488770479587
3231.0,-0.39830466290349165
3230.0,-0.3990677089490724
3229.0,-0.39970832524042077
3228.0,-0.40007149834749667
3227.0,-0.40022705104390166
3226.0,-0.4002443312381505
3225.0,-0.40031344514033007
3224.0,-0.40050345167815005
3223.0,-0.40076241760693554
3222.0,-0.40095222786090323
3221.0,-0.40095222786090323
3220.0,-0.40071063677323115
3219.0,-0.40041709537516645
3218.0,-0.4002616107448631
3217.0,-0.40029616769589804
3216.0,-0.400451639956946
3215.0,-0.40053798939194607
3214.0,-0.4004861817912042
3213.0,-0.40041709537516645
3212.0,-0.40050345167815005
3211.0,-0.4007278977371218
3210.0,-0.40095222786090323
3209.0,-0.4010902195951336
3208.0,-0.4011247106789706
3207.0,-0.40114195519372986
3206.0,-0.401176442169203
3205.0,-0.4012626476284873
3204.0,-0.4014005407815442
3203.0,-0.4016072984535777
3202.0,-0.40188282232128225
3201.0,-0.40217537503150513
3200.0,-0.4024505388513644
3199.0,-0.40260524191991465
3198.0,-0.40258805541120024
3197.0,-0.4024505388513644
3196.0,-0.4023301761316658
3195.0,-0.402295780655316
3194.0,-0.40236456888416106
3193.0,-0.40248492207376385
3192.0,-0.40262242774852774
3191.0,-0.4027427095104916
3190.0,-0.4027770696103472
3189.0,-0.40275988990022826
3188.0,-0.40275988990022826
3187.0,-0.4029144828315232
3186.0,-0.403120521175818
3185.0,-0.4032406650844753
3184.0,-0.4032063416448066
3183.0,-0.4031376866263807
3182.0,-0.403120521175818
3181.0,-0.40318917890766626
3180.0,-0.4032921451582543
3179.0,-0.40337793172285963
3178.0,-0.40342939552896384
3177.0,-0.4034637013453173
3176.0,-0.40351515498934454
3175.0,-0.40360089751828054
3174.0,-0.40375519142445837
3173.0,-0.4038922955594204
3172.0,-0.4039950952636806
3171.0,-0.4040636148838921
3170.0,-0.40414924920969497
3169.0,-0.404269108905424
3168.0,-0.4043889355305441
3167.0,-0.40445739304674877
3166.0,-0.40447450573985355
3165.0,-0.40449161775868614
3164.0,-0.404542949770081
3163.0,-0.4046284896419188
3162.0,-0.40464559559469127
3161.0,-0.4046113830153524
3160.0,-0.4045771677406238
3159.0,-0.4046113830153524
3158.0,-0.4047140126688986
3157.0,-0.40479951885765386
3156.0,-0.4047824189666427
3155.0,-0.404542949770081
3154.0,-0.4040464859922963
3153.0,-0.4034637013453173
3152.0,-0.4031376866263807
3151.0,-0.4033093038268687
3150.0,-0.4039608313992131
3149.0,-0.40476531840231456
3148.0,-0.40539759126499675
3147.0,-0.40570485095371334
3146.0,-0.4057560397739559
3145.0,-0.4057389775042499
3144.0,-0.4057901623025062
3143.0,-0.40590957004391814
3142.0,-0.4059266256129468
3141.0,-0.40567072172132645
3140.0,-0.4052609615947822
3139.0,-0.4049875732350263
3138.0,-0.4051072018190909
3137.0,-0.4055683179288443
3136.0,-0.40613124021362346
3135.0,-0.40660829971601853
3134.0,-0.40689768752456423
3133.0,-0.40699977837644585
3132.0,-0.40689768752456423
3131.0,-0.4066593821667528
3130.0,-0.40647205046567647
3129.0,-0.40655721125617283
3128.0,-0.4069317204751268
3127.0,-0.4073399079955098
3126.0,-0.40750987296398433
3125.0,-0.4073739063110038
3124.0,-0.4070678256141429
3123.0,-0.40671045860979005
3122.0,-0.40625055422655354
3121.0,-0.40570485095371334
3120.0,-0.40519263063733435
3119.0,-0.40490210406703664
3118.0,-0.40490210406703664
3117.0,-0.4050559364608417
3116.0,-0.40532928180287575
3115.0,-0.4057560397739559
3114.0,-0.4063868729727278
3113.0,-0.40711885404642345
3112.0,-0.4076797714411935
3111.0,-0.4078835619185899
3110.0,-0.4077477122261737
3109.0,-0.4074928794601025
3108.0,-0.4074418949584606
3107.0,-0.4077646957618266
3106.0,-0.40835870147652464
3105.0,-0.4089857682116942
3104.0,-0.40940894997485966
3103.0,-0.40959501939681564
3102.0,-0.4095104522693158
3101.0,-0.4092397267487846
3100.0,-0.4089688323612073
3099.0,-0.40895189585026026
3098.0,-0.4092905006404548
3097.0,-0.40983171978600685
3096.0,-0.4103385009107301
3095.0,-0.41062541459812474
3094.0,-0.4107097649163154
3093.0,-0.41059166988311935
3092.0,-0.4103216177306823
3091.0,-0.41001760820305266
3090.0,-0.40981481689298116
3089.0,-0.40979791334206306
3088.0,-0.40988242451824375
3087.0,-0.40984862202119166
3086.0,-0.40962884163754776
3085.0,-0.4092735766694493
3084.0,-0.4089857682116942
3083.0,-0.40883332177641796
3082.0,-0.4087655506247332
3081.0,-0.4086638740638109
3080.0,-0.4084943602123601
3079.0,-0.40840957846842985
3078.0,-0.4085791254086675
3077.0,-0.40908736944783497
3076.0,-0.4098655235985871
3075.0,-0.41069289616325344
3074.0,-0.41140082026007807
3073.0,-0.41188895239584866
3072.0,-0.412191655241569
3071.0,-0.41227570193583096
3070.0,-0.41214121941665205
3069.0,-0.4117206929377355
3068.0,-0.4111649737551879
3067.0,-0.41074350045693153
3066.0,-0.41062541459812474
3065.0,-0.4107940988548493
3064.0,-0.41109756550827825
3063.0,-0.41148502012499666
3062.0,-0.41198987678885945
3061.0,-0.4125613390944922
3060.0,-0.41298105275754304
3059.0,-0.413064946837411
3058.0,-0.412846788511962
3057.0,-0.4125781354312723
3056.0,-0.41249414725063493
3055.0,-0.4126453142831643
3054.0,-0.41288035846497406
3053.0,-0.41303139115016974
3052.0,-0.4129978328700541
3051.0,-0.41288035846497406
3050.0,-0.4128635738128281
3049.0,-0.41303139115016974
3048.0,-0.41324945678750247
3047.0,-0.41328299563082016
3046.0,-0.4130481693178747
3045.0,-0.4126621073725816
3044.0,-0.41234292758232627
3043.0,-0.41214121941665205
3042.0,-0.41214121941665205
3041.0,-0.41237653650370953
3040.0,-0.4129474905873636
3039.0,-0.41371876506107874
3038.0,-0.4143548733428668
3037.0,-0.4145722756179451
3036.0,-0.4143548733428668
3035.0,-0.41388625232960363
3034.0,-0.4135679712732889
3033.0,-0.4136182416869927
3032.0,-0.4140369356649165
3031.0,-0.4145889943630401
3030.0,-0.41505685811085113
3029.0,-0.4153406725324058
3028.0,-0.4155409005128554
3027.0,-0.41562430160041286
3026.0,-0.4155242183732293
3025.0,-0.41532398269969173
3024.0,-0.4152238302320552
3023.0,-0.41539073818257366
3022.0,-0.41575771003579076
3021.0,-0.4160410669644343
3020.0,-0.4160743909223945
3019.0,-0.4159244129711648
3018.0,-0.41575771003579076
3017.0,-0.4156076226641474
3016.0,-0.41542411207653496
3015.0,-0.415140352195873
3014.0,-0.41483969833692624
3013.0,-0.414605712464549
3012.0,-0.4145889943630401
3011.0,-0.4148898217695982
3010.0,-0.415557582011711
3009.0,-0.4164574327680963
3008.0,-0.4173886461656746
3007.0,-0.41810233224995885
3006.0,-0.4185001592841009
3005.0,-0.4186161235568169
3004.0,-0.41854986204974187
3003.0,-0.41845045082958343
3002.0,-0.4183841640386121
3001.0,-0.41836759075990226
3000.0,-0.4183344423049835
2999.0,-0.4182184027839648
2998.0,-0.4180691635416598
2997.0,-0.4180691635416598
2996.0,-0.4182847148781357
2995.0,-0.4185167275046813
2994.0,-0.4185001592841009
2993.0,-0.4182515600966932
2992.0,-0.4180359922999477
2991.0,-0.4181354984252321
2990.0,-0.41856642837431934
2989.0,-0.419030029085262
2988.0,-0.4193608697212836
2987.0,-0.4195261955757692
2986.0,-0.41959230829958427
2985.0,-0.41955925319572085
2984.0,-0.41934433367384294
2983.0,-0.4189472795314604
2982.0,-0.4183841640386121
2981.0,-0.4178535051684764
2980.0,-0.4175049075723125
2979.0,-0.41743847629388053
2978.0,-0.41753811940132746
2977.0,-0.4176045354408977
2976.0,-0.41743847629388053
2975.0,-0.41705629911911046
2974.0,-0.4165739436962004
2973.0,-0.4161243720654708
2972.0,-0.4158077276355434
2971.0,-0.4155409005128554
2970.0,-0.41520713590842995
2969.0,-0.4147227211588782
2968.0,-0.4140369356649165
2967.0,-0.4131655983458926
2966.0,-0.41214121941665205
2965.0,-0.4110132904838735
2964.0,-0.4098993247802132
2963.0,-0.4088841432008401
2962.0,-0.40800239555065465
2961.0,-0.4073399079955098
2960.0,-0.40688067004912476
2959.0,-0.4065231489438492
2958.0,-0.40611419267846394
2957.0,-0.4055512482823098
2956.0,-0.4049191992463146
2955.0,-0.4042862290190321
2954.0,-0.4036180439928829
2953.0,-0.4030175142222805
2952.0,-0.4026739811542943
2951.0,-0.4027083466919503
2950.0,-0.40284578165572515
2949.0,-0.40262242774852774
2948.0,-0.4017795213538409
2947.0,-0.40039982205381985
2946.0,-0.3987557157733681
2945.0,-0.39698350827520024
2944.0,-0.39508165117394567
2943.0,-0.3930484664167784
2942.0,-0.39089979717353307
2941.0,-0.3885097153148793
2940.0,-0.38564201652923247
2939.0,-0.38221522304753375
2938.0,-0.3782525060750346
2937.0,-0.3738127812825467
2936.0,-0.36897451565238804
2935.0,-0.36374356434456834
2934.0,-0.3581443245121747
2933.0,-0.35208599750158553
2932.0,-0.3454129427375179
2931.0,-0.3380778150208661
2930.0,-0.3302310877192798
2929.0,-0.32213656409610314
2928.0,-0.31388830211386765
2927.0,-0.305243857506007
2926.0,-0.2957649612297719
2925.0,-0.28519712281096954
2924.0,-0.27344113431281336
2923.0,-0.2604053322398241
2922.0,-0.24600590407602896
2921.0,-0.2302956139170469
2920.0,-0.21338492491638794
2919.0,-0.1958719894593277
2918.0,-0.17903446593200645
2917.0,-0.16485824696255502
2916.0,-0.15560928367891558
2915.0,-0.1527468640264611
2914.0,-0.15667027655412635
2913.0,-0.1664597170934834
2912.0,-0.18021192234894112
2911.0,-0.19559526300552532
2910.0,-0.21074644889832594
2909.0,-0.22466252884102955
2908.0,-0.2368897937018617
2907.0,-0.24733485065745597
2906.0,-0.256067982688279
2905.0,-0.26337565050944267
2904.0,-0.26969969738437305
2903.0,-0.27535743108759814
2902.0,-0.28039623806014236
2901.0,-0.28483663764239653
2900.0,-0.2886962605902559
2899.0,-0.2921009384804192
2898.0,-0.2951711067901037
2897.0,-0.29800111140751806
2896.0,-0.30074761246625936
2895.0,-0.30362797638388983
2894.0,-0.30678946749567837
2893.0,-0.3102045888980056
2892.0,-0.3136774386013239
2891.0,-0.3170181010481117
2890.0,-0.3202086205582444
2889.0,-0.3233139904620663
2888.0,-0.32643827679572857
2887.0,-0.3296012483565187
2886.0,-0.33280190317798297
2885.0,-0.33603924537104346
2884.0,-0.3392526340326998
2883.0,-0.3422844742257487
2882.0,-0.3450991461328954
2881.0,-0.3476812126349009
2880.0,-0.3501316738725384
2879.0,-0.3525298147967262
2878.0,-0.3548380555846391
2877.0,-0.3569241276147723
2876.0,-0.35863905189346434
2875.0,-0.35993029611210225
2874.0,-0.36091513422367916
2873.0,-0.36187886870278874
2872.0,-0.3630852430393352
2871.0,-0.3644759487870144
2870.0,-0.3658061013793614
2869.0,-0.36681504616384775
2868.0,-0.3674677421179733
2867.0,-0.3678216524185376
2866.0,-0.36787750663788055
2865.0,-0.36744910726860436
2864.0,-0.36632955051910576
2863.0,-0.36438212233820755
2862.0,-0.36152008027634874
2861.0,-0.3577252684006318
2860.0,-0.3531080261481505
2859.0,-0.34770071527234725
2858.0,-0.3413157945964729
2857.0,-0.333588321723421
2856.0,-0.3241383526550168
2855.0,-0.3126850063887594
2854.0,-0.2988967219031258
2853.0,-0.28244083582986956
2852.0,-0.2630913798516721
2851.0,-0.24129738710999327
2850.0,-0.21882423867740242
2849.0,-0.19923393053690175
2848.0,-0.1870692712304236
2847.0,-0.18565545892021573
2846.0,-0.19517984243190334
2845.0,-0.2123740712006592
2844.0,-0.23279288414515875
2843.0,-0.2528530309798933
2842.0,-0.27074869022874903
2841.0,-0.28584974049344236
2840.0,-0.29832898807349517
2839.0,-0.3087351100287612
2838.0,-0.3177500288422337
2837.0,-0.3257413721537965
2836.0,-0.3327817198629148
2835.0,-0.3387751249335733
2834.0,-0.34378265466952884
2833.0,-0.34799314978740536
2832.0,-0.3515837442417338
2831.0,-0.35466536243560665
2830.0,-0.35734395709653377
2829.0,-0.35974064786371596
2828.0,-0.3619354924211464
2827.0,-0.364006613705671
2826.0,-0.3659931199344446
2825.0,-0.36780303274900694
2824.0,-0.36938286163519773
2823.0,-0.37069809257557695
2822.0,-0.3718064585074159
2821.0,-0.37285679253522863
2820.0,-0.3739596698754668
2819.0,-0.37513299351716434
2818.0,-0.3762666358701017
2817.0,-0.3772698154390066
2816.0,-0.37812524561937266
2815.0,-0.3789064000232618
2814.0,-0.3796680340336538
2813.0,-0.38039216005702725
2812.0,-0.3810247814098262
2811.0,-0.38151217473202426
2810.0,-0.3819449545206064
2809.0,-0.3824313168357478
2808.0,-0.38307895381208956
2807.0,-0.3838153659804311
2806.0,-0.3845146986856527
2805.0,-0.38506977633193484
2804.0,-0.38549902715205686
2803.0,-0.3858921347124036
2802.0,-0.3862848867678581
2801.0,-0.3866416261356278
2800.0,-0.38694462437057453
2799.0,-0.3872296062005294
2798.0,-0.3875321946343506
2797.0,-0.38788791132382805
2796.0,-0.3883321478572155
2795.0,-0.38877593044871483
2794.0,-0.3892015355283336
2793.0,-0.38953817733194906
2792.0,-0.38983916212527436
2791.0,-0.39010456382543435
2790.0,-0.39033444751185176
2789.0,-0.39061721433678587
2788.0,-0.3909880666159018
2787.0,-0.3915173068494484
2786.0,-0.39218675328706354
2785.0,-0.3928903207033465
2784.0,-0.39350500858996096
2783.0,-0.3939260065858372
2782.0,-0.39415387688205605
2781.0,-0.39425900747610676
2780.0,-0.3943115632312266
2779.0,-0.39439914202559123
2778.0,-0.3945042132717256
2777.0,-0.3946092591035453
2776.0,-0.39469677789188395
2775.0,-0.39483677127915584
2774.0,-0.3951341074778125
2773.0,-0.39553606211843606
2772.0,-0.3959725477949929
2771.0,-0.3963214207557977
2770.0,-0.3965828916833831
2769.0,-0.39677453703002685
2768.0,-0.39696609784476644
2767.0,-0.3971575742021414
2766.0,-0.39733157039112843
2765.0,-0.39745332625925167
2764.0,-0.397557661270421
2763.0,-0.39773149727398405
2762.0,-0.3979921208831958
2761.0,-0.3983220197558772
2760.0,-0.3986343245383921
2759.0,-0.39889440707849566
2758.0,-0.3990850353332247
2757.0,-0.3991543339582164
2756.0,-0.39911968602793335
2755.0,-0.39898106665813104
2754.0,-0.39885973840426114
2753.0,-0.39879039275213923
2752.0,-0.39879039275213923
2751.0,-0.39877305460885903
2750.0,-0.3987210360255329
2749.0,-0.3986516682209049
2748.0,-0.3987036951130789
2747.0,-0.39889440707849566
2746.0,-0.39924094169245583
2745.0,-0.39963911496427373
2744.0,-0.4000023459279558
2743.0,-0.40029616769589804
2742.0,-0.400520720878379
2741.0,-0.40071063677323115
2740.0,-0.40081419226755877
2739.0,-0.4008487052792118
2738.0,-0.40081419226755877
2737.0,-0.40074515801500477
2736.0,-0.4006933751232795
2735.0,-0.40065884976497346
2734.0,-0.4007278977371218
2733.0,-0.4009004696546361
2732.0,-0.40114195519372986
2731.0,-0.4013488359797801
2730.0,-0.40143500722987024
2729.0,-0.40133159967783527
2728.0,-0.4011247106789706
2727.0,-0.40095222786090323
2726.0,-0.4009004696546361
2725.0,-0.40100397989948267
2724.0,-0.4011247106789706
2723.0,-0.40124540790548746
2722.0,-0.4013488359797801
2721.0,-0.40152116138554206
2720.0,-0.4017278616544995
2719.0,-0.4019688876951997
2718.0,-0.4021409672924676
2717.0,-0.4022097800447453
2716.0,-0.40222698152932645
2715.0,-0.4022441823326197
2714.0,-0.40236456888416106
2713.0,-0.40260524191991465
2712.0,-0.4028629579685634
2711.0,-0.4030175142222805
2710.0,-0.4030175142222805
2709.0,-0.4029831731411808
2708.0,-0.4029660015822789
2707.0,-0.4030175142222805
2706.0,-0.4030518525881339
2705.0,-0.40310335504676553
2704.0,-0.40315485139850704
2703.0,-0.40322350370372506
2702.0,-0.4032749858116862
2701.0,-0.40334361913045
2700.0,-0.4034122416045256
2699.0,-0.4034808532373404
2698.0,-0.40351515498934454
2697.0,-0.4035494540323179
2696.0,-0.40365233491132946
2695.0,-0.40380661054742273
2694.0,-0.4039779636693548
2693.0,-0.40411499750559576
2692.0,-0.40420062170135473
2691.0,-0.404234866653423
2690.0,-0.4041834982126624
2689.0,-0.4040293564250983
2688.0,-0.4038751599093997
2687.0,-0.4038237489023073
2686.0,-0.40390943053335926
2685.0,-0.4040293564250983
2684.0,-0.40413212369531326
2683.0,-0.40414924920969497
2682.0,-0.4040978706404883
2681.0,-0.4039779636693548
2680.0,-0.4038580235832425
2679.0,-0.40375519142445837
2678.0,-0.40373805036385546
2677.0,-0.4038237489023073
2676.0,-0.4039950952636806
2675.0,-0.40416637404879374
2674.0,-0.404269108905424
2673.0,-0.4043204672217309
2672.0,-0.40435470272542595
2671.0,-0.40440605092126924
2670.0,-0.40447450573985355
2669.0,-0.40452583977374656
2668.0,-0.40456005909235593
2667.0,-0.40464559559469127
2666.0,-0.4047824189666427
2665.0,-0.40493629375269924
2664.0,-0.4050559364608417
2663.0,-0.40512428892714913
2662.0,-0.4050901140387224
2661.0,-0.40497048074700226
2660.0,-0.4047824189666427
2659.0,-0.4046284896419188
2658.0,-0.40456005909235593
2657.0,-0.4046284896419188
2656.0,-0.4047824189666427
2655.0,-0.40495338758624433
2654.0,-0.40507302558599045
2653.0,-0.4051072018190909
2652.0,-0.40512428892714913
2651.0,-0.4051413753629496
2650.0,-0.4051413753629496
2649.0,-0.40512428892714913
2648.0,-0.4050901140387224
2647.0,-0.4050388466632242
2646.0,-0.4049875732350263
2645.0,-0.4049191992463146
2644.0,-0.40490210406703664
2643.0,-0.4049191992463146
2642.0,-0.40497048074700226
2641.0,-0.40500466505036936
2640.0,-0.4050388466632242
2639.0,-0.40512428892714913
2638.0,-0.40519263063733435
2637.0,-0.40529512304228676
2636.0,-0.4054146669518648
2635.0,-0.40551710697637633
2634.0,-0.4055683179288443
2633.0,-0.4055512482823098
2632.0,-0.4054829629862722
2631.0,-0.4054488163115759
2630.0,-0.40539759126499675
2629.0,-0.40538051490671645
2628.0,-0.4054317419673734
2627.0,-0.4055683179288443
2626.0,-0.4057560397739559
2625.0,-0.4058754568963159
2624.0,-0.40590957004391814
2623.0,-0.4059266256129468
2622.0,-0.40597778830157294
2621.0,-0.40606304605757515
2620.0,-0.4061823788044281
2619.0,-0.40626759641000376
2618.0,-0.40633575845705616
2617.0,-0.4063868729727278
2616.0,-0.40647205046567647
2615.0,-0.4065742414105542
2614.0,-0.4066423553507663
2613.0,-0.40660829971601853
2612.0,-0.4065231489438492
2611.0,-0.40647205046567647
2610.0,-0.40655721125617283
2609.0,-0.4067274827560028
2608.0,-0.40689768752456423
2607.0,-0.40699977837644585
2606.0,-0.40699977837644585
2605.0,-0.4069317204751268
2604.0,-0.406846633097667
2603.0,-0.40682961362154435
2602.0,-0.40688067004912476
2601.0,-0.4070167911854541
2600.0,-0.40711885404642345
2599.0,-0.40711885404642345
2598.0,-0.4070508148042502
2597.0,-0.4070167911854541
2596.0,-0.4070678256141429
2595.0,-0.4071868826308207
2594.0,-0.4072719033789052
2593.0,-0.4072719033789052
2592.0,-0.4072208929273966
2591.0,-0.4072038881120337
2590.0,-0.4072208929273966
2589.0,-0.4072889055313884
2588.0,-0.4073739063110038
2587.0,-0.40745889045739236
2586.0,-0.40747588529125567
2585.0,-0.4074418949584606
2584.0,-0.4074079019651822
2583.0,-0.40745889045739236
2582.0,-0.40756084948636273
2581.0,-0.4076797714411935
2580.0,-0.4077307280263356
2579.0,-0.40771374316226083
2578.0,-0.407645797062556
2577.0,-0.40756084948636273
2576.0,-0.4075268658029536
2575.0,-0.4075948305107455
2574.0,-0.4077646957618266
2573.0,-0.407951470832673
2572.0,-0.40810422707605065
2571.0,-0.4081721014970534
2570.0,-0.4081551338862641
2569.0,-0.40810422707605065
2568.0,-0.4080702858871854
2567.0,-0.4080702858871854
2566.0,-0.40805331429798075
2565.0,-0.4080193691297671
2564.0,-0.40800239555065465
2563.0,-0.40800239555065465
2562.0,-0.40800239555065465
2561.0,-0.4080193691297671
2560.0,-0.40805331429798075
2559.0,-0.40813816561253535
2558.0,-0.4081721014970534
2557.0,-0.4081551338862641
2556.0,-0.40813816561253535
2555.0,-0.40818906844495517
2554.0,-0.408290856214617
2553.0,-0.40837566113607604
2552.0,-0.4084434931521299
2551.0,-0.4084943602123601
2550.0,-0.4085282682762359
2549.0,-0.4085282682762359
2548.0,-0.4085113145752244
2547.0,-0.4085113145752244
2546.0,-0.4085282682762359
2545.0,-0.4085621736929057
2544.0,-0.4086130268553032
2543.0,-0.408697768895788
2542.0,-0.4087655506247332
2541.0,-0.4088163799799345
2540.0,-0.40883332177641796
2539.0,-0.4088163799799345
2538.0,-0.4087824944041438
2537.0,-0.4087316610826246
2536.0,-0.4087316610826246
2535.0,-0.4087994375225268
2534.0,-0.40886720338681926
2533.0,-0.4088841432008401
2532.0,-0.4088502629120292
2531.0,-0.4088163799799345
2530.0,-0.4088163799799345
2529.0,-0.40883332177641796
2528.0,-0.40890108235414324
2527.0,-0.4090365718009088
2526.0,-0.4091381611538636
2525.0,-0.4091889469203842
2524.0,-0.40917201899140343
2523.0,-0.4091381611538636
2522.0,-0.40910430067654246
2521.0,-0.40900270340177247
2520.0,-0.4088502629120292
2519.0,-0.4086808218104676
2518.0,-0.4085960764627825
2517.0,-0.4085960764627825
2516.0,-0.408697768895788
2515.0,-0.4088502629120292
2514.0,-0.4089688323612073
2513.0,-0.4090365718009088
2512.0,-0.40908736944783497
2511.0,-0.40917201899140343
2510.0,-0.40932434660406924
2509.0,-0.4094597040874475
2508.0,-0.40952736701224035
2507.0,-0.4094766208069709
2506.0,-0.40939203061915297
2505.0,-0.4093074239519776
2504.0,-0.4092735766694493
2503.0,-0.4092735766694493
2502.0,-0.40932434660406924
2501.0,-0.40939203061915297
2500.0,-0.40942586867144337
2499.0,-0.40939203061915297
2498.0,-0.4093074239519776
2497.0,-0.4092397267487846
2496.0,-0.4092566520389096
2495.0,-0.40940894997485966
2494.0,-0.40957810728863775
2493.0,-0.40967957006035594
2492.0,-0.40964575177020457
2491.0,-0.4095442810964012
2490.0,-0.4094427867089556
2489.0,-0.40942586867144337
2488.0,-0.4094597040874475
2487.0,-0.4095104522693158
2486.0,-0.4094935368675765
2485.0,-0.4094427867089556
2484.0,-0.40940894997485966
2483.0,-0.4094427867089556
2482.0,-0.4095104522693158
2481.0,-0.4095442810964012
2480.0,-0.4094766208069709
2479.0,-0.40939203061915297
2478.0,-0.40934126859678166
2477.0,-0.40932434660406924
2476.0,-0.40934126859678166
2475.0,-0.40939203061915297
2474.0,-0.4094935368675765
2473.0,-0.40957810728863775
2472.0,-0.40964575177020457
2471.0,-0.40964575177020457
2470.0,-0.40957810728863775
2469.0,-0.4094766208069709
2468.0,-0.40934126859678166
2467.0,-0.4092905006404548
2466.0,-0.4093074239519776
2465.0,-0.40940894997485966
2464.0,-0.4095104522693158
2463.0,-0.40957810728863775
2462.0,-0.40957810728863775
2461.0,-0.40957810728863775
2460.0,-0.40966266124445694
2459.0,-0.4097810091332019
2458.0,-0.40988242451824375
2457.0,-0.40988242451824375
2456.0,-0.40979791334206306
2455.0,-0.40973029255844606
2454.0,-0.4097133857172994
2453.0,-0.40976410426634624
2452.0,-0.40984862202119166
2451.0,-0.4099331233312946
2450.0,-0.40998381622654145
2449.0,-0.4099500216205092
2448.0,-0.40984862202119166
2447.0,-0.40973029255844606
2446.0,-0.4096964782179531
2445.0,-0.4097471987414445
2444.0,-0.4098655235985871
2443.0,-0.41001760820305266
2442.0,-0.4101865286571087
2441.0,-0.4103216177306823
2440.0,-0.4103553834344704
2439.0,-0.41020341708945374
2438.0,-0.4099669192522408
2437.0,-0.40976410426634624
2436.0,-0.4096964782179531
2435.0,-0.4097471987414445
2434.0,-0.40981481689298116
2433.0,-0.40981481689298116
2432.0,-0.4097810091332019
2431.0,-0.4097810091332019
2430.0,-0.40979791334206306
2429.0,-0.4098655235985871
2428.0,-0.4099500216205092
2427.0,-0.41001760820305266
2426.0,-0.41005139755045183
2425.0,-0.41001760820305266
2424.0,-0.40998381622654145
2423.0,-0.40998381622654145
2422.0,-0.41003450320536583
2421.0,-0.4100682912383622
2420.0,-0.41003450320536583
2419.0,-0.4099500216205092
2418.0,-0.40983171978600685
2417.0,-0.4097471987414445
2416.0,-0.40976410426634624
2415.0,-0.40984862202119166
2414.0,-0.40991622438454645
2413.0,-0.40991622438454645
2412.0,-0.40988242451824375
2411.0,-0.40991622438454645
2410.0,-0.4099669192522408
2409.0,-0.4099331233312946
2408.0,-0.40981481689298116
2407.0,-0.4097133857172994
2406.0,-0.4097133857172994
2405.0,-0.40983171978600685
2404.0,-0.41003450320536583
2403.0,-0.41020341708945374
2402.0,-0.4102540784463966
2401.0,-0.4101865286571087
2400.0,-0.4100682912383622
2399.0,-0.4099669192522408
2398.0,-0.4099331233312946
2397.0,-0.40991622438454645
2396.0,-0.4098993247802132
2395.0,-0.4098655235985871
2394.0,-0.4098655235985871
2393.0,-0.4098655235985871
2392.0,-0.40983171978600685
2391.0,-0.40976410426634624
2390.0,-0.40973029255844606
2389.0,-0.40976410426634624
2388.0,-0.4099331233312946
2387.0,-0.4102203048650823
2386.0,-0.41055792254594303
2385.0,-0.4108784164200867
2384.0,-0.4111481226743088
2383.0,-0.41138397832798335
2382.0,-0.4116028725175447
2381.0,-0.41175435004488614
2380.0,-0.4117880045438689
2379.0,-0.4115523682653044
2378.0,-0.4110470024560935
2377.0,-0.4104566647973136
2376.0,-0.41013585941926944
2375.0,-0.41028784940146057
2374.0,-0.410810963677557
2373.0,-0.4112997588691698
2372.0,-0.411501858139224
2371.0,-0.41136713574273376
2370.0,-0.41099643351638226
2369.0,-0.41050729662271657
2368.0,-0.40998381622654145
2367.0,-0.4094935368675765
2366.0,-0.4091381611538636
2365.0,-0.40920587418957366
2364.0,-0.40976410426634624
2363.0,-0.41015274982206806
2362.0,-0.40966266124445694
2361.0,-0.4085621736929057
2360.0,-0.4078835619185899
2359.0,-0.40832478017041485
2358.0,-0.4092397267487846
2357.0,-0.40961193084643543
2356.0,-0.40908736944783497
2355.0,-0.40778167863334724
2354.0,-0.40630167877077517
2353.0,-0.4053122027584193
2352.0,-0.4054829629862722
2351.0,-0.40655721125617283
2350.0,-0.4075948305107455
2349.0,-0.407985421308136
2348.0,-0.40778167863334724
2347.0,-0.40781564238419765
2346.0,-0.4082569296087173
2345.0,-0.4084265361413357
2344.0,-0.4076288088765181
2343.0,-0.4063527972973944
2342.0,-0.4057560397739559
2341.0,-0.40590957004391814
2340.0,-0.40647205046567647
2339.0,-0.40699977837644585
2338.0,-0.40715286967063546
2337.0,-0.4067785511909743
2336.0,-0.40625055422655354
2335.0,-0.40602894496361497
2334.0,-0.40616533327655313
2333.0,-0.4063527972973944
2332.0,-0.40645501630349257
2331.0,-0.4063868729727278
2330.0,-0.40602894496361497
2329.0,-0.4055853869044945
2328.0,-0.4052097143846334
2327.0,-0.40529512304228676
2326.0,-0.4054829629862722
2325.0,-0.4055683179288443
2324.0,-0.40550003531687207
2323.0,-0.40539759126499675
2322.0,-0.4054488163115759
2321.0,-0.4055683179288443
2320.0,-0.4058072225614562
2319.0,-0.40602894496361497
2318.0,-0.40613124021362346
2317.0,-0.4060971444741046
2316.0,-0.40606304605757515
2315.0,-0.406148287079636
2314.0,-0.40626759641000376
2313.0,-0.40630167877077517
2312.0,-0.40625055422655354
2311.0,-0.40630167877077517
2310.0,-0.40645501630349257
2309.0,-0.4066764083152177
2308.0,-0.4067955726682504
2307.0,-0.4068125934784228
2306.0,-0.4067615290465425
2305.0,-0.40674450623490266
2304.0,-0.406846633097667
2303.0,-0.4070508148042502
2302.0,-0.4072038881120337
2301.0,-0.40723789707696145
2300.0,-0.4071868826308207
2299.0,-0.4071868826308207
2298.0,-0.40723789707696145
2297.0,-0.4072549005607802
2296.0,-0.4072549005607802
2295.0,-0.4073059070182823
2294.0,-0.4073399079955098
2293.0,-0.4073739063110038
2292.0,-0.40735690748594733
2291.0,-0.4073399079955098
2290.0,-0.4073059070182823
2289.0,-0.40723789707696145
2288.0,-0.4071698764837053
2287.0,-0.4072038881120337
2286.0,-0.4073399079955098
2285.0,-0.40750987296398433
2284.0,-0.4076118200259322
2283.0,-0.407645797062556
2282.0,-0.4076288088765181
2281.0,-0.4075948305107455
2280.0,-0.40757784033090605
2279.0,-0.4075948305107455
2278.0,-0.40757784033090605
2277.0,-0.4075268658029536
2276.0,-0.4074418949584606
2275.0,-0.4074079019651822
2274.0,-0.4074079019651822
2273.0,-0.4074418949584606
2272.0,-0.4074928794601025
2271.0,-0.4075268658029536
2270.0,-0.4075268658029536
2269.0,-0.40747588529125567
2268.0,-0.40739090447073156
2267.0,-0.4073399079955098
2266.0,-0.40732290783963876
2265.0,-0.4073399079955098
2264.0,-0.4073399079955098
2263.0,-0.40732290783963876
2262.0,-0.4072889055313884
2261.0,-0.4072038881120337
2260.0,-0.40715286967063546
2259.0,-0.40713586219155884
2258.0,-0.4071698764837053
2257.0,-0.4071698764837053
2256.0,-0.4071868826308207
2255.0,-0.4072208929273966
2254.0,-0.40723789707696145
2253.0,-0.4072208929273966
2252.0,-0.40723789707696145
2251.0,-0.4072889055313884
2250.0,-0.4073399079955098
2249.0,-0.4073399079955098
2248.0,-0.4072719033789052
2247.0,-0.4072038881120337
2246.0,-0.40713586219155884
2245.0,-0.4070678256141429
2244.0,-0.40699977837644585
2243.0,-0.4070167911854541
2242.0,-0.4070678256141429
2241.0,-0.40713586219155884
2240.0,-0.4071698764837053
2239.0,-0.4072208929273966
2238.0,-0.4072719033789052
2237.0,-0.4072719033789052
2236.0,-0.4071868826308207
2235.0,-0.40708483575776766
2234.0,-0.40698276490096097
2233.0,-0.4069147043332144
2232.0,-0.406846633097667
2231.0,-0.4068125934784228
2230.0,-0.40682961362154435
2229.0,-0.40688067004912476
2228.0,-0.40689768752456423
2227.0,-0.40686365190684315
2226.0,-0.4067955726682504
2225.0,-0.4066934337962125
2224.0,-0.40660829971601853
2223.0,-0.40655721125617283
2222.0,-0.406540180433955
2221.0,-0.40655721125617283
2220.0,-0.40655721125617283
2219.0,-0.406540180433955
2218.0,-0.4064890839597619
2217.0,-0.40643798147315824
2216.0,-0.40643798147315824
2215.0,-0.4065061167858022
2214.0,-0.40655721125617283
2213.0,-0.406540180433955
2212.0,-0.40643798147315824
2211.0,-0.40630167877077517
2210.0,-0.4061823788044281
2209.0,-0.40613124021362346
2208.0,-0.40611419267846394
2207.0,-0.40613124021362346
2206.0,-0.406148287079636
2205.0,-0.4061823788044281
2204.0,-0.40625055422655354
2203.0,-0.40630167877077517
2202.0,-0.40626759641000376
2201.0,-0.406148287079636
2200.0,-0.40599484119180396
2199.0,-0.4059266256129468
2198.0,-0.40596073474172156
2197.0,-0.40601189341246746
2196.0,-0.40599484119180396
2195.0,-0.40596073474172156
2194.0,-0.4059266256129468
2193.0,-0.4058754568963159
2192.0,-0.40584134106896874
2191.0,-0.40584134106896874
2190.0,-0.40585839931763656
2189.0,-0.40584134106896874
2188.0,-0.4057901623025062
2187.0,-0.4057219145641868
2186.0,-0.40567072172132645
2185.0,-0.4056536560993069
2184.0,-0.40570485095371334
2183.0,-0.40582428215025956
2182.0,-0.4059266256129468
2181.0,-0.405943680512197
2180.0,-0.4058754568963159
2179.0,-0.4057389775042499
2178.0,-0.40561952284335323
2177.0,-0.40550003531687207
2176.0,-0.4054146669518648
2175.0,-0.40539759126499675
2174.0,-0.4054317419673734
2173.0,-0.40551710697637633
2172.0,-0.4056024552093134
2171.0,-0.40561952284335323
2170.0,-0.40551710697637633
2169.0,-0.4053122027584193
2168.0,-0.4050901140387224
2167.0,-0.40495338758624433
2166.0,-0.40493629375269924
2165.0,-0.40500466505036936
2164.0,-0.40512428892714913
2163.0,-0.40527804265442535
2162.0,-0.4054317419673734
2161.0,-0.4055512482823098
2160.0,-0.4055683179288443
2159.0,-0.40550003531687207
2158.0,-0.40539759126499675
2157.0,-0.40527804265442535
2156.0,-0.4051584611265455
2155.0,-0.4050559364608417
2154.0,-0.40500466505036936
2153.0,-0.40500466505036936
2152.0,-0.4050559364608417
2151.0,-0.4051072018190909
2150.0,-0.40507302558599045
2149.0,-0.40497048074700226
2148.0,-0.40488500821481344
2147.0,-0.40486791168959124
2146.0,-0.40486791168959124
2145.0,-0.4047824189666427
2144.0,-0.40466270087372225
2143.0,-0.40459427571493833
2142.0,-0.40459427571493833
2141.0,-0.40459427571493833
2140.0,-0.40456005909235593
2139.0,-0.40449161775868614
2138.0,-0.4044231656375099
2137.0,-0.40433758531092723
2136.0,-0.404269108905424
2135.0,-0.404234866653423
2134.0,-0.404217744514924
2133.0,-0.40416637404879374
2132.0,-0.40411499750559576
2131.0,-0.40414924920969497
2130.0,-0.4042519881169051
2129.0,-0.40435470272542595
2128.0,-0.40440605092126924
2127.0,-0.4043718194652808
2126.0,-0.40433758531092723
2125.0,-0.40435470272542595
2124.0,-0.4043889355305441
2123.0,-0.4043889355305441
2122.0,-0.4043033484577836
2121.0,-0.40413212369531326
2120.0,-0.4039950952636806
2119.0,-0.4039779636693548
2118.0,-0.40408074309993847
2117.0,-0.404217744514924
2116.0,-0.4043718194652808
2115.0,-0.40449161775868614
2114.0,-0.40447450573985355
2113.0,-0.4043033484577836
2112.0,-0.4040464859922963
2111.0,-0.4038237489023073
2110.0,-0.40373805036385546
2109.0,-0.40375519142445837
2108.0,-0.4037894715161885
2107.0,-0.4037894715161885
2106.0,-0.40373805036385546
2105.0,-0.4036180439928829
2104.0,-0.4034808532373404
2103.0,-0.40337793172285963
2102.0,-0.4033607757655244
2101.0,-0.4034122416045256
2100.0,-0.4034808532373404
2099.0,-0.4035494540323179
2098.0,-0.4035494540323179
2097.0,-0.40351515498934454
2096.0,-0.4034808532373404
2095.0,-0.40351515498934454
2094.0,-0.40358375036668814
2093.0,-0.4036180439928829
2092.0,-0.40360089751828054
2091.0,-0.403566602538052
2090.0,-0.40349800445199824
2089.0,-0.4034465487758765
2088.0,-0.4034122416045256
2087.0,-0.4034122416045256
2086.0,-0.4034122416045256
2085.0,-0.40334361913045
2084.0,-0.4032063416448066
2083.0,-0.40310335504676553
2082.0,-0.403069020752977
2081.0,-0.403120521175818
2080.0,-0.4032406650844753
2079.0,-0.4033264618175827
2078.0,-0.4032921451582543
2077.0,-0.40315485139850704
2076.0,-0.40300034402116314
2075.0,-0.402948829344405
2074.0,-0.4028973085564087
2073.0,-0.4027770696103472
2072.0,-0.40260524191991465
2071.0,-0.4024677308028304
2070.0,-0.4024161529066195
2069.0,-0.40243334621931215
2068.0,-0.402502112664219
2067.0,-0.40255368035325123
2066.0,-0.40255368035325123
2065.0,-0.40243334621931215
2064.0,-0.4022613824546801
2063.0,-0.40222698152932645
2062.0,-0.4023473728483684
2061.0,-0.402502112664219
2060.0,-0.40255368035325123
2059.0,-0.4025364918039087
2058.0,-0.402502112664219
2057.0,-0.402502112664219
2056.0,-0.40255368035325123
2055.0,-0.40260524191991465
2054.0,-0.40258805541120024
2053.0,-0.402502112664219
2052.0,-0.4024161529066195
2051.0,-0.40239895891323263
2050.0,-0.4024505388513644
2049.0,-0.40251930257424906
2048.0,-0.4025364918039087
2047.0,-0.40248492207376385
2046.0,-0.40236456888416106
2045.0,-0.4022097800447453
2044.0,-0.4020893505720968
2043.0,-0.4020549360166763
2042.0,-0.4021065568272011
2041.0,-0.4021409672924676
2040.0,-0.4021925778788229
2039.0,-0.402278581895561
2038.0,-0.4023817642390979
2037.0,-0.40243334621931215
2036.0,-0.4023817642390979
2035.0,-0.4022441823326197
2034.0,-0.40212376240063996
2033.0,-0.40202051873394584
2032.0,-0.4019860987234738
2031.0,-0.4020033090697046
2030.0,-0.40202051873394584
2029.0,-0.4020033090697046
2028.0,-0.40191725051757476
2027.0,-0.40183117490894826
2026.0,-0.40181395773984807
2025.0,-0.40183117490894826
2024.0,-0.40184839139551753
2023.0,-0.40186560719961095
2022.0,-0.40191725051757476
2021.0,-0.4020033090697046
2020.0,-0.4021065568272011
2019.0,-0.40212376240063996
2018.0,-0.40202051873394584
2017.0,-0.4017967398881641
2016.0,-0.401572845676446
2015.0,-0.40146947094308905
2014.0,-0.4015383901659435
2013.0,-0.40164174849777146
2012.0,-0.4017278616544995
2011.0,-0.4017795213538409
2010.0,-0.4017795213538409
2009.0,-0.4017967398881641
2008.0,-0.4017967398881641
2007.0,-0.40184839139551753
2006.0,-0.40188282232128225
2005.0,-0.40191725051757476
2004.0,-0.4019516759848276
2003.0,-0.4019860987234738
2002.0,-0.40202051873394584
2001.0,-0.40202051873394584
2000.0,-0.4020033090697046
1999.0,-0.4019516759848276
1998.0,-0.40186560719961095
1997.0,-0.4017278616544995
1996.0,-0.4015900724066559
1995.0,-0.401572845676446
1994.0,-0.40165897249515226
1993.0,-0.4017795213538409
1992.0,-0.40183117490894826
1991.0,-0.4017967398881641
1990.0,-0.4017795213538409
1989.0,-0.40183117490894826
1988.0,-0.40191725051757476
1987.0,-0.4019860987234738
1986.0,-0.4020377277162517
1985.0,-0.402072143635273
1984.0,-0.4021409672924676
1983.0,-0.4022441823326197
1982.0,-0.40236456888416106
1981.0,-0.4024161529066195
1980.0,-0.4024161529066195
1979.0,-0.40236456888416106
1978.0,-0.402278581895561
1977.0,-0.4021925778788229
1976.0,-0.402072143635273
1975.0,-0.4019688876951997
1974.0,-0.40188282232128225
1973.0,-0.40183117490894826
1972.0,-0.40183117490894826
1971.0,-0.40184839139551753
1970.0,-0.40184839139551753
1969.0,-0.40186560719961095
1968.0,-0.40188282232128225
1967.0,-0.40184839139551753
1966.0,-0.40174508223706296
1965.0,-0.40167619580946123
1964.0,-0.4017278616544995
1963.0,-0.40190003676058517
1962.0,-0.4020893505720968
1961.0,-0.40222698152932645
1960.0,-0.4022441823326197
1959.0,-0.40217537503150513
1958.0,-0.4020377277162517
1957.0,-0.40191725051757476
1956.0,-0.40186560719961095
1955.0,-0.40188282232128225
1954.0,-0.40188282232128225
1953.0,-0.40191725051757476
1952.0,-0.4019860987234738
1951.0,-0.4020893505720968
1950.0,-0.4021925778788229
1949.0,-0.4022097800447453
1948.0,-0.4021409672924676
1947.0,-0.40202051873394584
1946.0,-0.40190003676058517
1945.0,-0.40181395773984807
1944.0,-0.4017623021368255
1943.0,-0.4017623021368255
1942.0,-0.4017278616544995
1941.0,-0.4016072984535777
1940.0,-0.4015039319216358
1939.0,-0.4014522394283411
1938.0,-0.4014522394283411
1937.0,-0.40152116138554206
1936.0,-0.40165897249515226
1935.0,-0.40181395773984807
1934.0,-0.4019344635923039
1933.0,-0.4019860987234738
1932.0,-0.4019860987234738
1931.0,-0.4019688876951997
1930.0,-0.4019344635923039
1929.0,-0.40190003676058517
1928.0,-0.40188282232128225
1927.0,-0.40188282232128225
1926.0,-0.40184839139551753
1925.0,-0.4017278616544995
1924.0,-0.401572845676446
1923.0,-0.4015383901659435
1922.0,-0.40152116138554206
1921.0,-0.40143500722987024
1920.0,-0.40133159967783527
1919.0,-0.401366071597677
1918.0,-0.4015900724066559
1917.0,-0.4017967398881641
1916.0,-0.40191725051757476
1915.0,-0.4019860987234738
1914.0,-0.4020033090697046
1913.0,-0.4019688876951997
1912.0,-0.40191725051757476
1911.0,-0.40188282232128225
1910.0,-0.40184839139551753
1909.0,-0.4017795213538409
1908.0,-0.4017106403890809
1907.0,-0.4017106403890809
1906.0,-0.40174508223706296
1905.0,-0.4017106403890809
1904.0,-0.40164174849777146
1903.0,-0.40165897249515226
1902.0,-0.40169341844075257
1901.0,-0.40167619580946123
1900.0,-0.40167619580946123
1899.0,-0.4017623021368255
1898.0,-0.40188282232128225
1897.0,-0.40190003676058517
1896.0,-0.40174508223706296
1895.0,-0.401572845676446
1894.0,-0.40146947094308905
1893.0,-0.4014522394283411
1892.0,-0.40152116138554206
1891.0,-0.40169341844075257
1890.0,-0.40186560719961095
1889.0,-0.40184839139551753
1888.0,-0.4017795213538409
1887.0,-0.40188282232128225
1886.0,-0.4020893505720968
1885.0,-0.4022097800447453
1884.0,-0.4022441823326197
1883.0,-0.402295780655316
1882.0,-0.40236456888416106
1881.0,-0.4023473728483684
1880.0,-0.402278581895561
1879.0,-0.402278581895561
1878.0,-0.4023301761316658
1877.0,-0.40239895891323263
1876.0,-0.40243334621931215
1875.0,-0.40248492207376385
1874.0,-0.40258805541120024
1873.0,-0.40255368035325123
1872.0,-0.4023473728483684
1871.0,-0.4021065568272011
1870.0,-0.4020549360166763
1869.0,-0.402072143635273
1868.0,-0.4019516759848276
1867.0,-0.40184839139551753
1866.0,-0.40186560719961095
1865.0,-0.4019344635923039
1864.0,-0.4020377277162517
1863.0,-0.40217537503150513
1862.0,-0.4022613824546801
1861.0,-0.4021925778788229
1860.0,-0.4021409672924676
1859.0,-0.4022441823326197
1858.0,-0.4024677308028304
1857.0,-0.4026396128970924
1856.0,-0.4026567973656636
1855.0,-0.4026567973656636
1854.0,-0.4026396128970924
1853.0,-0.40258805541120024
1852.0,-0.40257086822233035
1851.0,-0.40255368035325123
1850.0,-0.40255368035325123
1849.0,-0.40255368035325123
1848.0,-0.40251930257424906
1847.0,-0.4024161529066195
1846.0,-0.402278581895561
1845.0,-0.402278581895561
1844.0,-0.4024505388513644
1843.0,-0.4026567973656636
1842.0,-0.4027770696103472
1841.0,-0.4026739811542943
1840.0,-0.402502112664219
1839.0,-0.4024161529066195
1838.0,-0.40243334621931215
1837.0,-0.4023817642390979
1836.0,-0.40236456888416106
1835.0,-0.402502112664219
1834.0,-0.4027427095104916
1833.0,-0.40288013360210684
1832.0,-0.402948829344405
1831.0,-0.403069020752977
1830.0,-0.4031720154922511
1829.0,-0.403069020752977
1828.0,-0.4028114269919487
1827.0,-0.40260524191991465
1826.0,-0.40251930257424906
1825.0,-0.4025364918039087
1824.0,-0.40251930257424906
1823.0,-0.40251930257424906
1822.0,-0.40258805541120024
1821.0,-0.4026739811542943
1820.0,-0.4027427095104916
1819.0,-0.40275988990022826
1818.0,-0.4028286046635383
1817.0,-0.40284578165572515
1816.0,-0.4027770696103472
1815.0,-0.40275988990022826
1814.0,-0.4027942486409031
1813.0,-0.4027427095104916
1812.0,-0.40251930257424906
1811.0,-0.402278581895561
1810.0,-0.40222698152932645
1809.0,-0.4022613824546801
1808.0,-0.4022441823326197
1807.0,-0.402278581895561
1806.0,-0.40243334621931215
1805.0,-0.40251930257424906
1804.0,-0.40248492207376385
1803.0,-0.402502112664219
1802.0,-0.40258805541120024
1801.0,-0.40258805541120024
1800.0,-0.40239895891323263
1799.0,-0.4022441823326197
1798.0,-0.402278581895561
1797.0,-0.4022441823326197
1796.0,-0.40202051873394584
1795.0,-0.4017623021368255
1794.0,-0.40167619580946123
1793.0,-0.40188282232128225
1792.0,-0.4020033090697046
1791.0,-0.40191725051757476
1790.0,-0.40188282232128225
1789.0,-0.40184839139551753
1788.0,-0.40174508223706296
1787.0,-0.4017106403890809
1786.0,-0.40183117490894826
1785.0,-0.4019344635923039
1784.0,-0.40191725051757476
1783.0,-0.40186560719961095
1782.0,-0.4017106403890809
1781.0,-0.4015383901659435
1780.0,-0.4013488359797801
1779.0,-0.40122816749811285
1778.0,-0.40127988666716785
1777.0,-0.4014005407815442
1776.0,-0.40146947094308905
1775.0,-0.401366071597677
1774.0,-0.40122816749811285
1773.0,-0.401366071597677
1772.0,-0.4015039319216358
1771.0,-0.40124540790548746
1770.0,-0.4010557257718439
1769.0,-0.4009694792256555
1768.0,-0.400934975810852
1767.0,-0.4010384778327678
1766.0,-0.40115919902378927
1765.0,-0.40115919902378927
1764.0,-0.40100397989948267
1763.0,-0.400934975810852
1762.0,-0.40102122920866545
1761.0,-0.4010902195951336
1760.0,-0.40100397989948267
1759.0,-0.40081419226755877
1758.0,-0.4006070565806894
1757.0,-0.4005552572189064
1756.0,-0.40058979081322343
1755.0,-0.4004689112174882
1754.0,-0.40019248859257583
1753.0,-0.39995047438631115
1752.0,-0.39995047438631115
1751.0,-0.39995047438631115
1750.0,-0.3996564185673561
1749.0,-0.3990850353332247
1748.0,-0.39846084960822337
1747.0,-0.3979747508409215
1746.0,-0.39781838918958234
1745.0,-0.3979747508409215
1744.0,-0.3980963265499926
1743.0,-0.3979747508409215
1742.0,-0.3977488770479587
1741.0,-0.3976445879699173
1740.0,-0.39762720402187535
1739.0,-0.39759243403811695
1738.0,-0.3974881073814345
1737.0,-0.3972271810431609
1736.0,-0.3969138623652726
1735.0,-0.3970879562030496
1734.0,-0.39750549689801984
1733.0,-0.3974011493526106
1732.0,-0.39731417390884527
1731.0,-0.39696609784476644
1730.0,-0.3963039837621629
1729.0,-0.395745629992168
1728.0,-0.39557099712082033
1727.0,-0.3955535299709032
1726.0,-0.3955011243056261
1725.0,-0.3954137674750182
1724.0,-0.39509913731257074
1723.0,-0.394644268735318
1722.0,-0.39425900747610676
1721.0,-0.3939260065858372
1720.0,-0.39364538660553583
1719.0,-0.39361029635529254
1718.0,-0.39362784183481825
1717.0,-0.3927672786556422
1716.0,-0.39164070349238767
1715.0,-0.3912704083311995
1714.0,-0.391217483239402
1713.0,-0.39111161370280234
1712.0,-0.39100571835170994
1711.0,-0.3910233693700995
1710.0,-0.39111161370280234
1709.0,-0.39125276735055614
1708.0,-0.391429144919444
1707.0,-0.39162307754697645
1706.0,-0.39176406508444117
1705.0,-0.39157019541821647
1704.0,-0.3911998401087744
1703.0,-0.39095276099179443
1702.0,-0.3908821411319856
1701.0,-0.39162307754697645
1700.0,-0.39285516938953524
1699.0,-0.3935401073479632
1698.0,-0.3935752032695876
1697.0,-0.3927321173811298
1696.0,-0.39186977570936143
1695.0,-0.39201068319549925
1694.0,-0.3928200152303849
1693.0,-0.3929781865425408
1692.0,-0.39239794321637156
1691.0,-0.39190500686715657
1690.0,-0.3916583287224751
1689.0,-0.391217483239402
1688.0,-0.3905288694796081
1687.0,-0.3898745583909853
1686.0,-0.38978606231693425
1685.0,-0.3903874803172789
1684.0,-0.390352125833223
1683.0,-0.38946732705536924
1682.0,-0.3894141817616843
1681.0,-0.3893433112520781
1680.0,-0.3890242507636952
1679.0,-0.3887936723235015
1678.0,-0.3886872102012404
1677.0,-0.3886872102012404
1676.0,-0.3889355812352422
1675.0,-0.3892015355283336
1674.0,-0.3891660843645326
1673.0,-0.38909517335418586
1672.0,-0.38884689359951086
1671.0,-0.38863396935178907
1670.0,-0.38840318355263515
1669.0,-0.388030116459972
1668.0,-0.38779900946236756
1667.0,-0.38774565960886376
1666.0,-0.38763894023692913
1665.0,-0.3875677794171888
1664.0,-0.38772787486789984
1663.0,-0.38799456954103206
1662.0,-0.38783457239081054
1661.0,-0.3875499873902335
1660.0,-0.3874788119925401
1659.0,-0.3874432199189335
1658.0,-0.38742542278823144
1657.0,-0.38742542278823144
1656.0,-0.38730082244828523
1655.0,-0.38715837827271304
1654.0,-0.3877812269060379
1653.0,-0.38788791132382805
1652.0,-0.38763894023692913
1651.0,-0.38863396935178907
1650.0,-0.3885097153148793
1649.0,-0.3875677794171888
1648.0,-0.3868555291847242
1647.0,-0.38617780779088573
1646.0,-0.38544539399584155
1645.0,-0.3858206870718863
1644.0,-0.38671293885859637
1643.0,-0.3871761863498824
1642.0,-0.38715837827271304
1641.0,-0.3870515144724931
1640.0,-0.3871049496595065
1639.0,-0.38712275992758505
1638.0,-0.38699807271005504
1637.0,-0.3867664157173136
1636.0,-0.38639193935011074
1635.0,-0.3860171398068468
1634.0,-0.38660596538248493
1633.0,-0.38730082244828523
1632.0,-0.38740762492818304
1631.0,-0.3872830194811421
1630.0,-0.3873186246856637
1629.0,-0.3874788119925401
1628.0,-0.38763894023692913
1627.0,-0.38779900946236756
1626.0,-0.38799456954103206
1625.0,-0.3882611005408898
1624.0,-0.3885097153148793
1623.0,-0.3884919618358005
1622.0,-0.388278863459639
1621.0,-0.38838542571803236
1620.0,-0.3887404445246112
1619.0,-0.3890597135066951
1618.0,-0.3894496126800724
1617.0,-0.3898037629744291
1616.0,-0.3899984226073334
1615.0,-0.39021067910904694
1614.0,-0.39033444751185176
1613.0,-0.39028140822966284
1612.0,-0.3904405066475256
1611.0,-0.3908821411319856
1610.0,-0.3911645516971274
1609.0,-0.39123512565331
1608.0,-0.3913056881429089
1607.0,-0.39148204422504573
1606.0,-0.39164070349238767
1605.0,-0.3918521590586379
1604.0,-0.39218675328706354
1603.0,-0.3924507246560327
1602.0,-0.3925386794696881
1601.0,-0.3926090304975669
1600.0,-0.392802437083664
1599.0,-0.3929957575773537
1598.0,-0.39308360208945636
1597.0,-0.3931363002692172
1596.0,-0.3932241163612975
1595.0,-0.39334702906647934
1594.0,-0.393434802562989
1593.0,-0.3934874581471748
1592.0,-0.3935752032695876
1591.0,-0.39362784183481825
1590.0,-0.39362784183481825
1589.0,-0.39362784183481825
1588.0,-0.39378571926105943
1587.0,-0.3940136631573128
1586.0,-0.3941714004151309
1585.0,-0.39422396677236815
1584.0,-0.39439914202559123
1583.0,-0.3945567393636562
1582.0,-0.39457424664932583
1581.0,-0.3945567393636562
1580.0,-0.394644268735318
1579.0,-0.394644268735318
1578.0,-0.3945917532292702
1577.0,-0.394644268735318
1576.0,-0.3946092591035453
1575.0,-0.3945392313722045
1574.0,-0.39469677789188395
1573.0,-0.3947667802263206
1572.0,-0.3947842790470375
1571.0,-0.39508165117394567
1570.0,-0.3954312402469182
1569.0,-0.3952914383844832
1568.0,-0.395221520573513
1567.0,-0.3953089160785881
1566.0,-0.39534386935682875
1565.0,-0.3953089160785881
1564.0,-0.39534386935682875
1563.0,-0.39532639306935113
1562.0,-0.3953089160785881
1561.0,-0.39567578526993596
1560.0,-0.3971749769583255
1559.0,-0.39731417390884527
1558.0,-0.39427652676782143
1557.0,-0.3946267642722092
1556.0,-0.3956932475035848
1555.0,-0.39588528574766135
1554.0,-0.39588528574766135
1553.0,-0.3961295753095948
1552.0,-0.3962865460684024
1551.0,-0.3961644626038181
1550.0,-0.3959725477949929
1549.0,-0.39588528574766135
1548.0,-0.3960597923124327
1547.0,-0.39640859522404526
1546.0,-0.3968616206023148
1545.0,-0.39726198028051174
1544.0,-0.39729677672968533
1543.0,-0.39707054995940894
1542.0,-0.3972097803787795
1541.0,-0.3975402738424574
1540.0,-0.39726198028051174
1539.0,-0.3974185423513479
1538.0,-0.39880773020326465
1537.0,-0.3995872000180758
1536.0,-0.399362163511666
1535.0,-0.39894640490130673
1534.0,-0.3987557157733681
1533.0,-0.3983220197558772
1532.0,-0.39790526372366886
1531.0,-0.3980094902307658
1530.0,-0.3983740861513563
1529.0,-0.39859963509535223
1528.0,-0.3986516682209049
1527.0,-0.39859963509535223
1526.0,-0.39856494288125877
1525.0,-0.3986343245383921
1524.0,-0.3987210360255329
1523.0,-0.39892907298543445
1522.0,-0.3991889791245149
1521.0,-0.3990330541068978
1520.0,-0.39891174037784927
1519.0,-0.39929289804391077
1518.0,-0.3996218106717362
1517.0,-0.39953527886529683
1516.0,-0.3990330541068978
1515.0,-0.3988770730873177
1514.0,-0.39922362152726976
1513.0,-0.39963911496427373
1512.0,-0.3999158899163029
1511.0,-0.4001060704285453
1510.0,-0.4002097701620615
1509.0,-0.4002788895640941
1508.0,-0.400140639757697
1507.0,-0.39939679210331214
1506.0,-0.3990330541068978
1505.0,-0.40074515801500477
1504.0,-0.4019860987234738
1503.0,-0.4020033090697046
1502.0,-0.40169341844075257
1501.0,-0.4015900724066559
1500.0,-0.4016245238172642
1499.0,-0.40167619580946123
1498.0,-0.40181395773984807
1497.0,-0.40190003676058517
1496.0,-0.4017623021368255
1495.0,-0.40184839139551753
1494.0,-0.40212376240063996
1493.0,-0.40217537503150513
1492.0,-0.4020377277162517
1491.0,-0.40202051873394584
1490.0,-0.40188282232128225
1489.0,-0.4012109264063106
1488.0,-0.40058979081322343
1487.0,-0.4006933751232795
1486.0,-0.4012109264063106
1485.0,-0.4015383901659435
1484.0,-0.40169341844075257
1483.0,-0.40181395773984807
1482.0,-0.4019516759848276
1481.0,-0.4017795213538409
1480.0,-0.40115919902378927
1479.0,-0.40031344514033007
1478.0,-0.39889440707849566
1477.0,-0.39548365434516963
1476.0,-0.3885629713980747
1475.0,-0.37810706250974224
1474.0,-0.3650197428165347
1473.0,-0.3510809094630156
1472.0,-0.3412366232386921
1471.0,-0.339352049045587
1470.0,-0.3411376387409639
1469.0,-0.3420672035310095
1468.0,-0.3414147385018298
1467.0,-0.3396898899664773
1466.0,-0.33611936980868684
1465.0,-0.3289704942369305
1464.0,-0.3195016390564942
1463.0,-0.313170948064998
1462.0,-0.3129808617233798
1461.0,-0.3176873404861831
1460.0,-0.32535143780554643
1459.0,-0.33419229152487384
1458.0,-0.342264726835412
1457.0,-0.34750564947590235
1456.0,-0.3507518178164162
1455.0,-0.3540123456672206
1454.0,-0.35680955819397875
1453.0,-0.35922818354223507
1452.0,-0.36172783601759306
1451.0,-0.36426950383591583
1450.0,-0.3665163438475352
1449.0,-0.3683426793242237
1448.0,-0.36973521535592235
1447.0,-0.37075357810450305
1446.0,-0.3715480926838506
1445.0,-0.37241485620005355
1444.0,-0.37320634014294773
1443.0,-0.37377605137032033
1442.0,-0.3741982579290828
1441.0,-0.3747116951402645
1440.0,-0.3753526392327591
1439.0,-0.3760474520414663
1438.0,-0.3767958738797157
1437.0,-0.3774337517033892
1436.0,-0.37761583055978054
1435.0,-0.3777796362879813
1434.0,-0.37834338357477026
1433.0,-0.37914228664732086
1432.0,-0.3801207542684404
1431.0,-0.38109702235179865
1430.0,-0.381872854498543
1429.0,-0.3824673220158301
1428.0,-0.3830969299490943
1427.0,-0.3838871442603904
1426.0,-0.38465801246227915
1425.0,-0.38540963487833224
1424.0,-0.38587427390419604
1423.0,-0.3860349947406334
1422.0,-0.386338416357511
1421.0,-0.38706932693202045
1420.0,-0.3879590197123459
1419.0,-0.38811897103030546
1418.0,-0.3875499873902335
1417.0,-0.3872474113573241
1416.0,-0.38737202701981044
1415.0,-0.3875677794171888
1414.0,-0.3878523527630433
1413.0,-0.38820780742513783
1412.0,-0.38845645270026674
1411.0,-0.38845645270026674
1410.0,-0.3884386970436928
1409.0,-0.38861622095145565
1408.0,-0.3889355812352422
1407.0,-0.38927242917555294
1406.0,-0.38939646521847493
1405.0,-0.3893078716599163
1404.0,-0.3890597135066951
1403.0,-0.3889710512190825
1402.0,-0.38923698379851634
1401.0,-0.3897683609379796
1400.0,-0.39024604510922156
1399.0,-0.3903167684708406
1398.0,-0.39012225150670066
1397.0,-0.39013993846762274
1396.0,-0.390352125833223
1395.0,-0.39045818065228577
1394.0,-0.3904051564800808
1393.0,-0.3905465398888017
1392.0,-0.3907585287387172
1391.0,-0.3908468268953502
1390.0,-0.3908291687001455
1389.0,-0.39086448437261057
1388.0,-0.3908291687001455
1387.0,-0.39049352650417335
1386.0,-0.39001611461189434
1385.0,-0.3896621375103
1384.0,-0.3893433112520781
1383.0,-0.3887936723235015
1382.0,-0.388030116459972
1381.0,-0.38706932693202045
1380.0,-0.3859992841389688
1379.0,-0.3848728944929207
1378.0,-0.3839768504309329
1377.0,-0.3835820046064846
1376.0,-0.3836538214625582
1375.0,-0.3837794723912622
1374.0,-0.3836717738211126
1373.0,-0.3835460917244742
1372.0,-0.3837256264446429
1371.0,-0.3839947894417328
1370.0,-0.38404860202861846
1369.0,-0.38394097018620776
1368.0,-0.3838153659804311
1367.0,-0.3838692008025446
1366.0,-0.3841203417738823
1365.0,-0.3844788628508353
1364.0,-0.38478337323399225
1363.0,-0.38478337323399225
1362.0,-0.3845505315637179
1361.0,-0.38453261549424855
1360.0,-0.38492659839215504
1359.0,-0.3854275148051305
1358.0,-0.38580282332501925
1357.0,-0.3860349947406334
1356.0,-0.3861242584003115
1355.0,-0.3860885551380502
1354.0,-0.3859099947860969
1353.0,-0.38574922767527875
1352.0,-0.3856956254105608
1351.0,-0.38573136098878447
1350.0,-0.3856956254105608
1349.0,-0.38564201652923247
1348.0,-0.3856598868916219
1347.0,-0.38574922767527875
1346.0,-0.3858206870718863
1345.0,-0.3859278541253368
1344.0,-0.3861064071360758
1343.0,-0.38639193935011074
1342.0,-0.386623796125078
1341.0,-0.3866594554141942
1340.0,-0.3864097788819132
1339.0,-0.3859635706006972
1338.0,-0.38567775651871106
1337.0,-0.38571349356723195
1336.0,-0.3859099947860969
1335.0,-0.38607070240617514
1334.0,-0.3861599587276565
1333.0,-0.3862491967089232
1332.0,-0.3863562580879698
1331.0,-0.3864097788819132
1330.0,-0.3863562580879698
1329.0,-0.3862313505795254
1328.0,-0.38607070240617514
1327.0,-0.3858921347124036
1326.0,-0.38573136098878447
1325.0,-0.38564201652923247
1324.0,-0.3856062735983121
1323.0,-0.3855526536856688
1322.0,-0.3854632724505258
1321.0,-0.3853023398563167
1320.0,-0.38505188167065363
1319.0,-0.38464010082629185
1318.0,-0.3841382748587159
1317.0,-0.38374357583531316
1316.0,-0.3835281341697607
1315.0,-0.38340241049181545
1314.0,-0.38324071226522394
1313.0,-0.3829890619644596
1312.0,-0.3826652971669322
1311.0,-0.3823052751933149
1310.0,-0.3819449545206064
1309.0,-0.38163844672615665
1308.0,-0.38133172245789293
1307.0,-0.3809525284492299
1306.0,-0.3805549221542135
1305.0,-0.3802293369380374
1304.0,-0.3799940401657418
1303.0,-0.37981295586094443
1302.0,-0.3796136758782662
1301.0,-0.37941430441217117
1300.0,-0.3792873839907136
1299.0,-0.3791967038321351
1298.0,-0.37914228664732086
1297.0,-0.3790697197927466
1296.0,-0.3789608467708918
1295.0,-0.3787611753163733
1294.0,-0.3785432471616441
1293.0,-0.3784342420620792
1292.0,-0.37845241147874953
1291.0,-0.37852508154491415
1290.0,-0.3785069151683236
1289.0,-0.37841607188522985
1288.0,-0.37828885935692913
1287.0,-0.37816160955491274
1286.0,-0.37810706250974224
1285.0,-0.3780888786387866
1284.0,-0.3780706940064422
1283.0,-0.37796157021963683
1282.0,-0.3778160291720605
1281.0,-0.37770684136962407
1280.0,-0.37767043933432287
1279.0,-0.3777250412431479
1278.0,-0.377761438702263
1277.0,-0.37779783311122594
1276.0,-0.3777796362879813
1275.0,-0.3777250412431479
1274.0,-0.3776340342475919
1273.0,-0.3775430081774003
1272.0,-0.3774701735821342
1271.0,-0.37736089878111256
1270.0,-0.3772698154390066
1269.0,-0.3772151562630608
1268.0,-0.3772151562630608
1267.0,-0.37719693500891394
1266.0,-0.37714226665907935
1265.0,-0.3770693648196528
1264.0,-0.37701468040810093
1263.0,-0.3769599891100661
1262.0,-0.3769052909238142
1261.0,-0.3768505858476092
1260.0,-0.3767958738797157
1259.0,-0.3767411550183968
1258.0,-0.3767411550183968
1257.0,-0.3768323492908072
1256.0,-0.3769417571467586
1255.0,-0.3769417571467586
1254.0,-0.3768505858476092
1253.0,-0.3767229138657848
1252.0,-0.3766134508577941
1251.0,-0.3765222106041124
1250.0,-0.3764674572495941
1249.0,-0.3764309511778787
1248.0,-0.3764309511778787
1247.0,-0.37641269699121693
1246.0,-0.3763761863159618
1245.0,-0.3763579298272397
1244.0,-0.3763761863159618
1243.0,-0.3763761863159618
1242.0,-0.3763579298272397
1241.0,-0.37633967257103507
1240.0,-0.37633967257103507
1239.0,-0.3763579298272397
1238.0,-0.3764309511778787
1237.0,-0.3765222106041124
1236.0,-0.37657695705651184
1235.0,-0.3765039602529274
1234.0,-0.37644920459731646
1233.0,-0.3765404601883948
1232.0,-0.3767411550183968
1231.0,-0.3769599891100661
1230.0,-0.3770693648196528
1229.0,-0.37712404234645636
1228.0,-0.37710581726905357
1227.0,-0.3769964507406729
1226.0,-0.37677763502529826
1225.0,-0.37657695705651184
1224.0,-0.3764857091347764
1223.0,-0.3764674572495941
1222.0,-0.3765222106041124
1221.0,-0.3765952043404752
1220.0,-0.3766499415927571
1219.0,-0.3766499415927571
1218.0,-0.37663169660853324
1217.0,-0.3767046719469791
1216.0,-0.37692352441802957
1215.0,-0.37716049020698694
1214.0,-0.377397326769886
1213.0,-0.377579420894945
1212.0,-0.37770684136962407
1211.0,-0.3777432403540062
1210.0,-0.37770684136962407
1209.0,-0.37765223717241847
1208.0,-0.37761583055978054
1207.0,-0.377579420894945
1206.0,-0.3775430081774003
1205.0,-0.377579420894945
1204.0,-0.37761583055978054
1203.0,-0.37761583055978054
1202.0,-0.3775430081774003
1201.0,-0.37750659240663387
1200.0,-0.37752480067370175
1199.0,-0.37756121491779293
1198.0,-0.3775430081774003
1197.0,-0.37756121491779293
1196.0,-0.3776340342475919
1195.0,-0.377761438702263
1194.0,-0.37787061278074185
1193.0,-0.3778524190067545
1192.0,-0.3777432403540062
1191.0,-0.377579420894945
1190.0,-0.3774519630245745
1189.0,-0.3774337517033892
1188.0,-0.3774519630245745
1187.0,-0.3774519630245745
1186.0,-0.3774519630245745
1185.0,-0.3774701735821342
1184.0,-0.37752480067370175
1183.0,-0.3775430081774003
1182.0,-0.37750659240663387
1181.0,-0.3774701735821342
1180.0,-0.3774337517033892
1179.0,-0.3773426836408391
1178.0,-0.37723337675274937
1177.0,-0.3772151562630608
1176.0,-0.37730625106819904
1175.0,-0.3774519630245745
1174.0,-0.37752480067370175
1173.0,-0.3775430081774003
1172.0,-0.37752480067370175
1171.0,-0.3774519630245745
1170.0,-0.37737911315743977
1169.0,-0.3773426836408391
1168.0,-0.37737911315743977
1167.0,-0.3774519630245745
1166.0,-0.3775976261089191
1165.0,-0.377761438702263
1164.0,-0.3778342244705488
1163.0,-0.3777432403540062
1162.0,-0.3775430081774003
1161.0,-0.3774337517033892
1160.0,-0.3775430081774003
1159.0,-0.3777796362879813
1158.0,-0.37801613554043767
1157.0,-0.37816160955491274
1156.0,-0.37821614974987794
1155.0,-0.37810706250974224
1154.0,-0.3779433802557839
1153.0,-0.3778524190067545
1152.0,-0.3778524190067545
1151.0,-0.3778342244705488
1150.0,-0.3778160291720605
1149.0,-0.3778342244705488
1148.0,-0.37796157021963683
1147.0,-0.37805250861264517
1146.0,-0.3780706940064422
1145.0,-0.37805250861264517
1144.0,-0.37805250861264517
1143.0,-0.37810706250974224
1142.0,-0.37812524561937266
1141.0,-0.3780706940064422
1140.0,-0.3779797594216543
1139.0,-0.3779433802557839
1138.0,-0.3779797594216543
1137.0,-0.3781434279677418
1136.0,-0.37832520959607185
1135.0,-0.3784342420620792
1134.0,-0.37841607188522985
1133.0,-0.37834338357477026
1132.0,-0.37830703485681294
1131.0,-0.3782525060750346
1130.0,-0.3781434279677418
1129.0,-0.3779797594216543
1128.0,-0.3778160291720605
1127.0,-0.3777250412431479
1126.0,-0.3777432403540062
1125.0,-0.3778524190067545
1124.0,-0.37792518953003196
1123.0,-0.37787061278074185
1122.0,-0.37767043933432287
1121.0,-0.3774337517033892
1120.0,-0.3772515964780432
1119.0,-0.37714226665907935
1118.0,-0.37712404234645636
1117.0,-0.37719693500891394
1116.0,-0.3772880336357036
1115.0,-0.3772880336357036
1114.0,-0.37717871299024397
1113.0,-0.37703290931036415
1112.0,-0.37688705666404854
1111.0,-0.37677763502529826
1110.0,-0.3767046719469791
1109.0,-0.3766864292619152
1108.0,-0.3767046719469791
1107.0,-0.37666818581052963
1106.0,-0.3765404601883948
1105.0,-0.3763579298272397
1104.0,-0.37617532271783327
1103.0,-0.3759926387956076
1102.0,-0.37579159768519244
1101.0,-0.37566361396088555
1100.0,-0.37559046346687675
1099.0,-0.37551730064967126
1098.0,-0.3754075333087856
1097.0,-0.375297738217339
1096.0,-0.37518791536129736
1095.0,-0.3750963750953966
1094.0,-0.3750048155306396
1093.0,-0.374949870524949
1092.0,-0.3748765997024033
1091.0,-0.3747116951402645
1090.0,-0.3744733890639753
1089.0,-0.37427164327597984
1088.0,-0.37423495215257674
1087.0,-0.37436335752502803
1086.0,-0.37452839438124297
1085.0,-0.3746383841201877
1084.0,-0.3746017239689059
1083.0,-0.3744733890639753
1082.0,-0.37434501622460914
1081.0,-0.37434501622460914
1080.0,-0.3744550524099628
1079.0,-0.3745650607227651
1078.0,-0.3745650607227651
1077.0,-0.3744550524099628
1076.0,-0.374253298101757
1075.0,-0.3739963842623264
1074.0,-0.3737944167147318
1073.0,-0.3737576852492466
1072.0,-0.3738495080886488
1071.0,-0.3739413115180614
1070.0,-0.37403309554568764
1069.0,-0.37414321078002555
1068.0,-0.37428998767531096
1067.0,-0.37436335752502803
1066.0,-0.37427164327597984
1065.0,-0.3739963842623264
1064.0,-0.3736107283129311
1063.0,-0.37324311826736345
1062.0,-0.3730040047672736
1061.0,-0.3729856059669614
1060.0,-0.37307759217489744
1059.0,-0.3731511671158896
1058.0,-0.37307759217489744
1057.0,-0.37293040488879337
1056.0,-0.37280157508073675
1055.0,-0.37270953038592536
1054.0,-0.37261746617895763
1053.0,-0.37247012284186853
1052.0,-0.37224901406395583
1051.0,-0.3718802490915545
1050.0,-0.37141885211011205
1049.0,-0.3709199921709194
1048.0,-0.3704945849656873
1047.0,-0.3701243266356573
1046.0,-0.3698278925253282
1045.0,-0.36967959955981566
1044.0,-0.3696425184052594
1043.0,-0.36966105937829763
1042.0,-0.369698138949881
1041.0,-0.369772288596963
1040.0,-0.3698278925253282
1039.0,-0.369772288596963
1038.0,-0.3695312559413111
1037.0,-0.36917873663727496
1036.0,-0.3688445068258215
1035.0,-0.36858437235748465
1034.0,-0.3683798716238016
1033.0,-0.36824968463812224
1032.0,-0.36811945861502915
1031.0,-0.3679519677579779
1030.0,-0.3677471689502072
1029.0,-0.36744910726860436
1028.0,-0.3670389381558685
1027.0,-0.3665350187623715
1026.0,-0.3661052924228607
1025.0,-0.36586221540255526
1024.0,-0.36574998010488846
1023.0,-0.3656564285283892
1022.0,-0.3654318224904203
1021.0,-0.36511343162757726
1020.0,-0.36483230453917415
1019.0,-0.3646822956496716
1018.0,-0.3646822956496716
1017.0,-0.36485105200769263
1016.0,-0.36511343162757726
1015.0,-0.3653569279902298
1014.0,-0.36556285679555955
1013.0,-0.3657686880021931
1012.0,-0.3659931199344446
1011.0,-0.36623612371829317
1010.0,-0.36646031428435055
1009.0,-0.3666657206861559
1008.0,-0.3668523695122641
1007.0,-0.3669643203159181
1006.0,-0.3669829759778507
1005.0,-0.3669643203159181
1004.0,-0.3670016308384412
1003.0,-0.3670948931236584
1002.0,-0.367281357632943
1001.0,-0.3675050094181125
1000.0,-0.3677285460869766
999.0,-0.367858889362906
998.0,-0.3679519677579779
997.0,-0.36806363550624344
996.0,-0.36819387826682437
995.0,-0.3683426793242237
994.0,-0.36843565410180545
993.0,-0.3684914294158106
992.0,-0.36852860897939
991.0,-0.36858437235748465
990.0,-0.36864012857648554
989.0,-0.3687330397040469
988.0,-0.3688816561763337
987.0,-0.3690673552777666
986.0,-0.3693272006954351
985.0,-0.36966105937829763
984.0,-0.3700131875541235
983.0,-0.3703280077795106
982.0,-0.37055009649920745
981.0,-0.37069809257557695
980.0,-0.37079056451926773
979.0,-0.3708460382359764
978.0,-0.37093847868712526
977.0,-0.3710863424947939
976.0,-0.3712156820423611
975.0,-0.37119720732229444
974.0,-0.37106786227173627
973.0,-0.3709199921709194
972.0,-0.3708275477843759
971.0,-0.37086452790036395
970.0,-0.37103089946632606
969.0,-0.37128957306455623
968.0,-0.37152963209929446
967.0,-0.3716034697297532
966.0,-0.37152963209929446
965.0,-0.3714927085759001
964.0,-0.3716219271760215
963.0,-0.3718802490915545
962.0,-0.37213841744643084
961.0,-0.3723043018128882
960.0,-0.3723227294985558
959.0,-0.3722674440956544
958.0,-0.3721937192757343
957.0,-0.372175286115064
956.0,-0.372175286115064
955.0,-0.37221215165406196
954.0,-0.37228587334527674
953.0,-0.37241485620005355
952.0,-0.37252538245155886
951.0,-0.37254380075907045
950.0,-0.37252538245155886
949.0,-0.37254380075907045
948.0,-0.3726358805817207
947.0,-0.3726727070450604
946.0,-0.3725806350309133
945.0,-0.3724885434930245
944.0,-0.37247012284186853
943.0,-0.37247012284186853
942.0,-0.3723964324231117
941.0,-0.3722674440956544
940.0,-0.3722305832501136
939.0,-0.3723043018128882
938.0,-0.3724332791954499
937.0,-0.37247012284186853
936.0,-0.37234115640234533
935.0,-0.37213841744643084
934.0,-0.3719909114649149
933.0,-0.372064670718133
932.0,-0.3723043018128882
931.0,-0.37259905099537693
930.0,-0.3728383874971102
929.0,-0.37293040488879337
928.0,-0.37287519679339054
927.0,-0.37261746617895763
926.0,-0.3722305832501136
925.0,-0.37184335536669666
924.0,-0.3715850114990129
923.0,-0.371437317404101
922.0,-0.3713634515170443
921.0,-0.37141885211011205
920.0,-0.3716034697297532
919.0,-0.3718249073288926
918.0,-0.3719540271401316
917.0,-0.37191713968252227
916.0,-0.3717511073402866
915.0,-0.3715480926838506
914.0,-0.3714742456369282
913.0,-0.3715665524837344
912.0,-0.3717695585131797
911.0,-0.3718802490915545
910.0,-0.37184335536669666
909.0,-0.3717695585131797
908.0,-0.3716588397154088
907.0,-0.3714557819130171
906.0,-0.3711787318162867
905.0,-0.37093847868712526
904.0,-0.37086452790036395
903.0,-0.3709199921709194
902.0,-0.3709199921709194
901.0,-0.37079056451926773
900.0,-0.3705130895985924
899.0,-0.37021692081589075
898.0,-0.3700131875541235
897.0,-0.36997613487242687
896.0,-0.3700131875541235
895.0,-0.3699576073460529
894.0,-0.36967959955981566
893.0,-0.36927153262102674
892.0,-0.3688816561763337
891.0,-0.36852860897939
890.0,-0.36824968463812224
889.0,-0.3681008517093516
888.0,-0.36813806472354704
887.0,-0.368286884902131
886.0,-0.36845424666904947
885.0,-0.36851001959546403
884.0,-0.36851001959546403
883.0,-0.36845424666904947
882.0,-0.3683426793242237
881.0,-0.36819387826682437
880.0,-0.3680078052211746
879.0,-0.36778441228115355
878.0,-0.3675795344259152
877.0,-0.3673931979224756
876.0,-0.36726271478424
875.0,-0.36713219243075423
874.0,-0.3669829759778507
873.0,-0.36681504616384775
872.0,-0.36660971039242973
871.0,-0.36638559695394646
870.0,-0.36621743594609635
869.0,-0.36618005798911435
868.0,-0.36631086676673563
867.0,-0.366441636156833
866.0,-0.366441636156833
865.0,-0.36627349685044486
864.0,-0.3661052924228607
863.0,-0.36603051398319364
862.0,-0.36603051398319364
861.0,-0.3660865990199995
860.0,-0.3661426768148872
859.0,-0.36621743594609635
858.0,-0.36627349685044486
857.0,-0.36621743594609635
856.0,-0.3660118173612865
855.0,-0.3656564285283892
854.0,-0.36524456201757083
853.0,-0.3649072895580341
852.0,-0.36470104959469873
851.0,-0.3646447853299124
850.0,-0.36460727177008057
849.0,-0.3645697549696161
848.0,-0.3645134736915092
847.0,-0.3645697549696161
846.0,-0.3647573065712111
845.0,-0.3649260337899758
844.0,-0.3649635198270196
843.0,-0.3648885445170529
842.0,-0.36485105200769263
841.0,-0.3649260337899758
840.0,-0.3649635198270196
839.0,-0.3648885445170529
838.0,-0.36479480717411006
837.0,-0.3649072895580341
836.0,-0.36528202057218273
835.0,-0.36567514045591754
834.0,-0.3658996207237877
833.0,-0.36595572266567933
832.0,-0.3659370228236174
831.0,-0.3658061013793614
830.0,-0.3656377157946076
829.0,-0.36546926489771137
828.0,-0.3654318224904203
827.0,-0.3655441400294692
826.0,-0.3656938515772623
825.0,-0.3657686880021931
824.0,-0.36567514045591754
823.0,-0.3654505440975746
822.0,-0.36524456201757083
821.0,-0.3651883681270993
820.0,-0.36522583152862387
819.0,-0.36526329169873417
818.0,-0.3651883681270993
817.0,-0.3650197428165347
816.0,-0.36486979866696245
815.0,-0.3647573065712111
814.0,-0.36473855505539854
813.0,-0.3648135562613364
812.0,-0.3649447772129477
811.0,-0.36511343162757726
810.0,-0.36522583152862387
809.0,-0.36524456201757083
808.0,-0.3650572207663254
807.0,-0.3646822956496716
806.0,-0.3642319578445461
805.0,-0.36398782974849153
804.0,-0.3640817414110704
803.0,-0.36441965535023524
802.0,-0.3647198027299181
801.0,-0.3647198027299181
800.0,-0.3644571851188294
799.0,-0.3641380786626014
798.0,-0.3640253968504483
797.0,-0.36425073124597596
796.0,-0.3646260289550405
795.0,-0.3649260337899758
794.0,-0.3650946954821914
793.0,-0.3651696352143827
792.0,-0.36524456201757083
791.0,-0.36526329169873417
790.0,-0.3652071002318231
789.0,-0.36526329169873417
788.0,-0.36552542245670905
787.0,-0.36597442170259864
786.0,-0.36638559695394646
785.0,-0.3665350187623715
784.0,-0.366441636156833
783.0,-0.36619874736972635
782.0,-0.3659370228236174
781.0,-0.3658248068593646
780.0,-0.3658996207237877
779.0,-0.3661239850211335
778.0,-0.3663482334677184
777.0,-0.36647899160859376
776.0,-0.36647899160859376
775.0,-0.3663669156126419
774.0,-0.36619874736972635
773.0,-0.3660865990199995
772.0,-0.36604920980023525
771.0,-0.3661239850211335
770.0,-0.36623612371829317
769.0,-0.36638559695394646
768.0,-0.3665723661831195
767.0,-0.3668523695122641
766.0,-0.3671881353856272
765.0,-0.36743047161961107
764.0,-0.36737455987419665
763.0,-0.36705759061284304
762.0,-0.3666657206861559
761.0,-0.36649766812963236
760.0,-0.3666283812929678
759.0,-0.36683370823900274
758.0,-0.3667963832867298
757.0,-0.3663669156126419
756.0,-0.3657125618924928
755.0,-0.365132166964691
754.0,-0.36485105200769263
753.0,-0.3648885445170529
752.0,-0.3650572207663254
751.0,-0.3651883681270993
750.0,-0.36530074863798756
749.0,-0.36546926489771137
748.0,-0.36574998010488846
747.0,-0.3659931199344446
746.0,-0.3659931199344446
745.0,-0.36574998010488846
744.0,-0.36550670407720887
743.0,-0.3654131000761778
742.0,-0.36526329169873417
741.0,-0.3648885445170529
740.0,-0.3644008892496853
739.0,-0.36421318363155697
738.0,-0.3644571851188294
737.0,-0.36466354089476605
736.0,-0.36406296070307764
735.0,-0.36172783601759306
734.0,-0.356694958541127
733.0,-0.34826591112366234
732.0,-0.33699976436052825
731.0,-0.3253925000172635
730.0,-0.31699717068921185
729.0,-0.3140779917792127
728.0,-0.31590739966625714
727.0,-0.31975129337631936
726.0,-0.32308701626514624
725.0,-0.32467335018924537
724.0,-0.3238294001756694
723.0,-0.31958487311010586
722.0,-0.3106933123433606
721.0,-0.29710365014925655
720.0,-0.28194193344082485
719.0,-0.27123735447083597
718.0,-0.2693728266229267
717.0,-0.2757488844791949
716.0,-0.2865238318155052
715.0,-0.29786989139990183
714.0,-0.30783820415655994
713.0,-0.3159703454569178
712.0,-0.3224053810676537
711.0,-0.32739980723769957
710.0,-0.3312450368208295
709.0,-0.334393428283704
708.0,-0.3370797118009312
707.0,-0.33943156467393276
706.0,-0.34157300187784534
705.0,-0.34354644318825667
704.0,-0.34517761654270407
703.0,-0.3462355816990379
702.0,-0.3468417696422512
701.0,-0.34746662580062226
700.0,-0.34828538752261196
699.0,-0.34910260856303177
698.0,-0.3498600821923312
697.0,-0.3506549786780786
696.0,-0.3515257545478363
695.0,-0.3522790172744976
694.0,-0.35268407977726746
693.0,-0.3528575624069963
692.0,-0.35306950266545334
691.0,-0.3534545838060428
690.0,-0.3538970054181618
689.0,-0.3541852986258607
688.0,-0.3541852986258607
687.0,-0.35403156606428965
686.0,-0.3540507856107671
685.0,-0.3544541997333255
684.0,-0.35502985635704665
683.0,-0.3553940446231709
682.0,-0.35550898802443376
681.0,-0.35566219858541004
680.0,-0.35587277489266445
679.0,-0.3559301870788678
678.0,-0.35573878360203537
677.0,-0.35556644831893225
676.0,-0.355623901012025
675.0,-0.35554729573213306
674.0,-0.3551448961745671
673.0,-0.3549339665591469
672.0,-0.35587277489266445
671.0,-0.35844883882021383
670.0,-0.36242592230863035
669.0,-0.3664042774917
668.0,-0.36627349685044486
667.0,-0.3616711852165597
666.0,-0.3577824362314206
665.0,-0.35614063351812764
664.0,-0.3562362572897677
663.0,-0.35726765464420884
662.0,-0.3582775757952259
661.0,-0.3586770845129741
660.0,-0.35852493404698915
659.0,-0.35822047310867955
658.0,-0.3580491199867475
657.0,-0.3580491199867475
656.0,-0.3580872043014036
655.0,-0.35774432518037536
654.0,-0.3569050348100782
653.0,-0.3560832491472934
652.0,-0.35596845765361085
651.0,-0.35686684668238566
650.0,-0.3586010159430195
649.0,-0.36066913398770595
648.0,-0.3623316518700257
647.0,-0.3629722876920676
646.0,-0.36253901983059844
645.0,-0.36148229582514135
644.0,-0.3603282880720524
643.0,-0.359361102738486
642.0,-0.35888620440586916
641.0,-0.3592091917642981
640.0,-0.36034723097576515
639.0,-0.3617467179758971
638.0,-0.3628593029586802
637.0,-0.36355557434860053
636.0,-0.3640441791828941
635.0,-0.36438212233820755
634.0,-0.36443842063992626
633.0,-0.36438212233820755
632.0,-0.3644759487870144
631.0,-0.36470104959469873
630.0,-0.3648885445170529
629.0,-0.3650572207663254
628.0,-0.3651509014936032
627.0,-0.3649635198270196
626.0,-0.3644008892496853
625.0,-0.363762358869375
624.0,-0.3632922515710817
623.0,-0.36272745027519937
622.0,-0.3616711852165597
621.0,-0.3604229943292485
620.0,-0.3599113350135421
619.0,-0.36087729710203975
618.0,-0.36312288829414996
617.0,-0.3656190022545034
616.0,-0.3671694885346808
615.0,-0.36737455987419665
614.0,-0.3666657206861559
613.0,-0.36588091846588133
612.0,-0.3656190022545034
611.0,-0.3658996207237877
610.0,-0.36659103868916976
609.0,-0.3677285460869766
608.0,-0.3694570651263702
607.0,-0.3714557819130171
606.0,-0.3729856059669614
605.0,-0.3734085812955952
604.0,-0.37287519679339054
603.0,-0.37247012284186853
602.0,-0.373482100188979
601.0,-0.3762848961968812
600.0,-0.37983106768953956
