cm-1,A
4000.0,-0.445277191869633
3999.0,-0.44518371479611174
3998.0,-0.4450902175983549
3997.0,-0.44499670026769556
3996.0,-0.4449031627954616
3995.0,-0.4447940102762318
3994.0,-0.44438834627944823
3993.0,-0.4437791389214203
3992.0,-0.44346639308865354
3991.0,-0.4436853388169726
3990.0,-0.4441228994129194
3989.0,-0.44437273624828677
3988.0,-0.44437273624828677
3987.0,-0.4442790642768468
3986.0,-0.4442009888641594
3985.0,-0.44416975476857257
3984.0,-0.4442009888641594
3983.0,-0.4443259027880533
3982.0,-0.4444195646586371
3981.0,-0.44431029051225757
3980.0,-0.4438729187710404
3979.0,-0.44324733692510154
3978.0,-0.4426051789648011
3977.0,-0.44213470499191043
3976.0,-0.44194637260305125
3975.0,-0.44200915914095207
3974.0,-0.4420876295507603
3973.0,-0.4420405490063053
3972.0,-0.44183647431513284
3971.0,-0.4417265482103958
3970.0,-0.4418678766638018
3969.0,-0.442307271299053
3968.0,-0.4428558901750561
3967.0,-0.4432316858274947
3966.0,-0.4431847291501847
3965.0,-0.44271488292848016
3964.0,-0.44216608578472005
3963.0,-0.4417736628051845
3962.0,-0.44147518401185604
3961.0,-0.4410192152508503
3960.0,-0.4404052601039532
3959.0,-0.440027009696617
3958.0,-0.4401216031878037
3957.0,-0.4403895062458978
3956.0,-0.44046826982214915
3955.0,-0.4401531297735608
3954.0,-0.4393958593429774
3953.0,-0.4381624716729742
3952.0,-0.43657606399906035
3951.0,-0.43507953840449387
3950.0,-0.43418553386197134
3949.0,-0.43402569635624655
3948.0,-0.4339297656084642
3947.0,-0.4329853162053756
3946.0,-0.4314120164207895
3945.0,-0.4307843184667539
3944.0,-0.4321191010248553
3943.0,-0.43448906315118974
3942.0,-0.43578068177259555
3941.0,-0.43517521554427585
3940.0,-0.4344411515750033
3939.0,-0.43558957308660595
3938.0,-0.43775056282038793
3937.0,-0.43843158561449336
3936.0,-0.436750852772652
3935.0,-0.4341216059186892
3934.0,-0.4323277922616042
3933.0,-0.4317174896460134
3932.0,-0.4317014174634197
3931.0,-0.4316049718752146
3930.0,-0.4309614533549482
3929.0,-0.4297361349260327
3928.0,-0.42845877351558004
3927.0,-0.4280051345318103
3926.0,-0.42889576280138764
3925.0,-0.4302202263210724
3924.0,-0.43007505555193903
3923.0,-0.4278592213120662
3922.0,-0.4255016145834687
3921.0,-0.42489796318440076
3920.0,-0.425517917846864
3919.0,-0.4264949953490338
3918.0,-0.42836160504400267
3917.0,-0.4313476788802988
3916.0,-0.4338817922871452
3915.0,-0.4348721655969414
3914.0,-0.4355417827721806
3913.0,-0.4374334437979712
3912.0,-0.43977465961287354
3911.0,-0.4406887318721586
3910.0,-0.4391273424428461
3909.0,-0.4352230462110289
3908.0,-0.4296554005399318
3907.0,-0.4233769619190597
3906.0,-0.4176543408059521
3905.0,-0.41341712510936857
3904.0,-0.4103553834344704
3903.0,-0.4072549005607802
3902.0,-0.40495338758624433
3901.0,-0.4069657507589479
3900.0,-0.41398671369528506
3899.0,-0.42134063830044344
3898.0,-0.4244896151073192
3897.0,-0.4242934715668065
3896.0,-0.4239990900577282
3895.0,-0.42422807069598
3894.0,-0.4238027248025804
3893.0,-0.4238845544491405
3892.0,-0.4263648452879276
3891.0,-0.42853973063798856
3890.0,-0.42470200402398506
3889.0,-0.4169066599324256
3888.0,-0.4144552263777208
3887.0,-0.41980710517149866
3886.0,-0.42659258230515595
3885.0,-0.4271614029259654
3884.0,-0.41946007278607045
3883.0,-0.4111986739555542
3882.0,-0.4116028725175447
3881.0,-0.4192120226230758
3880.0,-0.42548531070803186
3879.0,-0.4239009185284166
3878.0,-0.4168401370737671
3877.0,-0.4136182416869927
3876.0,-0.4170064251187986
3875.0,-0.42064874541655595
3874.0,-0.4180359922999477
3873.0,-0.4088163799799345
3872.0,-0.4005552572189064
3871.0,-0.4017795213538409
3870.0,-0.4100851842691484
3869.0,-0.4135679712732889
3868.0,-0.4072208929273966
3867.0,-0.40181395773984807
3866.0,-0.40606304605757515
3865.0,-0.41371876506107874
3864.0,-0.4173055832445254
3863.0,-0.4171227888780189
3862.0,-0.41649072479432236
3861.0,-0.4171227888780189
3860.0,-0.4176875412097525
3859.0,-0.4161410311683289
3858.0,-0.41161970596323005
3857.0,-0.40414924920969497
3856.0,-0.395640858696118
3855.0,-0.3903874803172789
3854.0,-0.39471427953334226
3853.0,-0.40739090447073156
3852.0,-0.41200669524106015
3851.0,-0.4066764083152177
3850.0,-0.41145134213793755
3849.0,-0.42463666465019756
3848.0,-0.43191030945763265
3847.0,-0.4307198878632823
3846.0,-0.4262021028435803
3845.0,-0.4217355113222552
3844.0,-0.41705629911911046
3843.0,-0.41077723337720995
3842.0,-0.40248492207376385
3841.0,-0.3945217226749129
3840.0,-0.3907761898062825
3839.0,-0.39262661647403885
3838.0,-0.39727937885359266
3837.0,-0.40022705104390166
3836.0,-0.4004861817912042
3835.0,-0.4017795213538409
3834.0,-0.4069657507589479
3833.0,-0.4144050527588834
3832.0,-0.42038487696040727
3831.0,-0.4221464559621251
3830.0,-0.4201208480857028
3829.0,-0.4181686620678664
3828.0,-0.4192781831871528
3827.0,-0.42165327571164335
3826.0,-0.4200052849590512
3825.0,-0.4116028725175447
3824.0,-0.40124540790548746
3823.0,-0.3965654651848993
3822.0,-0.39981211997867305
3821.0,-0.4057219145641868
3820.0,-0.4037723318085513
3819.0,-0.39296061479679567
3818.0,-0.3904758539378155
3817.0,-0.4034637013453173
3816.0,-0.41980710517149866
3815.0,-0.4267876904579957
3814.0,-0.4237208797347951
3813.0,-0.4221135946968322
3812.0,-0.42703145245165564
3811.0,-0.430187970343495
3810.0,-0.4265112613645754
3809.0,-0.4210607191918787
3808.0,-0.4200713247967611
3807.0,-0.4220478647058781
3806.0,-0.4184670209466006
3805.0,-0.4069317204751268
3804.0,-0.3982178682348767
3803.0,-0.4005552572189064
3802.0,-0.40967957006035594
3801.0,-0.41564097989615423
3800.0,-0.41028784940146057
3799.0,-0.40098672990516393
3798.0,-0.40360089751828054
3797.0,-0.41572436176871586
3796.0,-0.4249632632607412
3795.0,-0.42646246149015976
3794.0,-0.42463666465019756
3793.0,-0.42581127198118907
3792.0,-0.4302040986317488
3791.0,-0.43372184293283933
3790.0,-0.43429738512450866
3789.0,-0.43268073375352234
3788.0,-0.430107319916718
3787.0,-0.427843005705534
3786.0,-0.42699895875653704
3785.0,-0.42709643254931606
3784.0,-0.42568091682862397
3783.0,-0.421636826720754
3782.0,-0.41767094132511007
3781.0,-0.4173221970997294
3780.0,-0.42064874541655595
3779.0,-0.42435886259032873
3778.0,-0.42519173623860373
3777.0,-0.42408088271704747
3776.0,-0.4250122318754439
3775.0,-0.42776191858979873
3774.0,-0.4280699691190626
3773.0,-0.4245222970866327
3772.0,-0.4206982029088069
3771.0,-0.4199062063695944
3770.0,-0.4206982029088069
3769.0,-0.4188976222299976
3768.0,-0.414655862908059
3767.0,-0.41373551669487396
3766.0,-0.4184670209466006
3765.0,-0.42322948515656833
3764.0,-0.42227787616418055
3763.0,-0.4171227888780189
3762.0,-0.4136182416869927
3761.0,-0.4134674129858249
3760.0,-0.41378576771973785
3759.0,-0.4128635738128281
3758.0,-0.4106085425683679
3757.0,-0.4065742414105542
3756.0,-0.40102122920866545
3755.0,-0.39532639306935113
3754.0,-0.3904228319234768
3753.0,-0.3859099947860969
3752.0,-0.3829171350875309
3751.0,-0.3853202242009113
3750.0,-0.39125276735055614
3749.0,-0.39081150978693824
3748.0,-0.3836538214625582
3747.0,-0.3807718434400069
3746.0,-0.3884386970436928
3745.0,-0.4031720154922511
3744.0,-0.4141540976802074
3743.0,-0.4099331233312946
3742.0,-0.3988250669622895
3741.0,-0.3994141053637703
3740.0,-0.4054658899845247
3739.0,-0.4028629579685634
3738.0,-0.3926969532596658
3737.0,-0.3837256264446429
3736.0,-0.38039216005702725
3735.0,-0.3809886564321059
3734.0,-0.38295310001504124
3733.0,-0.38742542278823144
3732.0,-0.3951690748274208
3731.0,-0.4017623021368255
3730.0,-0.404679805479065
3729.0,-0.4070678256141429
3728.0,-0.41091213886308253
3727.0,-0.41388625232960363
3726.0,-0.41328299563082016
3725.0,-0.40966266124445694
3724.0,-0.4066593821667528
3723.0,-0.40698276490096097
3722.0,-0.40932434660406924
3721.0,-0.41133344861256615
3720.0,-0.4129978328700541
3719.0,-0.41549085217146864
3718.0,-0.4180691635416598
3717.0,-0.4179530531094464
3716.0,-0.4138025167693513
3715.0,-0.4074928794601025
3714.0,-0.4017106403890809
3713.0,-0.3978531410886088
3712.0,-0.39747071716853055
3711.0,-0.401366071597677
3710.0,-0.4061823788044281
3709.0,-0.4093074239519776
3708.0,-0.4125781354312723
3707.0,-0.41649072479432236
3706.0,-0.41912930774197577
3705.0,-0.41962536088774316
3704.0,-0.4193277969967575
3703.0,-0.4198731751494762
3702.0,-0.42155457241987726
3701.0,-0.4224092566096984
3700.0,-0.420731171441572
3699.0,-0.41906312449254823
3698.0,-0.4209124536489641
3697.0,-0.42468567010210334
3696.0,-0.42566461968312064
3695.0,-0.4218670559187183
3694.0,-0.4153072922255676
3693.0,-0.4082399653118496
3692.0,-0.40115919902378927
3691.0,-0.39592019267063217
3690.0,-0.39660031748263913
3689.0,-0.4035494540323179
3688.0,-0.40964575177020457
3687.0,-0.41091213886308253
3686.0,-0.41326622653292056
3685.0,-0.42056630374469295
3684.0,-0.4278267894935235
3683.0,-0.4292999908336079
3682.0,-0.42538747459995774
3681.0,-0.41957578106213944
3680.0,-0.41272927323753184
3679.0,-0.4028114269919487
3678.0,-0.391429144919444
3677.0,-0.38567775651871106
3676.0,-0.39072320444882
3675.0,-0.39879039275213923
3674.0,-0.39408377567825514
3673.0,-0.38288116718143517
3672.0,-0.3847654667676279
3671.0,-0.3979226365453168
3670.0,-0.4110470024560935
3669.0,-0.4175049075723125
3668.0,-0.415857739475443
3667.0,-0.41505685811085113
3666.0,-0.4212583278777604
3665.0,-0.42881487202615265
3664.0,-0.43260054496068356
3663.0,-0.4329853162053756
3662.0,-0.43173356123383666
3661.0,-0.42908983921257304
3660.0,-0.42463666465019756
3659.0,-0.41975754609098637
3658.0,-0.41745508506616025
3657.0,-0.419030029085262
3656.0,-0.4209124536489641
3655.0,-0.4168401370737671
3654.0,-0.40703380332803807
3653.0,-0.39816578310636075
3652.0,-0.3916054508861828
3651.0,-0.38431756499126424
3650.0,-0.3786885447481123
3649.0,-0.380464506297725
3648.0,-0.3863562580879698
3647.0,-0.39012225150670066
3646.0,-0.3940311923487303
3645.0,-0.4008832155483626
3644.0,-0.40962884163754776
3643.0,-0.41752151380429625
3642.0,-0.4223107250017959
3641.0,-0.4235080103454929
3640.0,-0.42275394130134814
3639.0,-0.4218999358431694
3638.0,-0.4209948296439574
3637.0,-0.4191127628751419
3636.0,-0.4168900301730125
3635.0,-0.41549085217146864
3634.0,-0.41324945678750247
3633.0,-0.40713586219155884
3632.0,-0.3978705159953706
3631.0,-0.39089979717353307
3630.0,-0.3910586692548548
3629.0,-0.39922362152726976
3628.0,-0.4072038881120337
3627.0,-0.40590957004391814
3626.0,-0.404542949770081
3625.0,-0.4112323715410695
3624.0,-0.417172649517775
3623.0,-0.41564097989615423
3622.0,-0.40932434660406924
3621.0,-0.40360089751828054
3620.0,-0.4010902195951336
3619.0,-0.400365273349939
3618.0,-0.3977662561264501
3617.0,-0.3928727454020793
3616.0,-0.3903874803172789
3615.0,-0.392802437083664
3614.0,-0.3971749769583255
3613.0,-0.39943141793405834
3612.0,-0.3979921208831958
3611.0,-0.39560592931323013
3610.0,-0.3967396987112286
3609.0,-0.4023817642390979
3608.0,-0.4093751106042718
3607.0,-0.4136852598549283
3606.0,-0.41413736218447683
3605.0,-0.4131655983458926
3604.0,-0.41272927323753184
3603.0,-0.4124101428243878
3602.0,-0.4117711776203734
3601.0,-0.41097957589456957
3600.0,-0.40967957006035594
3599.0,-0.40735690748594733
3598.0,-0.4047824189666427
3597.0,-0.4032578257871111
3596.0,-0.40334361913045
3595.0,-0.40493629375269924
3594.0,-0.4067785511909743
3593.0,-0.4070508148042502
3592.0,-0.40517554621798935
3591.0,-0.40236456888416106
3590.0,-0.39988130269198585
3589.0,-0.39885973840426114
3588.0,-0.4003825480454286
3587.0,-0.4034465487758765
3586.0,-0.4043718194652808
3585.0,-0.40365233491132946
3584.0,-0.4057560397739559
3583.0,-0.4107266330141912
3582.0,-0.41524052391397426
3581.0,-0.4175049075723125
3580.0,-0.4179696422147372
3579.0,-0.417554724363455
3578.0,-0.4169897991791722
3577.0,-0.4166737853339222
3576.0,-0.41674033367636065
3575.0,-0.41715602994056145
3574.0,-0.4173886461656746
3573.0,-0.4165240142686528
3572.0,-0.4136349971985558
3571.0,-0.4085113145752244
3570.0,-0.40190003676058517
3569.0,-0.39553606211843606
3568.0,-0.39172882249074314
3567.0,-0.39164070349238767
3566.0,-0.3928200152303849
3565.0,-0.3926617862907893
3564.0,-0.3936804740207762
3563.0,-0.39814842000863093
3562.0,-0.4040978706404883
3561.0,-0.40905350501006943
3560.0,-0.4122925093230463
3559.0,-0.4141540976802074
3558.0,-0.4150067539538278
3557.0,-0.41499005128352184
3556.0,-0.4141038892581892
3555.0,-0.41272927323753184
3554.0,-0.4117711776203734
3553.0,-0.4117711776203734
3552.0,-0.4119057747568178
3551.0,-0.41074350045693153
3550.0,-0.4082569296087173
3549.0,-0.40596073474172156
3548.0,-0.40488500821481344
3547.0,-0.40486791168959124
3546.0,-0.4055512482823098
3545.0,-0.4065742414105542
3544.0,-0.4077477122261737
3543.0,-0.4092905006404548
3542.0,-0.41143450216500455
3541.0,-0.41365175206369953
3540.0,-0.41520713590842995
3539.0,-0.415857739475443
3538.0,-0.4160743909223945
3537.0,-0.41632423913641325
3536.0,-0.41654065804897966
3535.0,-0.41625762699902236
3534.0,-0.41549085217146864
3533.0,-0.414655862908059
3532.0,-0.41391974203365356
3531.0,-0.4128635738128281
3530.0,-0.41138397832798335
3529.0,-0.4097810091332019
3528.0,-0.40834174115465505
3527.0,-0.4070167911854541
3526.0,-0.40602894496361497
3525.0,-0.406148287079636
3524.0,-0.40769675763389746
3523.0,-0.40988242451824375
3522.0,-0.4114681814579182
3521.0,-0.412225275871112
3520.0,-0.4130481693178747
3519.0,-0.4145722756179451
3518.0,-0.41625762699902236
3517.0,-0.4173055832445254
3516.0,-0.41758793238319125
3515.0,-0.41753811940132746
3514.0,-0.417172649517775
3513.0,-0.4162742809912361
3512.0,-0.4150067539538278
3511.0,-0.4141038892581892
3510.0,-0.41393648591729537
3509.0,-0.4139699717480614
3508.0,-0.41333329903991123
3507.0,-0.4119394175240436
3506.0,-0.4106760267549543
3505.0,-0.4102540784463966
3504.0,-0.41074350045693153
3503.0,-0.4117206929377355
3502.0,-0.41254454210808866
3501.0,-0.4129474905873636
3500.0,-0.41333329903991123
3499.0,-0.4142043002983429
3498.0,-0.41545748340603517
3497.0,-0.41669042337556395
3496.0,-0.41748830070532783
3495.0,-0.4177705311169251
3494.0,-0.41772073907568386
3493.0,-0.4176045354408977
3492.0,-0.41748830070532783
3491.0,-0.4173055832445254
3490.0,-0.41705629911911046
3489.0,-0.4169232890550858
3488.0,-0.4170064251187986
3487.0,-0.4169897991791722
3486.0,-0.4165240142686528
3485.0,-0.41565765755142037
3484.0,-0.4149566440156667
3483.0,-0.41480627950101256
3482.0,-0.415140352195873
3481.0,-0.4155242183732293
3480.0,-0.415707686674859
3479.0,-0.4158410695020449
3478.0,-0.41622431709856844
3477.0,-0.4169066599324256
3476.0,-0.4176875412097525
3475.0,-0.41830129131974525
3474.0,-0.41856642837431934
3473.0,-0.41853329509321213
3472.0,-0.4183841640386121
3471.0,-0.4182847148781357
3470.0,-0.4182515600966932
3469.0,-0.41830129131974525
3468.0,-0.41845045082958343
3467.0,-0.4186492505196022
3466.0,-0.4185167275046813
3465.0,-0.4179530531094464
3464.0,-0.4172225044337696
3463.0,-0.41675696916874605
3462.0,-0.416623867384184
3461.0,-0.416623867384184
3460.0,-0.41664050733828084
3459.0,-0.41682350476685404
3458.0,-0.41718926845901505
3457.0,-0.41758793238319125
3456.0,-0.41778712719549116
3455.0,-0.41780372263988097
3454.0,-0.41773733705707006
3453.0,-0.4176045354408977
3452.0,-0.4171227888780189
3451.0,-0.4160244040265342
3450.0,-0.41448867223695185
3449.0,-0.4131991436656408
3448.0,-0.41267889981267647
3447.0,-0.4126117261561637
3446.0,-0.41225889389813686
3445.0,-0.41161970596323005
3444.0,-0.41151869550065046
3443.0,-0.4124101428243878
3442.0,-0.4137020127811133
3441.0,-0.41455555622921514
3440.0,-0.4149065282950337
3439.0,-0.41525721695423545
3438.0,-0.4159244129711648
3437.0,-0.41664050733828084
3436.0,-0.4170729225131873
3435.0,-0.417172649517775
3434.0,-0.41713940972732555
3433.0,-0.4170396750887191
3432.0,-0.4168900301730125
3431.0,-0.4166737853339222
3430.0,-0.4164740791002206
3429.0,-0.41639084105839386
3428.0,-0.41640748994309806
3427.0,-0.4164241381895839
3426.0,-0.41625762699902236
3425.0,-0.4158077276355434
3424.0,-0.415140352195873
3423.0,-0.4145889943630401
3422.0,-0.4144552263777208
3421.0,-0.41467257843572103
3420.0,-0.4149232341778242
3419.0,-0.4151069564880703
3418.0,-0.4154407980618182
3417.0,-0.4161743474570878
3416.0,-0.41713940972732555
3415.0,-0.41800281852443577
3414.0,-0.41859955912780844
3413.0,-0.4189307277285006
3412.0,-0.41907967125047607
3411.0,-0.41914585197854093
3410.0,-0.41922856370901806
3409.0,-0.4192947217534604
3408.0,-0.4192781831871528
3407.0,-0.41916239558488533
3406.0,-0.4190465771041594
3405.0,-0.419030029085262
3404.0,-0.41914585197854093
3403.0,-0.4194104740862157
3402.0,-0.4197245035618189
3401.0,-0.4199062063695944
3400.0,-0.41993923507764164
3399.0,-0.41993923507764164
3398.0,-0.4199227210376031
3397.0,-0.4197079813544442
3396.0,-0.41912930774197577
3395.0,-0.41848359043142347
3394.0,-0.41830129131974525
3393.0,-0.4187320568732962
3392.0,-0.4194270076155564
3391.0,-0.4199722612739998
3390.0,-0.42020337435329624
3389.0,-0.4202198777251476
3388.0,-0.420104340950183
3387.0,-0.41995574848975803
3386.0,-0.4198731751494762
3385.0,-0.41993923507764164
3384.0,-0.42008783318721843
3383.0,-0.4202363804698881
3382.0,-0.42043436450943883
3381.0,-0.4207146874880312
3380.0,-0.4210442477420484
3379.0,-0.42134063830044344
3378.0,-0.42155457241987726
3377.0,-0.4216697240795475
3376.0,-0.4217026189465889
3375.0,-0.4217026189465889
3374.0,-0.4216697240795475
3373.0,-0.4216039268698313
3372.0,-0.4215216663369774
3371.0,-0.4214393902200495
3370.0,-0.4213570985131425
3369.0,-0.4211924683057493
3368.0,-0.4209783556949027
3367.0,-0.4207806195485655
3366.0,-0.4206652318731168
3365.0,-0.4205498135321757
3364.0,-0.42043436450943883
3363.0,-0.42040137343665585
3362.0,-0.4205168312286167
3361.0,-0.420731171441572
3360.0,-0.42089597657481237
3359.0,-0.4209948296439574
3358.0,-0.4210771900170216
3357.0,-0.4211760018520927
3356.0,-0.4212418639210549
3355.0,-0.4212747912103465
3354.0,-0.42137355810200594
3353.0,-0.4215710245264006
3352.0,-0.42185061502295795
3351.0,-0.42216288566239024
3350.0,-0.42242567637120443
3349.0,-0.42257342629559647
3348.0,-0.422589839851482
3347.0,-0.42255701211936003
3346.0,-0.4225077658680756
3345.0,-0.42242567637120443
3344.0,-0.4223107250017959
3343.0,-0.42217931474113035
3342.0,-0.4221135946968322
3341.0,-0.4220642981362803
3340.0,-0.4220314306536217
3339.0,-0.4220807309448755
3338.0,-0.42226145081360267
3337.0,-0.42244209551193723
3336.0,-0.42242567637120443
3335.0,-0.4222121710342237
3334.0,-0.4218999358431694
3333.0,-0.4216697240795475
3332.0,-0.421636826720754
3331.0,-0.42181773136413225
3330.0,-0.42213002564028823
3329.0,-0.4224749319312715
3328.0,-0.4226718983272866
3327.0,-0.4227047173767926
3326.0,-0.4226226651023879
3325.0,-0.422589839851482
3324.0,-0.4227047173767926
3323.0,-0.42298357920928
3322.0,-0.42331142287390344
3321.0,-0.42349163145458135
3320.0,-0.4234752519459368
3319.0,-0.4233769619190597
3318.0,-0.42331142287390344
3317.0,-0.4232458739368079
3316.0,-0.4231147463748508
3315.0,-0.42288517783083623
3314.0,-0.42265548787245244
3313.0,-0.4223764152241789
3312.0,-0.4220642981362803
3311.0,-0.42181773136413225
3310.0,-0.4218670559187183
3309.0,-0.4222285982486711
3308.0,-0.4227047173767926
3307.0,-0.4231475319772442
3306.0,-0.4235243886187172
3305.0,-0.42385182444069125
3304.0,-0.4241299509195553
3303.0,-0.42422807069598
3302.0,-0.4241790135787822
3301.0,-0.4240481675018226
3300.0,-0.42393364483730567
3299.0,-0.4238845544491405
3298.0,-0.4238354585114261
3297.0,-0.42370450887017963
3296.0,-0.4235080103454929
3295.0,-0.42332780856244545
3294.0,-0.42327864964203465
3293.0,-0.42331142287390344
3292.0,-0.42332780856244545
3291.0,-0.42322948515656833
3290.0,-0.42308195829723116
3289.0,-0.4230163747148197
3288.0,-0.4230163747148197
3287.0,-0.42308195829723116
3286.0,-0.4231475319772442
3285.0,-0.42321309575784927
3284.0,-0.42331142287390344
3283.0,-0.42344249107526144
3282.0,-0.4235735197327357
3281.0,-0.4236062707211681
3280.0,-0.4234588718195127
3279.0,-0.4231639238503484
3278.0,-0.4228031596473847
3277.0,-0.42254059732272564
3276.0,-0.42244209551193723
3275.0,-0.42254059732272564
3274.0,-0.4227703480364666
3273.0,-0.4229343813070008
3272.0,-0.4230163747148197
3271.0,-0.4231147463748508
3270.0,-0.42331142287390344
3269.0,-0.4235407662743014
3268.0,-0.423688137388436
3267.0,-0.4237372499823291
3266.0,-0.4237536196128282
3265.0,-0.4238027248025804
3264.0,-0.42385182444069125
3263.0,-0.4239009185284166
3262.0,-0.4239172819911228
3261.0,-0.4238354585114261
3260.0,-0.4235898955356787
3259.0,-0.42322948515656833
3258.0,-0.42288517783083623
3257.0,-0.42268830816205094
3256.0,-0.42273753394639435
3255.0,-0.4229999772716164
3254.0,-0.4233441936327873
3253.0,-0.4235407662743014
3252.0,-0.4235735197327357
3251.0,-0.4235080103454929
3250.0,-0.4234588718195127
3249.0,-0.42336057808497696
3248.0,-0.4231475319772442
3247.0,-0.42296718052776283
3246.0,-0.4229507812270188
3245.0,-0.4230655633300948
3244.0,-0.42313113948542735
3243.0,-0.4231147463748508
3242.0,-0.42318031510478615
3241.0,-0.42336057808497696
3240.0,-0.423557143312292
3239.0,-0.4236062707211681
3238.0,-0.4235243886187172
3237.0,-0.4234261097131373
3236.0,-0.4234261097131373
3235.0,-0.4235243886187172
3234.0,-0.423688137388436
3233.0,-0.4238354585114261
3232.0,-0.42386818975324747
3231.0,-0.4238354585114261
3230.0,-0.4237536196128282
3229.0,-0.42370450887017963
3228.0,-0.4237372499823291
3227.0,-0.42386818975324747
3226.0,-0.42398272967717565
3225.0,-0.4239990900577282
3224.0,-0.42393364483730567
3223.0,-0.4238354585114261
3222.0,-0.4237372499823291
3221.0,-0.423688137388436
3220.0,-0.4237208797347951
3219.0,-0.42378635702290746
3218.0,-0.42376998862633863
3217.0,-0.423688137388436
3216.0,-0.42365539257337836
3215.0,-0.42378635702290746
3214.0,-0.42398272967717565
3213.0,-0.4240481675018226
3212.0,-0.42403180897000503
3211.0,-0.4241790135787822
3210.0,-0.4245222970866327
3209.0,-0.42493061444987745
3208.0,-0.42520805113865645
3207.0,-0.42533854827963324
3206.0,-0.42537116643894146
3205.0,-0.4253059276703186
3204.0,-0.4251427878607661
3203.0,-0.42494693916211324
3202.0,-0.4248326532881306
3201.0,-0.424816324279353
3200.0,-0.42484898168297835
3199.0,-0.424914289123989
3198.0,-0.4249795867458084
3197.0,-0.42499590961736056
3196.0,-0.4249632632607412
3195.0,-0.4249795867458084
3194.0,-0.42515910459970474
3193.0,-0.42543639540901035
3192.0,-0.42572980459609866
3191.0,-0.42592530065247347
3190.0,-0.4260230156898763
3189.0,-0.42599044645352624
3188.0,-0.42582756362451457
3187.0,-0.42569721336259114
3186.0,-0.4256483219260341
3185.0,-0.42569721336259114
3184.0,-0.4257949797266938
3183.0,-0.42589272408703804
3182.0,-0.42594158801889526
3181.0,-0.42589272408703804
3180.0,-0.42581127198118907
3179.0,-0.4257949797266938
3178.0,-0.4258438546567165
3177.0,-0.42589272408703804
3176.0,-0.4258764348879325
3175.0,-0.4258764348879325
3174.0,-0.42600673137701106
3173.0,-0.42625093198054564
3172.0,-0.4264787287242435
3171.0,-0.4266088446661662
3170.0,-0.42667388802137296
3169.0,-0.4267551785189245
3168.0,-0.4268689596589854
3167.0,-0.4270152059079919
3166.0,-0.4271614029259654
3165.0,-0.4272588402704054
3164.0,-0.4272588402704054
3163.0,-0.42714516124298907
3162.0,-0.42699895875653704
3161.0,-0.4269177138808158
3160.0,-0.4269014630816632
3159.0,-0.426933964071905
3158.0,-0.4270152059079919
3157.0,-0.42714516124298907
3156.0,-0.4273075507460411
3155.0,-0.4274861090957853
3154.0,-0.4276321477056588
3153.0,-0.4276970379948093
3152.0,-0.4276808163314625
3151.0,-0.4276321477056588
3150.0,-0.42759969892486804
3149.0,-0.42758347362526017
3148.0,-0.42756724771945054
3147.0,-0.42756724771945054
3146.0,-0.42761592361831946
3145.0,-0.4277781372241729
3144.0,-0.4279889243725452
3143.0,-0.4281509987444454
3142.0,-0.42823201325433446
3141.0,-0.42823201325433446
3140.0,-0.42819960926387735
3139.0,-0.4281834063619443
3138.0,-0.4282158115613255
3137.0,-0.4282158115613255
3136.0,-0.42810238278343604
3135.0,-0.42792407768432117
3134.0,-0.4277294795038933
3133.0,-0.4276321477056588
3132.0,-0.4276321477056588
3131.0,-0.4276483711869328
3130.0,-0.42761592361831946
3129.0,-0.4275510212073934
3128.0,-0.4274861090957853
3127.0,-0.4273887227332511
3126.0,-0.42724260223103583
3125.0,-0.4271614029259654
3124.0,-0.42719388446982
3123.0,-0.42734002136152593
3122.0,-0.42743741864426266
3121.0,-0.4274861090957853
3120.0,-0.4275185663643559
3119.0,-0.42761592361831946
3118.0,-0.4277781372241729
3117.0,-0.427972713608209
3116.0,-0.4281509987444454
3115.0,-0.4283130126543684
3114.0,-0.4284263864405884
3113.0,-0.4284749661474083
3112.0,-0.4284749661474083
3111.0,-0.42845877351558004
3110.0,-0.42839399695018265
3109.0,-0.4283454081848852
3108.0,-0.4283292107216887
3107.0,-0.4283130126543684
3106.0,-0.42824821434294913
3105.0,-0.4280861762536494
3104.0,-0.4278105726759902
3103.0,-0.4275347940890435
3102.0,-0.42740495531027367
3101.0,-0.42742118728059575
3100.0,-0.4274861090957853
3099.0,-0.4275185663643559
3098.0,-0.4275510212073934
3097.0,-0.4276808163314625
3096.0,-0.42794029026414204
3095.0,-0.4282806147071767
3094.0,-0.42863685926860917
3093.0,-0.42900898458089065
3092.0,-0.429380791310483
3091.0,-0.42976842447860575
3090.0,-0.43007505555193903
3089.0,-0.43023635341151056
3088.0,-0.4302202263210724
3087.0,-0.4300589224706428
3086.0,-0.429816854306579
3085.0,-0.42954234717943285
3084.0,-0.4291868449047129
3083.0,-0.4288310513865681
3082.0,-0.4285882976686137
3081.0,-0.42852354042076346
3080.0,-0.42863685926860917
3079.0,-0.42889576280138764
3078.0,-0.4292515033306934
3077.0,-0.4296392518615537
3076.0,-0.42999438415170665
3075.0,-0.4302202263210724
3074.0,-0.4303169798819737
3073.0,-0.43033310338003217
3072.0,-0.4302202263210724
3071.0,-0.4299298362406301
3070.0,-0.4295584994614212
3069.0,-0.4292191753210086
3068.0,-0.42902515671151864
3067.0,-0.42900898458089065
3066.0,-0.4291706787939735
3065.0,-0.4293969496020633
3064.0,-0.4296231025826862
3063.0,-0.429816854306579
3062.0,-0.43001051963059256
3061.0,-0.4301718414562665
3060.0,-0.4303008557852963
3059.0,-0.4303492262795161
3058.0,-0.43039759138696665
3057.0,-0.4304298317998767
3056.0,-0.4304137118925979
3055.0,-0.43039759138696665
3054.0,-0.43044595110884787
3053.0,-0.43062322403191455
3052.0,-0.4308970490272577
3051.0,-0.4312189751988522
3050.0,-0.43157281858565355
3049.0,-0.43199062578614056
3048.0,-0.4324080314270802
3047.0,-0.43272883992322164
3046.0,-0.43301736509343547
3045.0,-0.4333377239630525
3044.0,-0.4337058447569433
3043.0,-0.4340416827542719
3042.0,-0.43429738512450866
3041.0,-0.43445712268769787
3040.0,-0.4345689040341987
3039.0,-0.4346168015195224
3038.0,-0.4345848704495938
3037.0,-0.43447309321307914
3036.0,-0.4342814081363011
3035.0,-0.4340416827542719
3034.0,-0.4338018249736004
3033.0,-0.4336738466370611
3032.0,-0.433737840519429
3031.0,-0.43399372179470763
3030.0,-0.4342494523964757
3029.0,-0.43437726125022413
3028.0,-0.434521001265773
3027.0,-0.43479238045132673
3026.0,-0.4351114331264929
3025.0,-0.43530275228461024
3024.0,-0.4352389885960646
3023.0,-0.43507953840449387
3022.0,-0.43495193608775296
3021.0,-0.4348721655969414
3020.0,-0.43477642166315356
3019.0,-0.4346487302419235
3018.0,-0.4346168015195224
3017.0,-0.43466469372290906
3016.0,-0.4347285417797577
3015.0,-0.43476046228852994
3014.0,-0.43476046228852994
3013.0,-0.4347285417797577
3012.0,-0.4346966189246655
3011.0,-0.43476046228852994
3010.0,-0.43496788842781253
3009.0,-0.4352708716105713
3008.0,-0.43547805417132457
3007.0,-0.43546212055982103
3006.0,-0.4352708716105713
3005.0,-0.43501574193256065
3004.0,-0.43482429626849406
3003.0,-0.4347125806455234
3002.0,-0.4346966189246655
3001.0,-0.4347285417797577
3000.0,-0.43477642166315356
2999.0,-0.43479238045132673
2998.0,-0.43479238045132673
2997.0,-0.43479238045132673
2996.0,-0.43480833865309254
2995.0,-0.43488812086731565
2994.0,-0.4349997913501733
2993.0,-0.4350316919291437
2992.0,-0.4349997913501733
2991.0,-0.43495193608775296
2990.0,-0.43496788842781253
2989.0,-0.43501574193256065
2988.0,-0.43496788842781253
2987.0,-0.43479238045132673
2986.0,-0.4345050325020732
2985.0,-0.4341216059186892
2984.0,-0.4337058447569433
2983.0,-0.43330569870812274
2982.0,-0.43296929087440583
2981.0,-0.4327128051253868
2980.0,-0.4325042988610277
2979.0,-0.4323277922616042
2978.0,-0.4321512138969421
2977.0,-0.43187817876683976
2976.0,-0.43146026332212273
2975.0,-0.4308970490272577
2974.0,-0.43033310338003217
2973.0,-0.4298329963825127
2972.0,-0.4294131072924836
2971.0,-0.4289928118480266
2970.0,-0.42855592025167555
2969.0,-0.4280699691190626
2968.0,-0.42758347362526017
2967.0,-0.4271126760547097
2966.0,-0.4266413675614449
2965.0,-0.42612070874661523
2964.0,-0.4255994249848212
2963.0,-0.42520805113865645
2962.0,-0.42499590961736056
2961.0,-0.42493061444987745
2960.0,-0.4249632632607412
2959.0,-0.42504487455138884
2958.0,-0.4251427878607661
2957.0,-0.4252569921617799
2956.0,-0.42540378214861096
2955.0,-0.4256483219260341
2954.0,-0.4260555824839303
2953.0,-0.4265763193351715
2952.0,-0.4271776440015609
2951.0,-0.42779435525288845
2950.0,-0.42836160504400267
2949.0,-0.4288310513865681
2948.0,-0.4292515033306934
2947.0,-0.4297361349260327
2946.0,-0.4303169798819737
2945.0,-0.4309453531684033
2944.0,-0.4315567410481447
2943.0,-0.4321833243946944
2942.0,-0.4328731264686758
2941.0,-0.4335778381295623
2940.0,-0.43418553386197134
2939.0,-0.4347285417797577
2938.0,-0.4352230462110289
2937.0,-0.43566921192604635
2936.0,-0.43598762132621305
2935.0,-0.436162647040756
2934.0,-0.43630579745085374
2933.0,-0.43646479814161854
2932.0,-0.4367031900832181
2931.0,-0.4370049654773034
2930.0,-0.4373382629197944
2929.0,-0.437607887914937
2928.0,-0.4377981107081683
2927.0,-0.4379724084393488
2926.0,-0.4382416401442919
2925.0,-0.43863726616861154
2924.0,-0.43907993986887073
2923.0,-0.439474803316783
2922.0,-0.439758882863007
2921.0,-0.43994816604556375
2920.0,-0.44009007431328273
2919.0,-0.44021617608011
2918.0,-0.44035799681528776
2917.0,-0.44046826982214915
2916.0,-0.440515521112228
2915.0,-0.4405312703998914
2914.0,-0.4405942618398311
2913.0,-0.4407044748798601
2912.0,-0.44081465995768143
2911.0,-0.44081465995768143
2910.0,-0.4407202173169038
2909.0,-0.4405312703998914
2908.0,-0.44035799681528776
2907.0,-0.4402319362267888
2906.0,-0.4401688922082565
2905.0,-0.4401058390366597
2904.0,-0.440027009696617
2903.0,-0.44004277670934
2902.0,-0.44020041536148957
2901.0,-0.4403737518163564
2900.0,-0.44043676610577354
2899.0,-0.44027921323558816
2898.0,-0.4400585431496644
2897.0,-0.4398535347664483
2896.0,-0.43971154917435484
2895.0,-0.4396168663175639
2894.0,-0.4395379481654138
2893.0,-0.4394432274492468
2892.0,-0.43931690101650434
2891.0,-0.43922213207186633
2890.0,-0.43919053782757045
2889.0,-0.4392695191291689
2888.0,-0.4394116492857849
2887.0,-0.43958530077756386
2886.0,-0.439758882863007
2885.0,-0.4398219864240036
2884.0,-0.43979043578963406
2883.0,-0.439758882863007
2882.0,-0.4398062113933303
2881.0,-0.4399323955975749
2880.0,-0.44004277670934
2879.0,-0.44009007431328273
2878.0,-0.44009007431328273
2877.0,-0.4401058390366597
2876.0,-0.44013736676675697
2875.0,-0.4401531297735608
2874.0,-0.44018465407088536
2873.0,-0.44024769580156686
2872.0,-0.4403107283825056
2871.0,-0.440342241242651
2870.0,-0.44035799681528776
2869.0,-0.4403737518163564
2868.0,-0.4404052601039532
2867.0,-0.44043676610577354
2866.0,-0.44049977125341133
2865.0,-0.44054701911644134
2864.0,-0.4405785148363699
2863.0,-0.44056276726192056
2862.0,-0.440515521112228
2861.0,-0.44046826982214915
2860.0,-0.44046826982214915
2859.0,-0.44056276726192056
2858.0,-0.4407044748798601
2857.0,-0.4408618735775467
2856.0,-0.44097201873396097
2855.0,-0.4410821359625987
2854.0,-0.44122367424261233
2853.0,-0.4413651664097724
2852.0,-0.4414908985372823
2851.0,-0.44160088429693145
2850.0,-0.4417579585081639
2849.0,-0.4419777670066436
2848.0,-0.442181775330861
2847.0,-0.4423386396256759
2846.0,-0.44243273101376035
2845.0,-0.4424954472826017
2844.0,-0.44247976906444864
2843.0,-0.44243273101376035
2842.0,-0.4424013694827025
2841.0,-0.4424170505313185
2840.0,-0.4424954472826017
2839.0,-0.4425895047075801
2838.0,-0.44268354176646163
2837.0,-0.44276189043112213
2836.0,-0.4428402249638834
2835.0,-0.4428872189023485
2834.0,-0.4428558901750561
2833.0,-0.44276189043112213
2832.0,-0.44266787033725263
2831.0,-0.4426365257822318
2830.0,-0.4426521983425231
2829.0,-0.44271488292848016
2828.0,-0.4428245591876383
2827.0,-0.44296553083467094
2826.0,-0.443106456737266
2825.0,-0.4431690757961162
2824.0,-0.44312211234844634
2823.0,-0.4429968516540921
2822.0,-0.4428872189023485
2821.0,-0.4428402249638834
2820.0,-0.4428872189023485
2819.0,-0.4429811915267341
2818.0,-0.443090800561706
2817.0,-0.443153421877831
2816.0,-0.443153421877831
2815.0,-0.44312211234844634
2814.0,-0.4430751438217255
2813.0,-0.4430281702148542
2812.0,-0.44296553083467094
2811.0,-0.4429811915267341
2810.0,-0.443106456737266
2809.0,-0.4432629874586951
2808.0,-0.4433725254048797
2807.0,-0.4433725254048797
2806.0,-0.4432942868340035
2805.0,-0.4432003819400765
2804.0,-0.4431377673952879
2803.0,-0.443106456737266
2802.0,-0.44312211234844634
2801.0,-0.443153421877831
2800.0,-0.4431377673952879
2799.0,-0.443106456737266
2798.0,-0.44305948651728366
2797.0,-0.44301251121678487
2796.0,-0.4429968516540921
2795.0,-0.44305948651728366
2794.0,-0.44321603416583333
2793.0,-0.4433881714278267
2792.0,-0.44352896027506183
2791.0,-0.44360715658451566
2790.0,-0.4437009735746704
2789.0,-0.44376350697750055
2788.0,-0.44379477030270564
2787.0,-0.44382603137753707
2786.0,-0.4438729187710404
2785.0,-0.44391980110302365
2784.0,-0.44388854677737166
2783.0,-0.4437791389214203
2782.0,-0.4437166077695318
2781.0,-0.4437166077695318
2780.0,-0.4437322414015967
2779.0,-0.4437322414015967
2778.0,-0.4437009735746704
2777.0,-0.4437009735746704
2776.0,-0.4437009735746704
2775.0,-0.4436853388169726
2774.0,-0.44365406761290505
2773.0,-0.44362279415700456
2772.0,-0.4436697034963979
2771.0,-0.4437791389214203
2770.0,-0.44388854677737166
2769.0,-0.4438729187710404
2768.0,-0.4436853388169726
2767.0,-0.4434038168871255
2766.0,-0.4431690757961162
2765.0,-0.443090800561706
2764.0,-0.443106456737266
2763.0,-0.4431847291501847
2762.0,-0.4433099356757997
2761.0,-0.4434038168871255
2760.0,-0.4434351061149422
2759.0,-0.4434194617828173
2758.0,-0.4434038168871255
2757.0,-0.4434194617828173
2756.0,-0.4434507498835405
2755.0,-0.44346639308865354
2754.0,-0.44346639308865354
2753.0,-0.4434351061149422
2752.0,-0.44335687881824404
2751.0,-0.4433412316678793
2750.0,-0.4434038168871255
2749.0,-0.44348203573032174
2748.0,-0.44348203573032174
2747.0,-0.4434038168871255
2746.0,-0.4433412316678793
2745.0,-0.4433099356757997
2744.0,-0.44332558395374466
2743.0,-0.4433412316678793
2742.0,-0.4433412316678793
2741.0,-0.4432942868340035
2740.0,-0.44321603416583333
2739.0,-0.443153421877831
2738.0,-0.4432003819400765
2737.0,-0.44332558395374466
2736.0,-0.4434507498835405
2735.0,-0.4434976778085855
2734.0,-0.4434507498835405
2733.0,-0.4433881714278267
2732.0,-0.4433412316678793
2731.0,-0.4432942868340035
2730.0,-0.4432942868340035
2729.0,-0.44332558395374466
2728.0,-0.4433881714278267
2727.0,-0.44348203573032174
2726.0,-0.4435758797502576
2725.0,-0.4436384311664545
2724.0,-0.44365406761290505
2723.0,-0.4436853388169726
2722.0,-0.443747874470906
2721.0,-0.44379477030270564
2720.0,-0.4437791389214203
2719.0,-0.4437322414015967
2718.0,-0.4437166077695318
2717.0,-0.4437166077695318
2716.0,-0.4436697034963979
2715.0,-0.4435758797502576
2714.0,-0.4434976778085855
2713.0,-0.44348203573032174
2712.0,-0.44356024048840714
2711.0,-0.4436384311664545
2710.0,-0.44365406761290505
2709.0,-0.44354460066335566
2708.0,-0.4433412316678793
2707.0,-0.4431847291501847
2706.0,-0.44312211234844634
2705.0,-0.4431690757961162
2704.0,-0.44321603416583333
2703.0,-0.44324733692510154
2702.0,-0.4432786374283153
2701.0,-0.4432629874586951
2700.0,-0.4431690757961162
2699.0,-0.44305948651728366
2698.0,-0.4430281702148542
2697.0,-0.443106456737266
2696.0,-0.4431847291501847
2695.0,-0.4432003819400765
2694.0,-0.4431847291501847
2693.0,-0.4431847291501847
2692.0,-0.44321603416583333
2691.0,-0.4432316858274947
2690.0,-0.44324733692510154
2689.0,-0.4432942868340035
2688.0,-0.4433725254048797
2687.0,-0.4434976778085855
2686.0,-0.44360715658451566
2685.0,-0.44365406761290505
2684.0,-0.44359151844894695
2683.0,-0.4434976778085855
2682.0,-0.44346639308865354
2681.0,-0.44354460066335566
2680.0,-0.44362279415700456
2679.0,-0.44365406761290505
2678.0,-0.44359151844894695
2677.0,-0.44351331932348526
2676.0,-0.4434038168871255
2675.0,-0.4433099356757997
2674.0,-0.4432316858274947
2673.0,-0.44321603416583333
2672.0,-0.4432003819400765
2671.0,-0.4431847291501847
2670.0,-0.4431847291501847
2669.0,-0.4431847291501847
2668.0,-0.4432003819400765
2667.0,-0.44321603416583333
2666.0,-0.44321603416583333
2665.0,-0.4431847291501847
2664.0,-0.443153421877831
2663.0,-0.443153421877831
2662.0,-0.4432316858274947
2661.0,-0.44332558395374466
2660.0,-0.4433412316678793
2659.0,-0.44324733692510154
2658.0,-0.4431377673952879
2657.0,-0.4430751438217255
2656.0,-0.4430751438217255
2655.0,-0.44312211234844634
2654.0,-0.4431377673952879
2653.0,-0.4430751438217255
2652.0,-0.4429185453698419
2651.0,-0.4427305526613714
2650.0,-0.44257382988463423
2649.0,-0.44243273101376035
2648.0,-0.44232295574557456
2647.0,-0.44227590070658795
2646.0,-0.442307271299053
2645.0,-0.4423543229393987
2644.0,-0.4423700056867834
2643.0,-0.4423543229393987
2642.0,-0.4424170505313185
2641.0,-0.44251112493478484
2640.0,-0.44257382988463423
2639.0,-0.44254247854140427
2638.0,-0.44246409028028477
2637.0,-0.4423856878678709
2636.0,-0.44232295574557456
2635.0,-0.44222884056871825
2634.0,-0.4421503956717503
2633.0,-0.4420405490063053
2632.0,-0.44196207008852806
2631.0,-0.44194637260305125
2630.0,-0.4420248543572276
2629.0,-0.4421503956717503
2628.0,-0.44222884056871825
2627.0,-0.44226021456056186
2626.0,-0.44227590070658795
2625.0,-0.44229158628607124
2624.0,-0.442213152722819
2623.0,-0.44205624308822555
2622.0,-0.4419149759298473
2621.0,-0.4418678766638018
2620.0,-0.4418678766638018
2619.0,-0.44188357698670355
2618.0,-0.44188357698670355
2617.0,-0.44188357698670355
2616.0,-0.44188357698670355
2615.0,-0.44189927674203844
2614.0,-0.4419149759298473
2613.0,-0.44194637260305125
2612.0,-0.44194637260305125
2611.0,-0.44193067455017143
2610.0,-0.44193067455017143
2609.0,-0.44194637260305125
2608.0,-0.44193067455017143
2607.0,-0.4419149759298473
2606.0,-0.4419149759298473
2605.0,-0.44194637260305125
2604.0,-0.44194637260305125
2603.0,-0.4419149759298473
2602.0,-0.44189927674203844
2601.0,-0.44194637260305125
2600.0,-0.4419777670066436
2599.0,-0.44194637260305125
2598.0,-0.4418207722892835
2597.0,-0.44160088429693145
2596.0,-0.4413180074758478
2595.0,-0.44106640663926333
2594.0,-0.4408776103102925
2593.0,-0.44081465995768143
2592.0,-0.44083039840128224
2591.0,-0.44089334647283573
2590.0,-0.44095628542181053
2589.0,-0.4409877514761571
2588.0,-0.44097201873396097
2587.0,-0.4409248170874802
2586.0,-0.44089334647283573
2585.0,-0.44090908206521773
2584.0,-0.4409405515396636
2583.0,-0.4409405515396636
2582.0,-0.44083039840128224
2581.0,-0.44062575413395333
2580.0,-0.4404525182496215
2579.0,-0.4403895062458978
2578.0,-0.44049977125341133
2577.0,-0.44064149942469744
2576.0,-0.44067298829375856
2575.0,-0.4405785148363699
2574.0,-0.4404525182496215
2573.0,-0.4403895062458978
2572.0,-0.4403895062458978
2571.0,-0.44042101339056483
2570.0,-0.4404052601039532
2569.0,-0.4403264850984039
2568.0,-0.44020041536148957
2567.0,-0.44009007431328273
2566.0,-0.4400585431496644
2565.0,-0.44004277670934
2564.0,-0.43999547395380834
2563.0,-0.43991662457689573
2562.0,-0.4398535347664483
2561.0,-0.4398535347664483
2560.0,-0.4398535347664483
2559.0,-0.4398693080783027
2558.0,-0.4398377608816957
2557.0,-0.43977465961287354
2556.0,-0.43967999051562634
2555.0,-0.43960108383434626
2554.0,-0.43960108383434626
2553.0,-0.43967999051562634
2552.0,-0.439758882863007
2551.0,-0.4398062113933303
2550.0,-0.43979043578963406
2549.0,-0.4397273276437894
2548.0,-0.4396484295634737
2547.0,-0.43958530077756386
2546.0,-0.43958530077756386
2545.0,-0.43960108383434626
2544.0,-0.43960108383434626
2543.0,-0.43958530077756386
2542.0,-0.43960108383434626
2541.0,-0.4396168663175639
2540.0,-0.43963264822725945
2539.0,-0.4396168663175639
2538.0,-0.4396168663175639
2537.0,-0.4396484295634737
2536.0,-0.43967999051562634
2535.0,-0.43969577013164773
2534.0,-0.43969577013164773
2533.0,-0.4396642103262489
2532.0,-0.4396484295634737
2531.0,-0.43969577013164773
2530.0,-0.4398062113933303
2529.0,-0.4399008529834849
2528.0,-0.4398693080783027
2527.0,-0.439758882863007
2526.0,-0.4396642103262489
2525.0,-0.4396484295634737
2524.0,-0.43963264822725945
2523.0,-0.4396168663175639
2522.0,-0.4396168663175639
2521.0,-0.4396168663175639
2520.0,-0.4396168663175639
2519.0,-0.43963264822725945
2518.0,-0.43967999051562634
2517.0,-0.43974310553999274
2516.0,-0.43977465961287354
2515.0,-0.439758882863007
2514.0,-0.43977465961287354
2513.0,-0.43979043578963406
2512.0,-0.4398062113933303
2511.0,-0.4398062113933303
2510.0,-0.4398693080783027
2509.0,-0.43997970522363916
2508.0,-0.4400585431496644
2507.0,-0.44007430901763156
2506.0,-0.44007430901763156
2505.0,-0.4400585431496644
2504.0,-0.44004277670934
2503.0,-0.440027009696617
2502.0,-0.4400585431496644
2501.0,-0.44007430901763156
2500.0,-0.440027009696617
2499.0,-0.43994816604556375
2498.0,-0.4398693080783027
2497.0,-0.4398062113933303
2496.0,-0.43974310553999274
2495.0,-0.43969577013164773
2494.0,-0.43974310553999274
2493.0,-0.4398850808173016
2492.0,-0.43997970522363916
2491.0,-0.43999547395380834
2490.0,-0.43994816604556375
2489.0,-0.43994816604556375
2488.0,-0.4400112421114537
2487.0,-0.4401531297735608
2486.0,-0.440342241242651
2485.0,-0.4405312703998914
2484.0,-0.4405942618398311
2483.0,-0.4405785148363699
2482.0,-0.44054701911644134
2481.0,-0.44056276726192056
2480.0,-0.4405942618398311
2479.0,-0.44062575413395333
2478.0,-0.4406887318721586
2477.0,-0.44073595918333197
2476.0,-0.44075170047918544
2475.0,-0.44073595918333197
2474.0,-0.44078318135933436
2473.0,-0.44090908206521773
2472.0,-0.4410192152508503
2471.0,-0.441050676746221
2470.0,-0.44106640663926333
2469.0,-0.44106640663926333
2468.0,-0.44106640663926333
2467.0,-0.4411135929003134
2466.0,-0.4412079500447832
2465.0,-0.44133372768948176
2464.0,-0.4413808849165113
2463.0,-0.4413180074758478
2462.0,-0.4412079500447832
2461.0,-0.4411293205147757
2460.0,-0.44116077403511555
2459.0,-0.44127084342049905
2458.0,-0.4414123202233835
2457.0,-0.4415066124941145
2456.0,-0.4414908985372823
2455.0,-0.441428037023599
2454.0,-0.4414123202233835
2453.0,-0.44147518401185604
2452.0,-0.44156946263632335
2451.0,-0.4416323036843135
2450.0,-0.4416794285038086
2449.0,-0.44174225364324826
2448.0,-0.4417893665343504
2447.0,-0.4418207722892835
2446.0,-0.44183647431513284
2445.0,-0.44185217577329183
2444.0,-0.4418207722892835
2443.0,-0.441805069695703
2442.0,-0.44185217577329183
2441.0,-0.4419149759298473
2440.0,-0.4419149759298473
2439.0,-0.4417893665343504
2438.0,-0.4416323036843135
2437.0,-0.44156946263632335
2436.0,-0.4416323036843135
2435.0,-0.441805069695703
2434.0,-0.4420248543572276
2433.0,-0.4421503956717503
2432.0,-0.44213470499191043
2431.0,-0.4420248543572276
2430.0,-0.44189927674203844
2429.0,-0.44183647431513284
2428.0,-0.4417893665343504
2427.0,-0.4417265482103958
2426.0,-0.4416794285038086
2425.0,-0.44161659427475497
2424.0,-0.4415380387021606
2423.0,-0.44147518401185604
2422.0,-0.4414908985372823
2421.0,-0.4415851737508012
2420.0,-0.4416480125256479
2419.0,-0.4416794285038086
2418.0,-0.44169513564071705
2417.0,-0.4417265482103958
2416.0,-0.44174225364324826
2415.0,-0.44169513564071705
2414.0,-0.4415851737508012
2413.0,-0.441428037023599
2412.0,-0.44127084342049905
2411.0,-0.4411922252776179
2410.0,-0.4412393978711475
2409.0,-0.4413966028543683
2408.0,-0.44155375095345706
2407.0,-0.44169513564071705
2406.0,-0.441805069695703
2405.0,-0.4418678766638018
2404.0,-0.44188357698670355
2403.0,-0.4418207722892835
2402.0,-0.4417736628051845
2401.0,-0.4417265482103958
2400.0,-0.44166372079879945
2399.0,-0.44160088429693145
2398.0,-0.4415380387021606
2397.0,-0.4414908985372823
2396.0,-0.4414123202233835
2395.0,-0.4413651664097724
2394.0,-0.4413966028543683
2393.0,-0.441459468917794
2392.0,-0.44144375325505525
2391.0,-0.4412551209304292
2390.0,-0.44089334647283573
2389.0,-0.4403895062458978
2388.0,-0.43971154917435484
2387.0,-0.4388428493591503
2386.0,-0.4377981107081683
2385.0,-0.43657606399906035
2384.0,-0.4352230462110289
2383.0,-0.4337858297437993
2382.0,-0.43239198477992424
2381.0,-0.43102584813312195
2380.0,-0.4296231025826862
2379.0,-0.4281509987444454
2378.0,-0.4266413675614449
2377.0,-0.42512647050877383
2376.0,-0.42363901923997105
2375.0,-0.4224092566096984
2374.0,-0.4218341735047786
2373.0,-0.4222121710342237
2372.0,-0.4234261097131373
2371.0,-0.4250938339654424
2370.0,-0.4269502136549761
2369.0,-0.42855592025167555
2368.0,-0.4292515033306934
2367.0,-0.42836160504400267
2366.0,-0.4260230156898763
2365.0,-0.42331142287390344
2364.0,-0.4215710245264006
2363.0,-0.42112659874479874
2362.0,-0.42112659874479874
2361.0,-0.4217026189465889
2360.0,-0.42370450887017963
2359.0,-0.42625093198054564
2358.0,-0.42908983921257304
2357.0,-0.4322314856902141
2356.0,-0.4352549303958977
2355.0,-0.4388428493591503
2354.0,-0.44243273101376035
2353.0,-0.446210857674584
2352.0,-0.4485208164572949
2351.0,-0.4453706488275797
2350.0,-0.43654427666276785
2349.0,-0.42759969892486804
2348.0,-0.4282806147071767
2347.0,-0.43858981007044884
2346.0,-0.4494012529962208
2345.0,-0.4517710891583846
2344.0,-0.4415066124941145
2343.0,-0.4259741609193761
2342.0,-0.4167736040239389
2341.0,-0.419393939927422
2340.0,-0.4272588402704054
2339.0,-0.43186211252997
2338.0,-0.4344411515750033
2337.0,-0.4361467385266091
2336.0,-0.4374334437979712
2335.0,-0.43729066465704847
2334.0,-0.43668730135759004
2333.0,-0.4369096906362846
2332.0,-0.43808328876723523
2331.0,-0.4394905903896835
2330.0,-0.44027921323558816
2329.0,-0.4398850808173016
2328.0,-0.4396168663175639
2327.0,-0.44027921323558816
2326.0,-0.4417579585081639
2325.0,-0.44494993404981775
2324.0,-0.44740612873937113
2323.0,-0.4500026301731861
2322.0,-0.4506647232521521
2321.0,-0.45083393389100346
2320.0,-0.4506801087620964
2319.0,-0.45060317576125675
2318.0,-0.45104919757912976
2317.0,-0.4511260516170772
2316.0,-0.451341170597793
2315.0,-0.45123362442678916
2314.0,-0.4510953116339169
2313.0,-0.45044926886266445
2312.0,-0.449138853393678
2311.0,-0.4477160513115068
2310.0,-0.4463662736803591
2309.0,-0.4456975898951603
2308.0,-0.44502787494877305
2307.0,-0.44471602739155225
2306.0,-0.44398230300741304
2305.0,-0.44335687881824404
2304.0,-0.4423386396256759
2303.0,-0.441805069695703
2302.0,-0.4416480125256479
2301.0,-0.44205624308822555
2300.0,-0.44229158628607124
2299.0,-0.442307271299053
2298.0,-0.4420876295507603
2297.0,-0.4420876295507603
2296.0,-0.44216608578472005
2295.0,-0.44243273101376035
2294.0,-0.4426521983425231
2293.0,-0.4429968516540921
2292.0,-0.4431377673952879
2291.0,-0.4432942868340035
2290.0,-0.44335687881824404
2289.0,-0.44352896027506183
2288.0,-0.44360715658451566
2287.0,-0.4436853388169726
2286.0,-0.4437166077695318
2285.0,-0.4436853388169726
2284.0,-0.44351331932348526
2283.0,-0.4432629874586951
2282.0,-0.4431690757961162
2281.0,-0.4433099356757997
2280.0,-0.4434976778085855
2279.0,-0.44348203573032174
2278.0,-0.4433099356757997
2277.0,-0.44312211234844634
2276.0,-0.44301251121678487
2275.0,-0.44294986957786175
2274.0,-0.44294986957786175
2273.0,-0.44296553083467094
2272.0,-0.44296553083467094
2271.0,-0.44296553083467094
2270.0,-0.44304382864834047
2269.0,-0.4432629874586951
2268.0,-0.44348203573032174
2267.0,-0.4436384311664545
2266.0,-0.4437322414015967
2265.0,-0.44382603137753707
2264.0,-0.44390417422135275
2263.0,-0.4439666783745788
2262.0,-0.44406041774077565
2261.0,-0.4442166050696197
2260.0,-0.44434151450262993
2259.0,-0.44443517300674573
2258.0,-0.4444976007902155
2257.0,-0.4444976007902155
2256.0,-0.4444195646586371
2255.0,-0.44431029051225757
2254.0,-0.4442946776752019
2253.0,-0.4443571256560275
2252.0,-0.44445078079391775
2251.0,-0.4444819946856122
2250.0,-0.44454441573953263
2249.0,-0.4446692309385245
2248.0,-0.44476281880267354
2247.0,-0.44482519950974764
2246.0,-0.4448875712579383
2245.0,-0.44498111208794455
2244.0,-0.44505904739221913
2243.0,-0.4451525512999801
2242.0,-0.44530834642358474
2241.0,-0.44544851426605003
2240.0,-0.4454952268289083
2239.0,-0.4454329422951666
2238.0,-0.4453706488275797
2237.0,-0.4453706488275797
2236.0,-0.44533949874279344
2235.0,-0.4452460350806171
2234.0,-0.4451525512999801
2233.0,-0.44512138556750136
2232.0,-0.445136968713304
2231.0,-0.4451681333275692
2230.0,-0.4452148760562169
2229.0,-0.4452927694259716
2228.0,-0.44533949874279344
2227.0,-0.4453550740644694
2226.0,-0.4453706488275797
2225.0,-0.44541736976591784
2224.0,-0.4454329422951666
2223.0,-0.4454329422951666
2222.0,-0.4454952268289083
2221.0,-0.44561976910510426
2220.0,-0.4457131523799558
2219.0,-0.4456820268526793
2218.0,-0.44557306993676926
2217.0,-0.44546408567860807
2216.0,-0.4453706488275797
2215.0,-0.44533949874279344
2214.0,-0.4453706488275797
2213.0,-0.44546408567860807
2212.0,-0.4454952268289083
2211.0,-0.4454952268289083
2210.0,-0.44551079656673087
2209.0,-0.4456042032735974
2208.0,-0.4456975898951603
2207.0,-0.4457753967430853
2206.0,-0.44586874656401587
2205.0,-0.44600873368401217
2204.0,-0.4461020333689789
2203.0,-0.44611758136797475
2202.0,-0.4461020333689789
2201.0,-0.44611758136797475
2200.0,-0.44614867569618344
2199.0,-0.44614867569618344
2198.0,-0.4461642220254758
2197.0,-0.4461642220254758
2196.0,-0.44614867569618344
2195.0,-0.44611758136797475
2194.0,-0.44608648481333546
2193.0,-0.44608648481333546
2192.0,-0.44605538603194717
2191.0,-0.44602428502349056
2190.0,-0.4460398358061224
2189.0,-0.44608648481333546
2188.0,-0.4461020333689789
2187.0,-0.44607093570100487
2186.0,-0.44607093570100487
2185.0,-0.44613312881036293
2184.0,-0.44619531301463633
2183.0,-0.4461642220254758
2182.0,-0.44611758136797475
2181.0,-0.44608648481333546
2180.0,-0.44608648481333546
2179.0,-0.44611758136797475
2178.0,-0.446210857674584
2177.0,-0.44627303075108715
2176.0,-0.44619531301463633
2175.0,-0.44602428502349056
2174.0,-0.44586874656401587
2173.0,-0.44582207416169606
2172.0,-0.44580651557957784
2171.0,-0.44582207416169606
2170.0,-0.4458998587126004
2169.0,-0.44602428502349056
2168.0,-0.44611758136797475
2167.0,-0.4461020333689789
2166.0,-0.44602428502349056
2165.0,-0.4459465227568318
2164.0,-0.4458376321864481
2163.0,-0.4457442756766512
2162.0,-0.44572871430710626
2161.0,-0.4457909564400544
2160.0,-0.44582207416169606
2159.0,-0.44580651557957784
2158.0,-0.4457753967430853
2157.0,-0.4457909564400544
2156.0,-0.4457442756766512
2155.0,-0.44565089909450206
2154.0,-0.44557306993676926
2153.0,-0.4455886368841657
2152.0,-0.4456042032735974
2151.0,-0.44557306993676926
2150.0,-0.44555750243136716
2149.0,-0.44557306993676926
2148.0,-0.4455419343679199
2147.0,-0.44546408567860807
2146.0,-0.44541736976591784
2145.0,-0.44546408567860807
2144.0,-0.4454796565328807
2143.0,-0.44541736976591784
2142.0,-0.4453239228625119
2141.0,-0.44530834642358474
2140.0,-0.44530834642358474
2139.0,-0.445261613754528
2138.0,-0.44523045584786036
2137.0,-0.445277191869633
2136.0,-0.4453706488275797
2135.0,-0.44541736976591784
2134.0,-0.44544851426605003
2133.0,-0.44546408567860807
2132.0,-0.44546408567860807
2131.0,-0.44541736976591784
2130.0,-0.4453862230321648
2129.0,-0.44533949874279344
2128.0,-0.445277191869633
2127.0,-0.4451525512999801
2126.0,-0.44507463277493065
2125.0,-0.4451058018625318
2124.0,-0.44519929570564765
2123.0,-0.445277191869633
2122.0,-0.44533949874279344
2121.0,-0.4453239228625119
2120.0,-0.44523045584786036
2119.0,-0.44512138556750136
2118.0,-0.4450434614501799
2117.0,-0.44499670026769556
2116.0,-0.44494993404981775
2115.0,-0.4448875712579383
2114.0,-0.4449031627954616
2113.0,-0.4450122878879581
2112.0,-0.4451058018625318
2111.0,-0.44518371479611174
2110.0,-0.4452460350806171
2109.0,-0.44533949874279344
2108.0,-0.4454017966782642
2107.0,-0.44544851426605003
2106.0,-0.4454952268289083
2105.0,-0.44552636574638793
2104.0,-0.4454796565328807
2103.0,-0.4454017966782642
2102.0,-0.4454017966782642
2101.0,-0.44544851426605003
2100.0,-0.4454952268289083
2099.0,-0.44546408567860807
2098.0,-0.44541736976591784
2097.0,-0.4453862230321648
2096.0,-0.4453550740644694
2095.0,-0.4452927694259716
2094.0,-0.4452927694259716
2093.0,-0.4453550740644694
2092.0,-0.4454017966782642
2091.0,-0.44541736976591784
2090.0,-0.44551079656673087
2089.0,-0.4456353343787258
2088.0,-0.4456820268526793
2087.0,-0.4456042032735974
2086.0,-0.44552636574638793
2085.0,-0.44551079656673087
2084.0,-0.4454952268289083
2083.0,-0.4454952268289083
2082.0,-0.44551079656673087
2081.0,-0.44551079656673087
2080.0,-0.44541736976591784
2079.0,-0.4453239228625119
2078.0,-0.4453862230321648
2077.0,-0.44557306993676926
2076.0,-0.4456664632524734
2075.0,-0.44561976910510426
2074.0,-0.4455886368841657
2073.0,-0.4456353343787258
2072.0,-0.44572871430710626
2071.0,-0.44575983648863104
2070.0,-0.4457131523799558
2069.0,-0.4455886368841657
2068.0,-0.4453550740644694
2067.0,-0.44512138556750136
2066.0,-0.44512138556750136
2065.0,-0.4454017966782642
2064.0,-0.44572871430710626
2063.0,-0.4458998587126004
2062.0,-0.4459776293343549
2061.0,-0.4460398358061224
2060.0,-0.44607093570100487
2059.0,-0.44600873368401217
2058.0,-0.44596207632409657
2057.0,-0.4459465227568318
2056.0,-0.4459465227568318
2055.0,-0.44588430291691106
2054.0,-0.4458376321864481
2053.0,-0.4458531896538749
2052.0,-0.4458998587126004
2051.0,-0.4459309686325206
2050.0,-0.4459931817876468
2049.0,-0.44608648481333546
2048.0,-0.44613312881036293
2047.0,-0.44607093570100487
2046.0,-0.44596207632409657
2045.0,-0.4458531896538749
2044.0,-0.4457442756766512
2043.0,-0.4456664632524734
2042.0,-0.4456975898951603
2041.0,-0.4458531896538749
2040.0,-0.4460398358061224
2039.0,-0.44611758136797475
2038.0,-0.44614867569618344
2037.0,-0.44619531301463633
2036.0,-0.446210857674584
2035.0,-0.446210857674584
2034.0,-0.446210857674584
2033.0,-0.44627303075108715
2032.0,-0.44627303075108715
2031.0,-0.44619531301463633
2030.0,-0.44613312881036293
2029.0,-0.44617976779827995
2028.0,-0.446226401778163
2027.0,-0.44619531301463633
2026.0,-0.44613312881036293
2025.0,-0.44613312881036293
2024.0,-0.4461642220254758
2023.0,-0.44614867569618344
2022.0,-0.4459931817876468
2021.0,-0.4456820268526793
2020.0,-0.445261613754528
2019.0,-0.444871979160645
2018.0,-0.4447784148194782
2017.0,-0.4450434614501799
2016.0,-0.4454017966782642
2015.0,-0.4456042032735974
2014.0,-0.4456975898951603
2013.0,-0.44575983648863104
2012.0,-0.44572871430710626
2011.0,-0.44557306993676926
2010.0,-0.44541736976591784
2009.0,-0.44546408567860807
2008.0,-0.4455886368841657
2007.0,-0.4456042032735974
2006.0,-0.4455419343679199
2005.0,-0.4454796565328807
2004.0,-0.4454796565328807
2003.0,-0.44541736976591784
2002.0,-0.4453550740644694
2001.0,-0.4453550740644694
2000.0,-0.4452927694259716
1999.0,-0.44519929570564765
1998.0,-0.44507463277493065
1997.0,-0.44482519950974764
1996.0,-0.44434151450262993
1995.0,-0.4437322414015967
1994.0,-0.4432942868340035
1993.0,-0.4432316858274947
1992.0,-0.4434507498835405
1991.0,-0.44360715658451566
1990.0,-0.44362279415700456
1989.0,-0.4437166077695318
1988.0,-0.44391980110302365
1987.0,-0.44409165970049713
1986.0,-0.4441541368783648
1985.0,-0.4442009888641594
1984.0,-0.4442634503171514
1983.0,-0.4442790642768468
1982.0,-0.4442009888641594
1981.0,-0.44409165970049713
1980.0,-0.4439666783745788
1979.0,-0.44388854677737166
1978.0,-0.4438416610711635
1977.0,-0.44379477030270564
1976.0,-0.44379477030270564
1975.0,-0.4438416610711635
1974.0,-0.4438416610711635
1973.0,-0.4436853388169726
1972.0,-0.4433881714278267
1971.0,-0.44296553083467094
1970.0,-0.4424170505313185
1969.0,-0.4418678766638018
1968.0,-0.4416323036843135
1967.0,-0.44188357698670355
1966.0,-0.442307271299053
1965.0,-0.44257382988463423
1964.0,-0.44266787033725263
1963.0,-0.4426208526563382
1962.0,-0.44243273101376035
1961.0,-0.44216608578472005
1960.0,-0.4419777670066436
1959.0,-0.44194637260305125
1958.0,-0.44189927674203844
1957.0,-0.44174225364324826
1956.0,-0.44156946263632335
1955.0,-0.44155375095345706
1954.0,-0.44166372079879945
1953.0,-0.4417108422095657
1952.0,-0.4417108422095657
1951.0,-0.4416480125256479
1950.0,-0.4414908985372823
1949.0,-0.4413022866931673
1948.0,-0.44103494628343043
1947.0,-0.4406887318721586
1946.0,-0.4403264850984039
1945.0,-0.4400112421114537
1944.0,-0.4399323955975749
1943.0,-0.4403107283825056
1942.0,-0.4411135929003134
1941.0,-0.4418678766638018
1940.0,-0.4424170505313185
1939.0,-0.44280889284628033
1938.0,-0.4429811915267341
1937.0,-0.4429185453698419
1936.0,-0.4427932259397691
1935.0,-0.44280889284628033
1934.0,-0.4429342077562657
1933.0,-0.443106456737266
1932.0,-0.4433099356757997
1931.0,-0.4434351061149422
1930.0,-0.44360715658451566
1929.0,-0.44379477030270564
1928.0,-0.44379477030270564
1927.0,-0.44356024048840714
1926.0,-0.44304382864834047
1925.0,-0.4426365257822318
1924.0,-0.4424013694827025
1923.0,-0.44243273101376035
1922.0,-0.4428245591876383
1921.0,-0.44351331932348526
1920.0,-0.4444039557495514
1919.0,-0.4451681333275692
1918.0,-0.4457131523799558
1917.0,-0.4459309686325206
1916.0,-0.4458376321864481
1915.0,-0.4457909564400544
1914.0,-0.4457753967430853
1913.0,-0.44541736976591784
1912.0,-0.44471602739155225
1911.0,-0.444076039001569
1910.0,-0.4441385184264939
1909.0,-0.4447472222257778
1908.0,-0.44530834642358474
1907.0,-0.4456664632524734
1906.0,-0.4459465227568318
1905.0,-0.44635073458230545
1904.0,-0.44655269950267584
1903.0,-0.4464128876388558
1902.0,-0.4464284245132659
1901.0,-0.446661410954309
1900.0,-0.446661410954309
1899.0,-0.44635073458230545
1898.0,-0.4459776293343549
1897.0,-0.44591541395112344
1896.0,-0.44602428502349056
1895.0,-0.44614867569618344
1894.0,-0.44630411395192393
1893.0,-0.44645949659469153
1892.0,-0.4464128876388558
1891.0,-0.44614867569618344
1890.0,-0.446226401778163
1889.0,-0.4467856193011883
1888.0,-0.44714252054802817
1887.0,-0.4472355770047596
1886.0,-0.4475146267992627
1885.0,-0.44794834818543006
1884.0,-0.4481959946410674
1883.0,-0.4481186202921479
1882.0,-0.4481650465556912
1881.0,-0.44835070199590366
1880.0,-0.44835070199590366
1879.0,-0.4482269405212218
1878.0,-0.4482269405212218
1877.0,-0.4484589643626373
1876.0,-0.4486908643104268
1875.0,-0.4485053542594506
1874.0,-0.4479947926537289
1873.0,-0.44749912873585096
1872.0,-0.44700289846616226
1871.0,-0.4462419453254136
1870.0,-0.44541736976591784
1869.0,-0.44552636574638793
1868.0,-0.44647503180178694
1867.0,-0.44728209775697625
1866.0,-0.448087666692341
1865.0,-0.44893808784542166
1864.0,-0.4491851707276848
1863.0,-0.448876295154121
1862.0,-0.4486754081657236
1861.0,-0.4488917441512199
1860.0,-0.4490616468581412
1859.0,-0.44890719259877665
1858.0,-0.44881449366952353
1857.0,-0.44899987174592804
1856.0,-0.44909253111941894
1855.0,-0.4488917441512199
1854.0,-0.44879904192412834
1853.0,-0.44881449366952353
1852.0,-0.4484434999624751
1851.0,-0.44791738244695667
1850.0,-0.44726659139325387
1849.0,-0.4464128876388558
1848.0,-0.4457753967430853
1847.0,-0.44605538603194717
1846.0,-0.44734411767595406
1845.0,-0.44879904192412834
1844.0,-0.4494321131171679
1843.0,-0.4487835896289565
1842.0,-0.4481340962647784
1841.0,-0.4484125695100798
1840.0,-0.44853627810465735
1839.0,-0.44782447198195774
1838.0,-0.44700289846616226
1837.0,-0.44706495826648274
1836.0,-0.4474836301193621
1835.0,-0.447359621271918
1834.0,-0.4468632314825167
1833.0,-0.4463818122224419
1832.0,-0.4458998587126004
1831.0,-0.44530834642358474
1830.0,-0.44498111208794455
1829.0,-0.4450434614501799
1828.0,-0.4453862230321648
1827.0,-0.4462419453254136
1826.0,-0.4470339294748502
1825.0,-0.4474836301193621
1824.0,-0.44776252062749267
1823.0,-0.4478709296990484
1822.0,-0.44802575287344615
1821.0,-0.4481959946410674
1820.0,-0.4481959946410674
1819.0,-0.44797931171616456
1818.0,-0.447793497409382
1817.0,-0.4481650465556912
1816.0,-0.4485208164572949
1815.0,-0.4480567108862119
1814.0,-0.44701841424765787
1813.0,-0.4461642220254758
1812.0,-0.44608648481333546
1811.0,-0.44627303075108715
1810.0,-0.4466458824128967
1809.0,-0.4476540844879868
1808.0,-0.4486908643104268
1807.0,-0.44893808784542166
1806.0,-0.4485981191900783
1805.0,-0.44835070199590366
1804.0,-0.44801027303947594
1803.0,-0.44731310882356823
1802.0,-0.44680114284709127
1801.0,-0.4471890512687997
1800.0,-0.4481650465556912
1799.0,-0.4483816368546605
1798.0,-0.4478554443455356
1797.0,-0.447576613522922
1796.0,-0.44763859140049744
1795.0,-0.44782447198195774
1794.0,-0.44794834818543006
1793.0,-0.4484744282121609
1792.0,-0.44994098877333766
1791.0,-0.45095695477757136
1790.0,-0.45117215751254003
1789.0,-0.45160224333297894
1788.0,-0.45189384490436035
1787.0,-0.45155618307642786
1786.0,-0.45115678942457116
1785.0,-0.4512182585137934
1784.0,-0.4508954486902428
1783.0,-0.44998722064342767
1782.0,-0.4492777905791563
1781.0,-0.4490307604004151
1780.0,-0.44950925382713525
1779.0,-0.4498485102659995
1778.0,-0.4496172278069608
1777.0,-0.44890719259877665
1776.0,-0.448087666692341
1775.0,-0.4479328655921804
1774.0,-0.4478399584398516
1773.0,-0.4474681309497557
1772.0,-0.4480412321556786
1771.0,-0.4490616468581412
1770.0,-0.4500642628252307
1769.0,-0.4517710891583846
1768.0,-0.45284402729616247
1767.0,-0.4520165659625479
1766.0,-0.45014129134246916
1765.0,-0.4490770892633167
1764.0,-0.44896898089436776
1763.0,-0.44873722944439054
1762.0,-0.4480412321556786
1761.0,-0.4469563477954597
1760.0,-0.4459931817876468
1759.0,-0.44541736976591784
1758.0,-0.44498111208794455
1757.0,-0.44398230300741304
1756.0,-0.442307271299053
1755.0,-0.44049977125341133
1754.0,-0.438874468906445
1753.0,-0.4366237406415272
1752.0,-0.43301736509343547
1751.0,-0.42823201325433446
1750.0,-0.42273753394639435
1749.0,-0.41772073907568386
1748.0,-0.41336683140929864
1747.0,-0.4086808218104676
1746.0,-0.40255368035325123
1745.0,-0.3949592284861998
1744.0,-0.38681988599196737
1743.0,-0.3782525060750346
1742.0,-0.3690673552777666
1741.0,-0.3588671976669042
1740.0,-0.3460594330525737
1739.0,-0.3303325892229796
1738.0,-0.3158864157084871
1737.0,-0.30659656679727565
1736.0,-0.2988748997046988
1735.0,-0.284814097381231
1734.0,-0.2610248339923973
1733.0,-0.23388410876588583
1732.0,-0.21333178070659287
1731.0,-0.19901427093461965
1730.0,-0.18383903705642135
1729.0,-0.16542240081456994
1728.0,-0.14594186957612187
1727.0,-0.12733160938002142
1726.0,-0.10832819426618423
1725.0,-0.08756847616178387
1724.0,-0.0653556012899652
1723.0,-0.04214218306495621
1722.0,-0.020651268004341805
1721.0,-0.0038481220342978517
1720.0,0.009483555971770974
1719.0,0.02544225514642018
1718.0,0.047885915093007325
1717.0,0.06894915322260897
1716.0,0.07831352451639795
1715.0,0.07743023101428781
1714.0,0.07083661679493547
1713.0,0.05858795962645047
1712.0,0.040481623027001756
1711.0,0.017728766960431575
1710.0,-0.00825941499127536
1709.0,-0.03614962974585323
1708.0,-0.0654303186203693
1707.0,-0.09628417824486402
1706.0,-0.12907732425273677
1705.0,-0.16103841242296202
1704.0,-0.1876053154181485
1703.0,-0.2103720340252897
1702.0,-0.23134213790389602
1701.0,-0.2507370679037897
1700.0,-0.2673360249636416
1699.0,-0.2780673308886623
1698.0,-0.28847280059978253
1697.0,-0.30209271584335573
1696.0,-0.3140147710960961
1695.0,-0.3194600160468877
1694.0,-0.32166055684867034
1693.0,-0.326499714725037
1692.0,-0.33207471224768614
1691.0,-0.3353776541108293
1690.0,-0.3373993544718972
1689.0,-0.3397693437687299
1688.0,-0.3433495020993096
1687.0,-0.3481100684802376
1686.0,-0.3514484229091166
1685.0,-0.35256838617930875
1684.0,-0.3539546793717099
1683.0,-0.3545117997442726
1682.0,-0.35644655550447
1681.0,-0.36100971260814285
1680.0,-0.3644759487870144
1679.0,-0.3670762422687499
1678.0,-0.3705685987670515
1677.0,-0.3745833927327258
1676.0,-0.3774519630245745
1675.0,-0.37874301881301964
1674.0,-0.3787248615505674
1673.0,-0.3788519464488811
1672.0,-0.38035598241679613
1671.0,-0.38216118279587397
1670.0,-0.3849802956513044
1669.0,-0.38801234336419066
1668.0,-0.38937874795250993
1667.0,-0.39049352650417335
1666.0,-0.39238034797755983
1665.0,-0.39420644536022964
1664.0,-0.3951341074778125
1663.0,-0.3959899981006467
1662.0,-0.3976619712221421
1661.0,-0.3988250669622895
1660.0,-0.39974292624286134
1659.0,-0.4005725243593137
1658.0,-0.40091772307544815
1657.0,-0.401366071597677
1656.0,-0.40384088658089645
1655.0,-0.4065061167858022
1654.0,-0.4086808218104676
1653.0,-0.4124605474299612
1652.0,-0.4069317204751268
1651.0,-0.3995872000180758
1650.0,-0.40064158605651023
1649.0,-0.4025364918039087
1648.0,-0.40257086822233035
1647.0,-0.4047824189666427
1646.0,-0.4087316610826246
1645.0,-0.40973029255844606
1644.0,-0.40940894997485966
1643.0,-0.4098655235985871
1642.0,-0.41059166988311935
1641.0,-0.4101865286571087
1640.0,-0.4089349586788016
1639.0,-0.4082399653118496
1638.0,-0.408697768895788
1637.0,-0.40981481689298116
1636.0,-0.4125613390944922
1635.0,-0.4151069564880703
1634.0,-0.41432141717753934
1633.0,-0.41395322915541444
1632.0,-0.41463914673700897
1631.0,-0.41483969833692624
1630.0,-0.4146224299225225
1629.0,-0.4142712280965801
1628.0,-0.41400345499713564
1627.0,-0.41422103321486814
1626.0,-0.41504015736744293
1625.0,-0.41562430160041286
1624.0,-0.4156743345662606
1623.0,-0.41590774555681653
1622.0,-0.4161077123235617
1621.0,-0.4158243988887613
1620.0,-0.4162742809912361
1619.0,-0.41723912146738096
1618.0,-0.41740525684368635
1617.0,-0.4165905855631924
1616.0,-0.4145722756179451
1615.0,-0.4126956916034996
1614.0,-0.41324945678750247
1613.0,-0.41487311460146836
1612.0,-0.41529060110998284
1611.0,-0.4152238302320552
1610.0,-0.4160743909223945
1609.0,-0.41753811940132746
1608.0,-0.4187817331080548
1607.0,-0.4201373545938254
1606.0,-0.42176840120692427
1605.0,-0.42272112597155775
1604.0,-0.42318031510478615
1603.0,-0.4241299509195553
1602.0,-0.42555052253771297
1601.0,-0.42673892163663396
1600.0,-0.42740495531027367
1599.0,-0.427972713608209
1598.0,-0.4284263864405884
1597.0,-0.4284425802799885
1596.0,-0.4282644148272152
1595.0,-0.42853973063798856
1594.0,-0.4293323128283313
1593.0,-0.42984913785849166
1592.0,-0.42984913785849166
1591.0,-0.42989755868714763
1590.0,-0.4302202263210724
1589.0,-0.4302040986317488
1588.0,-0.42957465114269544
1587.0,-0.42868541543918814
1586.0,-0.4277132590522714
1585.0,-0.42581127198118907
1584.0,-0.42283596877952245
1583.0,-0.4199227210376031
1582.0,-0.416939917541042
1581.0,-0.41326622653292056
1580.0,-0.4099669192522408
1579.0,-0.40883332177641796
1578.0,-0.40932434660406924
1577.0,-0.4107940988548493
1576.0,-0.4135009350021206
1575.0,-0.4155909430873077
1574.0,-0.41723912146738096
1573.0,-0.4198731751494762
1572.0,-0.42213002564028823
1571.0,-0.4229507812270188
1570.0,-0.4241463057551562
1569.0,-0.42600673137701106
1568.0,-0.42703145245165564
1567.0,-0.4282158115613255
1566.0,-0.4292676664331685
1565.0,-0.4291868449047129
1564.0,-0.42889576280138764
1563.0,-0.43062322403191455
1562.0,-0.4338018249736004
1561.0,-0.43437726125022413
1560.0,-0.4288310513865681
1559.0,-0.4289442900355742
1558.0,-0.4343612872003133
1557.0,-0.43309747696798784
1556.0,-0.4343453125628294
1555.0,-0.4366237406415272
1554.0,-0.4368302789660925
1553.0,-0.4352389885960646
1552.0,-0.43420151437756216
1551.0,-0.43429738512450866
1550.0,-0.4347125806455234
1549.0,-0.43519115968517763
1548.0,-0.4353824437324185
1547.0,-0.43533463061852595
1546.0,-0.4341216059186892
1545.0,-0.4320388084546214
1544.0,-0.4309936519375479
1543.0,-0.4311707014832571
1542.0,-0.4309131510046025
1541.0,-0.4317817724291242
1540.0,-0.4370525950609925
1539.0,-0.4394905903896835
1538.0,-0.43668730135759004
1537.0,-0.4362898941796396
1536.0,-0.4376713047707286
1535.0,-0.43775056282038793
1534.0,-0.4368302789660925
1533.0,-0.43684616246182095
1532.0,-0.4371637104465038
1531.0,-0.4367826249931577
1530.0,-0.43598762132621305
1529.0,-0.43495193608775296
1528.0,-0.43394575553802905
1527.0,-0.43341777677003
1526.0,-0.43330569870812274
1525.0,-0.43335373570497193
1524.0,-0.4337858297437993
1523.0,-0.43402569635624655
1522.0,-0.4345848704495938
1521.0,-0.4359398747958596
1520.0,-0.43543025158296533
1519.0,-0.4342174943051478
1518.0,-0.4335938410214668
1517.0,-0.4338817922871452
1516.0,-0.4352230462110289
1515.0,-0.4364489006918335
1514.0,-0.43714783856045747
1513.0,-0.4364806950094948
1512.0,-0.4337698339248659
1511.0,-0.42954234717943285
1510.0,-0.4251754207256351
1509.0,-0.4205498135321757
1508.0,-0.41550753559278375
1507.0,-0.4141708325310618
1506.0,-0.41398671369528506
1505.0,-0.41037226530195436
1504.0,-0.41028784940146057
1503.0,-0.41371876506107874
1502.0,-0.41793646337046386
1501.0,-0.42199856068335784
1500.0,-0.4259741609193761
1499.0,-0.42999438415170665
1498.0,-0.4338658000023532
1497.0,-0.4381941407933372
1496.0,-0.4415380387021606
1495.0,-0.44219746431021356
1494.0,-0.4420248543572276
1493.0,-0.44213470499191043
1492.0,-0.4412393978711475
1491.0,-0.43898511919634187
1490.0,-0.4380674504534938
1489.0,-0.44024769580156686
1488.0,-0.4428402249638834
1487.0,-0.4437791389214203
1486.0,-0.4442166050696197
1485.0,-0.4443571256560275
1484.0,-0.4438572902023177
1483.0,-0.44312211234844634
1482.0,-0.44226021456056186
1481.0,-0.4417265482103958
1480.0,-0.4413180074758478
1479.0,-0.44073595918333197
1478.0,-0.4396642103262489
1477.0,-0.4383049645320982
1476.0,-0.4370843452150366
1475.0,-0.4363376022463208
1474.0,-0.4363376022463208
1473.0,-0.43756031919528127
1472.0,-0.439253724017898
1471.0,-0.43855816979053497
1470.0,-0.4367826249931577
1469.0,-0.4354143162175279
1468.0,-0.43399372179470763
1467.0,-0.43210304369832686
1466.0,-0.43004278879001623
1465.0,-0.427907864499248
1464.0,-0.42548531070803186
1463.0,-0.4223107250017959
1462.0,-0.4188976222299976
1461.0,-0.4156910109407237
1460.0,-0.4126453142831643
1459.0,-0.40973029255844606
1458.0,-0.40757784033090605
1457.0,-0.4077646957618266
1456.0,-0.4062846379247267
1455.0,-0.40318917890766626
1454.0,-0.40191725051757476
1453.0,-0.4015039319216358
1452.0,-0.40114195519372986
1451.0,-0.40091772307544815
1450.0,-0.400934975810852
1449.0,-0.40122816749811285
1448.0,-0.40167619580946123
1447.0,-0.402295780655316
1446.0,-0.4028286046635383
1445.0,-0.4029144828315232
1444.0,-0.4032749858116862
1443.0,-0.4036694793552811
1442.0,-0.40360089751828054
1441.0,-0.4035323048494335
1440.0,-0.40476531840231456
1439.0,-0.40732290783963876
1438.0,-0.4100007125434617
1437.0,-0.4128132159638698
1436.0,-0.41575771003579076
1435.0,-0.4175049075723125
1434.0,-0.41863268735406534
1433.0,-0.4202198777251476
1432.0,-0.4222450248417817
1431.0,-0.42471833733156705
1430.0,-0.4274536494013197
1429.0,-0.43023635341151056
1428.0,-0.4323277922616042
1427.0,-0.43346580137229074
1426.0,-0.43372184293283933
1425.0,-0.433033388650613
1424.0,-0.4328731264686758
1423.0,-0.4337698339248659
1422.0,-0.43480833865309254
1421.0,-0.434521001265773
1420.0,-0.4317174896460134
1419.0,-0.42667388802137296
1418.0,-0.41993923507764164
1417.0,-0.4125109461862104
1416.0,-0.4046284896419188
1415.0,-0.39457424664932583
1414.0,-0.38136781891154836
1413.0,-0.36574998010488846
1412.0,-0.349821269512391
1411.0,-0.3359190309907123
1410.0,-0.32604896794674065
1409.0,-0.32157771969579807
1408.0,-0.32255005977801376
1407.0,-0.32821645750071715
1406.0,-0.3374792283940322
1405.0,-0.34848010348798963
1404.0,-0.3593800878746345
1403.0,-0.3683240819799578
1402.0,-0.37483995965497563
1401.0,-0.3795049391521341
1400.0,-0.3833485177720215
1399.0,-0.38738982633872965
1398.0,-0.3913586024874034
1397.0,-0.3949592284861998
1396.0,-0.3987210360255329
1395.0,-0.40310335504676553
1394.0,-0.40694873595035386
1393.0,-0.4091212312452015
1392.0,-0.41062541459812474
1391.0,-0.4121580320091054
1390.0,-0.41351769504001545
1389.0,-0.41455555622921514
1388.0,-0.41564097989615423
1387.0,-0.41702305042196475
1386.0,-0.4181354984252321
1385.0,-0.41853329509321213
1384.0,-0.41848359043142347
1383.0,-0.41790328199122895
1382.0,-0.4166571466548441
1381.0,-0.41499005128352184
1380.0,-0.41293070852959524
1379.0,-0.4104904200034478
1378.0,-0.4076118200259322
1377.0,-0.40435470272542595
1376.0,-0.4008487052792118
1375.0,-0.39767935377860564
1374.0,-0.3954487123158721
1373.0,-0.39387340414938343
1372.0,-0.3926090304975669
1371.0,-0.39186977570936143
1370.0,-0.39190500686715657
1369.0,-0.3929254691722801
1368.0,-0.3952739599869801
1367.0,-0.3987383762456109
1366.0,-0.40262242774852774
1365.0,-0.40642094597462064
1364.0,-0.4104566647973136
1363.0,-0.41565765755142037
1362.0,-0.4217026189465889
1361.0,-0.4268527070353696
1360.0,-0.43025247990310733
1359.0,-0.4324080314270802
1358.0,-0.4338658000023532
1357.0,-0.43488812086731565
1356.0,-0.43566921192604635
1355.0,-0.4364012048506014
1354.0,-0.43697320951926777
1353.0,-0.4371637104465038
1352.0,-0.436750852772652
1351.0,-0.43586028557836176
1350.0,-0.4348402532975735
1349.0,-0.43349781482372096
1348.0,-0.43181391025293747
1347.0,-0.42984913785849166
1346.0,-0.4276483711869328
1345.0,-0.4250938339654424
1344.0,-0.4222121710342237
1343.0,-0.41917893856105737
1342.0,-0.41620766119023056
1341.0,-0.4138192651730441
1340.0,-0.4130817237088289
1339.0,-0.41467257843572103
1338.0,-0.4178700980766452
1337.0,-0.421406475408415
1336.0,-0.4247346700248955
1335.0,-0.42776191858979873
1334.0,-0.43039759138696665
1333.0,-0.4324561678114316
1332.0,-0.4338498071286465
1331.0,-0.4347125806455234
1330.0,-0.4349997913501733
1329.0,-0.4346966189246655
1328.0,-0.4338498071286465
1327.0,-0.43264866001310676
1326.0,-0.43115460905224445
1325.0,-0.4292515033306934
1324.0,-0.42708018843635953
1323.0,-0.4248326532881306
1322.0,-0.4225241819056462
1321.0,-0.42003830613317783
1320.0,-0.417554724363455
1319.0,-0.41540742545013654
1318.0,-0.4135512131755501
1317.0,-0.4116365387564689
1316.0,-0.40939203061915297
1315.0,-0.40694873595035386
1314.0,-0.4043889355305441
1313.0,-0.40165897249515226
1312.0,-0.3987557157733681
1311.0,-0.3956583223341328
1310.0,-0.3923099598928186
1309.0,-0.3886517170268249
1308.0,-0.3848191839519597
1307.0,-0.3810789632428331
1306.0,-0.3774701735821342
1305.0,-0.3736842129970155
1304.0,-0.3694756140183326
1303.0,-0.36477605727742457
1302.0,-0.359361102738486
1301.0,-0.35297317900593184
1300.0,-0.3455109576969497
1299.0,-0.33723956254371723
1298.0,-0.3283796034387376
1297.0,-0.3191060593097763
1296.0,-0.3095450032954359
1295.0,-0.2999646686241553
1294.0,-0.2905020614535183
1293.0,-0.28105610458350405
1292.0,-0.27172546949023824
1291.0,-0.26273577966648665
1290.0,-0.2542095967296154
1289.0,-0.24603055119058448
1288.0,-0.23814650643103485
1287.0,-0.23088299885759245
1286.0,-0.22442946182269763
1285.0,-0.218561761646626
1284.0,-0.21309255125248372
1283.0,-0.2082800785453096
1282.0,-0.20425567848015103
1281.0,-0.20076844478317168
1280.0,-0.19758376903577712
1279.0,-0.19473628872869453
1278.0,-0.1920375027132475
1277.0,-0.18895659252639874
1276.0,-0.1849468230518938
1275.0,-0.17992503207433685
1274.0,-0.17368148972845887
1273.0,-0.1656300623761835
1272.0,-0.15542713863979785
1271.0,-0.1434207851299365
1270.0,-0.12994755728066698
1269.0,-0.11501107130045307
1268.0,-0.09867832957643952
1267.0,-0.08163530150295095
1266.0,-0.0645328611315783
1265.0,-0.047430640155542214
1264.0,-0.030640194868631898
1263.0,-0.015024263324625142
1262.0,-0.001344230411601366
1261.0,0.01037222925484893
1260.0,0.02026956933771462
1259.0,0.027843464140506313
1258.0,0.032920265855503006
1257.0,0.03649550058570927
1256.0,0.03981472339538916
1255.0,0.04325545471730896
1254.0,0.04696554274964315
1253.0,0.0518316382728683
1252.0,0.0582898510583536
1251.0,0.06575411897692884
1250.0,0.07360609973031784
1249.0,0.0823369756726251
1248.0,0.09215885741705532
1247.0,0.10231793820358015
1246.0,0.11165198982195101
1245.0,0.1201016756699902
1244.0,0.1275523522109867
1243.0,0.13282724882135022
1242.0,0.1345998818206986
1241.0,0.13288622016802298
1240.0,0.12761061158217912
1239.0,0.11776015198117662
1238.0,0.10253786198693682
1237.0,0.08270459905431071
1236.0,0.05933412752417122
1235.0,0.032873418923587305
1234.0,0.004233220950025984
1233.0,-0.024936968037443386
1232.0,-0.05327056668137864
1231.0,-0.08041000715563706
1230.0,-0.1060888583824422
1229.0,-0.12985095078891007
1228.0,-0.15152306756494438
1227.0,-0.17155094567674567
1226.0,-0.1901635516307052
1225.0,-0.20733809528835634
1224.0,-0.22308039783115508
1223.0,-0.23754373814287444
1222.0,-0.25081020402598186
1221.0,-0.2628780546823055
1220.0,-0.27385743537111784
1219.0,-0.28400186786771453
1218.0,-0.293340452648696
1217.0,-0.301702630953145
1216.0,-0.30911893195555873
1215.0,-0.31584444475103446
1214.0,-0.3220331286318032
1213.0,-0.3276858095410242
1212.0,-0.3329028056857912
1211.0,-0.3378584290410944
1210.0,-0.3424818987595164
1209.0,-0.34668541502757355
1208.0,-0.35055811794169944
1207.0,-0.35422372326485085
1206.0,-0.3577062107846425
1205.0,-0.36093405154838676
1204.0,-0.3639502593966446
1203.0,-0.36687102998370014
1202.0,-0.36966105937829763
1201.0,-0.37228587334527674
1200.0,-0.37480331651608223
1199.0,-0.377397326769886
1198.0,-0.3799940401657418
1197.0,-0.38244931979891517
1196.0,-0.3846938335182135
1195.0,-0.3867842398736805
1194.0,-0.3887404445246112
1193.0,-0.3905288694796081
1192.0,-0.3922395603981106
1191.0,-0.39390847314826427
1190.0,-0.39534386935682875
1189.0,-0.3963911617301985
1188.0,-0.39703573537909387
1187.0,-0.39734896617659077
1186.0,-0.39727937885359266
1185.0,-0.39675711821996096
1184.0,-0.39576308941776306
1183.0,-0.3943641126271289
1182.0,-0.39255626829507184
1181.0,-0.390352125833223
1180.0,-0.38799456954103206
1179.0,-0.38576709362677564
1178.0,-0.3836897254376037
1177.0,-0.38176468201712455
1176.0,-0.38017504899673016
1175.0,-0.3792873839907136
1174.0,-0.37930551775058197
1173.0,-0.3802112417116059
1172.0,-0.3820350627189302
1171.0,-0.38472965161983375
1170.0,-0.3880656604696413
1169.0,-0.391675953237296
1168.0,-0.3952914383844832
1167.0,-0.3987383762456109
1166.0,-0.4017278616544995
1165.0,-0.4040636148838921
1164.0,-0.40585839931763656
1163.0,-0.4072549005607802
1162.0,-0.40832478017041485
1161.0,-0.40895189585026026
1160.0,-0.40920587418957366
1159.0,-0.40907043755902794
1158.0,-0.40847740518759057
1157.0,-0.4072719033789052
1156.0,-0.40551710697637633
1155.0,-0.4032406650844753
1154.0,-0.400365273349939
1153.0,-0.39680937255438176
1152.0,-0.39262661647403885
1151.0,-0.3879234669734366
1150.0,-0.3827012829549048
1149.0,-0.3767593954048798
1148.0,-0.3701243266356573
1147.0,-0.3630099427388598
1146.0,-0.3555856000611315
1145.0,-0.3479541698940163
1144.0,-0.34020608004002195
1143.0,-0.3324586591892027
1142.0,-0.32481727545382766
1141.0,-0.317331935445897
1140.0,-0.3102045888980056
1139.0,-0.3036495610603138
1138.0,-0.29769486969307346
1137.0,-0.29218959262349875
1136.0,-0.2869726454573742
1135.0,-0.28194193344082485
1134.0,-0.27694408571298235
1133.0,-0.27170223835370066
1132.0,-0.26609051627517966
1131.0,-0.26011911003137334
1130.0,-0.2536287301937543
1129.0,-0.24630157717169077
1128.0,-0.23792056635038028
1127.0,-0.22847735444505624
1126.0,-0.218036331200945
1125.0,-0.20663701128353607
1124.0,-0.19465307195293402
1123.0,-0.1828424585586923
1122.0,-0.17181418105114643
1121.0,-0.16193670524578074
1120.0,-0.15360147428841087
1119.0,-0.14758358242164027
1118.0,-0.14426277376199081
1117.0,-0.14351442007555137
1116.0,-0.14494763367037367
1115.0,-0.14829409743474553
1114.0,-0.15286905421701258
1113.0,-0.1573056303279663
1112.0,-0.1601682929585122
1111.0,-0.16052855385175713
1110.0,-0.15775888604686372
1109.0,-0.1513698502474603
1108.0,-0.14144977340046738
1107.0,-0.12849619863270556
1106.0,-0.11307389359420794
1105.0,-0.09544832653812207
1104.0,-0.07580235362682597
1103.0,-0.05488105486277162
1102.0,-0.03346396607740498
1101.0,-0.012035359149529246
1100.0,0.008951223547323472
1099.0,0.02839947976994095
1098.0,0.0451788169482068
1097.0,0.05898575629443026
1096.0,0.06976434723371505
1095.0,0.07685964397479927
1094.0,0.07977228854307139
1093.0,0.07883394936226118
1092.0,0.07453319930846214
1091.0,0.06676587128519196
1090.0,0.055566682299785564
1089.0,0.042057664554595586
1088.0,0.027056991894431892
1087.0,0.010728208358306901
1086.0,-0.006850960324272126
1085.0,-0.02505996859957893
1084.0,-0.04367658560271748
1083.0,-0.06307052564296045
1082.0,-0.08328756932728298
1081.0,-0.1037353227383333
1080.0,-0.12388429346000773
1079.0,-0.14363923527454325
1078.0,-0.16292268605542715
1077.0,-0.18118593412823003
1076.0,-0.19818955651682169
1075.0,-0.21399561636808517
1074.0,-0.22855433653900992
1073.0,-0.2416460780013887
1072.0,-0.2532652936901574
1071.0,-0.26373072736832226
1070.0,-0.27318653152347494
1069.0,-0.28162415144020114
1068.0,-0.28912051806794814
1067.0,-0.2958968186789894
1066.0,-0.3019193880358553
1065.0,-0.30696086288319346
1064.0,-0.31107540830007974
1063.0,-0.31447817586418214
1062.0,-0.31729010396041835
1061.0,-0.31941838904772757
1060.0,-0.3207484779871739
1059.0,-0.321391278311689
1058.0,-0.3212462129905913
1057.0,-0.3200839427156934
1056.0,-0.3179171535667562
1055.0,-0.314962116375185
1054.0,-0.31147836743806767
1053.0,-0.3075388234392711
1052.0,-0.3032392686519958
1051.0,-0.29872211360570766
1050.0,-0.2941133563620433
1049.0,-0.2894105608859898
1048.0,-0.2847690133490195
1047.0,-0.280510079703276
1046.0,-0.27678338470026853
1045.0,-0.2736030765905362
1044.0,-0.27102799426232327
1043.0,-0.26927938977189836
1042.0,-0.2684141445765422
1041.0,-0.2682502554469486
1040.0,-0.26869495356217765
1039.0,-0.26974637313076677
1038.0,-0.271330371066159
1037.0,-0.27311706848674167
1036.0,-0.2749656245392864
1035.0,-0.27692113206577407
1034.0,-0.279004961844902
1033.0,-0.2809878890046469
1032.0,-0.2828259591535267
1031.0,-0.2845660772669736
1030.0,-0.2862318540285531
1029.0,-0.28757780907870556
1028.0,-0.2882939497862167
1027.0,-0.2880479095921187
1026.0,-0.2862992509428288
1025.0,-0.2822368086651026
1024.0,-0.27501173777801124
1023.0,-0.26373072736832226
1022.0,-0.24770328193417157
1021.0,-0.22688332839091707
1020.0,-0.2025972856924314
1019.0,-0.1779691360093758
1018.0,-0.1576380641009174
1017.0,-0.14671703574397554
1016.0,-0.14897263450920484
1015.0,-0.16465021593429663
1014.0,-0.18985511378961428
1013.0,-0.21829912588517297
1012.0,-0.24482119459328278
1011.0,-0.2669369111591733
1010.0,-0.28434048145809676
1009.0,-0.29776051109913393
1008.0,-0.3082655332099331
1007.0,-0.3167040397000367
1006.0,-0.3235202277543374
1005.0,-0.32892976894790005
1004.0,-0.33326586072617337
1003.0,-0.33699976436052825
1002.0,-0.3403449495281441
1001.0,-0.3432312945640388
1000.0,-0.34566773563535325
999.0,-0.3478177127089124
998.0,-0.3497048106562106
997.0,-0.3513130593987337
996.0,-0.3527033590475481
995.0,-0.3539931244194845
994.0,-0.3552599055273786
993.0,-0.35638921154427505
992.0,-0.357305807546096
991.0,-0.3581062452064159
990.0,-0.35884819009608027
989.0,-0.35947500110837627
988.0,-0.35993029611210225
987.0,-0.3602335611578322
986.0,-0.36040405472993875
985.0,-0.3604419331026376
984.0,-0.3604419331026376
983.0,-0.36047980817194203
982.0,-0.3605366145832942
981.0,-0.360517679938428
980.0,-0.36036617305326946
979.0,-0.36017671509017957
978.0,-0.36006300062776164
977.0,-0.3599871744412919
976.0,-0.359968215825905
975.0,-0.3600440453222613
974.0,-0.3601577647473424
973.0,-0.36030934434205886
972.0,-0.36066913398770595
971.0,-0.36142561298389086
970.0,-0.36248247475117434
969.0,-0.36366837811076813
968.0,-0.3649260337899758
967.0,-0.3662921822105383
966.0,-0.3677657910149099
965.0,-0.36912304952819897
964.0,-0.3703465195112283
963.0,-0.37152963209929446
962.0,-0.37270953038592536
961.0,-0.3738495080886488
960.0,-0.374913236658887
959.0,-0.3759926387956076
958.0,-0.37712404234645636
957.0,-0.37823432829289594
956.0,-0.3792692494736474
955.0,-0.3802112417116059
954.0,-0.3810247814098262
953.0,-0.38167451769643534
952.0,-0.38216118279587397
951.0,-0.38248532348655484
950.0,-0.3827372657613304
949.0,-0.3829171350875309
948.0,-0.3831149053420688
947.0,-0.38338444699495033
946.0,-0.3836358683618797
945.0,-0.38383331166262646
944.0,-0.3840665380759458
943.0,-0.3844251035536317
942.0,-0.3848191839519597
941.0,-0.38508767025591517
940.0,-0.38521290708445477
939.0,-0.3853202242009113
938.0,-0.3854632724505258
937.0,-0.3855705277254655
936.0,-0.38571349356723195
935.0,-0.3859457127301833
934.0,-0.3862491967089232
933.0,-0.38648112968207426
932.0,-0.386623796125078
931.0,-0.3867307652098315
930.0,-0.3868911694524315
929.0,-0.38708713866100464
928.0,-0.38742542278823144
927.0,-0.3879412437066989
926.0,-0.3884919618358005
925.0,-0.38888237082715005
924.0,-0.38907744379234943
923.0,-0.38925470684864827
922.0,-0.38953817733194906
921.0,-0.3898214629105228
920.0,-0.3900338058957593
919.0,-0.39015762470825965
918.0,-0.3900868754237661
917.0,-0.3897329560154552
916.0,-0.389112902192263
915.0,-0.3883676671573011
914.0,-0.3875499873902335
913.0,-0.3864989655506532
912.0,-0.38508767025591517
911.0,-0.38325868170817534
910.0,-0.38106090338289045
909.0,-0.3784342420620792
908.0,-0.37544412550511685
907.0,-0.37221215165406196
906.0,-0.3688259309588453
905.0,-0.3653382023469409
904.0,-0.3619354924211464
903.0,-0.35884819009608027
902.0,-0.3561597599568995
901.0,-0.3538008651388629
900.0,-0.351719023422862
899.0,-0.350015298234692
898.0,-0.3487914675605839
897.0,-0.3480126384221953
896.0,-0.3476422047324266
895.0,-0.3475641784149506
894.0,-0.34754466964501285
893.0,-0.34740808371225373
892.0,-0.3470566653665226
891.0,-0.346548558548474
890.0,-0.34588321293171287
889.0,-0.3449029080554058
888.0,-0.34356613238612477
887.0,-0.34192888374580965
886.0,-0.33992820777851396
885.0,-0.33741932432967303
884.0,-0.3343129847582311
883.0,-0.33065723471139385
882.0,-0.32637683017380814
881.0,-0.32137055766081524
880.0,-0.315592533791591
879.0,-0.3092041796704077
878.0,-0.30239587315256644
877.0,-0.295457138072563
876.0,-0.2888972763225661
875.0,-0.2833690819154526
874.0,-0.2794387882870204
873.0,-0.2774029040768271
872.0,-0.27765504771470884
871.0,-0.2806921642851177
870.0,-0.28654628351669675
869.0,-0.2945323573418701
868.0,-0.3036063906346418
867.0,-0.31272728377812387
866.0,-0.3212462129905913
865.0,-0.32872608519878455
864.0,-0.3350765973144054
863.0,-0.34032511374829166
862.0,-0.34451016568653214
861.0,-0.3476226994672418
860.0,-0.3498600821923312
859.0,-0.35142908784770155
858.0,-0.3524526617530155
857.0,-0.3530309757652814
856.0,-0.35330059232072974
855.0,-0.3534738289030659
854.0,-0.35358928157948455
853.0,-0.3536469964102724
852.0,-0.353704703572165
851.0,-0.3538393238045425
850.0,-0.3538970054181618
849.0,-0.35372393758894916
848.0,-0.3534738289030659
847.0,-0.3533968433975412
846.0,-0.35351231653885007
845.0,-0.35358928157948455
844.0,-0.35357004159800365
843.0,-0.35358928157948455
842.0,-0.353704703572165
841.0,-0.3538393238045425
840.0,-0.35408922215224736
839.0,-0.3547037446258128
838.0,-0.35573878360203537
837.0,-0.3570004904409223
836.0,-0.3582775757952259
835.0,-0.3594939812662319
834.0,-0.36068806203067805
833.0,-0.36189774409588127
832.0,-0.36317935005868573
831.0,-0.36453223492795983
830.0,-0.36574998010488846
829.0,-0.3666657206861559
828.0,-0.36744910726860436
827.0,-0.3683798716238016
826.0,-0.3694014136966244
825.0,-0.37021692081589075
824.0,-0.3707165885395458
823.0,-0.37106786227173627
822.0,-0.371437317404101
821.0,-0.3718249073288926
820.0,-0.372175286115064
819.0,-0.3724885434930245
818.0,-0.3726358805817207
817.0,-0.372451701409366
816.0,-0.3720277926574047
815.0,-0.3715665524837344
814.0,-0.37116025552427123
813.0,-0.370772071705626
812.0,-0.37047607954429385
811.0,-0.37055009649920745
810.0,-0.37101241688384023
809.0,-0.3716219271760215
808.0,-0.3721568521719849
807.0,-0.37254380075907045
806.0,-0.3728199816789681
805.0,-0.37309598707872693
804.0,-0.37362910064966837
803.0,-0.3746200544313716
802.0,-0.3759012680094882
801.0,-0.37697822030801653
800.0,-0.3773426836408391
799.0,-0.37655870900584
798.0,-0.37423495215257674
797.0,-0.37030949525869916
796.0,-0.3655441400294692
795.0,-0.36121771258168156
794.0,-0.3583917586490202
793.0,-0.35753465459757905
792.0,-0.358772151492734
791.0,-0.3619354924211464
790.0,-0.36646031428435055
789.0,-0.3714742456369282
788.0,-0.3764857091347764
787.0,-0.3814219579673499
786.0,-0.38621350371676
785.0,-0.39058187855043514
784.0,-0.3943115632312266
783.0,-0.3974185423513479
782.0,-0.3998985966484603
781.0,-0.40167619580946123
780.0,-0.4030346837445862
779.0,-0.40445739304674877
778.0,-0.40621646785326027
777.0,-0.40810422707605065
776.0,-0.4099331233312946
775.0,-0.41173752181735734
774.0,-0.4135009350021206
773.0,-0.41504015736744293
772.0,-0.4161743474570878
771.0,-0.4170064251187986
770.0,-0.41778712719549116
769.0,-0.41863268735406534
768.0,-0.41959230829958427
767.0,-0.4207146874880312
766.0,-0.4218999358431694
765.0,-0.42298357920928
764.0,-0.4239990900577282
763.0,-0.42511015254368134
762.0,-0.4264787287242435
761.0,-0.428037553035308
760.0,-0.4295584994614212
759.0,-0.4308648432814586
758.0,-0.43165319734657626
757.0,-0.43187817876683976
756.0,-0.43191030945763265
755.0,-0.4322635902536667
754.0,-0.433033388650613
753.0,-0.4339297656084642
752.0,-0.43474450232741235
751.0,-0.43547805417132457
750.0,-0.43601944943043414
749.0,-0.4361149197499885
748.0,-0.4356373581427033
747.0,-0.4345848704495938
746.0,-0.43266469717940526
745.0,-0.4293323128283313
744.0,-0.4242117189392842
743.0,-0.4171061673925931
742.0,-0.4076118200259322
741.0,-0.39502918853337343
740.0,-0.37899714081085145
739.0,-0.3596837372363515
738.0,-0.3375790501431335
737.0,-0.3131287138451939
736.0,-0.2869726454573742
735.0,-0.25988044734365934
734.0,-0.23213174129661995
733.0,-0.20322332529090525
732.0,-0.17234017362481335
731.0,-0.13858687065358266
730.0,-0.1007150865730817
729.0,-0.05732370536928455
728.0,-0.008174184006426444
727.0,0.044456557540257124
726.0,0.09496007192378841
725.0,0.13347637446715632
724.0,0.14813039927023364
723.0,0.1316495003520317
722.0,0.0867160982395816
721.0,0.024568191490736968
720.0,-0.040958173384207264
719.0,-0.09930072623346309
718.0,-0.14656211315755652
717.0,-0.1832983210758119
716.0,-0.21144093557866928
715.0,-0.23281829262736053
714.0,-0.24905152880508474
713.0,-0.2614056270741396
712.0,-0.2707719724268354
711.0,-0.27809022403760464
710.0,-0.2842953482305264
709.0,-0.289945516176668
708.0,-0.2951490965789185
707.0,-0.29981226549571716
706.0,-0.30412415273290927
705.0,-0.30843634716765234
704.0,-0.313170948064998
703.0,-0.31852244214125625
702.0,-0.32450880574705776
701.0,-0.3308600149746397
700.0,-0.3370797118009312
699.0,-0.3427384165554175
698.0,-0.3475836863085826
697.0,-0.35164172619352163
696.0,-0.3552024046580531
695.0,-0.35856297666105563
694.0,-0.3616711852165597
693.0,-0.36426950383591583
692.0,-0.36604920980023525
691.0,-0.3672254266858306
690.0,-0.36819387826682437
689.0,-0.36927153262102674
688.0,-0.37055009649920745
687.0,-0.37191713968252227
686.0,-0.3732247295944737
685.0,-0.3739963842623264
684.0,-0.3737576852492466
683.0,-0.3725806350309133
682.0,-0.37116025552427123
681.0,-0.37030949525869916
680.0,-0.3703280077795106
679.0,-0.37080905654549534
678.0,-0.3714557819130171
677.0,-0.3722305832501136
676.0,-0.37329827961487094
675.0,-0.3753343396654163
674.0,-0.377761438702263
673.0,-0.3797042690244474
672.0,-0.38151217473202426
671.0,-0.3853738728162317
670.0,-0.39238034797755983
669.0,-0.40315485139850704
668.0,-0.4111144185509046
667.0,-0.41371876506107874
666.0,-0.41635754137413405
665.0,-0.4125781354312723
664.0,-0.4022097800447453
663.0,-0.3935752032695876
662.0,-0.3892901507792894
661.0,-0.3885984718257647
660.0,-0.3889710512190825
659.0,-0.3893610299637307
658.0,-0.3896975482063856
657.0,-0.39001611461189434
656.0,-0.39017531022867047
655.0,-0.3907055412263709
654.0,-0.3915173068494484
653.0,-0.39190500686715657
652.0,-0.3917993048184676
651.0,-0.3915173068494484
650.0,-0.39155256661092785
649.0,-0.3922571613416741
648.0,-0.3938207953408672
647.0,-0.3957281698646442
646.0,-0.39701832704230844
645.0,-0.39733157039112843
644.0,-0.39726198028051174
643.0,-0.3974881073814345
642.0,-0.39813105621669687
641.0,-0.3990850353332247
640.0,-0.4003479979672955
639.0,-0.40165897249515226
638.0,-0.4023473728483684
637.0,-0.40186560719961095
636.0,-0.400451639956946
635.0,-0.3985302478956676
634.0,-0.39640859522404526
633.0,-0.39480177716271125
632.0,-0.39480177716271125
631.0,-0.3965828916833831
630.0,-0.3990330541068978
629.0,-0.4012971250215833
628.0,-0.4035494540323179
627.0,-0.4057560397739559
626.0,-0.4070167911854541
625.0,-0.40688067004912476
624.0,-0.406540180433955
623.0,-0.4075948305107455
622.0,-0.41001760820305266
621.0,-0.4122420852099138
620.0,-0.41298105275754304
619.0,-0.41234292758232627
618.0,-0.41136713574273376
617.0,-0.41099643351638226
616.0,-0.4114681814579182
615.0,-0.41214121941665205
614.0,-0.41214121941665205
613.0,-0.41138397832798335
612.0,-0.41074350045693153
611.0,-0.41106385746092355
610.0,-0.4122420852099138
609.0,-0.4137020127811133
608.0,-0.41524052391397426
607.0,-0.4169066599324256
606.0,-0.41843388008032445
605.0,-0.41955925319572085
604.0,-0.42038487696040727
603.0,-0.4211924683057493
602.0,-0.42199856068335784
601.0,-0.42278675415179645
600.0,-0.423688137388436
