cm-1,A
4000.0,0.02438440203310499
3999.0,0.024338466818941473
3998.0,0.024292536462819925
3997.0,0.024246610963712723
3996.0,0.024200690320592466
3995.0,0.024200690320592466
3994.0,0.024154774532432866
3993.0,0.024154774532432866
3992.0,0.024108863598207186
3991.0,0.024154774532432866
3990.0,0.024154774532432866
3989.0,0.024154774532432866
3988.0,0.024154774532432866
3987.0,0.024154774532432866
3986.0,0.024246610963712723
3985.0,0.024338466818941473
3984.0,0.024430342106337877
3983.0,0.024476287039668643
3982.0,0.024476287039668643
3981.0,0.024476287039668643
3980.0,0.024476287039668643
3979.0,0.024522236834125355
3978.0,0.024522236834125355
3977.0,0.024476287039668643
3976.0,0.024430342106337877
3975.0,0.02438440203310499
3974.0,0.02438440203310499
3973.0,0.02438440203310499
3972.0,0.02438440203310499
3971.0,0.02438440203310499
3970.0,0.02438440203310499
3969.0,0.02438440203310499
3968.0,0.024476287039668643
3967.0,0.024522236834125355
3966.0,0.024476287039668643
3965.0,0.024430342106337877
3964.0,0.02438440203310499
3963.0,0.02438440203310499
3962.0,0.02438440203310499
3961.0,0.02438440203310499
3960.0,0.02438440203310499
3959.0,0.024338466818941473
3958.0,0.024338466818941473
3957.0,0.02438440203310499
3956.0,0.024338466818941473
3955.0,0.024292536462819925
3954.0,0.024154774532432866
3953.0,0.024108863598207186
3952.0,0.02406295751688936
3951.0,0.024108863598207186
3950.0,0.024108863598207186
3949.0,0.024154774532432866
3948.0,0.024200690320592466
3947.0,0.024246610963712723
3946.0,0.024246610963712723
3945.0,0.024200690320592466
3944.0,0.024200690320592466
3943.0,0.024200690320592466
3942.0,0.024200690320592466
3941.0,0.024200690320592466
3940.0,0.024200690320592466
3939.0,0.024292536462819925
3938.0,0.024430342106337877
3937.0,0.024522236834125355
3936.0,0.024476287039668643
3935.0,0.024338466818941473
3934.0,0.024246610963712723
3933.0,0.024200690320592466
3932.0,0.024292536462819925
3931.0,0.02438440203310499
3930.0,0.02438440203310499
3929.0,0.024246610963712723
3928.0,0.024154774532432866
3927.0,0.02406295751688936
3926.0,0.024108863598207186
3925.0,0.024246610963712723
3924.0,0.02438440203310499
3923.0,0.02438440203310499
3922.0,0.024292536462819925
3921.0,0.024200690320592466
3920.0,0.024154774532432866
3919.0,0.024108863598207186
3918.0,0.024154774532432866
3917.0,0.024292536462819925
3916.0,0.024476287039668643
3915.0,0.02461415101053266
3914.0,0.024706084643793647
3913.0,0.024798037742147727
3912.0,0.024890010313838973
3911.0,0.024936003904763915
3910.0,0.024890010313838973
3909.0,0.02475205875931885
3908.0,0.024568191490736968
3907.0,0.024292536462819925
3906.0,0.02406295751688936
3905.0,0.023879381700184332
3904.0,0.023741750742954926
3903.0,0.02365002099672653
3902.0,0.02351246269481
3901.0,0.02351246269481
3900.0,0.02365002099672653
3899.0,0.023925268380126097
3898.0,0.024108863598207186
3897.0,0.024200690320592466
3896.0,0.024246610963712723
3895.0,0.024292536462819925
3894.0,0.024200690320592466
3893.0,0.024108863598207186
3892.0,0.024200690320592466
3891.0,0.02438440203310499
3890.0,0.02438440203310499
3889.0,0.02406295751688936
3888.0,0.023833499868024743
3887.0,0.023879381700184332
3886.0,0.024108863598207186
3885.0,0.024338466818941473
3884.0,0.024200690320592466
3883.0,0.023879381700184332
3882.0,0.023741750742954926
3881.0,0.023925268380126097
3880.0,0.024200690320592466
3879.0,0.024246610963712723
3878.0,0.02406295751688936
3877.0,0.023879381700184332
3876.0,0.023925268380126097
3875.0,0.024108863598207186
3874.0,0.024154774532432866
3873.0,0.023925268380126097
3872.0,0.023604163388120325
3871.0,0.02351246269481
3870.0,0.023695883447997224
3869.0,0.023787622882622816
3868.0,0.023604163388120325
3867.0,0.023329119375188556
3866.0,0.023466619608062178
3865.0,0.023787622882622816
3864.0,0.02406295751688936
3863.0,0.024154774532432866
3862.0,0.024154774532432866
3861.0,0.024200690320592466
3860.0,0.024246610963712723
3859.0,0.024292536462819925
3858.0,0.024246610963712723
3857.0,0.024017056287453542
3856.0,0.023695883447997224
3855.0,0.023374947949272418
3854.0,0.023466619608062178
3853.0,0.024017056287453542
3852.0,0.024017056287453542
3851.0,0.02355831062115543
3850.0,0.02365002099672653
3849.0,0.024292536462819925
3848.0,0.02484402159331056
3847.0,0.02498200236711723
3846.0,0.024890010313838973
3845.0,0.024798037742147727
3844.0,0.024660115394541604
3843.0,0.024476287039668643
3842.0,0.024154774532432866
3841.0,0.023741750742954926
3840.0,0.02351246269481
3839.0,0.023466619608062178
3838.0,0.023604163388120325
3837.0,0.02365002099672653
3836.0,0.023604163388120325
3835.0,0.02365002099672653
3834.0,0.023879381700184332
3833.0,0.024246610963712723
3832.0,0.024522236834125355
3831.0,0.024660115394541604
3830.0,0.02461415101053266
3829.0,0.024476287039668643
3828.0,0.024522236834125355
3827.0,0.024706084643793647
3826.0,0.02484402159331056
3825.0,0.02475205875931885
3824.0,0.02438440203310499
3823.0,0.02406295751688936
3822.0,0.024017056287453542
3821.0,0.024246610963712723
3820.0,0.024338466818941473
3819.0,0.023971159908874107
3818.0,0.023741750742954926
3817.0,0.024108863598207186
3816.0,0.02475205875931885
3815.0,0.02512002699306959
3814.0,0.025028005701930978
3813.0,0.024890010313838973
3812.0,0.025074013910237447
3811.0,0.025304128090317013
3810.0,0.025258095499050004
3809.0,0.025028005701930978
3808.0,0.024936003904763915
3807.0,0.025028005701930978
3806.0,0.025028005701930978
3805.0,0.024660115394541604
3804.0,0.024246610963712723
3803.0,0.024246610963712723
3802.0,0.024522236834125355
3801.0,0.02484402159331056
3800.0,0.024660115394541604
3799.0,0.024154774532432866
3798.0,0.024108863598207186
3797.0,0.02461415101053266
3796.0,0.02512002699306959
3795.0,0.025304128090317013
3794.0,0.02521206778644225
3793.0,0.02516604495145991
3792.0,0.025258095499050004
3791.0,0.02539620791296726
3790.0,0.02553436426275746
3789.0,0.02562649291857677
3788.0,0.02562649291857677
3787.0,0.025488307262671706
3786.0,0.02539620791296726
3785.0,0.025350165561278004
3784.0,0.025258095499050004
3783.0,0.02512002699306959
3782.0,0.024936003904763915
3781.0,0.024890010313838973
3780.0,0.025028005701930978
3779.0,0.025304128090317013
3778.0,0.02539620791296726
3777.0,0.02539620791296726
3776.0,0.02539620791296726
3775.0,0.02553436426275746
3774.0,0.02558042614771394
3773.0,0.02544225514642018
3772.0,0.02521206778644225
3771.0,0.02512002699306959
3770.0,0.02512002699306959
3769.0,0.02512002699306959
3768.0,0.02498200236711723
3767.0,0.024890010313838973
3766.0,0.025074013910237447
3765.0,0.02539620791296726
3764.0,0.025488307262671706
3763.0,0.025304128090317013
3762.0,0.02512002699306959
3761.0,0.02498200236711723
3760.0,0.024936003904763915
3759.0,0.024936003904763915
3758.0,0.024936003904763915
3757.0,0.02484402159331056
3756.0,0.024660115394541604
3755.0,0.02438440203310499
3754.0,0.02406295751688936
3753.0,0.02365002099672653
3752.0,0.023283295636617574
3751.0,0.023283295636617574
3750.0,0.02355831062115543
3749.0,0.02365002099672653
3748.0,0.023466619608062178
3747.0,0.02342078135989012
3746.0,0.023695883447997224
3745.0,0.024338466818941473
3744.0,0.02498200236711723
3743.0,0.024936003904763915
3742.0,0.024430342106337877
3741.0,0.02438440203310499
3740.0,0.024706084643793647
3739.0,0.024706084643793647
3738.0,0.024338466818941473
3737.0,0.023971159908874107
3736.0,0.023833499868024743
3735.0,0.023925268380126097
3734.0,0.023971159908874107
3733.0,0.023971159908874107
3732.0,0.02406295751688936
3731.0,0.024292536462819925
3730.0,0.024522236834125355
3729.0,0.024706084643793647
3728.0,0.024890010313838973
3727.0,0.025074013910237447
3726.0,0.02512002699306959
3725.0,0.025074013910237447
3724.0,0.02498200236711723
3723.0,0.02498200236711723
3722.0,0.025074013910237447
3721.0,0.02521206778644225
3720.0,0.025304128090317013
3719.0,0.02544225514642018
3718.0,0.02562649291857677
3717.0,0.025672564576383117
3716.0,0.02553436426275746
3715.0,0.025258095499050004
3714.0,0.024936003904763915
3713.0,0.024706084643793647
3712.0,0.02475205875931885
3711.0,0.025074013910237447
3710.0,0.025350165561278004
3709.0,0.02544225514642018
3708.0,0.02553436426275746
3707.0,0.025718641122169483
3706.0,0.025949097207122573
3705.0,0.025995203102585407
3704.0,0.025949097207122573
3703.0,0.025949097207122573
3702.0,0.025995203102585407
3701.0,0.026087429580295085
3700.0,0.026087429580295085
3699.0,0.026087429580295085
3698.0,0.02613355016462182
3697.0,0.026318081496016443
3696.0,0.026456531467510258
3695.0,0.026456531467510258
3694.0,0.026318081496016443
3693.0,0.026041313893296225
3692.0,0.025672564576383117
3691.0,0.025350165561278004
3690.0,0.025304128090317013
3689.0,0.02558042614771394
3688.0,0.025810808881832736
3687.0,0.025856900097785074
3686.0,0.025949097207122573
3685.0,0.026318081496016443
3684.0,0.02677975314776626
3683.0,0.02696455931306696
3682.0,0.026872146400301444
3681.0,0.026595025589939425
3680.0,0.026271941311972746
3679.0,0.025856900097785074
3678.0,0.025304128090317013
3677.0,0.02498200236711723
3676.0,0.02521206778644225
3675.0,0.025764722556973707
3674.0,0.025764722556973707
3673.0,0.02521206778644225
3672.0,0.025074013910237447
3671.0,0.025350165561278004
3670.0,0.025810808881832736
3669.0,0.02617967564731627
3668.0,0.026271941311972746
3667.0,0.026318081496016443
3666.0,0.026687379547098322
3665.0,0.027149444152769986
3664.0,0.02747318213414429
3663.0,0.027612000892527133
3662.0,0.027658283674251827
3661.0,0.027612000892527133
3660.0,0.027426919073445077
3659.0,0.027149444152769986
3658.0,0.026872146400301444
3657.0,0.02682594731702781
3656.0,0.027010773144651168
3655.0,0.027056991894431892
3654.0,0.026872146400301444
3653.0,0.026502691267936695
3652.0,0.02613355016462182
3651.0,0.025672564576383117
3650.0,0.025488307262671706
3649.0,0.025810808881832736
3648.0,0.02617967564731627
3647.0,0.026271941311972746
3646.0,0.026410376572743033
3645.0,0.02677975314776626
3644.0,0.02724191609646076
3643.0,0.027658283674251827
3642.0,0.027889771597169544
3641.0,0.028028723600243666
3640.0,0.028028723600243666
3639.0,0.028028723600243666
3638.0,0.028028723600243666
3637.0,0.028028723600243666
3636.0,0.02798240132598462
3635.0,0.027889771597169544
3634.0,0.027750864037404455
3633.0,0.02747318213414429
3632.0,0.027056991894431892
3631.0,0.026687379547098322
3630.0,0.02664120011360227
3629.0,0.02710321556345563
3628.0,0.027612000892527133
3627.0,0.027565723042634938
3626.0,0.02738066094037661
3625.0,0.027612000892527133
3624.0,0.027889771597169544
3623.0,0.027936083991977778
3622.0,0.0277045713888604
3621.0,0.027426919073445077
3620.0,0.027288159452933503
3619.0,0.027288159452933503
3618.0,0.027288159452933503
3617.0,0.027149444152769986
3616.0,0.02710321556345563
3615.0,0.02724191609646076
3614.0,0.02751945012352408
3613.0,0.027797161620935595
3612.0,0.028028723600243666
3611.0,0.028167720075074953
3610.0,0.028353117935693284
3609.0,0.028677754757187035
3608.0,0.029002634427514717
3607.0,0.029234840219232394
3606.0,0.029234840219232394
3605.0,0.029141943003497595
3604.0,0.029095501846216454
3603.0,0.029002634427514717
3602.0,0.02890978686288448
3601.0,0.028816959143838528
3600.0,0.028863370523193765
3599.0,0.028816959143838528
3598.0,0.028770552723758724
3597.0,0.02872415126189476
3596.0,0.02872415126189476
3595.0,0.028770552723758724
3594.0,0.02890978686288448
3593.0,0.02890978686288448
3592.0,0.028863370523193765
3591.0,0.028677754757187035
3590.0,0.02849221828874393
3589.0,0.028306761050139073
3588.0,0.028306761050139073
3587.0,0.02849221828874393
3586.0,0.02863136320857662
3585.0,0.02863136320857662
3584.0,0.028770552723758724
3583.0,0.029002634427514717
3582.0,0.029234840219232394
3581.0,0.02942069428514915
3580.0,0.029513651152349718
3579.0,0.029560137048236124
3578.0,0.029560137048236124
3577.0,0.029513651152349718
3576.0,0.029467170231675777
3575.0,0.029467170231675777
3574.0,0.029467170231675777
3573.0,0.029513651152349718
3572.0,0.029560137048236124
3571.0,0.029513651152349718
3570.0,0.02942069428514915
3569.0,0.029234840219232394
3568.0,0.029095501846216454
3567.0,0.029141943003497595
3566.0,0.029281296279810798
3565.0,0.02932775731028059
3564.0,0.029374223311705583
3563.0,0.029513651152349718
3562.0,0.029746130405213123
3561.0,0.029885677714903025
3560.0,0.03002526987828502
3559.0,0.030164906924202484
3558.0,0.03025802323714588
3557.0,0.03030458888152676
3556.0,0.03025802323714588
3555.0,0.030211462585061133
3554.0,0.030118356253500123
3553.0,0.030118356253500123
3552.0,0.030164906924202484
3551.0,0.030164906924202484
3550.0,0.030118356253500123
3549.0,0.029978734171634214
3548.0,0.029885677714903025
3547.0,0.029885677714903025
3546.0,0.029978734171634214
3545.0,0.030118356253500123
3544.0,0.030211462585061133
3543.0,0.03030458888152676
3542.0,0.030397735151460825
3541.0,0.030537492025363155
3540.0,0.03067729388779794
3539.0,0.0307239045110681
3538.0,0.0307239045110681
3537.0,0.03067729388779794
3536.0,0.03067729388779794
3535.0,0.03063068826647264
3534.0,0.03063068826647264
3533.0,0.03058408764601861
3532.0,0.03058408764601861
3531.0,0.03063068826647264
3530.0,0.0307239045110681
3529.0,0.0307239045110681
3528.0,0.0307239045110681
3527.0,0.03063068826647264
3526.0,0.030537492025363155
3525.0,0.030444315779156517
3524.0,0.030537492025363155
3523.0,0.0307239045110681
3522.0,0.030957032694186815
3521.0,0.031096969696171817
3520.0,0.031190286087141805
3519.0,0.031236951802751545
3518.0,0.03133029827960798
3517.0,0.03142366482450232
3516.0,0.03142366482450232
3515.0,0.03137697904301118
3514.0,0.03128362253321426
3513.0,0.031143625385307683
3512.0,0.03105031901865729
3511.0,0.030957032694186815
3510.0,0.030957032694186815
3509.0,0.031003673351687855
3508.0,0.031096969696171817
3507.0,0.031143625385307683
3506.0,0.031190286087141805
3505.0,0.031236951802751545
3504.0,0.03128362253321426
3503.0,0.03137697904301118
3502.0,0.03147035562516054
3501.0,0.03151705144606498
3500.0,0.03147035562516054
3499.0,0.03142366482450232
3498.0,0.03142366482450232
3497.0,0.03151705144606498
3496.0,0.031657169041054534
3495.0,0.03175060589208267
3494.0,0.03179733185715028
3493.0,0.03175060589208267
3492.0,0.03170388495374454
3491.0,0.03170388495374454
3490.0,0.03170388495374454
3489.0,0.03170388495374454
3488.0,0.03170388495374454
3487.0,0.03175060589208267
3486.0,0.03184406285002961
3485.0,0.03189079887180224
3484.0,0.03193753992355086
3483.0,0.03193753992355086
3482.0,0.03193753992355086
3481.0,0.03193753992355086
3480.0,0.03193753992355086
3479.0,0.03189079887180224
3478.0,0.03184406285002961
3477.0,0.03189079887180224
3476.0,0.03193753992355086
3475.0,0.032031037121307726
3474.0,0.03207779326948268
3473.0,0.03207779326948268
3472.0,0.03207779326948268
3471.0,0.03207779326948268
3470.0,0.03207779326948268
3469.0,0.03217132066984485
3468.0,0.032218091924200776
3467.0,0.032218091924200776
3466.0,0.03217132066984485
3465.0,0.032124554451966825
3464.0,0.03207779326948268
3463.0,0.03207779326948268
3462.0,0.03217132066984485
3461.0,0.03226486821611996
3460.0,0.03235843591698884
3459.0,0.03240522732811035
3458.0,0.03245202378113787
3457.0,0.03249882527715853
3456.0,0.032545631817259224
3455.0,0.032592443402527316
3454.0,0.03263926003405038
3453.0,0.032686081712916426
3452.0,0.032686081712916426
3451.0,0.032686081712916426
3450.0,0.032592443402527316
3449.0,0.03249882527715853
3448.0,0.03240522732811035
3447.0,0.03240522732811035
3446.0,0.03240522732811035
3445.0,0.032311649546687526
3444.0,0.03226486821611996
3443.0,0.03226486821611996
3442.0,0.032311649546687526
3441.0,0.03235843591698884
3440.0,0.03245202378113787
3439.0,0.03249882527715853
3438.0,0.032592443402527316
3437.0,0.03263926003405038
3436.0,0.03273290844021437
3435.0,0.03277974021703267
3434.0,0.03277974021703267
3433.0,0.03273290844021437
3432.0,0.032686081712916426
3431.0,0.03263926003405038
3430.0,0.032686081712916426
3429.0,0.03273290844021437
3428.0,0.03282657704446046
3427.0,0.032920265855503006
3426.0,0.032920265855503006
3425.0,0.032920265855503006
3424.0,0.03282657704446046
3423.0,0.03273290844021437
3422.0,0.032686081712916426
3421.0,0.032686081712916426
3420.0,0.03273290844021437
3419.0,0.03277974021703267
3418.0,0.03282657704446046
3417.0,0.03282657704446046
3416.0,0.032873418923587305
3415.0,0.032920265855503006
3414.0,0.0329671178412978
3413.0,0.0329671178412978
3412.0,0.032873418923587305
3411.0,0.03277974021703267
3410.0,0.03273290844021437
3409.0,0.03277974021703267
3408.0,0.032873418923587305
3407.0,0.0329671178412978
3406.0,0.03301397488206215
3405.0,0.03301397488206215
3404.0,0.03301397488206215
3403.0,0.03301397488206215
3402.0,0.03301397488206215
3401.0,0.03301397488206215
3400.0,0.03301397488206215
3399.0,0.03301397488206215
3398.0,0.03301397488206215
3397.0,0.0329671178412978
3396.0,0.0329671178412978
3395.0,0.0329671178412978
3394.0,0.03301397488206215
3393.0,0.03301397488206215
3392.0,0.0329671178412978
3391.0,0.032873418923587305
3390.0,0.03282657704446046
3389.0,0.032873418923587305
3388.0,0.0329671178412978
3387.0,0.03310770413286357
3386.0,0.033201453616638954
3385.0,0.033201453616638954
3384.0,0.033154576345083564
3383.0,0.033060836978886954
3382.0,0.03301397488206215
3381.0,0.03301397488206215
3380.0,0.03301397488206215
3379.0,0.033060836978886954
3378.0,0.033060836978886954
3377.0,0.033060836978886954
3376.0,0.03310770413286357
3375.0,0.033201453616638954
3374.0,0.033295223342125535
3373.0,0.03334211579824231
3372.0,0.033295223342125535
3371.0,0.033201453616638954
3370.0,0.03310770413286357
3369.0,0.03310770413286357
3368.0,0.03310770413286357
3367.0,0.033154576345083564
3366.0,0.033201453616638954
3365.0,0.033154576345083564
3364.0,0.033154576345083564
3363.0,0.033154576345083564
3362.0,0.033201453616638954
3361.0,0.0332483359486222
3360.0,0.03334211579824231
3359.0,0.03334211579824231
3358.0,0.0332483359486222
3357.0,0.033154576345083564
3356.0,0.033060836978886954
3355.0,0.03301397488206215
3354.0,0.03301397488206215
3353.0,0.033060836978886954
3352.0,0.033154576345083564
3351.0,0.033201453616638954
3350.0,0.0332483359486222
3349.0,0.0332483359486222
3348.0,0.033201453616638954
3347.0,0.033154576345083564
3346.0,0.033154576345083564
3345.0,0.033154576345083564
3344.0,0.033201453616638954
3343.0,0.033295223342125535
3342.0,0.03334211579824231
3341.0,0.033295223342125535
3340.0,0.033295223342125535
3339.0,0.033295223342125535
3338.0,0.03334211579824231
3337.0,0.033295223342125535
3336.0,0.0332483359486222
3335.0,0.033201453616638954
3334.0,0.03310770413286357
3333.0,0.033060836978886954
3332.0,0.033060836978886954
3331.0,0.033060836978886954
3330.0,0.033060836978886954
3329.0,0.033060836978886954
3328.0,0.033060836978886954
3327.0,0.033060836978886954
3326.0,0.03301397488206215
3325.0,0.03301397488206215
3324.0,0.03301397488206215
3323.0,0.03301397488206215
3322.0,0.0329671178412978
3321.0,0.0329671178412978
3320.0,0.032920265855503006
3319.0,0.0329671178412978
3318.0,0.0329671178412978
3317.0,0.03301397488206215
3316.0,0.03301397488206215
3315.0,0.03301397488206215
3314.0,0.0329671178412978
3313.0,0.0329671178412978
3312.0,0.0329671178412978
3311.0,0.0329671178412978
3310.0,0.0329671178412978
3309.0,0.0329671178412978
3308.0,0.0329671178412978
3307.0,0.03301397488206215
3306.0,0.0329671178412978
3305.0,0.032920265855503006
3304.0,0.032873418923587305
3303.0,0.03282657704446046
3302.0,0.03282657704446046
3301.0,0.032873418923587305
3300.0,0.032873418923587305
3299.0,0.032873418923587305
3298.0,0.032920265855503006
3297.0,0.03301397488206215
3296.0,0.033060836978886954
3295.0,0.03301397488206215
3294.0,0.032920265855503006
3293.0,0.03282657704446046
3292.0,0.03277974021703267
3291.0,0.03282657704446046
3290.0,0.032873418923587305
3289.0,0.0329671178412978
3288.0,0.03301397488206215
3287.0,0.033060836978886954
3286.0,0.03310770413286357
3285.0,0.03310770413286357
3284.0,0.033060836978886954
3283.0,0.0329671178412978
3282.0,0.03277974021703267
3281.0,0.032592443402527316
3280.0,0.03245202378113787
3279.0,0.03235843591698884
3278.0,0.03240522732811035
3277.0,0.03245202378113787
3276.0,0.032592443402527316
3275.0,0.032686081712916426
3274.0,0.03277974021703267
3273.0,0.03273290844021437
3272.0,0.032592443402527316
3271.0,0.03245202378113787
3270.0,0.032311649546687526
3269.0,0.03226486821611996
3268.0,0.03226486821611996
3267.0,0.03226486821611996
3266.0,0.03226486821611996
3265.0,0.03226486821611996
3264.0,0.03226486821611996
3263.0,0.03226486821611996
3262.0,0.03217132066984485
3261.0,0.032031037121307726
3260.0,0.03189079887180224
3259.0,0.03175060589208267
3258.0,0.03170388495374454
3257.0,0.03170388495374454
3256.0,0.03175060589208267
3255.0,0.03184406285002961
3254.0,0.03193753992355086
3253.0,0.031984286006358165
3252.0,0.032031037121307726
3251.0,0.03207779326948268
3250.0,0.032031037121307726
3249.0,0.03193753992355086
3248.0,0.03179733185715028
3247.0,0.031657169041054534
3246.0,0.03151705144606498
3245.0,0.03137697904301118
3244.0,0.03128362253321426
3243.0,0.031236951802751545
3242.0,0.031190286087141805
3241.0,0.031190286087141805
3240.0,0.031190286087141805
3239.0,0.031236951802751545
3238.0,0.031236951802751545
3237.0,0.03128362253321426
3236.0,0.03137697904301118
3235.0,0.03142366482450232
3234.0,0.03137697904301118
3233.0,0.03133029827960798
3232.0,0.031143625385307683
3231.0,0.031003673351687855
3230.0,0.030910397045078586
3229.0,0.030910397045078586
3228.0,0.030910397045078586
3227.0,0.030910397045078586
3226.0,0.030863766403287585
3225.0,0.03081714076773867
3224.0,0.030770520137356927
3223.0,0.0307239045110681
3222.0,0.0307239045110681
3221.0,0.0307239045110681
3220.0,0.030770520137356927
3219.0,0.03081714076773867
3218.0,0.030770520137356927
3217.0,0.03067729388779794
3216.0,0.03058408764601861
3215.0,0.030490901403433135
3214.0,0.030537492025363155
3213.0,0.03058408764601861
3212.0,0.03063068826647264
3211.0,0.03058408764601861
3210.0,0.03058408764601861
3209.0,0.03058408764601861
3208.0,0.030537492025363155
3207.0,0.030444315779156517
3206.0,0.030351159519274695
3205.0,0.03025802323714588
3204.0,0.030164906924202484
3203.0,0.030118356253500123
3202.0,0.030071810571884017
3201.0,0.03002526987828502
3200.0,0.029978734171634214
3199.0,0.029978734171634214
3198.0,0.029978734171634214
3197.0,0.029978734171634214
3196.0,0.029978734171634214
3195.0,0.029932203450862893
3194.0,0.029885677714903025
3193.0,0.029839156962686353
3192.0,0.029839156962686353
3191.0,0.029885677714903025
3190.0,0.029932203450862893
3189.0,0.029932203450862893
3188.0,0.029932203450862893
3187.0,0.029792641193145286
3186.0,0.029653123769906697
3185.0,0.029560137048236124
3184.0,0.029467170231675777
3183.0,0.02942069428514915
3182.0,0.029374223311705583
3181.0,0.02932775731028059
3180.0,0.02932775731028059
3179.0,0.029281296279810798
3178.0,0.029281296279810798
3177.0,0.029234840219232394
3176.0,0.029234840219232394
3175.0,0.029188389127482228
3174.0,0.029188389127482228
3173.0,0.029141943003497595
3172.0,0.029141943003497595
3171.0,0.029141943003497595
3170.0,0.029141943003497595
3169.0,0.02904906565457588
3168.0,0.029002634427514717
3167.0,0.029002634427514717
3166.0,0.02904906565457588
3165.0,0.029095501846216454
3164.0,0.029141943003497595
3163.0,0.029141943003497595
3162.0,0.02904906565457588
3161.0,0.028956208163971375
3160.0,0.028816959143838528
3159.0,0.028677754757187035
3158.0,0.02858497661500481
3157.0,0.028538594975413334
3156.0,0.02858497661500481
3155.0,0.02863136320857662
3154.0,0.028677754757187035
3153.0,0.02863136320857662
3152.0,0.02863136320857662
3151.0,0.02858497661500481
3150.0,0.02849221828874393
3149.0,0.02839947976994095
3148.0,0.028214062120885508
3147.0,0.02812138297373412
3146.0,0.02798240132598462
3145.0,0.027936083991977778
3144.0,0.027936083991977778
3143.0,0.02798240132598462
3142.0,0.028028723600243666
3141.0,0.028028723600243666
3140.0,0.028028723600243666
3139.0,0.027936083991977778
3138.0,0.027843464140506313
3137.0,0.027750864037404455
3136.0,0.0277045713888604
3135.0,0.027658283674251827
3134.0,0.0277045713888604
3133.0,0.027750864037404455
3132.0,0.027750864037404455
3131.0,0.0277045713888604
3130.0,0.027658283674251827
3129.0,0.027612000892527133
3128.0,0.027565723042634938
3127.0,0.02751945012352408
3126.0,0.02747318213414429
3125.0,0.02747318213414429
3124.0,0.02751945012352408
3123.0,0.02751945012352408
3122.0,0.02747318213414429
3121.0,0.02738066094037661
3120.0,0.027288159452933503
3119.0,0.027195677663422346
3118.0,0.027149444152769986
3117.0,0.027149444152769986
3116.0,0.02724191609646076
3115.0,0.02738066094037661
3114.0,0.02738066094037661
3113.0,0.027334407733889066
3112.0,0.027195677663422346
3111.0,0.027056991894431892
3110.0,0.02691835039863255
3109.0,0.026872146400301444
3108.0,0.026872146400301444
3107.0,0.02691835039863255
3106.0,0.02691835039863255
3105.0,0.02691835039863255
3104.0,0.02691835039863255
3103.0,0.02691835039863255
3102.0,0.02691835039863255
3101.0,0.02682594731702781
3100.0,0.02677975314776626
3099.0,0.026733563891471412
3098.0,0.026733563891471412
3097.0,0.02677975314776626
3096.0,0.02682594731702781
3095.0,0.02682594731702781
3094.0,0.026872146400301444
3093.0,0.02691835039863255
3092.0,0.02696455931306696
3091.0,0.027010773144651168
3090.0,0.027056991894431892
3089.0,0.027056991894431892
3088.0,0.027010773144651168
3087.0,0.027010773144651168
3086.0,0.02696455931306696
3085.0,0.02696455931306696
3084.0,0.02691835039863255
3083.0,0.02682594731702781
3082.0,0.02677975314776626
3081.0,0.026687379547098322
3080.0,0.02664120011360227
3079.0,0.02664120011360227
3078.0,0.026595025589939425
3077.0,0.026595025589939425
3076.0,0.02654885597506529
3075.0,0.026502691267936695
3074.0,0.026502691267936695
3073.0,0.026502691267936695
3072.0,0.026502691267936695
3071.0,0.026502691267936695
3070.0,0.026410376572743033
3069.0,0.026271941311972746
3068.0,0.02613355016462182
3067.0,0.026041313893296225
3066.0,0.025995203102585407
3065.0,0.025995203102585407
3064.0,0.025995203102585407
3063.0,0.025995203102585407
3062.0,0.025902996205869
3061.0,0.025856900097785074
3060.0,0.025856900097785074
3059.0,0.025810808881832736
3058.0,0.025764722556973707
3057.0,0.025718641122169483
3056.0,0.02562649291857677
3055.0,0.02558042614771394
3054.0,0.02558042614771394
3053.0,0.02562649291857677
3052.0,0.02562649291857677
3051.0,0.02553436426275746
3050.0,0.02544225514642018
3049.0,0.025304128090317013
3048.0,0.02521206778644225
3047.0,0.02512002699306959
3046.0,0.025028005701930978
3045.0,0.024936003904763915
3044.0,0.024890010313838973
3043.0,0.024890010313838973
3042.0,0.024936003904763915
3041.0,0.025028005701930978
3040.0,0.025028005701930978
3039.0,0.02498200236711723
3038.0,0.02484402159331056
3037.0,0.02475205875931885
3036.0,0.024660115394541604
3035.0,0.024660115394541604
3034.0,0.024660115394541604
3033.0,0.02461415101053266
3032.0,0.024568191490736968
3031.0,0.024476287039668643
3030.0,0.02438440203310499
3029.0,0.024292536462819925
3028.0,0.024200690320592466
3027.0,0.024108863598207186
3026.0,0.024017056287453542
3025.0,0.023971159908874107
3024.0,0.023879381700184332
3023.0,0.023741750742954926
3022.0,0.023604163388120325
3021.0,0.02351246269481
3020.0,0.023374947949272418
3019.0,0.023283295636617574
3018.0,0.023191662661933732
3017.0,0.023100049017062307
3016.0,0.023054249440757957
3015.0,0.02296266477531872
3014.0,0.02282532397981263
3013.0,0.022688026603074007
3012.0,0.02259651912656535
3011.0,0.022505030926963654
3010.0,0.022413561996148967
3009.0,0.022322112326006227
3008.0,0.022230681908425698
3007.0,0.022139270735302752
3006.0,0.022093572362881675
3005.0,0.02204787879853809
3004.0,0.021956506090037076
3003.0,0.021819483062586187
3002.0,0.021636852916117055
3001.0,0.021499930688540836
3000.0,0.021363051615525652
2999.0,0.02122621566987748
2998.0,0.021089422824428272
2997.0,0.020952673052035298
2996.0,0.02081596632558158
2995.0,0.020724852408976924
2994.0,0.020633757603838898
2993.0,0.020542681902151694
2992.0,0.020497151212598652
2991.0,0.02045162529590483
2990.0,0.02036058777709271
2989.0,0.02026956933771462
2988.0,0.02013307743509718
2987.0,0.019996628416253603
2986.0,0.019860222254245663
2985.0,0.019769308608968306
2984.0,0.019632973815224997
2983.0,0.01954210772389997
2982.0,0.019451260640229506
2981.0,0.01940584422377989
2980.0,0.019315025636685412
2979.0,0.0192242260373785
2978.0,0.019133445417920836
2977.0,0.019042683770379876
2976.0,0.018951941086827073
2975.0,0.018951941086827073
2974.0,0.018906576854070378
2973.0,0.018906576854070378
2972.0,0.018861217359339655
2971.0,0.018770512579999288
2970.0,0.018725167293411005
2969.0,0.018725167293411005
2968.0,0.018815862601645694
2967.0,0.018951941086827073
2966.0,0.019042683770379876
2965.0,0.019178833355664393
2964.0,0.019269623464054586
2963.0,0.01940584422377989
2962.0,0.01949668180660491
2961.0,0.019632973815224997
2960.0,0.019769308608968306
2959.0,0.01990568621470623
2958.0,0.02013307743509718
2957.0,0.02036058777709271
2956.0,0.02067930261797568
2955.0,0.020952673052035298
2954.0,0.021271822861508305
2953.0,0.02168250325324883
2952.0,0.022139270735302752
2951.0,0.022688026603074007
2950.0,0.023374947949272418
2949.0,0.024200690320592466
2948.0,0.025258095499050004
2947.0,0.026595025589939425
2946.0,0.028167720075074953
2945.0,0.030118356253500123
2944.0,0.032311649546687526
2943.0,0.03489241415094413
2942.0,0.03782014709123227
2941.0,0.041197296600497646
2940.0,0.044937930324967956
2939.0,0.04909991063361274
2938.0,0.05369514500652506
2937.0,0.05868737463933793
2936.0,0.06414020196211956
2935.0,0.07012147634321675
2934.0,0.07660053384128362
2933.0,0.08365134772453975
2932.0,0.09130056764777605
2931.0,0.09957824654226233
2930.0,0.10868560061785693
2929.0,0.11867241589944855
2928.0,0.12965462891904034
2927.0,0.14170347546611461
2926.0,0.15515019919336104
2925.0,0.17024608107502504
2924.0,0.18722029299103604
2923.0,0.20627944318647673
2922.0,0.22753159694671954
2921.0,0.25088233764367773
2920.0,0.2759700270644023
2919.0,0.302160631781637
2918.0,0.3279021420642825
2917.0,0.35047043405218115
2916.0,0.3667335888445755
2915.0,0.3739677521709812
2914.0,0.3712025144332898
2913.0,0.3598168080786599
2912.0,0.3428484980990334
2911.0,0.32339783041798165
2910.0,0.3039932847814546
2909.0,0.2860896458710447
2908.0,0.27026840471296465
2907.0,0.2566470485904444
2906.0,0.24488773360492888
2905.0,0.23477863369501928
2904.0,0.2261404476233131
2903.0,0.21881927906273835
2902.0,0.21253952548158495
2901.0,0.20704829174986794
2900.0,0.20210951694165114
2899.0,0.1976368256904526
2898.0,0.19334527600813955
2897.0,0.18929713905288326
2896.0,0.18541948398968144
2895.0,0.1815101777957866
2894.0,0.17763574755845046
2893.0,0.17366599437777985
2892.0,0.16966800654803826
2891.0,0.16564288728159493
2890.0,0.16159172150581314
2889.0,0.15745316350498495
2888.0,0.1532918545439932
2887.0,0.1491088158640761
2886.0,0.14490504884137811
2885.0,0.14062149557439896
2884.0,0.13626089265478303
2883.0,0.13194363817695853
2882.0,0.1276688787697493
2881.0,0.12337808396572703
2880.0,0.11907213473291511
2879.0,0.11469533241103202
2878.0,0.11036219959333216
2877.0,0.10612732120491852
2876.0,0.10204318999304807
2875.0,0.09826930827078129
2874.0,0.09479797133768142
2873.0,0.09156860103399356
2872.0,0.08873582900163002
2871.0,0.08618614761628329
2870.0,0.08402008585977572
2869.0,0.08223199755224364
2868.0,0.08086958613938555
2867.0,0.07987667370927598
2866.0,0.0794592834975203
2865.0,0.07956359344924135
2864.0,0.08029446545087904
2863.0,0.08186477383364066
2862.0,0.08433639649422697
2861.0,0.08799062441302175
2860.0,0.09296504751658308
2859.0,0.09946901754724413
2858.0,0.10790539730951965
2857.0,0.11850122038501709
2856.0,0.13182595914036166
2855.0,0.14837479684669086
2854.0,0.16889843549864048
2853.0,0.19395576425191186
2852.0,0.22395292881822026
2851.0,0.25798225285986165
2850.0,0.29302632382382177
2849.0,0.3234892897174464
2848.0,0.34275287011628364
2847.0,0.34611244192902246
2846.0,0.33395026151948404
2845.0,0.3111354319452082
2844.0,0.28391314622516783
2843.0,0.2569608451950669
2842.0,0.2326214758858196
2841.0,0.21161948468043668
2840.0,0.1940236492824372
2839.0,0.17933886535640453
2838.0,0.16717187046064663
2837.0,0.15682953548010214
2836.0,0.1480693213597324
2835.0,0.14062149557439896
2834.0,0.13418561983203192
2833.0,0.1287190271420271
2832.0,0.12395544975390482
2831.0,0.11975822410451964
2830.0,0.11599807523121286
2829.0,0.1125514997500463
2828.0,0.10946720807225518
2827.0,0.10668218838388821
2826.0,0.10419084983086901
2825.0,0.10193333935836524
2824.0,0.09985143928065598
2823.0,0.0978882765519955
2822.0,0.09604229147682952
2821.0,0.09431203228814788
2820.0,0.09269615116603047
2819.0,0.09124698081546634
2818.0,0.08990945440593179
2817.0,0.08868255767596933
2816.0,0.08756536662442538
2815.0,0.08645104209348209
2814.0,0.08539243222891946
2813.0,0.08433639649422697
2812.0,0.08328292240118751
2811.0,0.0823369756726251
2810.0,0.08149786036382611
2809.0,0.08071265949561734
2808.0,0.07992887570247587
2807.0,0.079094395835976
2806.0,0.07826151631540124
2805.0,0.07748213975538865
2804.0,0.07670415934449615
2803.0,0.0760310351245288
2802.0,0.07541061433058172
2801.0,0.0748426728241014
2800.0,0.07427547306393745
2799.0,0.07376047895413773
2798.0,0.0732460948102629
2797.0,0.07268097504034388
2796.0,0.07206531825882068
2795.0,0.07145053299833615
2794.0,0.07088774334533943
2793.0,0.07042782092345012
2792.0,0.06996838504902692
2791.0,0.06956040523329987
2790.0,0.0691018855898955
2789.0,0.06869471857832687
2788.0,0.06823711151882228
2787.0,0.06772922410050963
2786.0,0.06727263269847072
2785.0,0.06676587128519196
2784.0,0.06625970050306473
2783.0,0.0658551882075229
2782.0,0.06545105233385295
2781.0,0.06514819703433927
2780.0,0.06479513257341862
2779.0,0.06444235490698613
2778.0,0.06403953101083348
2777.0,0.06363708040225546
2776.0,0.06323500239005853
2775.0,0.06293368798257193
2774.0,0.06263258248271053
2773.0,0.062331685600995
2772.0,0.06208109735221967
2771.0,0.061880730805688344
2770.0,0.06163040254819374
2769.0,0.061380218497318895
2768.0,0.0611301784870133
2767.0,0.060880282351513104
2766.0,0.06063052992534024
2765.0,0.060430831344098435
2764.0,0.060231224546650086
2763.0,0.060081579630943294
2762.0,0.05993198626064755
2761.0,0.05973260855398799
2760.0,0.05953332233647113
2759.0,0.05933412752417122
2758.0,0.059135024033278416
2757.0,0.058936011780097886
2756.0,0.058737090681050264
2755.0,0.058538260652670315
2754.0,0.0583395216116076
2753.0,0.05814087347462649
2752.0,0.05799194697768684
2751.0,0.05789269101064454
2750.0,0.057743849580535134
2749.0,0.0575950591438934
2748.0,0.05744631966579017
2747.0,0.05729763111133224
2746.0,0.057198533682059516
2745.0,0.0571489934456626
2744.0,0.05709945885970602
2743.0,0.057049929922901255
2742.0,0.05690137699451481
2741.0,0.05680236993107379
2740.0,0.05665390164340933
2739.0,0.05655495097496965
2738.0,0.056406567231630955
2737.0,0.05625823416868636
2736.0,0.05610995175152733
2735.0,0.055961719945581745
2734.0,0.05581353871631256
2733.0,0.05571477931124735
2732.0,0.05561604235915585
2731.0,0.05551732784983132
2730.0,0.05541863577307371
2729.0,0.05536929814372171
2728.0,0.05531996611868961
2727.0,0.055270639696704205
2726.0,0.055172003656783764
2725.0,0.05507339001378431
2724.0,0.0549255115212699
2723.0,0.05477768336465916
2722.0,0.05462990550969615
2721.0,0.05448217792216048
2720.0,0.05433450056786593
2719.0,0.054186873412661596
2718.0,0.05403929642243144
2717.0,0.05389176956309405
2716.0,0.05379344615721715
2715.0,0.053646002773725554
2714.0,0.053596866100945384
2713.0,0.05354773498692689
2712.0,0.0534986094304124
2711.0,0.053449489430144714
2710.0,0.05340037498486727
2709.0,0.05330216275425803
2708.0,0.05325306496641513
2707.0,0.053203972728539606
2706.0,0.05310580489767336
2705.0,0.05300765925162776
2704.0,0.05290953578037816
2703.0,0.052762392129333646
2702.0,0.05266432405126009
2701.0,0.05256627811294923
2700.0,0.0525172634430815
2699.0,0.052468254304406825
2698.0,0.052419250695677544
2697.0,0.052419250695677544
2696.0,0.05232126006306337
2695.0,0.05217431555754937
2694.0,0.05207638016827354
2693.0,0.05197846685889629
2692.0,0.05188057561946402
2691.0,0.0518316382728683
2690.0,0.05178270644002936
2689.0,0.05178270644002936
2688.0,0.0518316382728683
2687.0,0.05192951848105887
2686.0,0.05192951848105887
2685.0,0.05188057561946402
2684.0,0.05173378011970464
2683.0,0.051684859310652254
2682.0,0.051684859310652254
2681.0,0.051684859310652254
2680.0,0.051684859310652254
2679.0,0.05163594401163074
2678.0,0.05163594401163074
2677.0,0.05163594401163074
2676.0,0.05163594401163074
2675.0,0.05163594401163074
2674.0,0.051684859310652254
2673.0,0.051684859310652254
2672.0,0.05163594401163074
2671.0,0.0515870342213991
2670.0,0.05148923116234294
2669.0,0.05144033789103841
2668.0,0.05139145012356372
2667.0,0.05139145012356372
2666.0,0.05139145012356372
2665.0,0.05144033789103841
2664.0,0.05153812993871654
2663.0,0.0515870342213991
2662.0,0.0515870342213991
2661.0,0.0515870342213991
2660.0,0.0515870342213991
2659.0,0.0515870342213991
2658.0,0.0515870342213991
2657.0,0.05153812993871654
2656.0,0.05148923116234294
2655.0,0.05144033789103841
2654.0,0.05139145012356372
2653.0,0.05134256785867963
2652.0,0.05129369109514803
2651.0,0.051244819831730126
2650.0,0.05119595406718891
2649.0,0.051098239029786274
2648.0,0.05100054597304693
2647.0,0.05095170768433621
2646.0,0.050902874887084115
2645.0,0.050902874887084115
2644.0,0.050902874887084115
2643.0,0.05095170768433621
2642.0,0.05100054597304693
2641.0,0.05100054597304693
2640.0,0.05100054597304693
2639.0,0.05100054597304693
2638.0,0.05100054597304693
2637.0,0.05100054597304693
2636.0,0.051049389754451946
2635.0,0.051049389754451946
2634.0,0.051049389754451946
2633.0,0.05100054597304693
2632.0,0.05095170768433621
2631.0,0.050902874887084115
2630.0,0.050805225762017736
2629.0,0.050707598587974356
2628.0,0.0506099933550872
2627.0,0.05051241005349638
2626.0,0.050414848673348
2625.0,0.050317309204795935
2624.0,0.05021979163799939
2623.0,0.050171041064686284
2622.0,0.05012229596312534
2621.0,0.050073556332087765
2620.0,0.05002482217034632
2619.0,0.04997609347667353
2618.0,0.04987865248862655
2617.0,0.04987865248862655
2616.0,0.04982994019179987
2615.0,0.04978123335813667
2614.0,0.04963514562387683
2613.0,0.04953778109440221
2612.0,0.04944043838819989
2611.0,0.04934311749548925
2610.0,0.049294465226138895
2609.0,0.049294465226138895
2608.0,0.049294465226138895
2607.0,0.049245818406496555
2606.0,0.04919717703534143
2605.0,0.049148541111453614
2604.0,0.04909991063361274
2603.0,0.04900266601119507
2602.0,0.04885683989244738
2601.0,0.04875964967565971
2600.0,0.04871106272232795
2599.0,0.04875964967565971
2598.0,0.04875964967565971
2597.0,0.04875964967565971
2596.0,0.04871106272232795
2595.0,0.04866248120408234
2594.0,0.04866248120408234
2593.0,0.0486139051197072
2592.0,0.048565334467987054
2591.0,0.048468209457651845
2590.0,0.04841965509660828
2589.0,0.04832256265669943
2588.0,0.04832256265669943
2587.0,0.04832256265669943
2586.0,0.04827402457540786
2585.0,0.048225491918274965
2584.0,0.04817696468408794
2583.0,0.04807992647970649
2582.0,0.047934409814949674
2581.0,0.0478374257855374
2580.0,0.0478374257855374
2579.0,0.04778894189133087
2578.0,0.04778894189133087
2577.0,0.04778894189133087
2576.0,0.0478374257855374
2575.0,0.0478374257855374
2574.0,0.0478374257855374
2573.0,0.0478374257855374
2572.0,0.04774046340917959
2571.0,0.047691990337874746
2570.0,0.047595060422975566
2569.0,0.04754660357696672
2568.0,0.04744970610179822
2567.0,0.047352830241056854
2566.0,0.04730440041308315
2565.0,0.04725597598510167
2564.0,0.04720755695590784
2563.0,0.04715914332429838
2562.0,0.04711073508906982
2561.0,0.04715914332429838
2560.0,0.04720755695590784
2559.0,0.04725597598510167
2558.0,0.04725597598510167
2557.0,0.04720755695590784
2556.0,0.04715914332429838
2555.0,0.04711073508906982
2554.0,0.047062332249019345
2553.0,0.04711073508906982
2552.0,0.04711073508906982
2551.0,0.04711073508906982
2550.0,0.04711073508906982
2549.0,0.04711073508906982
2548.0,0.04711073508906982
2547.0,0.047062332249019345
2546.0,0.04701393480294458
2545.0,0.04696554274964315
2544.0,0.04686877481655505
2543.0,0.04677202844014605
2542.0,0.04672366333269573
2541.0,0.04667530361081473
2540.0,0.04667530361081473
2539.0,0.04662694927330402
2538.0,0.04657860031896477
2537.0,0.04657860031896477
2536.0,0.04662694927330402
2535.0,0.04667530361081473
2534.0,0.04667530361081473
2533.0,0.04672366333269573
2532.0,0.04677202844014605
2531.0,0.04677202844014605
2530.0,0.04677202844014605
2529.0,0.04672366333269573
2528.0,0.04662694927330402
2527.0,0.04657860031896477
2526.0,0.04657860031896477
2525.0,0.04657860031896477
2524.0,0.04657860031896477
2523.0,0.04662694927330402
2522.0,0.04657860031896477
2521.0,0.046481918555007384
2520.0,0.04643358574299339
2519.0,0.04638525830935958
2518.0,0.04633693625290869
2517.0,0.04628861957244457
2516.0,0.04628861957244457
2515.0,0.04628861957244457
2514.0,0.04633693625290869
2513.0,0.04633693625290869
2512.0,0.04638525830935958
2511.0,0.04643358574299339
2510.0,0.046481918555007384
2509.0,0.046481918555007384
2508.0,0.046481918555007384
2507.0,0.04643358574299339
2506.0,0.04638525830935958
2505.0,0.04628861957244457
2504.0,0.046192002334692894
2503.0,0.04609540658654021
2502.0,0.04609540658654021
2501.0,0.04609540658654021
2500.0,0.04609540658654021
2499.0,0.046047116768076934
2498.0,0.04595055323640551
2497.0,0.045902279520810385
2496.0,0.04585401117045196
2495.0,0.04585401117045196
2494.0,0.045902279520810385
2493.0,0.04595055323640551
2492.0,0.046047116768076934
2491.0,0.046047116768076934
2490.0,0.04609540658654021
2489.0,0.04609540658654021
2488.0,0.04609540658654021
2487.0,0.046143701775014145
2486.0,0.046143701775014145
2485.0,0.046143701775014145
2484.0,0.04609540658654021
2483.0,0.046047116768076934
2482.0,0.046047116768076934
2481.0,0.046047116768076934
2480.0,0.04609540658654021
2479.0,0.046047116768076934
2478.0,0.046047116768076934
2477.0,0.04599883231842972
2476.0,0.04599883231842972
2475.0,0.04599883231842972
2474.0,0.04599883231842972
2473.0,0.04599883231842972
2472.0,0.04599883231842972
2471.0,0.04599883231842972
2470.0,0.04595055323640551
2469.0,0.045902279520810385
2468.0,0.04585401117045196
2467.0,0.04580574818413763
2466.0,0.04575749056067524
2465.0,0.04580574818413763
2464.0,0.04580574818413763
2463.0,0.04580574818413763
2462.0,0.04575749056067524
2461.0,0.04570923829887308
2460.0,0.045660991397539874
2459.0,0.04570923829887308
2458.0,0.04570923829887308
2457.0,0.04575749056067524
2456.0,0.04575749056067524
2455.0,0.04570923829887308
2454.0,0.04570923829887308
2453.0,0.04575749056067524
2452.0,0.04580574818413763
2451.0,0.04585401117045196
2450.0,0.04580574818413763
2449.0,0.04580574818413763
2448.0,0.04580574818413763
2447.0,0.04585401117045196
2446.0,0.04585401117045196
2445.0,0.04585401117045196
2444.0,0.04585401117045196
2443.0,0.04585401117045196
2442.0,0.04585401117045196
2441.0,0.04585401117045196
2440.0,0.045902279520810385
2439.0,0.04585401117045196
2438.0,0.04585401117045196
2437.0,0.04580574818413763
2436.0,0.04580574818413763
2435.0,0.04580574818413763
2434.0,0.04580574818413763
2433.0,0.04580574818413763
2432.0,0.04580574818413763
2431.0,0.04580574818413763
2430.0,0.04580574818413763
2429.0,0.04585401117045196
2428.0,0.04595055323640551
2427.0,0.04599883231842972
2426.0,0.046047116768076934
2425.0,0.04599883231842972
2424.0,0.04595055323640551
2423.0,0.045902279520810385
2422.0,0.045902279520810385
2421.0,0.04595055323640551
2420.0,0.04595055323640551
2419.0,0.04595055323640551
2418.0,0.04595055323640551
2417.0,0.04595055323640551
2416.0,0.04595055323640551
2415.0,0.04595055323640551
2414.0,0.04595055323640551
2413.0,0.04595055323640551
2412.0,0.04595055323640551
2411.0,0.045902279520810385
2410.0,0.045902279520810385
2409.0,0.045902279520810385
2408.0,0.04595055323640551
2407.0,0.04595055323640551
2406.0,0.04595055323640551
2405.0,0.045902279520810385
2404.0,0.045902279520810385
2403.0,0.045902279520810385
2402.0,0.045902279520810385
2401.0,0.04595055323640551
2400.0,0.046047116768076934
2399.0,0.046047116768076934
2398.0,0.046047116768076934
2397.0,0.046047116768076934
2396.0,0.046047116768076934
2395.0,0.046047116768076934
2394.0,0.04599883231842972
2393.0,0.04595055323640551
2392.0,0.045902279520810385
2391.0,0.04585401117045196
2390.0,0.04585401117045196
2389.0,0.04585401117045196
2388.0,0.04585401117045196
2387.0,0.04585401117045196
2386.0,0.04580574818413763
2385.0,0.04575749056067524
2384.0,0.04570923829887308
2383.0,0.045564513671517703
2382.0,0.04541983725624266
2381.0,0.04522701031028298
2380.0,0.04508244626504121
2379.0,0.044986096961949995
2378.0,0.04488976902944808
2377.0,0.04488976902944808
2376.0,0.044937930324967956
2375.0,0.044986096961949995
2374.0,0.04503426894157925
2373.0,0.04503426894157925
2372.0,0.04508244626504121
2371.0,0.04503426894157925
2370.0,0.04484161307420642
2369.0,0.04464904263234004
2368.0,0.04464904263234004
2367.0,0.04484161307420642
2366.0,0.044937930324967956
2365.0,0.04488976902944808
2364.0,0.04469717723830824
2363.0,0.044456557540257124
2362.0,0.044312249686494276
2361.0,0.04440844959427559
2360.0,0.04455278942230456
2359.0,0.04460091336073302
2358.0,0.044793462458058375
2357.0,0.0451788169482068
2356.0,0.045516282844447975
2355.0,0.045564513671517703
2354.0,0.045323413081356456
2353.0,0.04513062893352182
2352.0,0.044986096961949995
2351.0,0.044793462458058375
2350.0,0.04460091336073302
2349.0,0.04455278942230456
2348.0,0.044793462458058375
2347.0,0.044986096961949995
2346.0,0.04513062893352182
2345.0,0.04513062893352182
2344.0,0.04513062893352182
2343.0,0.04503426894157925
2342.0,0.04488976902944808
2341.0,0.044793462458058375
2340.0,0.04469717723830824
2339.0,0.04460091336073302
2338.0,0.04469717723830824
2337.0,0.04503426894157925
2336.0,0.0454680573730859
2335.0,0.04580574818413763
2334.0,0.04595055323640551
2333.0,0.04599883231842972
2332.0,0.04599883231842972
2331.0,0.045902279520810385
2330.0,0.04580574818413763
2329.0,0.04575749056067524
2328.0,0.04580574818413763
2327.0,0.04585401117045196
2326.0,0.04595055323640551
2325.0,0.046143701775014145
2324.0,0.046481918555007384
2323.0,0.04672366333269573
2322.0,0.04686877481655505
2321.0,0.0469171560879138
2320.0,0.0469171560879138
2319.0,0.04696554274964315
2318.0,0.04701393480294458
2317.0,0.04711073508906982
2316.0,0.04720755695590784
2315.0,0.04725597598510167
2314.0,0.04720755695590784
2313.0,0.04715914332429838
2312.0,0.047062332249019345
2311.0,0.0469171560879138
2310.0,0.04686877481655505
2309.0,0.04682039893436585
2308.0,0.04682039893436585
2307.0,0.04682039893436585
2306.0,0.04682039893436585
2305.0,0.04682039893436585
2304.0,0.04677202844014605
2303.0,0.04672366333269573
2302.0,0.04662694927330402
2301.0,0.04657860031896477
2300.0,0.04662694927330402
2299.0,0.04667530361081473
2298.0,0.04672366333269573
2297.0,0.04677202844014605
2296.0,0.04677202844014605
2295.0,0.04677202844014605
2294.0,0.04672366333269573
2293.0,0.04667530361081473
2292.0,0.04672366333269573
2291.0,0.04677202844014605
2290.0,0.04677202844014605
2289.0,0.04677202844014605
2288.0,0.04677202844014605
2287.0,0.04682039893436585
2286.0,0.0469171560879138
2285.0,0.04701393480294458
2284.0,0.04711073508906982
2283.0,0.04711073508906982
2282.0,0.04711073508906982
2281.0,0.047062332249019345
2280.0,0.04701393480294458
2279.0,0.04696554274964315
2278.0,0.04696554274964315
2277.0,0.04696554274964315
2276.0,0.04696554274964315
2275.0,0.0469171560879138
2274.0,0.04686877481655505
2273.0,0.04682039893436585
2272.0,0.04677202844014605
2271.0,0.04677202844014605
2270.0,0.04682039893436585
2269.0,0.04682039893436585
2268.0,0.04686877481655505
2267.0,0.04686877481655505
2266.0,0.04682039893436585
2265.0,0.04677202844014605
2264.0,0.04672366333269573
2263.0,0.04672366333269573
2262.0,0.04677202844014605
2261.0,0.04682039893436585
2260.0,0.04686877481655505
2259.0,0.0469171560879138
2258.0,0.0469171560879138
2257.0,0.0469171560879138
2256.0,0.04696554274964315
2255.0,0.04701393480294458
2254.0,0.04701393480294458
2253.0,0.047062332249019345
2252.0,0.047062332249019345
2251.0,0.047062332249019345
2250.0,0.04701393480294458
2249.0,0.04701393480294458
2248.0,0.047062332249019345
2247.0,0.04711073508906982
2246.0,0.04715914332429838
2245.0,0.04720755695590784
2244.0,0.04720755695590784
2243.0,0.04720755695590784
2242.0,0.04715914332429838
2241.0,0.04715914332429838
2240.0,0.04711073508906982
2239.0,0.04711073508906982
2238.0,0.04711073508906982
2237.0,0.04711073508906982
2236.0,0.04715914332429838
2235.0,0.04720755695590784
2234.0,0.04715914332429838
2233.0,0.04711073508906982
2232.0,0.047062332249019345
2231.0,0.04701393480294458
2230.0,0.04696554274964315
2229.0,0.04696554274964315
2228.0,0.04701393480294458
2227.0,0.04711073508906982
2226.0,0.04715914332429838
2225.0,0.04715914332429838
2224.0,0.04715914332429838
2223.0,0.04711073508906982
2222.0,0.04711073508906982
2221.0,0.04711073508906982
2220.0,0.04711073508906982
2219.0,0.04715914332429838
2218.0,0.04711073508906982
2217.0,0.047062332249019345
2216.0,0.047062332249019345
2215.0,0.047062332249019345
2214.0,0.047062332249019345
2213.0,0.04711073508906982
2212.0,0.04715914332429838
2211.0,0.04725597598510167
2210.0,0.04730440041308315
2209.0,0.047352830241056854
2208.0,0.04730440041308315
2207.0,0.04725597598510167
2206.0,0.04720755695590784
2205.0,0.04720755695590784
2204.0,0.04720755695590784
2203.0,0.04725597598510167
2202.0,0.04725597598510167
2201.0,0.04725597598510167
2200.0,0.04725597598510167
2199.0,0.04725597598510167
2198.0,0.04725597598510167
2197.0,0.04730440041308315
2196.0,0.04730440041308315
2195.0,0.04725597598510167
2194.0,0.04725597598510167
2193.0,0.04720755695590784
2192.0,0.04725597598510167
2191.0,0.047352830241056854
2190.0,0.04744970610179822
2189.0,0.04744970610179822
2188.0,0.04744970610179822
2187.0,0.04744970610179822
2186.0,0.04744970610179822
2185.0,0.04749815213697639
2184.0,0.04749815213697639
2183.0,0.04749815213697639
2182.0,0.04744970610179822
2181.0,0.04744970610179822
2180.0,0.04749815213697639
2179.0,0.04749815213697639
2178.0,0.04749815213697639
2177.0,0.04749815213697639
2176.0,0.04754660357696672
2175.0,0.04754660357696672
2174.0,0.04754660357696672
2173.0,0.047595060422975566
2172.0,0.047643522676209304
2171.0,0.047643522676209304
2170.0,0.047643522676209304
2169.0,0.047595060422975566
2168.0,0.047595060422975566
2167.0,0.04754660357696672
2166.0,0.04754660357696672
2165.0,0.04754660357696672
2164.0,0.04754660357696672
2163.0,0.04754660357696672
2162.0,0.04754660357696672
2161.0,0.047643522676209304
2160.0,0.04774046340917959
2159.0,0.04778894189133087
2158.0,0.04778894189133087
2157.0,0.04778894189133087
2156.0,0.04778894189133087
2155.0,0.04778894189133087
2154.0,0.04778894189133087
2153.0,0.04778894189133087
2152.0,0.0478374257855374
2151.0,0.047885915093007325
2150.0,0.047885915093007325
2149.0,0.047934409814949674
2148.0,0.047934409814949674
2147.0,0.047934409814949674
2146.0,0.047934409814949674
2145.0,0.047982909952573705
2144.0,0.047982909952573705
2143.0,0.047934409814949674
2142.0,0.047885915093007325
2141.0,0.047885915093007325
2140.0,0.047885915093007325
2139.0,0.047885915093007325
2138.0,0.0478374257855374
2137.0,0.04778894189133087
2136.0,0.04778894189133087
2135.0,0.047885915093007325
2134.0,0.047934409814949674
2133.0,0.047934409814949674
2132.0,0.047885915093007325
2131.0,0.047885915093007325
2130.0,0.0478374257855374
2129.0,0.04778894189133087
2128.0,0.04778894189133087
2127.0,0.04778894189133087
2126.0,0.04778894189133087
2125.0,0.04778894189133087
2124.0,0.0478374257855374
2123.0,0.0478374257855374
2122.0,0.047885915093007325
2121.0,0.047934409814949674
2120.0,0.047934409814949674
2119.0,0.047934409814949674
2118.0,0.047934409814949674
2117.0,0.047885915093007325
2116.0,0.047885915093007325
2115.0,0.0478374257855374
2114.0,0.04778894189133087
2113.0,0.04778894189133087
2112.0,0.04778894189133087
2111.0,0.0478374257855374
2110.0,0.047885915093007325
2109.0,0.047934409814949674
2108.0,0.047934409814949674
2107.0,0.047934409814949674
2106.0,0.047934409814949674
2105.0,0.047982909952573705
2104.0,0.047982909952573705
2103.0,0.04803141550708934
2102.0,0.04803141550708934
2101.0,0.04803141550708934
2100.0,0.04803141550708934
2099.0,0.04803141550708934
2098.0,0.047982909952573705
2097.0,0.047982909952573705
2096.0,0.04803141550708934
2095.0,0.04807992647970649
2094.0,0.04807992647970649
2093.0,0.04807992647970649
2092.0,0.048128442871635535
2091.0,0.048128442871635535
2090.0,0.04807992647970649
2089.0,0.04807992647970649
2088.0,0.04803141550708934
2087.0,0.04803141550708934
2086.0,0.04803141550708934
2085.0,0.04803141550708934
2084.0,0.04807992647970649
2083.0,0.04807992647970649
2082.0,0.04807992647970649
2081.0,0.048128442871635535
2080.0,0.04817696468408794
2079.0,0.04817696468408794
2078.0,0.04817696468408794
2077.0,0.04817696468408794
2076.0,0.04817696468408794
2075.0,0.04817696468408794
2074.0,0.04817696468408794
2073.0,0.04817696468408794
2072.0,0.048225491918274965
2071.0,0.04827402457540786
2070.0,0.048225491918274965
2069.0,0.048225491918274965
2068.0,0.048225491918274965
2067.0,0.04817696468408794
2066.0,0.04817696468408794
2065.0,0.04817696468408794
2064.0,0.048225491918274965
2063.0,0.04827402457540786
2062.0,0.048225491918274965
2061.0,0.048225491918274965
2060.0,0.04827402457540786
2059.0,0.04827402457540786
2058.0,0.04832256265669943
2057.0,0.04832256265669943
2056.0,0.04837110616336182
2055.0,0.04837110616336182
2054.0,0.04837110616336182
2053.0,0.04837110616336182
2052.0,0.04837110616336182
2051.0,0.04837110616336182
2050.0,0.04832256265669943
2049.0,0.04837110616336182
2048.0,0.04841965509660828
2047.0,0.04851676924770687
2046.0,0.048565334467987054
2045.0,0.048565334467987054
2044.0,0.0486139051197072
2043.0,0.0486139051197072
2042.0,0.0486139051197072
2041.0,0.0486139051197072
2040.0,0.04871106272232795
2039.0,0.04875964967565971
2038.0,0.04875964967565971
2037.0,0.04875964967565971
2036.0,0.04875964967565971
2035.0,0.04875964967565971
2034.0,0.04875964967565971
2033.0,0.04875964967565971
2032.0,0.04875964967565971
2031.0,0.048808242065293994
2030.0,0.04885683989244738
2029.0,0.048905443158337114
2028.0,0.048954051864180226
2027.0,0.04900266601119507
2026.0,0.04900266601119507
2025.0,0.04905128560059957
2024.0,0.04909991063361274
2023.0,0.04909991063361274
2022.0,0.04909991063361274
2021.0,0.049148541111453614
2020.0,0.04919717703534143
2019.0,0.049245818406496555
2018.0,0.049294465226138895
2017.0,0.049294465226138895
2016.0,0.049294465226138895
2015.0,0.049294465226138895
2014.0,0.049245818406496555
2013.0,0.04919717703534143
2012.0,0.049148541111453614
2011.0,0.049148541111453614
2010.0,0.04909991063361274
2009.0,0.04909991063361274
2008.0,0.04905128560059957
2007.0,0.04900266601119507
2006.0,0.048905443158337114
2005.0,0.04885683989244738
2004.0,0.048808242065293994
2003.0,0.048808242065293994
2002.0,0.048808242065293994
2001.0,0.04885683989244738
2000.0,0.04885683989244738
1999.0,0.048808242065293994
1998.0,0.04875964967565971
1997.0,0.04871106272232795
1996.0,0.04871106272232795
1995.0,0.04875964967565971
1994.0,0.048808242065293994
1993.0,0.04885683989244738
1992.0,0.048905443158337114
1991.0,0.048905443158337114
1990.0,0.04885683989244738
1989.0,0.04885683989244738
1988.0,0.04885683989244738
1987.0,0.04885683989244738
1986.0,0.04885683989244738
1985.0,0.048808242065293994
1984.0,0.04885683989244738
1983.0,0.048905443158337114
1982.0,0.048954051864180226
1981.0,0.048954051864180226
1980.0,0.04900266601119507
1979.0,0.04900266601119507
1978.0,0.04900266601119507
1977.0,0.04900266601119507
1976.0,0.04900266601119507
1975.0,0.048954051864180226
1974.0,0.048954051864180226
1973.0,0.048905443158337114
1972.0,0.048905443158337114
1971.0,0.048905443158337114
1970.0,0.048905443158337114
1969.0,0.048905443158337114
1968.0,0.048905443158337114
1967.0,0.048954051864180226
1966.0,0.048954051864180226
1965.0,0.048954051864180226
1964.0,0.048954051864180226
1963.0,0.04900266601119507
1962.0,0.04905128560059957
1961.0,0.04909991063361274
1960.0,0.04909991063361274
1959.0,0.04909991063361274
1958.0,0.04909991063361274
1957.0,0.04909991063361274
1956.0,0.04909991063361274
1955.0,0.049148541111453614
1954.0,0.04909991063361274
1953.0,0.04909991063361274
1952.0,0.049148541111453614
1951.0,0.049148541111453614
1950.0,0.04919717703534143
1949.0,0.04919717703534143
1948.0,0.049245818406496555
1947.0,0.049245818406496555
1946.0,0.049245818406496555
1945.0,0.04919717703534143
1944.0,0.049148541111453614
1943.0,0.04919717703534143
1942.0,0.049245818406496555
1941.0,0.049294465226138895
1940.0,0.04934311749548925
1939.0,0.04939177521576932
1938.0,0.04944043838819989
1937.0,0.04944043838819989
1936.0,0.04944043838819989
1935.0,0.04944043838819989
1934.0,0.04948910701400333
1933.0,0.04953778109440221
1932.0,0.04958646063061889
1931.0,0.04958646063061889
1930.0,0.04953778109440221
1929.0,0.04953778109440221
1928.0,0.04953778109440221
1927.0,0.04948910701400333
1926.0,0.04944043838819989
1925.0,0.04944043838819989
1924.0,0.04939177521576932
1923.0,0.04939177521576932
1922.0,0.04939177521576932
1921.0,0.04944043838819989
1920.0,0.04958646063061889
1919.0,0.04973253198641148
1918.0,0.04982994019179987
1917.0,0.04982994019179987
1916.0,0.04978123335813667
1915.0,0.04978123335813667
1914.0,0.04978123335813667
1913.0,0.04978123335813667
1912.0,0.04973253198641148
1911.0,0.04973253198641148
1910.0,0.04968383607539972
1909.0,0.04973253198641148
1908.0,0.04978123335813667
1907.0,0.04987865248862655
1906.0,0.04997609347667353
1905.0,0.05012229596312534
1904.0,0.050171041064686284
1903.0,0.050171041064686284
1902.0,0.050171041064686284
1901.0,0.05021979163799939
1900.0,0.05026854768429301
1899.0,0.050317309204795935
1898.0,0.050317309204795935
1897.0,0.050317309204795935
1896.0,0.050317309204795935
1895.0,0.050317309204795935
1894.0,0.050317309204795935
1893.0,0.050317309204795935
1892.0,0.05036607620073763
1891.0,0.05036607620073763
1890.0,0.050317309204795935
1889.0,0.05026854768429301
1888.0,0.05026854768429301
1887.0,0.05021979163799939
1886.0,0.05026854768429301
1885.0,0.05026854768429301
1884.0,0.05026854768429301
1883.0,0.05026854768429301
1882.0,0.05021979163799939
1881.0,0.05021979163799939
1880.0,0.05021979163799939
1879.0,0.05021979163799939
1878.0,0.05021979163799939
1877.0,0.05021979163799939
1876.0,0.05026854768429301
1875.0,0.050317309204795935
1874.0,0.050317309204795935
1873.0,0.05026854768429301
1872.0,0.05021979163799939
1871.0,0.05021979163799939
1870.0,0.050171041064686284
1869.0,0.05012229596312534
1868.0,0.05012229596312534
1867.0,0.05002482217034632
1866.0,0.05002482217034632
1865.0,0.05012229596312534
1864.0,0.05021979163799939
1863.0,0.050317309204795935
1862.0,0.050317309204795935
1861.0,0.050317309204795935
1860.0,0.050317309204795935
1859.0,0.050317309204795935
1858.0,0.05036607620073763
1857.0,0.050414848673348
1856.0,0.050463626623857394
1855.0,0.05051241005349638
1854.0,0.050463626623857394
1853.0,0.050414848673348
1852.0,0.05036607620073763
1851.0,0.05036607620073763
1850.0,0.05036607620073763
1849.0,0.050317309204795935
1848.0,0.05026854768429301
1847.0,0.05021979163799939
1846.0,0.05021979163799939
1845.0,0.05026854768429301
1844.0,0.050317309204795935
1843.0,0.05036607620073763
1842.0,0.050414848673348
1841.0,0.050463626623857394
1840.0,0.05051241005349638
1839.0,0.05051241005349638
1838.0,0.050414848673348
1837.0,0.050414848673348
1836.0,0.05051241005349638
1835.0,0.05056119896349576
1834.0,0.05056119896349576
1833.0,0.05056119896349576
1832.0,0.05056119896349576
1831.0,0.0506099933550872
1830.0,0.0506099933550872
1829.0,0.0506099933550872
1828.0,0.0506099933550872
1827.0,0.050707598587974356
1826.0,0.05085404758005607
1825.0,0.050902874887084115
1824.0,0.050902874887084115
1823.0,0.050902874887084115
1822.0,0.050902874887084115
1821.0,0.05100054597304693
1820.0,0.05100054597304693
1819.0,0.05095170768433621
1818.0,0.05085404758005607
1817.0,0.050902874887084115
1816.0,0.05095170768433621
1815.0,0.05095170768433621
1814.0,0.05095170768433621
1813.0,0.05095170768433621
1812.0,0.05100054597304693
1811.0,0.051049389754451946
1810.0,0.05100054597304693
1809.0,0.05100054597304693
1808.0,0.051049389754451946
1807.0,0.051049389754451946
1806.0,0.051049389754451946
1805.0,0.05100054597304693
1804.0,0.05095170768433621
1803.0,0.05095170768433621
1802.0,0.05095170768433621
1801.0,0.051049389754451946
1800.0,0.05114709380028648
1799.0,0.05114709380028648
1798.0,0.051049389754451946
1797.0,0.05100054597304693
1796.0,0.05100054597304693
1795.0,0.05100054597304693
1794.0,0.051049389754451946
1793.0,0.05119595406718891
1792.0,0.05139145012356372
1791.0,0.05144033789103841
1790.0,0.05139145012356372
1789.0,0.05144033789103841
1788.0,0.05144033789103841
1787.0,0.05148923116234294
1786.0,0.05153812993871654
1785.0,0.0515870342213991
1784.0,0.05163594401163074
1783.0,0.0515870342213991
1782.0,0.05148923116234294
1781.0,0.05148923116234294
1780.0,0.05148923116234294
1779.0,0.05153812993871654
1778.0,0.0515870342213991
1777.0,0.051684859310652254
1776.0,0.051684859310652254
1775.0,0.05173378011970464
1774.0,0.05173378011970464
1773.0,0.05178270644002936
1772.0,0.05178270644002936
1771.0,0.05178270644002936
1770.0,0.05178270644002936
1769.0,0.052027420754219955
1768.0,0.05227227303668425
1767.0,0.05237025261564554
1766.0,0.05232126006306337
1765.0,0.05222329153526162
1764.0,0.05222329153526162
1763.0,0.05227227303668425
1762.0,0.05237025261564554
1761.0,0.05237025261564554
1760.0,0.05232126006306337
1759.0,0.05237025261564554
1758.0,0.052468254304406825
1757.0,0.0525172634430815
1756.0,0.05256627811294923
1755.0,0.05261529831525902
1754.0,0.05266432405126009
1753.0,0.05266432405126009
1752.0,0.05271335532220167
1751.0,0.052762392129333646
1750.0,0.05281143447390635
1749.0,0.05286048235717078
1748.0,0.05305672930217464
1747.0,0.05325306496641513
1746.0,0.0534986094304124
1745.0,0.053646002773725554
1744.0,0.05389176956309405
1743.0,0.054088483180726676
1742.0,0.05423607688882637
1741.0,0.05443294655761144
1740.0,0.054679159207724926
1739.0,0.05482695382609992
1738.0,0.05482695382609992
1737.0,0.05482695382609992
1736.0,0.054876229877880656
1735.0,0.054876229877880656
1734.0,0.0549255115212699
1733.0,0.05482695382609992
1732.0,0.05477768336465916
1731.0,0.0549255115212699
1730.0,0.05502409158795207
1729.0,0.05507339001378431
1728.0,0.055122694036304765
1727.0,0.055172003656783764
1726.0,0.055270639696704205
1725.0,0.05531996611868961
1724.0,0.05536929814372171
1723.0,0.05551732784983132
1722.0,0.055566682299785564
1721.0,0.05561604235915585
1720.0,0.05561604235915585
1719.0,0.05561604235915585
1718.0,0.05566540802921782
1717.0,0.055764156206519866
1716.0,0.05586292684190197
1715.0,0.055961719945581745
1714.0,0.05606053552778367
1713.0,0.05620880107069848
1712.0,0.05630767289398331
1711.0,0.05630767289398331
1710.0,0.05630767289398331
1709.0,0.05620880107069848
1708.0,0.056159373598738904
1707.0,0.05610995175152733
1706.0,0.05606053552778367
1705.0,0.05606053552778367
1704.0,0.05606053552778367
1703.0,0.05620880107069848
1702.0,0.056406567231630955
1701.0,0.05680236993107379
1700.0,0.05724807957018618
1699.0,0.05729763111133224
1698.0,0.057198533682059516
1697.0,0.05749589383191922
1696.0,0.05784307153250956
1695.0,0.05789269101064454
1694.0,0.05784307153250956
1693.0,0.05799194697768684
1692.0,0.05824018618530458
1691.0,0.0582898510583536
1690.0,0.05824018618530458
1689.0,0.0582898510583536
1688.0,0.0583891978463662
1687.0,0.058538260652670315
1686.0,0.058538260652670315
1685.0,0.058737090681050264
1684.0,0.05928434309333741
1683.0,0.0595831353183347
1682.0,0.05973260855398799
1681.0,0.060131455540490375
1680.0,0.060430831344098435
1679.0,0.06058059667068294
1678.0,0.06068046892176193
1677.0,0.060880282351513104
1676.0,0.06118017497378969
1675.0,0.06153031163235467
1674.0,0.061680456657844385
1673.0,0.06173051653708872
1672.0,0.061780582187257016
1671.0,0.061880730805688344
1670.0,0.06208109735221967
1669.0,0.06243196139961715
1668.0,0.06268275223750575
1667.0,0.06293368798257193
1666.0,0.06313454102437754
1665.0,0.06323500239005853
1664.0,0.06328524178879635
1663.0,0.06343599486473406
1662.0,0.06358680028852026
1661.0,0.0636873663378068
1660.0,0.06383825908884244
1659.0,0.06398920428479049
1658.0,0.06403953101083348
1657.0,0.06398920428479049
1656.0,0.06393888339001164
1655.0,0.06388856832514578
1654.0,0.06408986356949264
1653.0,0.06444235490698613
1652.0,0.06403953101083348
1651.0,0.06363708040225546
1650.0,0.06373765809652254
1649.0,0.06378795567975115
1648.0,0.06378795567975115
1647.0,0.06393888339001164
1646.0,0.06403953101083348
1645.0,0.06403953101083348
1644.0,0.06408986356949264
1643.0,0.06419054619006714
1642.0,0.06419054619006714
1641.0,0.06408986356949264
1640.0,0.06393888339001164
1639.0,0.06373765809652254
1638.0,0.06348625752110681
1637.0,0.06328524178879635
1636.0,0.06333548699992453
1635.0,0.06343599486473406
1634.0,0.06333548699992453
1633.0,0.06333548699992453
1632.0,0.06333548699992453
1631.0,0.06318476880236723
1630.0,0.06288348923294618
1629.0,0.06258241852286206
1628.0,0.062331685600995
1627.0,0.06208109735221967
1626.0,0.061830653609679764
1625.0,0.061680456657844385
1624.0,0.06153031163235467
1623.0,0.061380218497318895
1622.0,0.06118017497378969
1621.0,0.06098022355133348
1620.0,0.060880282351513104
1619.0,0.06078036414518184
1618.0,0.06058059667068294
1617.0,0.06038092104330195
1616.0,0.060081579630943294
1615.0,0.05978244440026481
1614.0,0.05963295401433477
1613.0,0.0595831353183347
1612.0,0.05943371350990989
1611.0,0.05918479134919874
1610.0,0.059035506507200575
1609.0,0.0588862729628985
1608.0,0.058836539841526925
1607.0,0.058737090681050264
1606.0,0.05868737463933793
1605.0,0.05863766428823891
1604.0,0.05858795962645047
1603.0,0.058538260652670315
1602.0,0.05848856736559682
1601.0,0.05843887976392925
1600.0,0.0583395216116076
1599.0,0.05824018618530458
1598.0,0.05814087347462649
1597.0,0.05809122563440061
1596.0,0.05804158346918653
1595.0,0.05804158346918653
1594.0,0.05804158346918653
1593.0,0.05799194697768684
1592.0,0.05794231615860479
1591.0,0.05784307153250956
1590.0,0.05784307153250956
1589.0,0.05784307153250956
1588.0,0.05789269101064454
1587.0,0.05794231615860479
1586.0,0.05794231615860479
1585.0,0.05794231615860479
1584.0,0.05794231615860479
1583.0,0.05794231615860479
1582.0,0.05794231615860479
1581.0,0.05789269101064454
1580.0,0.05779345772290467
1579.0,0.05769424710410598
1578.0,0.05764465029232335
1577.0,0.05764465029232335
1576.0,0.057743849580535134
1575.0,0.057743849580535134
1574.0,0.057743849580535134
1573.0,0.05789269101064454
1572.0,0.05799194697768684
1571.0,0.05789269101064454
1570.0,0.05784307153250956
1569.0,0.05794231615860479
1568.0,0.05799194697768684
1567.0,0.05814087347462649
1566.0,0.05824018618530458
1565.0,0.0583395216116076
1564.0,0.0583395216116076
1563.0,0.0583395216116076
1562.0,0.0583395216116076
1561.0,0.058190526991161784
1560.0,0.058190526991161784
1559.0,0.05898575629443026
1558.0,0.05933412752417122
1557.0,0.05908526241971446
1556.0,0.05938391766259232
1555.0,0.05963295401433477
1554.0,0.05963295401433477
1553.0,0.0595831353183347
1552.0,0.05953332233647113
1551.0,0.0595831353183347
1550.0,0.0595831353183347
1549.0,0.0595831353183347
1548.0,0.0595831353183347
1547.0,0.0595831353183347
1546.0,0.05948351506743288
1545.0,0.05933412752417122
1544.0,0.05923456436878238
1543.0,0.05908526241971446
1542.0,0.058786812414678646
1541.0,0.058737090681050264
1540.0,0.059035506507200575
1539.0,0.059035506507200575
1538.0,0.058836539841526925
1537.0,0.05898575629443026
1536.0,0.05923456436878238
1535.0,0.05923456436878238
1534.0,0.059135024033278416
1533.0,0.05908526241971446
1532.0,0.059135024033278416
1531.0,0.05918479134919874
1530.0,0.05908526241971446
1529.0,0.058936011780097886
1528.0,0.058836539841526925
1527.0,0.058737090681050264
1526.0,0.05863766428823891
1525.0,0.058538260652670315
1524.0,0.05848856736559682
1523.0,0.0583395216116076
1522.0,0.05814087347462649
1521.0,0.05799194697768684
1520.0,0.05794231615860479
1519.0,0.05789269101064454
1518.0,0.057743849580535134
1517.0,0.0575950591438934
1516.0,0.05749589383191922
1515.0,0.05744631966579017
1514.0,0.057396751157843484
1513.0,0.057396751157843484
1512.0,0.05729763111133224
1511.0,0.0571489934456626
1510.0,0.05680236993107379
1509.0,0.056456022846545606
1508.0,0.05630767289398331
1507.0,0.05630767289398331
1506.0,0.05601112492622806
1505.0,0.05571477931124735
1504.0,0.055961719945581745
1503.0,0.05610995175152733
1502.0,0.055961719945581745
1501.0,0.055764156206519866
1500.0,0.05561604235915585
1499.0,0.05546797900801881
1498.0,0.05522131887649295
1497.0,0.05502409158795207
1496.0,0.0549747987575373
1495.0,0.05477768336465916
1494.0,0.05443294655761144
1493.0,0.054186873412661596
1492.0,0.05399011523423525
1491.0,0.05374429280060267
1490.0,0.053449489430144714
1489.0,0.053203972728539606
1488.0,0.053203972728539606
1487.0,0.05300765925162776
1486.0,0.05261529831525902
1485.0,0.05237025261564554
1484.0,0.05227227303668425
1483.0,0.05217431555754937
1482.0,0.05197846685889629
1481.0,0.05188057561946402
1480.0,0.05217431555754937
1479.0,0.05290953578037816
1478.0,0.0549255115212699
1477.0,0.060231224546650086
1476.0,0.07093887591523451
1475.0,0.0872997918091396
1474.0,0.10823959854332843
1473.0,0.1295960947209729
1472.0,0.1410419452819942
1471.0,0.13924287691845794
1470.0,0.13300418688935212
1469.0,0.1281352979118051
1468.0,0.12517042212027807
1467.0,0.12389767862220635
1466.0,0.12592425477696523
1465.0,0.13418561983203192
1464.0,0.14776406058811253
1463.0,0.15970566838856382
1462.0,0.1644362483309032
1461.0,0.1614027471833437
1460.0,0.15193410459600853
1459.0,0.1385253311428314
1458.0,0.12395544975390482
1457.0,0.11198908775497118
1456.0,0.10485381062400778
1455.0,0.10105553313349058
1454.0,0.09859617317474823
1453.0,0.09620485725896466
1452.0,0.09361107884716913
1451.0,0.09124698081546634
1450.0,0.08942895151874142
1449.0,0.08799062441302175
1448.0,0.0867160982395816
1447.0,0.08560394787021397
1446.0,0.08481129482684358
1445.0,0.08428366205400617
1444.0,0.08370400543686918
1443.0,0.08312512146131668
1442.0,0.08265206237222844
1441.0,0.08212704480115218
1440.0,0.08155025759884227
1439.0,0.08102656950704579
1438.0,0.08060807322614072
1437.0,0.08029446545087904
1436.0,0.07982447798997727
1435.0,0.07919861817434581
1434.0,0.07852161962430992
1433.0,0.07784567476894111
1432.0,0.07701518429111709
1431.0,0.07618627890881036
1430.0,0.07535895258283709
1429.0,0.07463633264589853
1428.0,0.07391491307485598
1427.0,0.0732460948102629
1426.0,0.07262963696097646
1425.0,0.0720140529005715
1424.0,0.07129697256940304
1423.0,0.07078549626260622
1422.0,0.07047889936889606
1421.0,0.07022356719509815
1420.0,0.0699173666076287
1419.0,0.06966236426227002
1418.0,0.06945847013556561
1417.0,0.06930561233546473
1416.0,0.0691018855898955
1415.0,0.06894915322260897
1414.0,0.06879647454924775
1413.0,0.06864384953207203
1412.0,0.06844043290919477
1411.0,0.06833876031551878
1410.0,0.06823711151882228
1409.0,0.06813548650796819
1408.0,0.06803388527182741
1407.0,0.06788152797087754
1406.0,0.06777998612288094
1405.0,0.06767846801070698
1404.0,0.06752623532284674
1403.0,0.06742477650170953
1402.0,0.06732334137759932
1401.0,0.0671712330991534
1400.0,0.06696850489759454
1399.0,0.06681652082538614
1398.0,0.06676587128519196
1397.0,0.06676587128519196
1396.0,0.06671522765130522
1395.0,0.06676587128519196
1394.0,0.06686717627326577
1393.0,0.06691783763020887
1392.0,0.06681652082538614
1391.0,0.06671522765130522
1390.0,0.06656333217371957
1389.0,0.06646209802829528
1388.0,0.06641148980334699
1387.0,0.06641148980334699
1386.0,0.06646209802829528
1385.0,0.06646209802829528
1384.0,0.06646209802829528
1383.0,0.06656333217371957
1382.0,0.06661395809694559
1381.0,0.06671522765130522
1380.0,0.06681652082538614
1379.0,0.06696850489759454
1378.0,0.06712054217620067
1377.0,0.06727263269847072
1376.0,0.06742477650170953
1375.0,0.0676277178520861
1374.0,0.0680846829187538
1373.0,0.06864384953207203
1372.0,0.0692037370166998
1371.0,0.06966236426227002
1370.0,0.07007043991541217
1369.0,0.07047889936889606
1368.0,0.07073438174693436
1367.0,0.07083661679493547
1366.0,0.07083661679493547
1365.0,0.07068327324650436
1364.0,0.07037674848475972
1363.0,0.07012147634321675
1362.0,0.06996838504902692
1361.0,0.06986635415888243
1360.0,0.06976434723371505
1359.0,0.06971335275448043
1358.0,0.06966236426227002
1357.0,0.06961138175567827
1356.0,0.06966236426227002
1355.0,0.06971335275448043
1354.0,0.06986635415888243
1353.0,0.07001940948448526
1352.0,0.07007043991541217
1351.0,0.07012147634321675
1350.0,0.07017251876930874
1349.0,0.07017251876930874
1348.0,0.07007043991541217
1347.0,0.0699173666076287
1346.0,0.06981534770138009
1345.0,0.06971335275448043
1344.0,0.06956040523329987
1343.0,0.06945847013556561
1342.0,0.06940751155740177
1341.0,0.06930561233546473
1340.0,0.0692037370166998
1339.0,0.0691018855898955
1338.0,0.06905096883247697
1337.0,0.06894915322260897
1336.0,0.06884736147670667
1335.0,0.06879647454924775
1334.0,0.06874559358358656
1333.0,0.06874559358358656
1332.0,0.06869471857832687
1331.0,0.06869471857832687
1330.0,0.06874559358358656
1329.0,0.06879647454924775
1328.0,0.06879647454924775
1327.0,0.06884736147670667
1326.0,0.0688982543673613
1325.0,0.06894915322260897
1324.0,0.0690000580438479
1323.0,0.06905096883247697
1322.0,0.06915280831750303
1321.0,0.0692037370166998
1320.0,0.06930561233546473
1319.0,0.06950943469373039
1318.0,0.06976434723371505
1317.0,0.07001940948448526
1316.0,0.07022356719509815
1315.0,0.07037674848475972
1314.0,0.07058107428570715
1313.0,0.07078549626260622
1312.0,0.0710411591191702
1311.0,0.0713481533463054
1310.0,0.07160414774328627
1309.0,0.07186029312488018
1308.0,0.0720140529005715
1307.0,0.07211658966929302
1306.0,0.07227044022834539
1305.0,0.07237303755504598
1304.0,0.07242434530888953
1303.0,0.07247565912497134
1302.0,0.0725783049495814
1301.0,0.07273231918911849
1300.0,0.07288638806623937
1299.0,0.07304051161972436
1298.0,0.07314329105030759
1297.0,0.0732460948102629
1296.0,0.07329750581735506
1295.0,0.07329750581735506
1294.0,0.07329750581735506
1293.0,0.07329750581735506
1292.0,0.0732460948102629
1291.0,0.0732460948102629
1290.0,0.07329750581735506
1289.0,0.07334892291111106
1288.0,0.07340034609297241
1287.0,0.0734517753643813
1286.0,0.07355465218161061
1285.0,0.07360609973031784
1284.0,0.07365755337434488
1283.0,0.07370901311513656
1282.0,0.07376047895413773
1281.0,0.07381195089279391
1280.0,0.07386342893255127
1279.0,0.07401789967289685
1278.0,0.07417242537525759
1277.0,0.07427547306393745
1276.0,0.07437854520917098
1275.0,0.07443009045662374
1274.0,0.07448164182257
1273.0,0.07458476291575367
1272.0,0.07468790850035045
1271.0,0.07479107858799638
1270.0,0.07494587968815725
1269.0,0.07499749231902242
1268.0,0.07510073598571654
1267.0,0.07515236702446293
1266.0,0.07530729697981409
1265.0,0.07541061433058172
1264.0,0.07551395626608493
1263.0,0.07556563645676939
1262.0,0.07572071393811841
1261.0,0.07587584681417514
1260.0,0.0760310351245288
1259.0,0.07618627890881036
1258.0,0.07634157820669385
1257.0,0.07644514193245056
1256.0,0.07654873036034848
1255.0,0.07665234350217442
1254.0,0.07680780957933253
1253.0,0.07701518429111709
1252.0,0.07717078033335123
1251.0,0.07737832847680104
1250.0,0.07758597585436577
1249.0,0.0777417765670334
1248.0,0.07789763319239285
1247.0,0.07810552907089763
1246.0,0.07836553894629472
1245.0,0.07857365898473456
1244.0,0.07878187880504961
1243.0,0.07893810920972144
1242.0,0.07904229404455076
1241.0,0.07919861817434581
1240.0,0.07935499859321249
1239.0,0.07951143534170213
1238.0,0.07966792846041071
1237.0,0.07982447798997727
1236.0,0.07987667370927598
1235.0,0.07992887570247587
1234.0,0.07998108397108505
1233.0,0.07998108397108505
1232.0,0.08003329851661278
1231.0,0.08008551934056851
1230.0,0.08018997982980403
1229.0,0.08018997982980403
1228.0,0.08013774644446192
1227.0,0.08008551934056851
1226.0,0.08008551934056851
1225.0,0.08008551934056851
1224.0,0.08008551934056851
1223.0,0.08008551934056851
1222.0,0.08008551934056851
1221.0,0.08003329851661278
1220.0,0.08003329851661278
1219.0,0.08003329851661278
1218.0,0.07998108397108505
1217.0,0.07998108397108505
1216.0,0.07992887570247587
1215.0,0.07992887570247587
1214.0,0.07992887570247587
1213.0,0.07998108397108505
1212.0,0.08003329851661278
1211.0,0.08003329851661278
1210.0,0.07998108397108505
1209.0,0.07998108397108505
1208.0,0.07992887570247587
1207.0,0.07987667370927598
1206.0,0.07987667370927598
1205.0,0.07982447798997727
1204.0,0.07977228854307139
1203.0,0.07977228854307139
1202.0,0.07977228854307139
1201.0,0.07977228854307139
1200.0,0.07982447798997727
1199.0,0.07982447798997727
1198.0,0.07987667370927598
1197.0,0.07992887570247587
1196.0,0.07992887570247587
1195.0,0.07992887570247587
1194.0,0.07987667370927598
1193.0,0.07982447798997727
1192.0,0.07977228854307139
1191.0,0.07977228854307139
1190.0,0.07982447798997727
1189.0,0.07987667370927598
1188.0,0.07992887570247587
1187.0,0.07998108397108505
1186.0,0.07998108397108505
1185.0,0.08003329851661278
1184.0,0.07998108397108505
1183.0,0.07998108397108505
1182.0,0.07998108397108505
1181.0,0.08003329851661278
1180.0,0.08018997982980403
1179.0,0.08029446545087904
1178.0,0.08045124103115198
1177.0,0.08060807322614072
1176.0,0.08066036321258663
1175.0,0.08071265949561734
1174.0,0.08071265949561734
1173.0,0.08071265949561734
1172.0,0.08076496207674921
1171.0,0.08081727095749947
1170.0,0.08092190762392604
1169.0,0.0809742354126397
1168.0,0.08102656950704579
1167.0,0.08107890990866418
1166.0,0.08113125661901543
1165.0,0.0812359689720008
1164.0,0.0812883346176787
1163.0,0.0812883346176787
1162.0,0.08134070657817682
1161.0,0.08139308485501817
1160.0,0.08144546944972642
1159.0,0.08149786036382611
1158.0,0.08155025759884227
1157.0,0.08160266115629988
1156.0,0.08160266115629988
1155.0,0.08165507103772507
1154.0,0.08165507103772507
1153.0,0.08170748724464438
1152.0,0.08170748724464438
1151.0,0.08170748724464438
1150.0,0.08175990977858505
1149.0,0.08186477383364066
1148.0,0.08191721535781271
1147.0,0.08202211740709164
1146.0,0.08207457793525874
1145.0,0.08217951800630297
1144.0,0.0823369756726251
1143.0,0.08244197917456386
1142.0,0.08249449044745338
1141.0,0.08254700807033655
1140.0,0.08259953204474924
1139.0,0.08270459905431071
1138.0,0.08275714209253371
1137.0,0.08291480935943274
1136.0,0.08301995267961781
1135.0,0.0832303157168639
1134.0,0.0833881548906541
1133.0,0.08354605145007499
1132.0,0.08370400543686918
1131.0,0.0839147001562972
1130.0,0.08412549714230844
1129.0,0.08433639649422697
1128.0,0.08449463824562353
1127.0,0.08465293767580806
1126.0,0.08486409337798806
1125.0,0.08502252755566908
1124.0,0.08518101955252688
1123.0,0.08528671302637614
1122.0,0.0854453014823664
1121.0,0.0856568428805593
1120.0,0.08586848736910624
1119.0,0.0861331881037608
1118.0,0.08639805027084257
1117.0,0.08661005636824437
1116.0,0.08682216600953208
1115.0,0.0870343792958963
1114.0,0.08719360733870762
1113.0,0.08735289378168276
1112.0,0.08751223866767632
1111.0,0.08767164203958999
1110.0,0.08793744441149753
1109.0,0.08820340956274775
1108.0,0.0884695376928375
1107.0,0.08873582900163002
1106.0,0.08889568219596411
1105.0,0.08905559425002108
1104.0,0.08916223500731646
1103.0,0.08932224525729482
1102.0,0.08948231448273347
1101.0,0.08964244272712252
1100.0,0.08980263003399913
1099.0,0.0900163050601559
1098.0,0.09028354676565531
1097.0,0.0905509530187334
1096.0,0.0908185240221473
1095.0,0.0910326995816122
1094.0,0.09135416109288674
1093.0,0.09167586072382083
1092.0,0.0919977988274463
1091.0,0.09231997575758011
1090.0,0.09258863922541383
1089.0,0.09285746899685954
1088.0,0.09323411045927221
1087.0,0.09361107884716913
1086.0,0.09398837472858723
1085.0,0.09431203228814788
1084.0,0.09458193129745807
1083.0,0.09496007192378841
1082.0,0.09533854208447545
1081.0,0.0957714836599215
1080.0,0.0960964733098364
1079.0,0.09636748391576244
1078.0,0.09663866374468144
1077.0,0.09685572959046151
1076.0,0.09712721455392082
1075.0,0.09739886933346864
1074.0,0.09761631556752848
1073.0,0.0978882765519955
1072.0,0.09810596802617932
1071.0,0.09832376867362447
1070.0,0.09854167860388774
1069.0,0.09881421986284966
1068.0,0.0990869322623309
1067.0,0.09925064193892053
1066.0,0.09935981601739963
1065.0,0.09935981601739963
1064.0,0.09941441335003853
1063.0,0.09946901754724413
1062.0,0.09952362861074304
1061.0,0.09952362861074304
1060.0,0.09952362861074304
1059.0,0.09946901754724413
1058.0,0.09946901754724413
1057.0,0.09946901754724413
1056.0,0.09952362861074304
1055.0,0.09963287134352972
1054.0,0.09968750301627338
1053.0,0.09979678698310646
1052.0,0.09996076451267522
1051.0,0.10017949757290379
1050.0,0.10045306890913297
1049.0,0.10072681268239614
1048.0,0.10100072911021085
1047.0,0.10127481841050656
1046.0,0.10149421446564144
1045.0,0.10171372141087698
1044.0,0.10193333935836524
1043.0,0.10209812573177213
1042.0,0.10226297465457268
1041.0,0.10248287059947447
1040.0,0.10270287794050348
1039.0,0.1028679566179056
1038.0,0.10292299679057959
1037.0,0.1028679566179056
1036.0,0.1028679566179056
1035.0,0.10281292341984649
1034.0,0.10275789719463457
1033.0,0.10264786565568684
1032.0,0.10248287059947447
1031.0,0.10226297465457268
1030.0,0.10198826120249849
1029.0,0.10165883427249067
1028.0,0.10138450258381404
1027.0,0.10111034407341357
1026.0,0.10094593200182911
1025.0,0.10078158214862709
1024.0,0.10061729446673495
1023.0,0.10045306890913297
1022.0,0.10028890542885538
1021.0,0.10017949757290379
1020.0,0.10007011727213588
1019.0,0.09996076451267522
1018.0,0.09985143928065598
1017.0,0.09968750301627338
1016.0,0.09957824654226233
1015.0,0.09957824654226233
1014.0,0.09957824654226233
1013.0,0.09963287134352972
1012.0,0.09968750301627338
1011.0,0.09974214156222239
1010.0,0.09979678698310646
1009.0,0.09979678698310646
1008.0,0.09985143928065598
1007.0,0.09990609845660159
1006.0,0.09996076451267522
1005.0,0.10001543745060903
1004.0,0.10007011727213588
1003.0,0.10007011727213588
1002.0,0.10012480397898926
1001.0,0.10012480397898926
1000.0,0.10017949757290379
999.0,0.10023419805561384
998.0,0.10034361969436434
997.0,0.10045306890913297
996.0,0.1005078038618683
995.0,0.10067205012234592
994.0,0.10083635852278117
993.0,0.10105553313349058
992.0,0.10127481841050656
991.0,0.10149421446564144
990.0,0.10171372141087698
989.0,0.10182351650232357
988.0,0.10187842445889239
987.0,0.10182351650232357
986.0,0.1017686154869033
985.0,0.10182351650232357
984.0,0.10193333935836524
983.0,0.10198826120249849
982.0,0.10193333935836524
981.0,0.10187842445889239
980.0,0.10182351650232357
979.0,0.10182351650232357
978.0,0.10187842445889239
977.0,0.10193333935836524
976.0,0.10193333935836524
975.0,0.10193333935836524
974.0,0.10193333935836524
973.0,0.10193333935836524
972.0,0.10198826120249849
971.0,0.10204318999304807
970.0,0.10215306842042837
969.0,0.10226297465457268
968.0,0.10231793820358015
967.0,0.10237290870955862
966.0,0.10237290870955862
965.0,0.10226297465457268
964.0,0.1022080180607754
963.0,0.1022080180607754
962.0,0.10226297465457268
961.0,0.10226297465457268
960.0,0.10226297465457268
959.0,0.1022080180607754
958.0,0.10209812573177213
957.0,0.10204318999304807
956.0,0.10193333935836524
955.0,0.10182351650232357
954.0,0.10165883427249067
953.0,0.1014393550602879
952.0,0.1012199867101744
951.0,0.10083635852278117
950.0,0.10039834085387778
949.0,0.09990609845660159
948.0,0.09941441335003853
947.0,0.09892328427374508
946.0,0.09837823590664274
945.0,0.0978882765519955
944.0,0.09745322068600859
943.0,0.09707290398273716
942.0,0.09669292003582619
941.0,0.09625905937846135
940.0,0.0957714836599215
939.0,0.09528445472131919
938.0,0.09485199814398393
937.0,0.09447395156495153
936.0,0.09415017335768128
935.0,0.09388054245443844
934.0,0.09361107884716913
933.0,0.09334178232840018
932.0,0.09307265269104414
931.0,0.09280368972839836
930.0,0.09258863922541383
929.0,0.09242742120144909
928.0,0.09231997575758011
927.0,0.09226626300234453
926.0,0.09226626300234453
925.0,0.09226626300234453
924.0,0.09215885741705532
923.0,0.09205147838772776
922.0,0.0919441259012328
921.0,0.09189045960744768
920.0,0.09183679994445204
919.0,0.0917295005042762
918.0,0.09167586072382083
917.0,0.0917295005042762
916.0,0.09189045960744768
915.0,0.09205147838772776
914.0,0.09226626300234453
913.0,0.09248115389337075
912.0,0.09280368972839836
911.0,0.09307265269104414
910.0,0.09344948089854999
909.0,0.09382663635595145
908.0,0.09409623378338305
907.0,0.09420411963213149
906.0,0.09404230090757282
905.0,0.09382663635595145
904.0,0.0935033402006471
903.0,0.09323411045927221
902.0,0.09301884677114591
901.0,0.09285746899685954
900.0,0.09274991711867164
899.0,0.09258863922541383
898.0,0.09248115389337075
897.0,0.09231997575758011
896.0,0.0922125568893839
895.0,0.09215885741705532
894.0,0.09215885741705532
893.0,0.09215885741705532
892.0,0.09210516458371698
891.0,0.09205147838772776
890.0,0.09205147838772776
889.0,0.09205147838772776
888.0,0.0919977988274463
887.0,0.0919977988274463
886.0,0.09189045960744768
885.0,0.0917295005042762
884.0,0.0916222275676053
883.0,0.09156860103399356
882.0,0.0916222275676053
881.0,0.0917831469106074
880.0,0.09189045960744768
879.0,0.09205147838772776
878.0,0.0922125568893839
877.0,0.09231997575758011
876.0,0.09242742120144909
875.0,0.09242742120144909
874.0,0.09231997575758011
873.0,0.09226626300234453
872.0,0.0922125568893839
871.0,0.09226626300234453
870.0,0.09231997575758011
869.0,0.09237369515673355
868.0,0.09231997575758011
867.0,0.0922125568893839
866.0,0.09215885741705532
865.0,0.09226626300234453
864.0,0.09248115389337075
863.0,0.09274991711867164
862.0,0.09296504751658308
861.0,0.09301884677114591
860.0,0.09296504751658308
859.0,0.09280368972839836
858.0,0.09269615116603047
857.0,0.09258863922541383
856.0,0.09253489323414388
855.0,0.09242742120144909
854.0,0.09237369515673355
853.0,0.09237369515673355
852.0,0.09242742120144909
851.0,0.09242742120144909
850.0,0.09242742120144909
849.0,0.09253489323414388
848.0,0.09264239186882706
847.0,0.09274991711867164
846.0,0.09285746899685954
845.0,0.09285746899685954
844.0,0.09291125492570451
843.0,0.09296504751658308
842.0,0.09312646527792956
841.0,0.09339562827501968
840.0,0.0935572061829677
839.0,0.09366495819490939
838.0,0.09371884422784693
837.0,0.09371884422784693
836.0,0.0937727369476411
835.0,0.09371884422784693
834.0,0.09366495819490939
833.0,0.09366495819490939
832.0,0.0937727369476411
831.0,0.09388054245443844
830.0,0.09404230090757282
829.0,0.09415017335768128
828.0,0.09425807260839858
827.0,0.09441997176475758
826.0,0.09447395156495153
825.0,0.09447395156495153
824.0,0.09441997176475758
823.0,0.09441997176475758
822.0,0.09436599867304518
821.0,0.09441997176475758
820.0,0.09452793807529569
819.0,0.09468993788391455
818.0,0.09496007192378841
817.0,0.09512223303659528
816.0,0.09523037409340485
815.0,0.09528445472131919
814.0,0.09523037409340485
813.0,0.09517630019905599
812.0,0.09517630019905599
811.0,0.09517630019905599
810.0,0.09523037409340485
809.0,0.09533854208447545
808.0,0.09550084460218011
807.0,0.0957714836599215
806.0,0.09604229147682952
805.0,0.09625905937846135
804.0,0.09636748391576244
803.0,0.09636748391576244
802.0,0.09636748391576244
801.0,0.09642170633694569
800.0,0.09658441423091357
799.0,0.09680145295702158
798.0,0.09696430321150284
797.0,0.09701860020249709
796.0,0.09696430321150284
795.0,0.09685572959046151
794.0,0.09680145295702158
793.0,0.09691001300805646
792.0,0.09718153191774648
791.0,0.09739886933346864
790.0,0.09750757884139638
789.0,0.09761631556752848
788.0,0.09767069414168117
787.0,0.09772507952549825
786.0,0.09777947172068524
785.0,0.09799710864927058
784.0,0.09832376867362447
783.0,0.09865067458435761
782.0,0.09892328427374508
781.0,0.0989778267519208
780.0,0.09892328427374508
779.0,0.09875969792669093
778.0,0.09859617317474823
777.0,0.09854167860388774
776.0,0.09859617317474823
775.0,0.09870518283443275
774.0,0.09886874864462802
773.0,0.0989778267519208
772.0,0.0989778267519208
771.0,0.09892328427374508
770.0,0.09892328427374508
769.0,0.09914149529800831
768.0,0.09946901754724413
767.0,0.09974214156222239
766.0,0.09996076451267522
765.0,0.10017949757290379
764.0,0.10039834085387778
763.0,0.10067205012234592
762.0,0.10089114180660053
761.0,0.10111034407341357
760.0,0.10127481841050656
759.0,0.10127481841050656
758.0,0.10127481841050656
757.0,0.10138450258381404
756.0,0.10149421446564144
755.0,0.10160395406999112
754.0,0.10154908080162528
753.0,0.10138450258381404
752.0,0.10116516193172598
751.0,0.10089114180660053
750.0,0.1005625457138224
749.0,0.10028890542885538
748.0,0.10023419805561384
747.0,0.10017949757290379
746.0,0.10001543745060903
745.0,0.09985143928065598
744.0,0.09952362861074304
743.0,0.0990869322623309
742.0,0.09848719087006019
741.0,0.09799710864927058
740.0,0.0975619438013351
739.0,0.09701860020249709
738.0,0.0964759355287379
737.0,0.09620485725896466
736.0,0.09674718310604158
735.0,0.09941441335003853
734.0,0.1060718734573931
733.0,0.11850122038501709
732.0,0.13578566953867033
731.0,0.15285938258659382
730.0,0.16304326294044946
729.0,0.16310648362356628
728.0,0.15577141869837208
727.0,0.14672777597931685
726.0,0.13984173868172167
725.0,0.1363797797296844
724.0,0.1367961409713705
723.0,0.14224547794055775
722.0,0.1550260618531123
721.0,0.17593928258134706
720.0,0.200797343699475
719.0,0.22069217241641415
718.0,0.22833904065111255
717.0,0.22366209037982476
716.0,0.21169018789295002
715.0,0.19736308191718943
714.0,0.18375870000821704
713.0,0.1721785723171978
712.0,0.16323295260579473
711.0,0.1565180569600424
710.0,0.15125681810431635
709.0,0.14691047014813452
708.0,0.14333151638846497
707.0,0.1405014418122239
706.0,0.1381073096085541
705.0,0.13584504399797437
704.0,0.13383085236622927
703.0,0.1322379753497993
702.0,0.13100309751286465
701.0,0.12988884463559924
700.0,0.12883586719705065
699.0,0.12790202572577325
698.0,0.12697018793895576
697.0,0.126156466776564
696.0,0.12546020292898974
695.0,0.12482294018529605
694.0,0.12412880927263426
693.0,0.12337808396572703
692.0,0.12268625668776156
691.0,0.12222565000860186
690.0,0.12193801870998744
689.0,0.12170805075020397
688.0,0.12170805075020397
687.0,0.12182301950849372
686.0,0.12176553132495593
685.0,0.12119106764079435
684.0,0.12027350336042275
683.0,0.11947222180119477
682.0,0.11895789180659433
681.0,0.11855827805860697
680.0,0.11804502866039956
679.0,0.11736163830396129
678.0,0.11667932161702477
677.0,0.11616828667054757
676.0,0.11594135290606156
675.0,0.11605480496572018
674.0,0.11611154211151953
673.0,0.11582793047608719
672.0,0.11531789579397489
671.0,0.11520463605101905
670.0,0.11605480496572018
669.0,0.11815903167507247
668.0,0.11987267778337518
667.0,0.11952940719622163
666.0,0.11815903167507247
665.0,0.11633856484638239
664.0,0.11492161585077598
663.0,0.11435612816423602
662.0,0.11429961987167014
661.0,0.11424311893073247
660.0,0.11407366019856902
659.0,0.11367851344052027
658.0,0.11305829401658474
657.0,0.11227020271196975
656.0,0.1117081546434846
655.0,0.11159583226295333
654.0,0.11176432672943282
653.0,0.11193288659256306
652.0,0.11198908775497118
651.0,0.11215773489264302
650.0,0.11238269966426384
649.0,0.11215773489264302
648.0,0.1114835389250548
647.0,0.11097857790477517
646.0,0.11114683301706374
645.0,0.1117081546434846
644.0,0.11215773489264302
643.0,0.11215773489264302
642.0,0.11198908775497118
641.0,0.1120452961911984
640.0,0.11249522576462212
639.0,0.11345287660889425
638.0,0.1149782051377024
637.0,0.11724784438692004
636.0,0.1201016756699902
635.0,0.12291674334934943
634.0,0.12424442074194553
633.0,0.1233203895807995
632.0,0.12061736282565727
631.0,0.11741854644554883
630.0,0.1148084593931522
629.0,0.11311464101399138
628.0,0.11238269966426384
627.0,0.11249522576462212
626.0,0.1130019543289007
625.0,0.11350927482751816
624.0,0.1137349409702435
623.0,0.11379137583250243
622.0,0.1137349409702435
621.0,0.11367851344052027
620.0,0.11350927482751816
619.0,0.11339648571328764
618.0,0.11339648571328764
617.0,0.1137349409702435
616.0,0.11446916681190777
615.0,0.11554450392951199
614.0,0.11667932161702477
613.0,0.1175323851046286
612.0,0.11793105556385153
611.0,0.11764625361128611
610.0,0.11667932161702477
609.0,0.11548784080960606
608.0,0.11469533241103202
607.0,0.11469533241103202
606.0,0.11526126223036814
605.0,0.1157145376603248
604.0,0.11599807523121286
603.0,0.11633856484638239
602.0,0.1170772093974013
601.0,0.11793105556385153
600.0,0.11867241589944855
