cm-1,A
4000.0,0.004671990922590297
3999.0,0.004671990922590297
3998.0,0.004628093971837721
3997.0,0.00458420145758498
3996.0,0.00458420145758498
3995.0,0.00458420145758498
3994.0,0.00489154225525934
3993.0,0.004935465843858511
3992.0,0.00489154225525934
3991.0,0.004803708402820517
3990.0,0.004715892310740433
3989.0,0.004628093971837721
3988.0,0.00458420145758498
3987.0,0.00458420145758498
3986.0,0.00458420145758498
3985.0,0.004628093971837721
3984.0,0.004715892310740433
3983.0,0.004803708402820517
3982.0,0.00489154225525934
3981.0,0.004935465843858511
3980.0,0.004935465843858511
3979.0,0.00489154225525934
3978.0,0.00484762310854614
3977.0,0.00484762310854614
3976.0,0.00484762310854614
3975.0,0.00484762310854614
3974.0,0.004803708402820517
3973.0,0.004715892310740433
3972.0,0.004671990922590297
3971.0,0.004715892310740433
3970.0,0.004803708402820517
3969.0,0.00489154225525934
3968.0,0.00489154225525934
3967.0,0.004759798137184523
3966.0,0.004715892310740433
3965.0,0.004759798137184523
3964.0,0.00489154225525934
3963.0,0.005067263269958211
3962.0,0.005111204635089406
3961.0,0.005023326350308999
3960.0,0.00489154225525934
3959.0,0.004803708402820517
3958.0,0.004759798137184523
3957.0,0.00484762310854614
3956.0,0.004935465843858511
3955.0,0.005023326350308999
3954.0,0.005023326350308999
3953.0,0.004935465843858511
3952.0,0.00484762310854614
3951.0,0.004759798137184523
3950.0,0.004671990922590297
3949.0,0.004671990922590297
3948.0,0.004715892310740433
3947.0,0.004759798137184523
3946.0,0.004803708402820517
3945.0,0.00489154225525934
3944.0,0.004935465843858511
3943.0,0.004979393875242044
3942.0,0.004979393875242044
3941.0,0.00489154225525934
3940.0,0.004803708402820517
3939.0,0.004759798137184523
3938.0,0.004671990922590297
3937.0,0.004671990922590297
3936.0,0.004671990922590297
3935.0,0.004715892310740433
3934.0,0.004803708402820517
3933.0,0.00484762310854614
3932.0,0.004935465843858511
3931.0,0.005023326350308999
3930.0,0.005111204635089406
3929.0,0.005111204635089406
3928.0,0.005155150446602086
3927.0,0.005199100705396198
3926.0,0.005199100705396198
3925.0,0.005111204635089406
3924.0,0.005023326350308999
3923.0,0.004935465843858511
3922.0,0.004935465843858511
3921.0,0.00489154225525934
3920.0,0.00484762310854614
3919.0,0.004803708402820517
3918.0,0.004803708402820517
3917.0,0.004715892310740433
3916.0,0.004628093971837721
3915.0,0.004628093971837721
3914.0,0.004715892310740433
3913.0,0.004803708402820517
3912.0,0.00489154225525934
3911.0,0.005023326350308999
3910.0,0.005111204635089406
3909.0,0.005199100705396198
3908.0,0.005199100705396198
3907.0,0.005111204635089406
3906.0,0.00489154225525934
3905.0,0.00458420145758498
3904.0,0.0043648054024501
3903.0,0.0043648054024501
3902.0,0.004540313378935901
3901.0,0.004759798137184523
3900.0,0.00489154225525934
3899.0,0.00489154225525934
3898.0,0.00489154225525934
3897.0,0.004979393875242044
3896.0,0.005111204635089406
3895.0,0.005199100705396198
3894.0,0.005243055412371911
3893.0,0.005243055412371911
3892.0,0.005199100705396198
3891.0,0.005067263269958211
3890.0,0.004935465843858511
3889.0,0.004935465843858511
3888.0,0.005067263269958211
3887.0,0.005111204635089406
3886.0,0.004979393875242044
3885.0,0.004803708402820517
3884.0,0.00484762310854614
3883.0,0.005111204635089406
3882.0,0.005330978174470591
3881.0,0.00537494623139545
3880.0,0.005243055412371911
3879.0,0.005023326350308999
3878.0,0.00489154225525934
3877.0,0.004979393875242044
3876.0,0.005155150446602086
3875.0,0.005199100705396198
3874.0,0.005155150446602086
3873.0,0.005111204635089406
3872.0,0.005199100705396198
3871.0,0.005330978174470591
3870.0,0.005243055412371911
3869.0,0.005111204635089406
3868.0,0.005023326350308999
3867.0,0.004935465843858511
3866.0,0.004715892310740433
3865.0,0.004408675747646695
3864.0,0.004320939488377862
3863.0,0.0044964297349936455
3862.0,0.004628093971837721
3861.0,0.00458420145758498
3860.0,0.0044964297349936455
3859.0,0.004408675747646695
3858.0,0.004277078004534696
3857.0,0.004145520125434121
3856.0,0.004101676353562844
3855.0,0.004101676353562844
3854.0,0.004145520125434121
3853.0,0.004320939488377862
3852.0,0.0044964297349936455
3851.0,0.004628093971837721
3850.0,0.004715892310740433
3849.0,0.004759798137184523
3848.0,0.004715892310740433
3847.0,0.004715892310740433
3846.0,0.004715892310740433
3845.0,0.004715892310740433
3844.0,0.004671990922590297
3843.0,0.004671990922590297
3842.0,0.00484762310854614
3841.0,0.005111204635089406
3840.0,0.005330978174470591
3839.0,0.005506877116487674
3838.0,0.005594853310833647
3837.0,0.005594853310833647
3836.0,0.005506877116487674
3835.0,0.005462895701502157
3834.0,0.00537494623139545
3833.0,0.0052870145684298375
3832.0,0.005067263269958211
3831.0,0.004935465843858511
3830.0,0.00484762310854614
3829.0,0.004935465843858511
3828.0,0.005023326350308999
3827.0,0.005023326350308999
3826.0,0.00489154225525934
3825.0,0.00489154225525934
3824.0,0.005111204635089406
3823.0,0.005330978174470591
3822.0,0.0052870145684298375
3821.0,0.004979393875242044
3820.0,0.004715892310740433
3819.0,0.004671990922590297
3818.0,0.004803708402820517
3817.0,0.00489154225525934
3816.0,0.004803708402820517
3815.0,0.004628093971837721
3814.0,0.004540313378935901
3813.0,0.0044964297349936455
3812.0,0.0044964297349936455
3811.0,0.004452550524862486
3810.0,0.0044964297349936455
3809.0,0.004628093971837721
3808.0,0.004759798137184523
3807.0,0.004803708402820517
3806.0,0.00484762310854614
3805.0,0.005155150446602086
3804.0,0.005550862985963967
3803.0,0.005814871797682919
3802.0,0.005682847330363394
3801.0,0.00541891874010525
3800.0,0.005199100705396198
3799.0,0.005111204635089406
3798.0,0.005111204635089406
3797.0,0.004979393875242044
3796.0,0.00484762310854614
3795.0,0.004671990922590297
3794.0,0.00458420145758498
3793.0,0.004540313378935901
3792.0,0.0044964297349936455
3791.0,0.004452550524862486
3790.0,0.0044964297349936455
3789.0,0.004628093971837721
3788.0,0.004759798137184523
3787.0,0.00489154225525934
3786.0,0.004979393875242044
3785.0,0.005023326350308999
3784.0,0.005023326350308999
3783.0,0.005067263269958211
3782.0,0.005067263269958211
3781.0,0.005023326350308999
3780.0,0.00489154225525934
3779.0,0.004759798137184523
3778.0,0.004715892310740433
3777.0,0.004671990922590297
3776.0,0.004628093971837721
3775.0,0.0044964297349936455
3774.0,0.0043648054024501
3773.0,0.004320939488377862
3772.0,0.0043648054024501
3771.0,0.004452550524862486
3770.0,0.004540313378935901
3769.0,0.004628093971837721
3768.0,0.004759798137184523
3767.0,0.004803708402820517
3766.0,0.004715892310740433
3765.0,0.00458420145758498
3764.0,0.004540313378935901
3763.0,0.004671990922590297
3762.0,0.00484762310854614
3761.0,0.00489154225525934
3760.0,0.004935465843858511
3759.0,0.004979393875242044
3758.0,0.004979393875242044
3757.0,0.00484762310854614
3756.0,0.004715892310740433
3755.0,0.004628093971837721
3754.0,0.0044964297349936455
3753.0,0.0040578370074493275
3752.0,0.0034445503666347133
3751.0,0.0031382315093266833
3750.0,0.0031382315093266833
3749.0,0.0030070181092942683
3748.0,0.0029195645282691363
3747.0,0.0030070181092942683
3746.0,0.0032257291386954545
3745.0,0.0033132443998284966
3744.0,0.0033570086445275926
3743.0,0.0034445503666347133
3742.0,0.003707281458678491
3741.0,0.0038387066319929275
3740.0,0.003794893821675638
3739.0,0.0036634819042162814
3738.0,0.003619686766589858
3737.0,0.0035758960449088217
3736.0,0.003488327845821315
3735.0,0.0035321097382827737
3734.0,0.0035758960449088217
3733.0,0.0034445503666347133
3732.0,0.0031819781204844855
3731.0,0.0029195645282691363
3730.0,0.0027884171674950053
3729.0,0.0027884171674950053
3728.0,0.0027884171674950053
3727.0,0.0027447101798967477
3726.0,0.0027884171674950053
3725.0,0.0029632891174733444
3724.0,0.0030944893043338695
3723.0,0.0032257291386954545
3722.0,0.0033570086445275926
3721.0,0.0035321097382827737
3720.0,0.003707281458678491
3719.0,0.003926345514724705
3718.0,0.004145520125434121
3717.0,0.004320939488377862
3716.0,0.004452550524862486
3715.0,0.004540313378935901
3714.0,0.004452550524862486
3713.0,0.00401400208620073
3712.0,0.003488327845821315
3711.0,0.0030944893043338695
3710.0,0.0030070181092942683
3709.0,0.003050751504618754
3708.0,0.0031382315093266833
3707.0,0.0032694845648473247
3706.0,0.0034445503666347133
3705.0,0.003619686766589858
3704.0,0.0038387066319929275
3703.0,0.0040578370074493275
3702.0,0.004145520125434121
3701.0,0.003970171588923321
3700.0,0.003707281458678491
3699.0,0.0034445503666347133
3698.0,0.0032694845648473247
3697.0,0.0031382315093266833
3696.0,0.003050751504618754
3695.0,0.0030070181092942683
3694.0,0.003050751504618754
3693.0,0.0031819781204844855
3692.0,0.0034007772998332353
3691.0,0.0037510854308679953
3690.0,0.004101676353562844
3689.0,0.004189368323957332
3688.0,0.003926345514724705
3687.0,0.0035321097382827737
3686.0,0.0032694845648473247
3685.0,0.0031382315093266833
3684.0,0.0030944893043338695
3683.0,0.0031382315093266833
3682.0,0.0033570086445275926
3681.0,0.003488327845821315
3680.0,0.003488327845821315
3679.0,0.0034007772998332353
3678.0,0.003488327845821315
3677.0,0.003794893821675638
3676.0,0.004189368323957332
3675.0,0.0043648054024501
3674.0,0.004233220950025984
3673.0,0.0040578370074493275
3672.0,0.0038387066319929275
3671.0,0.0035758960449088217
3670.0,0.0034445503666347133
3669.0,0.003488327845821315
3668.0,0.0035321097382827737
3667.0,0.003488327845821315
3666.0,0.0033570086445275926
3665.0,0.0032694845648473247
3664.0,0.0032257291386954545
3663.0,0.0033132443998284966
3662.0,0.0034445503666347133
3661.0,0.0035321097382827737
3660.0,0.0035758960449088217
3659.0,0.003619686766589858
3658.0,0.003707281458678491
3657.0,0.003707281458678491
3656.0,0.0037510854308679953
3655.0,0.0038387066319929275
3654.0,0.00401400208620073
3653.0,0.004320939488377862
3652.0,0.004452550524862486
3651.0,0.0043648054024501
3650.0,0.004320939488377862
3649.0,0.004540313378935901
3648.0,0.004671990922590297
3647.0,0.004540313378935901
3646.0,0.004320939488377862
3645.0,0.004189368323957332
3644.0,0.0040578370074493275
3643.0,0.003970171588923321
3642.0,0.0038825238627120395
3641.0,0.003926345514724705
3640.0,0.00401400208620073
3639.0,0.0040578370074493275
3638.0,0.00401400208620073
3637.0,0.0038825238627120395
3636.0,0.0037510854308679953
3635.0,0.0035758960449088217
3634.0,0.0032694845648473247
3633.0,0.0029632891174733444
3632.0,0.0028321285541661467
3631.0,0.0027447101798967477
3630.0,0.002613615602686581
3629.0,0.002613615602686581
3628.0,0.0028321285541661467
3627.0,0.0031819781204844855
3626.0,0.0035321097382827737
3625.0,0.0038387066319929275
3624.0,0.004145520125434121
3623.0,0.0044964297349936455
3622.0,0.00489154225525934
3621.0,0.0052870145684298375
3620.0,0.005462895701502157
3619.0,0.005330978174470591
3618.0,0.005067263269958211
3617.0,0.00484762310854614
3616.0,0.004759798137184523
3615.0,0.004803708402820517
3614.0,0.004759798137184523
3613.0,0.004628093971837721
3612.0,0.004408675747646695
3611.0,0.004233220950025984
3610.0,0.004101676353562844
3609.0,0.00401400208620073
3608.0,0.004101676353562844
3607.0,0.004277078004534696
3606.0,0.004452550524862486
3605.0,0.004540313378935901
3604.0,0.0044964297349936455
3603.0,0.0043648054024501
3602.0,0.004233220950025984
3601.0,0.004233220950025984
3600.0,0.004408675747646695
3599.0,0.004715892310740433
3598.0,0.00489154225525934
3597.0,0.00484762310854614
3596.0,0.004540313378935901
3595.0,0.004233220950025984
3594.0,0.003970171588923321
3593.0,0.003926345514724705
3592.0,0.003970171588923321
3591.0,0.004145520125434121
3590.0,0.004408675747646695
3589.0,0.004671990922590297
3588.0,0.00484762310854614
3587.0,0.00489154225525934
3586.0,0.004803708402820517
3585.0,0.004671990922590297
3584.0,0.00458420145758498
3583.0,0.00458420145758498
3582.0,0.004628093971837721
3581.0,0.004715892310740433
3580.0,0.00489154225525934
3579.0,0.005023326350308999
3578.0,0.005023326350308999
3577.0,0.00489154225525934
3576.0,0.004759798137184523
3575.0,0.004628093971837721
3574.0,0.004628093971837721
3573.0,0.004628093971837721
3572.0,0.00458420145758498
3571.0,0.00458420145758498
3570.0,0.004628093971837721
3569.0,0.004803708402820517
3568.0,0.005155150446602086
3567.0,0.005550862985963967
3566.0,0.005814871797682919
3565.0,0.005682847330363394
3564.0,0.00537494623139545
3563.0,0.005023326350308999
3562.0,0.004803708402820517
3561.0,0.004715892310740433
3560.0,0.004671990922590297
3559.0,0.004671990922590297
3558.0,0.004628093971837721
3557.0,0.00458420145758498
3556.0,0.004628093971837721
3555.0,0.004803708402820517
3554.0,0.005067263269958211
3553.0,0.00537494623139545
3552.0,0.005550862985963967
3551.0,0.005594853310833647
3550.0,0.005506877116487674
3549.0,0.00537494623139545
3548.0,0.0052870145684298375
3547.0,0.005243055412371911
3546.0,0.005243055412371911
3545.0,0.0052870145684298375
3544.0,0.005243055412371911
3543.0,0.005243055412371911
3542.0,0.005199100705396198
3541.0,0.005111204635089406
3540.0,0.004979393875242044
3539.0,0.00489154225525934
3538.0,0.00484762310854614
3537.0,0.00484762310854614
3536.0,0.00489154225525934
3535.0,0.004935465843858511
3534.0,0.004979393875242044
3533.0,0.005023326350308999
3532.0,0.005111204635089406
3531.0,0.005199100705396198
3530.0,0.005243055412371911
3529.0,0.005243055412371911
3528.0,0.005199100705396198
3527.0,0.005111204635089406
3526.0,0.005023326350308999
3525.0,0.005023326350308999
3524.0,0.005111204635089406
3523.0,0.005199100705396198
3522.0,0.0052870145684298375
3521.0,0.005243055412371911
3520.0,0.005199100705396198
3519.0,0.005155150446602086
3518.0,0.005199100705396198
3517.0,0.0052870145684298375
3516.0,0.00541891874010525
3515.0,0.005506877116487674
3514.0,0.005550862985963967
3513.0,0.005550862985963967
3512.0,0.005506877116487674
3511.0,0.005462895701502157
3510.0,0.00541891874010525
3509.0,0.00537494623139545
3508.0,0.005330978174470591
3507.0,0.0052870145684298375
3506.0,0.0052870145684298375
3505.0,0.005243055412371911
3504.0,0.005243055412371911
3503.0,0.005243055412371911
3502.0,0.0052870145684298375
3501.0,0.005330978174470591
3500.0,0.00537494623139545
3499.0,0.005330978174470591
3498.0,0.0052870145684298375
3497.0,0.005111204635089406
3496.0,0.00489154225525934
3495.0,0.004715892310740433
3494.0,0.004628093971837721
3493.0,0.004715892310740433
3492.0,0.00484762310854614
3491.0,0.004935465843858511
3490.0,0.004935465843858511
3489.0,0.00489154225525934
3488.0,0.004935465843858511
3487.0,0.004979393875242044
3486.0,0.005023326350308999
3485.0,0.004979393875242044
3484.0,0.004935465843858511
3483.0,0.004935465843858511
3482.0,0.005023326350308999
3481.0,0.005155150446602086
3480.0,0.005199100705396198
3479.0,0.005155150446602086
3478.0,0.005067263269958211
3477.0,0.004979393875242044
3476.0,0.004979393875242044
3475.0,0.005067263269958211
3474.0,0.005067263269958211
3473.0,0.005067263269958211
3472.0,0.005023326350308999
3471.0,0.005023326350308999
3470.0,0.005023326350308999
3469.0,0.005023326350308999
3468.0,0.005067263269958211
3467.0,0.005111204635089406
3466.0,0.005111204635089406
3465.0,0.005067263269958211
3464.0,0.005023326350308999
3463.0,0.004979393875242044
3462.0,0.004979393875242044
3461.0,0.004979393875242044
3460.0,0.005067263269958211
3459.0,0.005111204635089406
3458.0,0.005111204635089406
3457.0,0.005067263269958211
3456.0,0.004935465843858511
3455.0,0.004759798137184523
3454.0,0.004628093971837721
3453.0,0.004540313378935901
3452.0,0.0044964297349936455
3451.0,0.004540313378935901
3450.0,0.004628093971837721
3449.0,0.004759798137184523
3448.0,0.004935465843858511
3447.0,0.005067263269958211
3446.0,0.005155150446602086
3445.0,0.005155150446602086
3444.0,0.005067263269958211
3443.0,0.004935465843858511
3442.0,0.004935465843858511
3441.0,0.004979393875242044
3440.0,0.005111204635089406
3439.0,0.005243055412371911
3438.0,0.005243055412371911
3437.0,0.005199100705396198
3436.0,0.005155150446602086
3435.0,0.005067263269958211
3434.0,0.005067263269958211
3433.0,0.005067263269958211
3432.0,0.005067263269958211
3431.0,0.005067263269958211
3430.0,0.005067263269958211
3429.0,0.005067263269958211
3428.0,0.005067263269958211
3427.0,0.005067263269958211
3426.0,0.005067263269958211
3425.0,0.004935465843858511
3424.0,0.004759798137184523
3423.0,0.00458420145758498
3422.0,0.004540313378935901
3421.0,0.004540313378935901
3420.0,0.004628093971837721
3419.0,0.004671990922590297
3418.0,0.004715892310740433
3417.0,0.004759798137184523
3416.0,0.004803708402820517
3415.0,0.00489154225525934
3414.0,0.004979393875242044
3413.0,0.005111204635089406
3412.0,0.005199100705396198
3411.0,0.005243055412371911
3410.0,0.005199100705396198
3409.0,0.005111204635089406
3408.0,0.005023326350308999
3407.0,0.004979393875242044
3406.0,0.004935465843858511
3405.0,0.00489154225525934
3404.0,0.00489154225525934
3403.0,0.00489154225525934
3402.0,0.004935465843858511
3401.0,0.004979393875242044
3400.0,0.005023326350308999
3399.0,0.005111204635089406
3398.0,0.005199100705396198
3397.0,0.005330978174470591
3396.0,0.005462895701502157
3395.0,0.005550862985963967
3394.0,0.005506877116487674
3393.0,0.00537494623139545
3392.0,0.005243055412371911
3391.0,0.005155150446602086
3390.0,0.005111204635089406
3389.0,0.005067263269958211
3388.0,0.005067263269958211
3387.0,0.005067263269958211
3386.0,0.005111204635089406
3385.0,0.005155150446602086
3384.0,0.005155150446602086
3383.0,0.005111204635089406
3382.0,0.005023326350308999
3381.0,0.004935465843858511
3380.0,0.00489154225525934
3379.0,0.00484762310854614
3378.0,0.004803708402820517
3377.0,0.004759798137184523
3376.0,0.004803708402820517
3375.0,0.004935465843858511
3374.0,0.004979393875242044
3373.0,0.004935465843858511
3372.0,0.00484762310854614
3371.0,0.004803708402820517
3370.0,0.00489154225525934
3369.0,0.004935465843858511
3368.0,0.004935465843858511
3367.0,0.00489154225525934
3366.0,0.00484762310854614
3365.0,0.00484762310854614
3364.0,0.00489154225525934
3363.0,0.004935465843858511
3362.0,0.004979393875242044
3361.0,0.004979393875242044
3360.0,0.004935465843858511
3359.0,0.00484762310854614
3358.0,0.004759798137184523
3357.0,0.004628093971837721
3356.0,0.00458420145758498
3355.0,0.004540313378935901
3354.0,0.0044964297349936455
3353.0,0.0044964297349936455
3352.0,0.004540313378935901
3351.0,0.00458420145758498
3350.0,0.00458420145758498
3349.0,0.004540313378935901
3348.0,0.004452550524862486
3347.0,0.0043648054024501
3346.0,0.0043648054024501
3345.0,0.004408675747646695
3344.0,0.0044964297349936455
3343.0,0.00458420145758498
3342.0,0.004671990922590297
3341.0,0.004628093971837721
3340.0,0.004540313378935901
3339.0,0.004452550524862486
3338.0,0.0043648054024501
3337.0,0.004408675747646695
3336.0,0.004540313378935901
3335.0,0.004715892310740433
3334.0,0.00484762310854614
3333.0,0.004935465843858511
3332.0,0.00489154225525934
3331.0,0.004759798137184523
3330.0,0.004628093971837721
3329.0,0.004540313378935901
3328.0,0.0044964297349936455
3327.0,0.0044964297349936455
3326.0,0.0044964297349936455
3325.0,0.004452550524862486
3324.0,0.004408675747646695
3323.0,0.004320939488377862
3322.0,0.004189368323957332
3321.0,0.004101676353562844
3320.0,0.004101676353562844
3319.0,0.004101676353562844
3318.0,0.004145520125434121
3317.0,0.004189368323957332
3316.0,0.004233220950025984
3315.0,0.004277078004534696
3314.0,0.004277078004534696
3313.0,0.004320939488377862
3312.0,0.004320939488377862
3311.0,0.004277078004534696
3310.0,0.004145520125434121
3309.0,0.0040578370074493275
3308.0,0.003970171588923321
3307.0,0.00401400208620073
3306.0,0.0040578370074493275
3305.0,0.004101676353562844
3304.0,0.0040578370074493275
3303.0,0.00401400208620073
3302.0,0.00401400208620073
3301.0,0.0040578370074493275
3300.0,0.004145520125434121
3299.0,0.004233220950025984
3298.0,0.004277078004534696
3297.0,0.004320939488377862
3296.0,0.0043648054024501
3295.0,0.004452550524862486
3294.0,0.0044964297349936455
3293.0,0.004452550524862486
3292.0,0.004320939488377862
3291.0,0.004145520125434121
3290.0,0.003970171588923321
3289.0,0.003926345514724705
3288.0,0.0038825238627120395
3287.0,0.0038825238627120395
3286.0,0.0038825238627120395
3285.0,0.003926345514724705
3284.0,0.003926345514724705
3283.0,0.0038387066319929275
3282.0,0.0037510854308679953
3281.0,0.003707281458678491
3280.0,0.0036634819042162814
3279.0,0.003707281458678491
3278.0,0.003794893821675638
3277.0,0.003926345514724705
3276.0,0.00401400208620073
3275.0,0.0040578370074493275
3274.0,0.0040578370074493275
3273.0,0.0040578370074493275
3272.0,0.0040578370074493275
3271.0,0.0040578370074493275
3270.0,0.0040578370074493275
3269.0,0.00401400208620073
3268.0,0.003970171588923321
3267.0,0.003926345514724705
3266.0,0.0038825238627120395
3265.0,0.003794893821675638
3264.0,0.0037510854308679953
3263.0,0.0037510854308679953
3262.0,0.003707281458678491
3261.0,0.0036634819042162814
3260.0,0.0035758960449088217
3259.0,0.003488327845821315
3258.0,0.003488327845821315
3257.0,0.003619686766589858
3256.0,0.0037510854308679953
3255.0,0.003926345514724705
3254.0,0.003970171588923321
3253.0,0.003970171588923321
3252.0,0.0038825238627120395
3251.0,0.003794893821675638
3250.0,0.0037510854308679953
3249.0,0.003707281458678491
3248.0,0.0036634819042162814
3247.0,0.003707281458678491
3246.0,0.003794893821675638
3245.0,0.0038825238627120395
3244.0,0.003926345514724705
3243.0,0.0038825238627120395
3242.0,0.003794893821675638
3241.0,0.003707281458678491
3240.0,0.0035758960449088217
3239.0,0.0035321097382827737
3238.0,0.0035321097382827737
3237.0,0.003619686766589858
3236.0,0.003794893821675638
3235.0,0.003926345514724705
3234.0,0.003970171588923321
3233.0,0.003926345514724705
3232.0,0.0038387066319929275
3231.0,0.0038387066319929275
3230.0,0.003926345514724705
3229.0,0.00401400208620073
3228.0,0.004145520125434121
3227.0,0.004189368323957332
3226.0,0.004189368323957332
3225.0,0.004101676353562844
3224.0,0.003970171588923321
3223.0,0.0038387066319929275
3222.0,0.003707281458678491
3221.0,0.0036634819042162814
3220.0,0.0036634819042162814
3219.0,0.0036634819042162814
3218.0,0.0036634819042162814
3217.0,0.0035758960449088217
3216.0,0.0035321097382827737
3215.0,0.0034445503666347133
3214.0,0.0034445503666347133
3213.0,0.003488327845821315
3212.0,0.003488327845821315
3211.0,0.0034445503666347133
3210.0,0.0034007772998332353
3209.0,0.0033570086445275926
3208.0,0.0033570086445275926
3207.0,0.0034007772998332353
3206.0,0.0034445503666347133
3205.0,0.003488327845821315
3204.0,0.003488327845821315
3203.0,0.0034445503666347133
3202.0,0.0034445503666347133
3201.0,0.0034007772998332353
3200.0,0.0033132443998284966
3199.0,0.0031819781204844855
3198.0,0.003050751504618754
3197.0,0.0030070181092942683
3196.0,0.0029632891174733444
3195.0,0.0029632891174733444
3194.0,0.0030070181092942683
3193.0,0.0030944893043338695
3192.0,0.0032257291386954545
3191.0,0.0033570086445275926
3190.0,0.0034445503666347133
3189.0,0.0034007772998332353
3188.0,0.0033132443998284966
3187.0,0.0032257291386954545
3186.0,0.0031382315093266833
3185.0,0.0031382315093266833
3184.0,0.0031819781204844855
3183.0,0.0031819781204844855
3182.0,0.0031382315093266833
3181.0,0.0031382315093266833
3180.0,0.0031382315093266833
3179.0,0.0030944893043338695
3178.0,0.0030070181092942683
3177.0,0.0028758443407954637
3176.0,0.0027884171674950053
3175.0,0.0027884171674950053
3174.0,0.0027884171674950053
3173.0,0.0027884171674950053
3172.0,0.0028321285541661467
3171.0,0.0028321285541661467
3170.0,0.0028321285541661467
3169.0,0.0027884171674950053
3168.0,0.0027884171674950053
3167.0,0.0027447101798967477
3166.0,0.0027447101798967477
3165.0,0.0027884171674950053
3164.0,0.0028758443407954637
3163.0,0.0029632891174733444
3162.0,0.0029632891174733444
3161.0,0.0029632891174733444
3160.0,0.0029195645282691363
3159.0,0.0027884171674950053
3158.0,0.0026573093983774942
3157.0,0.002569926202528716
3156.0,0.0025262411970197185
3155.0,0.002569926202528716
3154.0,0.002613615602686581
3153.0,0.0026573093983774942
3152.0,0.002613615602686581
3151.0,0.002569926202528716
3150.0,0.0025262411970197185
3149.0,0.0025262411970197185
3148.0,0.002482560585275184
3147.0,0.0024388843664115978
3146.0,0.002351545103793873
3145.0,0.0023078820582733695
3144.0,0.0022642234021015284
3143.0,0.0022642234021015284
3142.0,0.0022642234021015284
3141.0,0.0022205691343961664
3140.0,0.0021769192542746563
3139.0,0.002089632653256679
3138.0,0.0021332737608552588
3137.0,0.0022205691343961664
3136.0,0.002351545103793873
3135.0,0.002395212539545666
3134.0,0.002351545103793873
3133.0,0.0023078820582733695
3132.0,0.0022642234021015284
3131.0,0.0023078820582733695
3130.0,0.0023078820582733695
3129.0,0.0022642234021015284
3128.0,0.0022205691343961664
3127.0,0.0022205691343961664
3126.0,0.0022205691343961664
3125.0,0.0021769192542746563
3124.0,0.002089632653256679
3123.0,0.0020459959305969555
3122.0,0.0020459959305969555
3121.0,0.0021332737608552588
3120.0,0.0021332737608552588
3119.0,0.0020459959305969555
3118.0,0.0019587356365717845
3117.0,0.001915112063444413
3116.0,0.0019587356365717845
3115.0,0.0020459959305969555
3114.0,0.0021332737608552588
3113.0,0.0021332737608552588
3112.0,0.0021332737608552588
3111.0,0.002089632653256679
3110.0,0.002089632653256679
3109.0,0.0020459959305969555
3108.0,0.0020023635919956817
3107.0,0.0020023635919956817
3106.0,0.0020023635919956817
3105.0,0.0019587356365717845
3104.0,0.001915112063444413
3103.0,0.0018278780605593958
3102.0,0.0017842676290416026
3101.0,0.0017842676290416026
3100.0,0.0018278780605593958
3099.0,0.0018278780605593958
3098.0,0.0018278780605593958
3097.0,0.0018278780605593958
3096.0,0.0018278780605593958
3095.0,0.0018714928717336043
3094.0,0.001915112063444413
3093.0,0.0019587356365717845
3092.0,0.0019587356365717845
3091.0,0.001915112063444413
3090.0,0.0018714928717336043
3089.0,0.0018278780605593958
3088.0,0.0018278780605593958
3087.0,0.0018278780605593958
3086.0,0.0018714928717336043
3085.0,0.0018714928717336043
3084.0,0.0018714928717336043
3083.0,0.0018278780605593958
3082.0,0.0017842676290416026
3081.0,0.0017842676290416026
3080.0,0.0018278780605593958
3079.0,0.0018278780605593958
3078.0,0.0018278780605593958
3077.0,0.0017842676290416026
3076.0,0.0017842676290416026
3075.0,0.0018278780605593958
3074.0,0.0018278780605593958
3073.0,0.0018278780605593958
3072.0,0.0017842676290416026
3071.0,0.0017406615763013722
3070.0,0.0016970599014589638
3069.0,0.0016970599014589638
3068.0,0.001609869681952425
3067.0,0.0015662811355310335
3066.0,0.0015226969634936083
3065.0,0.0015662811355310335
3064.0,0.0016970599014589638
3063.0,0.0018714928717336043
3062.0,0.0018714928717336043
3061.0,0.0017842676290416026
3060.0,0.0016534626036355249
3059.0,0.0015662811355310335
3058.0,0.001609869681952425
3057.0,0.0017406615763013722
3056.0,0.0018714928717336043
3055.0,0.0018714928717336043
3054.0,0.0018278780605593958
3053.0,0.0016534626036355249
3052.0,0.0015226969634936083
3051.0,0.0014355417390583547
3050.0,0.001348404001626502
3049.0,0.001304841688344327
3048.0,0.0012612837441823288
3047.0,0.0012177301682640973
3046.0,0.0011741809597138886
3045.0,0.0012177301682640973
3044.0,0.001304841688344327
3043.0,0.0013919706849057079
3042.0,0.0014791171649619628
3041.0,0.0015662811355310335
3040.0,0.0015662811355310335
3039.0,0.0014791171649619628
3038.0,0.0013919706849057079
3037.0,0.0012612837441823288
3036.0,0.0011306361176557367
3035.0,0.0010000277816797354
3034.0,0.000869458712629001
3033.0,0.0007824344698965646
3032.0,0.0007824344698965646
3031.0,0.0008259444115150671
3030.0,0.000869458712629001
3029.0,0.0008259444115150671
3028.0,0.0007824344698965646
3027.0,0.0006954276616513155
3026.0,0.0006519307932786322
3025.0,0.0005649501236701937
3024.0,0.0004779868710962365
3023.0,0.0003475746339209884
3022.0,0.0001303078917322953
3021.0,-8.685021164911433e-05
3020.0,-0.0002604985473904087
3019.0,-0.0003906892499099257
3018.0,-0.00043407747931878404
3017.0,-0.00043407747931878404
3016.0,-0.0003906892499099257
3015.0,-0.0003906892499099257
3014.0,-0.0004774613744551459
3013.0,-0.0006075870628903246
3012.0,-0.0007810273534953893
3011.0,-0.0009110621312231615
3010.0,-0.001041057986093552
3009.0,-0.0011710149414008164
3008.0,-0.001257631312230778
3007.0,-0.001344230411601366
3006.0,-0.001474096691732818
3005.0,-0.0015606526425728795
3004.0,-0.0016904542321527494
3003.0,-0.001776967077439462
3002.0,-0.0018634626925240205
3001.0,-0.0019499410842680476
3000.0,-0.0021228462251614566
2999.0,-0.0022956825549340643
2998.0,-0.0024252646779014952
2997.0,-0.0025116312849080558
2996.0,-0.0025548081484823015
2995.0,-0.0025548081484823015
2994.0,-0.002597980719908577
2993.0,-0.002684312989729598
2992.0,-0.002900068611387585
2991.0,-0.003115717099805959
2990.0,-0.0033312585613267665
2989.0,-0.0034174452021935586
2988.0,-0.0034605321095062536
2987.0,-0.0033743540197499478
2986.0,-0.0032450548131470747
2985.0,-0.003115717099805959
2984.0,-0.0030725959676747294
2983.0,-0.003029470553618019
2982.0,-0.0029863408567849525
2981.0,-0.002900068611387585
2980.0,-0.0027706281011936618
2979.0,-0.002597980719908577
2978.0,-0.0025116312849080558
2977.0,-0.0024252646779014952
2976.0,-0.002338880892056583
2975.0,-0.0022092729880145434
2974.0,-0.0020796263931210923
2973.0,-0.0019067040408846658
2972.0,-0.001733712809000476
2971.0,-0.0016039241497978196
2970.0,-0.0014308122463981832
2969.0,-0.001257631312230778
2968.0,-0.0009977303577937136
2967.0,-0.0007376737740329986
2966.0,-0.0004774613744551459
2965.0,-0.00017368305846510168
2964.0,4.343161980746579e-05
2963.0,0.0003475746339209884
2962.0,0.0006519307932786322
2961.0,0.0010435595295137379
2960.0,0.0014355417390583547
2959.0,0.0018278780605593958
2958.0,0.0021769192542746563
2957.0,0.0025262411970197185
2956.0,0.0028758443407954637
2955.0,0.0032694845648473247
2954.0,0.003619686766589858
2953.0,0.00401400208620073
2952.0,0.004408675747646695
2951.0,0.00489154225525934
2950.0,0.00541891874010525
2949.0,0.006079041198713275
2948.0,0.006828394969235152
2947.0,0.00762324020119709
2946.0,0.008552401996197112
2945.0,0.009572341514736404
2944.0,0.01086177578421088
2943.0,0.012378417874516323
2942.0,0.014124642691606404
2941.0,0.01596801972881945
2940.0,0.017864505196230507
2939.0,0.019860222254245663
2938.0,0.02200219004126036
2937.0,0.024430342106337877
2936.0,0.02710321556345563
2935.0,0.030071810571884017
2934.0,0.033295223342125535
2933.0,0.036731748473764814
2932.0,0.04038628892895613
2931.0,0.04426415772233416
2930.0,0.04841965509660828
2929.0,0.05300765925162776
2928.0,0.05809122563440061
2927.0,0.06383825908884244
2926.0,0.07017251876930874
2925.0,0.0772226580712021
2924.0,0.08491689834879956
2923.0,0.09334178232840018
2922.0,0.10242788617426934
2921.0,0.11198908775497118
2920.0,0.12193801870998744
2919.0,0.13159069668503998
2918.0,0.14038142122781938
2917.0,0.1472760892087941
2916.0,0.1515029819096334
2915.0,0.15255073750082726
2914.0,0.15051916275601385
2913.0,0.14605855411951008
2912.0,0.14002155835797914
2911.0,0.13335827943396006
2910.0,0.12656313677796316
2909.0,0.12004441487725082
2908.0,0.11401718864502697
2907.0,0.10857405715200596
2906.0,0.1038045895457893
2905.0,0.09957824654226233
2904.0,0.09587978652380036
2903.0,0.09258863922541383
2902.0,0.08974922769985194
2901.0,0.0872997918091396
2900.0,0.08507535179485148
2899.0,0.0830725338870073
2898.0,0.08118360963962057
2897.0,0.07930286553008004
2896.0,0.07748213975538865
2895.0,0.0756173227980268
2894.0,0.07365755337434488
2893.0,0.07170658776779781
2892.0,0.06976434723371505
2891.0,0.06772922410050963
2890.0,0.06565307326174441
2889.0,0.06353652599525317
2888.0,0.061380218497318895
2887.0,0.05928434309333741
2886.0,0.05724807957018618
2885.0,0.055172003656783764
2884.0,0.05305672930217464
2883.0,0.05100054597304693
2882.0,0.048905443158337114
2881.0,0.04682039893436585
2880.0,0.04464904263234004
2879.0,0.04248848854552012
2878.0,0.04038628892895613
2877.0,0.03838909190871931
2876.0,0.03649550058570927
2875.0,0.03470420418834386
2874.0,0.03310770413286357
2873.0,0.031657169041054534
2872.0,0.03030458888152676
2871.0,0.029188389127482228
2870.0,0.028306761050139073
2869.0,0.0277045713888604
2868.0,0.02738066094037661
2867.0,0.027334407733889066
2866.0,0.027612000892527133
2865.0,0.028167720075074953
2864.0,0.029095501846216454
2863.0,0.030444315779156517
2862.0,0.032218091924200776
2861.0,0.03470420418834386
2860.0,0.03800971255993524
2859.0,0.042344833056508824
2858.0,0.04778894189133087
2857.0,0.05438372077326825
2856.0,0.062281556382736136
2855.0,0.0718090519612431
2854.0,0.0832303157168639
2853.0,0.09658441423091357
2852.0,0.11131515334030118
2851.0,0.12604034525664676
2850.0,0.13870460647330418
2849.0,0.14709324120304634
2848.0,0.1495988520028415
2847.0,0.14630178822382556
2846.0,0.1385253311428314
2845.0,0.12819363554127072
2844.0,0.1170772093974013
2843.0,0.1063491830140364
2842.0,0.09653017149282994
2841.0,0.08788427092114603
2840.0,0.0805035121369384
2839.0,0.07422394616325367
2838.0,0.06884736147670667
2837.0,0.06434161389936577
2836.0,0.060430831344098435
2835.0,0.057000406633959555
2834.0,0.05399011523423525
2833.0,0.05129369109514803
2832.0,0.048954051864180226
2831.0,0.0469171560879138
2830.0,0.04513062893352182
2829.0,0.0435434165901003
2828.0,0.042057664554595586
2827.0,0.04062466342415694
2826.0,0.03938654235209116
2825.0,0.03829421599749461
2824.0,0.037299268295658994
2823.0,0.03635381351515665
2822.0,0.03545753392086315
2821.0,0.034516075754861264
2820.0,0.03367050483612166
2819.0,0.032920265855503006
2818.0,0.03226486821611996
2817.0,0.03161045815293173
2816.0,0.031003673351687855
2815.0,0.030351159519274695
2814.0,0.029792641193145286
2813.0,0.029234840219232394
2812.0,0.028677754757187035
2811.0,0.028167720075074953
2810.0,0.027658283674251827
2809.0,0.02724191609646076
2808.0,0.02691835039863255
2807.0,0.02664120011360227
2806.0,0.026318081496016443
2805.0,0.025902996205869
2804.0,0.02553436426275746
2803.0,0.02516604495145991
2802.0,0.02475205875931885
2801.0,0.02438440203310499
2800.0,0.024017056287453542
2799.0,0.023741750742954926
2798.0,0.02355831062115543
2797.0,0.023329119375188556
2796.0,0.02300845469384938
2795.0,0.022688026603074007
2794.0,0.022322112326006227
2793.0,0.02200219004126036
2792.0,0.021773818325474092
2791.0,0.02159120737696063
2790.0,0.021317434843055594
2789.0,0.0209982515252789
2788.0,0.02067930261797568
2787.0,0.020315076172974234
2786.0,0.019996628416253603
2785.0,0.019723858922159776
2784.0,0.01949668180660491
2783.0,0.019360432556262852
2782.0,0.019269623464054586
2781.0,0.019133445417920836
2780.0,0.018951941086827073
2779.0,0.018679826740892747
2778.0,0.01845319495476394
2777.0,0.018271974638383703
2776.0,0.018136109008649592
2775.0,0.01800028587012159
2774.0,0.017909760704207134
2773.0,0.017774008325325275
2772.0,0.017547848615010242
2771.0,0.01727661233145472
2770.0,0.017005545341335804
2769.0,0.01677978535189717
2768.0,0.016644385668211692
2767.0,0.016554142658660398
2766.0,0.016418813294209356
2765.0,0.01628352608625061
2764.0,0.016148281008528276
2763.0,0.016058141016111804
2762.0,0.016013078034810446
2761.0,0.01596801972881945
2760.0,0.015877917138889863
2759.0,0.015742798294583915
2758.0,0.015562705203923999
2757.0,0.01547268665620738
2756.0,0.01547268665620738
2755.0,0.01547268665620738
2754.0,0.01547268665620738
2753.0,0.01547268665620738
2752.0,0.01538268676325183
2751.0,0.015292705517326866
2750.0,0.015247721884586563
2749.0,0.015202742910707112
2748.0,0.015157768594724175
2747.0,0.015112798935672522
2746.0,0.014977917890464765
2745.0,0.014843078722943437
2744.0,0.014753209197138295
2743.0,0.014708281407112
2742.0,0.014663358264387139
2741.0,0.014663358264387139
2740.0,0.014573525916998342
2739.0,0.01452861671041239
2738.0,0.014438812226654996
2737.0,0.014304140310157809
2736.0,0.014169510141607944
2735.0,0.01403492169512921
2734.0,0.013990068146738865
2733.0,0.013945219230304673
2732.0,0.013900374944870508
2731.0,0.013900374944870508
2730.0,0.01381070026317599
2729.0,0.013765869865004277
2728.0,0.013676222949234651
2727.0,0.013631406429727155
2726.0,0.013586594534531482
2725.0,0.013541787262693505
2724.0,0.013452186585275916
2723.0,0.013452186585275916
2722.0,0.013452186585275916
2721.0,0.013452186585275916
2720.0,0.013362604389846044
2719.0,0.01318349541446362
2718.0,0.012959713020733288
2717.0,0.012825498912458322
2716.0,0.012825498912458322
2715.0,0.012914970375878188
2714.0,0.013004460275618523
2713.0,0.013049212141483357
2712.0,0.013049212141483357
2711.0,0.013004460275618523
2710.0,0.012959713020733288
2709.0,0.012870232340102872
2708.0,0.012825498912458322
2707.0,0.012736045877764557
2706.0,0.01260190086298274
2705.0,0.012467797270160563
2704.0,0.012333735073725371
2703.0,0.012244383261476699
2702.0,0.012199714248127602
2701.0,0.012199714248127602
2700.0,0.01215504982870197
2699.0,0.012110390002254778
2698.0,0.012065734767841452
2697.0,0.012021084124518078
2696.0,0.0119764380713403
2695.0,0.0119764380713403
2694.0,0.0119764380713403
2693.0,0.012021084124518078
2692.0,0.012021084124518078
2691.0,0.0119764380713403
2690.0,0.011887159731648111
2689.0,0.011797899741219142
2688.0,0.011708658092512314
2687.0,0.011619434777991433
2686.0,0.011574829993696856
2685.0,0.011619434777991433
2684.0,0.011619434777991433
2683.0,0.011664044143949504
2682.0,0.011708658092512314
2681.0,0.011753276624621556
2680.0,0.011753276624621556
2679.0,0.011753276624621556
2678.0,0.011797899741219142
2677.0,0.011797899741219142
2676.0,0.011842527443247208
2675.0,0.011931796607364653
2674.0,0.011931796607364653
2673.0,0.011931796607364653
2672.0,0.011931796607364653
2671.0,0.011887159731648111
2670.0,0.011887159731648111
2669.0,0.011887159731648111
2668.0,0.011887159731648111
2667.0,0.011842527443247208
2666.0,0.011797899741219142
2665.0,0.011842527443247208
2664.0,0.011887159731648111
2663.0,0.011931796607364653
2662.0,0.0119764380713403
2661.0,0.0119764380713403
2660.0,0.0119764380713403
2659.0,0.011931796607364653
2658.0,0.011842527443247208
2657.0,0.011753276624621556
2656.0,0.011664044143949504
2655.0,0.011619434777991433
2654.0,0.011619434777991433
2653.0,0.011619434777991433
2652.0,0.011574829993696856
2651.0,0.011619434777991433
2650.0,0.011619434777991433
2649.0,0.011619434777991433
2648.0,0.011619434777991433
2647.0,0.011574829993696856
2646.0,0.011530229790124524
2645.0,0.011485634166333858
2644.0,0.011485634166333858
2643.0,0.011485634166333858
2642.0,0.011485634166333858
2641.0,0.011485634166333858
2640.0,0.011485634166333858
2639.0,0.011485634166333858
2638.0,0.011396456654336085
2637.0,0.011396456654336085
2636.0,0.011396456654336085
2635.0,0.011396456654336085
2634.0,0.011351874764248926
2633.0,0.011262724711199823
2632.0,0.01117359295472431
2631.0,0.011129033935354915
2630.0,0.011129033935354915
2629.0,0.01117359295472431
2628.0,0.01117359295472431
2627.0,0.011084479487313281
2626.0,0.011039929609661936
2625.0,0.010950843561779777
2624.0,0.010906307389674463
2623.0,0.010817248744452446
2622.0,0.01077272626946324
2621.0,0.01077272626946324
2620.0,0.01077272626946324
2619.0,0.01077272626946324
2618.0,0.01077272626946324
2617.0,0.010728208358306901
2616.0,0.010594681998483901
2615.0,0.01046119667949763
2614.0,0.01037222925484893
2613.0,0.01023881228122181
2612.0,0.010149890396819572
2611.0,0.01001654169860089
2610.0,0.009972101229705377
2609.0,0.01001654169860089
2608.0,0.010060986715464404
2607.0,0.010105436281226954
2606.0,0.010060986715464404
2605.0,0.01001654169860089
2604.0,0.009972101229705377
2603.0,0.01001654169860089
2602.0,0.01001654169860089
2601.0,0.01001654169860089
2600.0,0.009972101229705377
2599.0,0.009927665307847056
2598.0,0.009838807101520963
2597.0,0.009794384815193347
2596.0,0.00974996707218323
2595.0,0.009705553871561357
2594.0,0.009705553871561357
2593.0,0.009705553871561357
2592.0,0.00974996707218323
2591.0,0.00974996707218323
2590.0,0.009705553871561357
2589.0,0.009616741093766423
2588.0,0.009483555971770974
2587.0,0.00939478857608056
2586.0,0.009350411681145587
2585.0,0.009350411681145587
2584.0,0.009306039320248427
2583.0,0.009217308196862062
2582.0,0.009128595198514056
2581.0,0.00908424549391551
2580.0,0.00908424549391551
2579.0,0.00908424549391551
2578.0,0.009039900317800775
2577.0,0.008995559669244813
2576.0,0.008951223547323472
2575.0,0.008951223547323472
2574.0,0.008995559669244813
2573.0,0.008995559669244813
2572.0,0.009039900317800775
2571.0,0.009039900317800775
2570.0,0.008995559669244813
2569.0,0.008995559669244813
2568.0,0.008951223547323472
2567.0,0.008951223547323472
2566.0,0.008951223547323472
2565.0,0.008951223547323472
2564.0,0.008951223547323472
2563.0,0.008862564879688284
2562.0,0.008773924307505121
2561.0,0.008685301823389224
2560.0,0.008596697419959609
2559.0,0.008552401996197112
2558.0,0.008552401996197112
2557.0,0.008596697419959609
2556.0,0.008685301823389224
2555.0,0.008773924307505121
2554.0,0.008773924307505121
2553.0,0.008818242332126802
2552.0,0.008818242332126802
2551.0,0.008862564879688284
2550.0,0.008862564879688284
2549.0,0.008818242332126802
2548.0,0.0087296108049002
2547.0,0.008640997362049818
2546.0,0.008552401996197112
2545.0,0.00850811108984062
2544.0,0.008463824699968647
2543.0,0.008375265465994541
2542.0,0.008330992620051436
2541.0,0.008242460465651913
2540.0,0.008153946355103248
2539.0,0.008109696063975047
2538.0,0.008198201155356077
2537.0,0.008330992620051436
2536.0,0.008375265465994541
2535.0,0.008330992620051436
2534.0,0.008242460465651913
2533.0,0.008153946355103248
2532.0,0.008153946355103248
2531.0,0.008198201155356077
2530.0,0.008242460465651913
2529.0,0.008286724286910463
2528.0,0.008286724286910463
2527.0,0.008286724286910463
2526.0,0.008242460465651913
2525.0,0.008242460465651913
2524.0,0.008242460465651913
2523.0,0.008198201155356077
2522.0,0.008198201155356077
2521.0,0.008198201155356077
2520.0,0.008198201155356077
2519.0,0.008153946355103248
2518.0,0.008109696063975047
2517.0,0.008065450281052211
2516.0,0.008021209005416363
2515.0,0.007976972236149349
2514.0,0.007932739972333236
2513.0,0.007932739972333236
2512.0,0.007932739972333236
2511.0,0.007888512213050314
2510.0,0.007888512213050314
2509.0,0.007844288957383316
2508.0,0.007844288957383316
2507.0,0.007844288957383316
2506.0,0.007844288957383316
2505.0,0.007844288957383316
2504.0,0.007800070204414977
2503.0,0.007755855953228474
2502.0,0.007755855953228474
2501.0,0.007800070204414977
2500.0,0.007844288957383316
2499.0,0.007932739972333236
2498.0,0.007976972236149349
2497.0,0.007976972236149349
2496.0,0.007932739972333236
2495.0,0.007844288957383316
2494.0,0.007800070204414977
2493.0,0.007755855953228474
2492.0,0.007711646202907652
2491.0,0.00762324020119709
2490.0,0.00762324020119709
2489.0,0.007667440952535687
2488.0,0.007755855953228474
2487.0,0.007844288957383316
2486.0,0.007844288957383316
2485.0,0.007844288957383316
2484.0,0.007755855953228474
2483.0,0.007667440952535687
2482.0,0.0075790439479759275
2481.0,0.0075790439479759275
2480.0,0.007534852191956709
2479.0,0.007534852191956709
2478.0,0.007534852191956709
2477.0,0.0075790439479759275
2476.0,0.00762324020119709
2475.0,0.007711646202907652
2474.0,0.007800070204414977
2473.0,0.007844288957383316
2472.0,0.007844288957383316
2471.0,0.007755855953228474
2470.0,0.007667440952535687
2469.0,0.007534852191956709
2468.0,0.0074464821678643656
2467.0,0.007402303897961815
2466.0,0.007402303897961815
2465.0,0.0074464821678643656
2464.0,0.0074464821678643656
2463.0,0.0074464821678643656
2462.0,0.007490664932224611
2461.0,0.007534852191956709
2460.0,0.007534852191956709
2459.0,0.007534852191956709
2458.0,0.0074464821678643656
2457.0,0.007358130121602358
2456.0,0.007358130121602358
2455.0,0.007313960837872058
2454.0,0.007269796045857202
2453.0,0.007225635744644521
2452.0,0.007225635744644521
2451.0,0.007313960837872058
2450.0,0.007402303897961815
2449.0,0.007402303897961815
2448.0,0.007358130121602358
2447.0,0.007313960837872058
2446.0,0.007269796045857202
2445.0,0.007269796045857202
2444.0,0.007225635744644521
2443.0,0.007181479933320523
2442.0,0.007137328610972382
2441.0,0.007181479933320523
2440.0,0.007225635744644521
2439.0,0.007225635744644521
2438.0,0.007181479933320523
2437.0,0.007181479933320523
2436.0,0.007181479933320523
2435.0,0.007181479933320523
2434.0,0.007093181776687496
2433.0,0.007049039429553483
2432.0,0.007049039429553483
2431.0,0.007137328610972382
2430.0,0.007225635744644521
2429.0,0.007269796045857202
2428.0,0.007225635744644521
2427.0,0.007137328610972382
2426.0,0.007093181776687496
2425.0,0.007093181776687496
2424.0,0.007093181776687496
2423.0,0.007137328610972382
2422.0,0.007181479933320523
2421.0,0.007181479933320523
2420.0,0.007225635744644521
2419.0,0.007269796045857202
2418.0,0.007225635744644521
2417.0,0.007137328610972382
2416.0,0.007004901568658406
2415.0,0.006916639301937977
2414.0,0.006916639301937977
2413.0,0.007004901568658406
2412.0,0.007049039429553483
2411.0,0.007093181776687496
2410.0,0.007137328610972382
2409.0,0.007181479933320523
2408.0,0.007137328610972382
2407.0,0.007049039429553483
2406.0,0.00696076819309055
2405.0,0.006872514894289861
2404.0,0.006872514894289861
2403.0,0.006916639301937977
2402.0,0.007004901568658406
2401.0,0.007004901568658406
2400.0,0.00696076819309055
2399.0,0.006872514894289861
2398.0,0.006784279525863024
2397.0,0.006740168563263094
2396.0,0.006784279525863024
2395.0,0.006784279525863024
2394.0,0.006828394969235152
2393.0,0.006828394969235152
2392.0,0.006784279525863024
2391.0,0.006696062080525422
2390.0,0.006519680930003435
2389.0,0.00612308505878878
2388.0,0.005638848091999105
2387.0,0.005067263269958211
2386.0,0.0044964297349936455
2385.0,0.00401400208620073
2384.0,0.0037510854308679953
2383.0,0.0038825238627120395
2382.0,0.004540313378935901
2381.0,0.005726851026829571
2380.0,0.007181479933320523
2379.0,0.008640997362049818
2378.0,0.00974996707218323
2377.0,0.010327752376126709
2376.0,0.010283280051895272
2375.0,0.009883233932095559
2374.0,0.00939478857608056
2373.0,0.009039900317800775
2372.0,0.008773924307505121
2371.0,0.00850811108984062
2370.0,0.008109696063975047
2369.0,0.007932739972333236
2368.0,0.008286724286910463
2367.0,0.009439170005980158
2366.0,0.010995384301463185
2365.0,0.012467797270160563
2364.0,0.013093968619278806
2363.0,0.012333735073725371
2362.0,0.011039929609661936
2361.0,0.010416710688994968
2360.0,0.01037222925484893
2359.0,0.01046119667949763
2358.0,0.01046119667949763
2357.0,0.010950843561779777
2356.0,0.011753276624621556
2355.0,0.012199714248127602
2354.0,0.012467797270160563
2353.0,0.013362604389846044
2352.0,0.015427684378367834
2351.0,0.01781925440359733
2350.0,0.0190880622231564
2349.0,0.018725167293411005
2348.0,0.016960383953898095
2347.0,0.014753209197138295
2346.0,0.01215504982870197
2345.0,0.009616741093766423
2344.0,0.00762324020119709
2343.0,0.006299305179649828
2342.0,0.006740168563263094
2341.0,0.008818242332126802
2340.0,0.011218156546359825
2339.0,0.012423105273012602
2338.0,0.01264661126420652
2337.0,0.012512493866907004
2336.0,0.012423105273012602
2335.0,0.01215504982870197
2334.0,0.0119764380713403
2333.0,0.011842527443247208
2332.0,0.011485634166333858
2331.0,0.010327752376126709
2330.0,0.008419542825660153
2329.0,0.006475596832934416
2328.0,0.004803708402820517
2327.0,0.0038825238627120395
2326.0,0.003707281458678491
2325.0,0.004408675747646695
2324.0,0.005594853310833647
2323.0,0.006607862550997545
2322.0,0.007049039429553483
2321.0,0.006651960076740071
2320.0,0.00577085918230158
2319.0,0.004540313378935901
2318.0,0.0036634819042162814
2317.0,0.0032257291386954545
2316.0,0.0031819781204844855
2315.0,0.0032257291386954545
2314.0,0.003050751504618754
2313.0,0.0024388843664115978
2312.0,0.0016534626036355249
2311.0,0.0009565003968372565
2310.0,0.0006084382809090627
2309.0,0.0006519307932786322
2308.0,0.0009129773741116676
2307.0,0.001348404001626502
2306.0,0.0016970599014589638
2305.0,0.0017842676290416026
2304.0,0.001609869681952425
2303.0,0.0012612837441823288
2302.0,0.0010000277816797354
2301.0,0.0009129773741116676
2300.0,0.0009565003968372565
2299.0,0.0010870956412141197
2298.0,0.0012177301682640973
2297.0,0.0014355417390583547
2296.0,0.0016534626036355249
2295.0,0.0019587356365717845
2294.0,0.002351545103793873
2293.0,0.0027884171674950053
2292.0,0.0032257291386954545
2291.0,0.003619686766589858
2290.0,0.003970171588923321
2289.0,0.004233220950025984
2288.0,0.004540313378935901
2287.0,0.00484762310854614
2286.0,0.005199100705396198
2285.0,0.005462895701502157
2284.0,0.005594853310833647
2283.0,0.005594853310833647
2282.0,0.005594853310833647
2281.0,0.005594853310833647
2280.0,0.005682847330363394
2279.0,0.00577085918230158
2278.0,0.005858888873877532
2277.0,0.00590291041179003
2276.0,0.00590291041179003
2275.0,0.005858888873877532
2274.0,0.005814871797682919
2273.0,0.00577085918230158
2272.0,0.00577085918230158
2271.0,0.005814871797682919
2270.0,0.005814871797682919
2269.0,0.005814871797682919
2268.0,0.00577085918230158
2267.0,0.005638848091999105
2266.0,0.005550862985963967
2265.0,0.005462895701502157
2264.0,0.00541891874010525
2263.0,0.00537494623139545
2262.0,0.00537494623139545
2261.0,0.00537494623139545
2260.0,0.005462895701502157
2259.0,0.005550862985963967
2258.0,0.005550862985963967
2257.0,0.005594853310833647
2256.0,0.005638848091999105
2255.0,0.005638848091999105
2254.0,0.005638848091999105
2253.0,0.005594853310833647
2252.0,0.005550862985963967
2251.0,0.005550862985963967
2250.0,0.005594853310833647
2249.0,0.005682847330363394
2248.0,0.00577085918230158
2247.0,0.005858888873877532
2246.0,0.00590291041179003
2245.0,0.00590291041179003
2244.0,0.005858888873877532
2243.0,0.005858888873877532
2242.0,0.005858888873877532
2241.0,0.005858888873877532
2240.0,0.00590291041179003
2239.0,0.00590291041179003
2238.0,0.00590291041179003
2237.0,0.005858888873877532
2236.0,0.005858888873877532
2235.0,0.005858888873877532
2234.0,0.00590291041179003
2233.0,0.005946936412324799
2232.0,0.005990966876386672
2231.0,0.006035001804881146
2230.0,0.006035001804881146
2229.0,0.006079041198713275
2228.0,0.006035001804881146
2227.0,0.006035001804881146
2226.0,0.005990966876386672
2225.0,0.006035001804881146
2224.0,0.006079041198713275
2223.0,0.00612308505878878
2222.0,0.00612308505878878
2221.0,0.00612308505878878
2220.0,0.00612308505878878
2219.0,0.006079041198713275
2218.0,0.006079041198713275
2217.0,0.006035001804881146
2216.0,0.006035001804881146
2215.0,0.005990966876386672
2214.0,0.00590291041179003
2213.0,0.005858888873877532
2212.0,0.005858888873877532
2211.0,0.00590291041179003
2210.0,0.005990966876386672
2209.0,0.006035001804881146
2208.0,0.006079041198713275
2207.0,0.006079041198713275
2206.0,0.005990966876386672
2205.0,0.00590291041179003
2204.0,0.005858888873877532
2203.0,0.005814871797682919
2202.0,0.005814871797682919
2201.0,0.005858888873877532
2200.0,0.00590291041179003
2199.0,0.005858888873877532
2198.0,0.00577085918230158
2197.0,0.00577085918230158
2196.0,0.005814871797682919
2195.0,0.00590291041179003
2194.0,0.005990966876386672
2193.0,0.006035001804881146
2192.0,0.006035001804881146
2191.0,0.005946936412324799
2190.0,0.00590291041179003
2189.0,0.005814871797682919
2188.0,0.005814871797682919
2187.0,0.005858888873877532
2186.0,0.005858888873877532
2185.0,0.005858888873877532
2184.0,0.00577085918230158
2183.0,0.005682847330363394
2182.0,0.005638848091999105
2181.0,0.005682847330363394
2180.0,0.005726851026829571
2179.0,0.00577085918230158
2178.0,0.005814871797682919
2177.0,0.005858888873877532
2176.0,0.00590291041179003
2175.0,0.00590291041179003
2174.0,0.005990966876386672
2173.0,0.006035001804881146
2172.0,0.005946936412324799
2171.0,0.005858888873877532
2170.0,0.00577085918230158
2169.0,0.00577085918230158
2168.0,0.005858888873877532
2167.0,0.005858888873877532
2166.0,0.005858888873877532
2165.0,0.005858888873877532
2164.0,0.005858888873877532
2163.0,0.00590291041179003
2162.0,0.005946936412324799
2161.0,0.005990966876386672
2160.0,0.006035001804881146
2159.0,0.006079041198713275
2158.0,0.006079041198713275
2157.0,0.006035001804881146
2156.0,0.005946936412324799
2155.0,0.005858888873877532
2154.0,0.005814871797682919
2153.0,0.005814871797682919
2152.0,0.005814871797682919
2151.0,0.005858888873877532
2150.0,0.00590291041179003
2149.0,0.005946936412324799
2148.0,0.00590291041179003
2147.0,0.005814871797682919
2146.0,0.005726851026829571
2145.0,0.005682847330363394
2144.0,0.005638848091999105
2143.0,0.005682847330363394
2142.0,0.005682847330363394
2141.0,0.005726851026829571
2140.0,0.005726851026829571
2139.0,0.005682847330363394
2138.0,0.005682847330363394
2137.0,0.005638848091999105
2136.0,0.005638848091999105
2135.0,0.005682847330363394
2134.0,0.00577085918230158
2133.0,0.005814871797682919
2132.0,0.00577085918230158
2131.0,0.005726851026829571
2130.0,0.005638848091999105
2129.0,0.005638848091999105
2128.0,0.005638848091999105
2127.0,0.005638848091999105
2126.0,0.005682847330363394
2125.0,0.005682847330363394
2124.0,0.005682847330363394
2123.0,0.005638848091999105
2122.0,0.005550862985963967
2121.0,0.005506877116487674
2120.0,0.005550862985963967
2119.0,0.005594853310833647
2118.0,0.005682847330363394
2117.0,0.005726851026829571
2116.0,0.005638848091999105
2115.0,0.005594853310833647
2114.0,0.005550862985963967
2113.0,0.005594853310833647
2112.0,0.005638848091999105
2111.0,0.005682847330363394
2110.0,0.005638848091999105
2109.0,0.005594853310833647
2108.0,0.005550862985963967
2107.0,0.005594853310833647
2106.0,0.005638848091999105
2105.0,0.005682847330363394
2104.0,0.005682847330363394
2103.0,0.005638848091999105
2102.0,0.005550862985963967
2101.0,0.005506877116487674
2100.0,0.005506877116487674
2099.0,0.005594853310833647
2098.0,0.005638848091999105
2097.0,0.005682847330363394
2096.0,0.005682847330363394
2095.0,0.005594853310833647
2094.0,0.005550862985963967
2093.0,0.005506877116487674
2092.0,0.005506877116487674
2091.0,0.005506877116487674
2090.0,0.005550862985963967
2089.0,0.005594853310833647
2088.0,0.005594853310833647
2087.0,0.005594853310833647
2086.0,0.005594853310833647
2085.0,0.005594853310833647
2084.0,0.005506877116487674
2083.0,0.005462895701502157
2082.0,0.005462895701502157
2081.0,0.00541891874010525
2080.0,0.00541891874010525
2079.0,0.00541891874010525
2078.0,0.00537494623139545
2077.0,0.00541891874010525
2076.0,0.005506877116487674
2075.0,0.005550862985963967
2074.0,0.005550862985963967
2073.0,0.005506877116487674
2072.0,0.00537494623139545
2071.0,0.005243055412371911
2070.0,0.005199100705396198
2069.0,0.005199100705396198
2068.0,0.0052870145684298375
2067.0,0.005330978174470591
2066.0,0.00537494623139545
2065.0,0.005462895701502157
2064.0,0.005506877116487674
2063.0,0.005550862985963967
2062.0,0.005506877116487674
2061.0,0.005506877116487674
2060.0,0.005506877116487674
2059.0,0.005462895701502157
2058.0,0.005462895701502157
2057.0,0.005462895701502157
2056.0,0.005462895701502157
2055.0,0.005462895701502157
2054.0,0.005506877116487674
2053.0,0.005462895701502157
2052.0,0.005462895701502157
2051.0,0.00541891874010525
2050.0,0.00541891874010525
2049.0,0.00541891874010525
2048.0,0.005462895701502157
2047.0,0.005506877116487674
2046.0,0.005550862985963967
2045.0,0.005550862985963967
2044.0,0.005506877116487674
2043.0,0.00541891874010525
2042.0,0.00537494623139545
2041.0,0.00537494623139545
2040.0,0.00537494623139545
2039.0,0.00541891874010525
2038.0,0.00541891874010525
2037.0,0.005506877116487674
2036.0,0.005550862985963967
2035.0,0.005594853310833647
2034.0,0.005550862985963967
2033.0,0.005506877116487674
2032.0,0.005462895701502157
2031.0,0.005462895701502157
2030.0,0.005506877116487674
2029.0,0.005550862985963967
2028.0,0.005550862985963967
2027.0,0.005550862985963967
2026.0,0.005550862985963967
2025.0,0.005506877116487674
2024.0,0.005506877116487674
2023.0,0.005506877116487674
2022.0,0.005506877116487674
2021.0,0.005550862985963967
2020.0,0.005506877116487674
2019.0,0.00541891874010525
2018.0,0.00537494623139545
2017.0,0.00541891874010525
2016.0,0.005462895701502157
2015.0,0.005462895701502157
2014.0,0.005462895701502157
2013.0,0.00541891874010525
2012.0,0.00537494623139545
2011.0,0.005330978174470591
2010.0,0.0052870145684298375
2009.0,0.005243055412371911
2008.0,0.005199100705396198
2007.0,0.005199100705396198
2006.0,0.005199100705396198
2005.0,0.005199100705396198
2004.0,0.005243055412371911
2003.0,0.005199100705396198
2002.0,0.005199100705396198
2001.0,0.005155150446602086
2000.0,0.005199100705396198
1999.0,0.005199100705396198
1998.0,0.005199100705396198
1997.0,0.005199100705396198
1996.0,0.005155150446602086
1995.0,0.005111204635089406
1994.0,0.005111204635089406
1993.0,0.005155150446602086
1992.0,0.005199100705396198
1991.0,0.005243055412371911
1990.0,0.005243055412371911
1989.0,0.005243055412371911
1988.0,0.0052870145684298375
1987.0,0.0052870145684298375
1986.0,0.005330978174470591
1985.0,0.005330978174470591
1984.0,0.0052870145684298375
1983.0,0.0052870145684298375
1982.0,0.005243055412371911
1981.0,0.005199100705396198
1980.0,0.005199100705396198
1979.0,0.005199100705396198
1978.0,0.005199100705396198
1977.0,0.005199100705396198
1976.0,0.005199100705396198
1975.0,0.005199100705396198
1974.0,0.005155150446602086
1973.0,0.005111204635089406
1972.0,0.005067263269958211
1971.0,0.005111204635089406
1970.0,0.005199100705396198
1969.0,0.0052870145684298375
1968.0,0.0052870145684298375
1967.0,0.0052870145684298375
1966.0,0.0052870145684298375
1965.0,0.005243055412371911
1964.0,0.005199100705396198
1963.0,0.005199100705396198
1962.0,0.005155150446602086
1961.0,0.005155150446602086
1960.0,0.005111204635089406
1959.0,0.005155150446602086
1958.0,0.005155150446602086
1957.0,0.005199100705396198
1956.0,0.005199100705396198
1955.0,0.005199100705396198
1954.0,0.005199100705396198
1953.0,0.005199100705396198
1952.0,0.005155150446602086
1951.0,0.005111204635089406
1950.0,0.005111204635089406
1949.0,0.005155150446602086
1948.0,0.005155150446602086
1947.0,0.005111204635089406
1946.0,0.005067263269958211
1945.0,0.005023326350308999
1944.0,0.004979393875242044
1943.0,0.005023326350308999
1942.0,0.005067263269958211
1941.0,0.005111204635089406
1940.0,0.005111204635089406
1939.0,0.005067263269958211
1938.0,0.005023326350308999
1937.0,0.004935465843858511
1936.0,0.00484762310854614
1935.0,0.004759798137184523
1934.0,0.004759798137184523
1933.0,0.004759798137184523
1932.0,0.004759798137184523
1931.0,0.004803708402820517
1930.0,0.00489154225525934
1929.0,0.004935465843858511
1928.0,0.004935465843858511
1927.0,0.004979393875242044
1926.0,0.004979393875242044
1925.0,0.004979393875242044
1924.0,0.004935465843858511
1923.0,0.00484762310854614
1922.0,0.004803708402820517
1921.0,0.004715892310740433
1920.0,0.004671990922590297
1919.0,0.004715892310740433
1918.0,0.004759798137184523
1917.0,0.004803708402820517
1916.0,0.004803708402820517
1915.0,0.004803708402820517
1914.0,0.00484762310854614
1913.0,0.00489154225525934
1912.0,0.004935465843858511
1911.0,0.004979393875242044
1910.0,0.005023326350308999
1909.0,0.005111204635089406
1908.0,0.005155150446602086
1907.0,0.005111204635089406
1906.0,0.005111204635089406
1905.0,0.005155150446602086
1904.0,0.005243055412371911
1903.0,0.005243055412371911
1902.0,0.0052870145684298375
1901.0,0.005330978174470591
1900.0,0.005330978174470591
1899.0,0.0052870145684298375
1898.0,0.0052870145684298375
1897.0,0.005330978174470591
1896.0,0.005330978174470591
1895.0,0.0052870145684298375
1894.0,0.0052870145684298375
1893.0,0.005243055412371911
1892.0,0.005155150446602086
1891.0,0.005067263269958211
1890.0,0.004979393875242044
1889.0,0.004979393875242044
1888.0,0.004935465843858511
1887.0,0.00484762310854614
1886.0,0.004759798137184523
1885.0,0.004759798137184523
1884.0,0.004759798137184523
1883.0,0.004715892310740433
1882.0,0.004715892310740433
1881.0,0.004715892310740433
1880.0,0.004759798137184523
1879.0,0.004803708402820517
1878.0,0.00484762310854614
1877.0,0.00489154225525934
1876.0,0.00489154225525934
1875.0,0.004803708402820517
1874.0,0.004715892310740433
1873.0,0.004671990922590297
1872.0,0.004628093971837721
1871.0,0.004628093971837721
1870.0,0.00458420145758498
1869.0,0.00458420145758498
1868.0,0.004671990922590297
1867.0,0.004715892310740433
1866.0,0.004715892310740433
1865.0,0.004671990922590297
1864.0,0.00458420145758498
1863.0,0.0044964297349936455
1862.0,0.004540313378935901
1861.0,0.004628093971837721
1860.0,0.004759798137184523
1859.0,0.004803708402820517
1858.0,0.004803708402820517
1857.0,0.004759798137184523
1856.0,0.004715892310740433
1855.0,0.004628093971837721
1854.0,0.004628093971837721
1853.0,0.004671990922590297
1852.0,0.004671990922590297
1851.0,0.004628093971837721
1850.0,0.004540313378935901
1849.0,0.0044964297349936455
1848.0,0.004408675747646695
1847.0,0.004320939488377862
1846.0,0.004189368323957332
1845.0,0.004145520125434121
1844.0,0.004145520125434121
1843.0,0.004189368323957332
1842.0,0.004233220950025984
1841.0,0.004277078004534696
1840.0,0.004320939488377862
1839.0,0.004320939488377862
1838.0,0.0043648054024501
1837.0,0.004452550524862486
1836.0,0.004540313378935901
1835.0,0.004540313378935901
1834.0,0.004540313378935901
1833.0,0.004540313378935901
1832.0,0.004540313378935901
1831.0,0.004452550524862486
1830.0,0.004408675747646695
1829.0,0.004408675747646695
1828.0,0.004452550524862486
1827.0,0.0044964297349936455
1826.0,0.0044964297349936455
1825.0,0.004452550524862486
1824.0,0.004408675747646695
1823.0,0.004320939488377862
1822.0,0.004277078004534696
1821.0,0.004277078004534696
1820.0,0.004320939488377862
1819.0,0.004320939488377862
1818.0,0.004320939488377862
1817.0,0.004320939488377862
1816.0,0.004408675747646695
1815.0,0.004408675747646695
1814.0,0.004408675747646695
1813.0,0.004408675747646695
1812.0,0.004408675747646695
1811.0,0.0043648054024501
1810.0,0.004320939488377862
1809.0,0.004320939488377862
1808.0,0.0043648054024501
1807.0,0.0043648054024501
1806.0,0.0043648054024501
1805.0,0.0043648054024501
1804.0,0.0043648054024501
1803.0,0.0043648054024501
1802.0,0.0043648054024501
1801.0,0.004408675747646695
1800.0,0.004408675747646695
1799.0,0.0043648054024501
1798.0,0.004233220950025984
1797.0,0.004145520125434121
1796.0,0.004145520125434121
1795.0,0.004145520125434121
1794.0,0.0040578370074493275
1793.0,0.003970171588923321
1792.0,0.0038825238627120395
1791.0,0.003926345514724705
1790.0,0.003970171588923321
1789.0,0.0040578370074493275
1788.0,0.004145520125434121
1787.0,0.004145520125434121
1786.0,0.004145520125434121
1785.0,0.004145520125434121
1784.0,0.004233220950025984
1783.0,0.004277078004534696
1782.0,0.004277078004534696
1781.0,0.004233220950025984
1780.0,0.004189368323957332
1779.0,0.004145520125434121
1778.0,0.004145520125434121
1777.0,0.004145520125434121
1776.0,0.004145520125434121
1775.0,0.004101676353562844
1774.0,0.003926345514724705
1773.0,0.003707281458678491
1772.0,0.003619686766589858
1771.0,0.0036634819042162814
1770.0,0.0036634819042162814
1769.0,0.003619686766589858
1768.0,0.0036634819042162814
1767.0,0.0037510854308679953
1766.0,0.0038387066319929275
1765.0,0.0038825238627120395
1764.0,0.003926345514724705
1763.0,0.003926345514724705
1762.0,0.0038825238627120395
1761.0,0.0038387066319929275
1760.0,0.003794893821675638
1759.0,0.0037510854308679953
1758.0,0.0037510854308679953
1757.0,0.003794893821675638
1756.0,0.0038825238627120395
1755.0,0.003970171588923321
1754.0,0.003926345514724705
1753.0,0.003794893821675638
1752.0,0.003707281458678491
1751.0,0.003707281458678491
1750.0,0.0037510854308679953
1749.0,0.0038387066319929275
1748.0,0.003970171588923321
1747.0,0.004101676353562844
1746.0,0.004233220950025984
1745.0,0.004277078004534696
1744.0,0.004320939488377862
1743.0,0.004320939488377862
1742.0,0.004233220950025984
1741.0,0.0040578370074493275
1740.0,0.003970171588923321
1739.0,0.0040578370074493275
1738.0,0.0040578370074493275
1737.0,0.0038825238627120395
1736.0,0.0035758960449088217
1735.0,0.0032257291386954545
1734.0,0.0031382315093266833
1733.0,0.0034007772998332353
1732.0,0.003707281458678491
1731.0,0.003970171588923321
1730.0,0.004189368323957332
1729.0,0.004320939488377862
1728.0,0.0043648054024501
1727.0,0.004320939488377862
1726.0,0.004233220950025984
1725.0,0.004145520125434121
1724.0,0.004101676353562844
1723.0,0.004101676353562844
1722.0,0.004145520125434121
1721.0,0.004233220950025984
1720.0,0.004277078004534696
1719.0,0.004189368323957332
1718.0,0.003926345514724705
1717.0,0.003794893821675638
1716.0,0.0037510854308679953
1715.0,0.0037510854308679953
1714.0,0.0038387066319929275
1713.0,0.003926345514724705
1712.0,0.003970171588923321
1711.0,0.003970171588923321
1710.0,0.003970171588923321
1709.0,0.003970171588923321
1708.0,0.003926345514724705
1707.0,0.0038387066319929275
1706.0,0.0037510854308679953
1705.0,0.003794893821675638
1704.0,0.0038387066319929275
1703.0,0.0037510854308679953
1702.0,0.0035758960449088217
1701.0,0.0034007772998332353
1700.0,0.0031819781204844855
1699.0,0.0029632891174733444
1698.0,0.0028758443407954637
1697.0,0.0030070181092942683
1696.0,0.0033132443998284966
1695.0,0.003488327845821315
1694.0,0.0035321097382827737
1693.0,0.0036634819042162814
1692.0,0.0037510854308679953
1691.0,0.0037510854308679953
1690.0,0.0036634819042162814
1689.0,0.003619686766589858
1688.0,0.003707281458678491
1687.0,0.0038825238627120395
1686.0,0.0040578370074493275
1685.0,0.004277078004534696
1684.0,0.004408675747646695
1683.0,0.004277078004534696
1682.0,0.00401400208620073
1681.0,0.0038825238627120395
1680.0,0.0038825238627120395
1679.0,0.0038387066319929275
1678.0,0.003707281458678491
1677.0,0.003619686766589858
1676.0,0.003619686766589858
1675.0,0.0036634819042162814
1674.0,0.0037510854308679953
1673.0,0.003794893821675638
1672.0,0.0036634819042162814
1671.0,0.0034445503666347133
1670.0,0.0033132443998284966
1669.0,0.0034445503666347133
1668.0,0.003707281458678491
1667.0,0.0038825238627120395
1666.0,0.00401400208620073
1665.0,0.00401400208620073
1664.0,0.0038825238627120395
1663.0,0.003707281458678491
1662.0,0.0036634819042162814
1661.0,0.003707281458678491
1660.0,0.0038387066319929275
1659.0,0.003926345514724705
1658.0,0.00401400208620073
1657.0,0.00401400208620073
1656.0,0.004189368323957332
1655.0,0.004408675747646695
1654.0,0.00458420145758498
1653.0,0.004628093971837721
1652.0,0.004277078004534696
1651.0,0.004101676353562844
1650.0,0.004233220950025984
1649.0,0.0043648054024501
1648.0,0.004189368323957332
1647.0,0.0038825238627120395
1646.0,0.0037510854308679953
1645.0,0.003707281458678491
1644.0,0.003707281458678491
1643.0,0.003794893821675638
1642.0,0.003926345514724705
1641.0,0.004101676353562844
1640.0,0.004189368323957332
1639.0,0.004189368323957332
1638.0,0.0040578370074493275
1637.0,0.0038825238627120395
1636.0,0.003794893821675638
1635.0,0.0038387066319929275
1634.0,0.003794893821675638
1633.0,0.003794893821675638
1632.0,0.0038825238627120395
1631.0,0.003970171588923321
1630.0,0.0040578370074493275
1629.0,0.0040578370074493275
1628.0,0.00401400208620073
1627.0,0.003926345514724705
1626.0,0.0038825238627120395
1625.0,0.0038825238627120395
1624.0,0.0038387066319929275
1623.0,0.003794893821675638
1622.0,0.003794893821675638
1621.0,0.003794893821675638
1620.0,0.003794893821675638
1619.0,0.0038387066319929275
1618.0,0.0038825238627120395
1617.0,0.003970171588923321
1616.0,0.00401400208620073
1615.0,0.00401400208620073
1614.0,0.003970171588923321
1613.0,0.0038825238627120395
1612.0,0.0037510854308679953
1611.0,0.0035321097382827737
1610.0,0.0034445503666347133
1609.0,0.0034007772998332353
1608.0,0.0034445503666347133
1607.0,0.0035758960449088217
1606.0,0.003707281458678491
1605.0,0.0037510854308679953
1604.0,0.0037510854308679953
1603.0,0.003707281458678491
1602.0,0.0036634819042162814
1601.0,0.0036634819042162814
1600.0,0.0036634819042162814
1599.0,0.0035758960449088217
1598.0,0.0035321097382827737
1597.0,0.0035321097382827737
1596.0,0.0035758960449088217
1595.0,0.0035321097382827737
1594.0,0.003488327845821315
1593.0,0.0033570086445275926
1592.0,0.0032694845648473247
1591.0,0.0032694845648473247
1590.0,0.0034007772998332353
1589.0,0.0035758960449088217
1588.0,0.0036634819042162814
1587.0,0.003619686766589858
1586.0,0.003619686766589858
1585.0,0.0035758960449088217
1584.0,0.0035321097382827737
1583.0,0.003488327845821315
1582.0,0.003488327845821315
1581.0,0.0035321097382827737
1580.0,0.0035321097382827737
1579.0,0.0035758960449088217
1578.0,0.0035758960449088217
1577.0,0.003488327845821315
1576.0,0.0033570086445275926
1575.0,0.0032694845648473247
1574.0,0.0031819781204844855
1573.0,0.0031382315093266833
1572.0,0.0031382315093266833
1571.0,0.0030944893043338695
1570.0,0.0031382315093266833
1569.0,0.0032257291386954545
1568.0,0.0032257291386954545
1567.0,0.0031382315093266833
1566.0,0.0030944893043338695
1565.0,0.003050751504618754
1564.0,0.003050751504618754
1563.0,0.0030070181092942683
1562.0,0.0030070181092942683
1561.0,0.0032257291386954545
1560.0,0.0033132443998284966
1559.0,0.0031819781204844855
1558.0,0.003050751504618754
1557.0,0.0026573093983774942
1556.0,0.0022642234021015284
1555.0,0.0021769192542746563
1554.0,0.0021332737608552588
1553.0,0.0023078820582733695
1552.0,0.002482560585275184
1551.0,0.002613615602686581
1550.0,0.002613615602686581
1549.0,0.002569926202528716
1548.0,0.002482560585275184
1547.0,0.002351545103793873
1546.0,0.0022205691343961664
1545.0,0.0020459959305969555
1544.0,0.001915112063444413
1543.0,0.0017842676290416026
1542.0,0.0016534626036355249
1541.0,0.0016970599014589638
1540.0,0.0022205691343961664
1539.0,0.002482560585275184
1538.0,0.002351545103793873
1537.0,0.0022642234021015284
1536.0,0.002351545103793873
1535.0,0.0024388843664115978
1534.0,0.0024388843664115978
1533.0,0.002482560585275184
1532.0,0.002482560585275184
1531.0,0.002395212539545666
1530.0,0.0023078820582733695
1529.0,0.0022642234021015284
1528.0,0.0021769192542746563
1527.0,0.0020023635919956817
1526.0,0.0018278780605593958
1525.0,0.0017406615763013722
1524.0,0.0017406615763013722
1523.0,0.001609869681952425
1522.0,0.0015226969634936083
1521.0,0.0018714928717336043
1520.0,0.0022642234021015284
1519.0,0.002395212539545666
1518.0,0.0022642234021015284
1517.0,0.0020459959305969555
1516.0,0.0018714928717336043
1515.0,0.0016534626036355249
1514.0,0.0013919706849057079
1513.0,0.001304841688344327
1512.0,0.0013919706849057079
1511.0,0.0014791171649619628
1510.0,0.0016534626036355249
1509.0,0.0018714928717336043
1508.0,0.0019587356365717845
1507.0,0.0020023635919956817
1506.0,0.001915112063444413
1505.0,0.0016534626036355249
1504.0,0.0015226969634936083
1503.0,0.0014791171649619628
1502.0,0.0013919706849057079
1501.0,0.001348404001626502
1500.0,0.0013919706849057079
1499.0,0.001348404001626502
1498.0,0.0011741809597138886
1497.0,0.0011306361176557367
1496.0,0.0011741809597138886
1495.0,0.0011306361176557367
1494.0,0.0010435595295137379
1493.0,0.0010870956412141197
1492.0,0.0011741809597138886
1491.0,0.0010870956412141197
1490.0,0.0009129773741116676
1489.0,0.0010000277816797354
1488.0,0.0011741809597138886
1487.0,0.0011306361176557367
1486.0,0.0010435595295137379
1485.0,0.0010435595295137379
1484.0,0.0011306361176557367
1483.0,0.0012177301682640973
1482.0,0.0013919706849057079
1481.0,0.001915112063444413
1480.0,0.0026573093983774942
1479.0,0.003926345514724705
1478.0,0.006696062080525422
1477.0,0.012289056869694281
1476.0,0.0211806132671577
1475.0,0.032686081712916426
1474.0,0.045612749855485024
1473.0,0.05625823416868636
1472.0,0.05928434309333741
1471.0,0.055764156206519866
1470.0,0.05075640943173498
1469.0,0.04667530361081473
1468.0,0.04383156952463674
1467.0,0.04263219156847242
1466.0,0.04440844959427559
1465.0,0.04978123335813667
1464.0,0.05586292684190197
1463.0,0.05858795962645047
1462.0,0.05685187064143715
1461.0,0.05163594401163074
1460.0,0.044456557540257124
1459.0,0.03682628362474838
1458.0,0.030164906924202484
1457.0,0.025810808881832736
1456.0,0.02351246269481
1455.0,0.02204787879853809
1454.0,0.020724852408976924
1453.0,0.019360432556262852
1452.0,0.01800028587012159
1451.0,0.016870075265299933
1450.0,0.01596801972881945
1449.0,0.015292705517326866
1448.0,0.014753209197138295
1447.0,0.014393916947563534
1446.0,0.014079779876432497
1445.0,0.013676222949234651
1444.0,0.013273040668781544
1443.0,0.012959713020733288
1442.0,0.012691326268817527
1441.0,0.012378417874516323
1440.0,0.0119764380713403
1439.0,0.011485634166333858
1438.0,0.011039929609661936
1437.0,0.010728208358306901
1436.0,0.010594681998483901
1435.0,0.010505687227290839
1434.0,0.010327752376126709
1433.0,0.009972101229705377
1432.0,0.009572341514736404
1431.0,0.009217308196862062
1430.0,0.008818242332126802
1429.0,0.008375265465994541
1428.0,0.007888512213050314
1427.0,0.007490664932224611
1426.0,0.007137328610972382
1425.0,0.006696062080525422
1424.0,0.006343371384537999
1423.0,0.00612308505878878
1422.0,0.005858888873877532
1421.0,0.005462895701502157
1420.0,0.005111204635089406
1419.0,0.004935465843858511
1418.0,0.00484762310854614
1417.0,0.004671990922590297
1416.0,0.004540313378935901
1415.0,0.0044964297349936455
1414.0,0.004408675747646695
1413.0,0.004277078004534696
1412.0,0.004101676353562844
1411.0,0.00401400208620073
1410.0,0.003926345514724705
1409.0,0.0038387066319929275
1408.0,0.0037510854308679953
1407.0,0.003707281458678491
1406.0,0.0036634819042162814
1405.0,0.003619686766589858
1404.0,0.003619686766589858
1403.0,0.0036634819042162814
1402.0,0.003619686766589858
1401.0,0.0035321097382827737
1400.0,0.0034445503666347133
1399.0,0.003488327845821315
1398.0,0.0035321097382827737
1397.0,0.0034445503666347133
1396.0,0.0032257291386954545
1395.0,0.0030944893043338695
1394.0,0.003050751504618754
1393.0,0.0030944893043338695
1392.0,0.0032257291386954545
1391.0,0.0033570086445275926
1390.0,0.0034007772998332353
1389.0,0.0032694845648473247
1388.0,0.0031382315093266833
1387.0,0.0031382315093266833
1386.0,0.0032257291386954545
1385.0,0.0033132443998284966
1384.0,0.0034445503666347133
1383.0,0.0036634819042162814
1382.0,0.0038825238627120395
1381.0,0.004101676353562844
1380.0,0.0043648054024501
1379.0,0.004540313378935901
1378.0,0.004671990922590297
1377.0,0.004628093971837721
1376.0,0.00458420145758498
1375.0,0.004628093971837721
1374.0,0.00484762310854614
1373.0,0.005067263269958211
1372.0,0.005243055412371911
1371.0,0.005462895701502157
1370.0,0.005638848091999105
1369.0,0.005814871797682919
1368.0,0.005858888873877532
1367.0,0.005814871797682919
1366.0,0.005726851026829571
1365.0,0.005682847330363394
1364.0,0.005638848091999105
1363.0,0.005594853310833647
1362.0,0.005506877116487674
1361.0,0.0052870145684298375
1360.0,0.005111204635089406
1359.0,0.004979393875242044
1358.0,0.004935465843858511
1357.0,0.00489154225525934
1356.0,0.004935465843858511
1355.0,0.004979393875242044
1354.0,0.005111204635089406
1353.0,0.005199100705396198
1352.0,0.005243055412371911
1351.0,0.005243055412371911
1350.0,0.005199100705396198
1349.0,0.005111204635089406
1348.0,0.005023326350308999
1347.0,0.004935465843858511
1346.0,0.00489154225525934
1345.0,0.00484762310854614
1344.0,0.004759798137184523
1343.0,0.004715892310740433
1342.0,0.004628093971837721
1341.0,0.004452550524862486
1340.0,0.004320939488377862
1339.0,0.004277078004534696
1338.0,0.004277078004534696
1337.0,0.004233220950025984
1336.0,0.004145520125434121
1335.0,0.004101676353562844
1334.0,0.0040578370074493275
1333.0,0.00401400208620073
1332.0,0.003926345514724705
1331.0,0.0038825238627120395
1330.0,0.0038387066319929275
1329.0,0.0038825238627120395
1328.0,0.00401400208620073
1327.0,0.004101676353562844
1326.0,0.004189368323957332
1325.0,0.004145520125434121
1324.0,0.004101676353562844
1323.0,0.0040578370074493275
1322.0,0.004101676353562844
1321.0,0.004101676353562844
1320.0,0.004145520125434121
1319.0,0.004233220950025984
1318.0,0.004320939488377862
1317.0,0.0043648054024501
1316.0,0.0043648054024501
1315.0,0.0043648054024501
1314.0,0.004408675747646695
1313.0,0.004452550524862486
1312.0,0.004540313378935901
1311.0,0.004671990922590297
1310.0,0.004759798137184523
1309.0,0.004803708402820517
1308.0,0.004803708402820517
1307.0,0.004803708402820517
1306.0,0.004803708402820517
1305.0,0.004759798137184523
1304.0,0.004759798137184523
1303.0,0.004715892310740433
1302.0,0.004671990922590297
1301.0,0.00458420145758498
1300.0,0.004540313378935901
1299.0,0.0044964297349936455
1298.0,0.004452550524862486
1297.0,0.0043648054024501
1296.0,0.004233220950025984
1295.0,0.004145520125434121
1294.0,0.0040578370074493275
1293.0,0.003970171588923321
1292.0,0.0038825238627120395
1291.0,0.003794893821675638
1290.0,0.0037510854308679953
1289.0,0.0036634819042162814
1288.0,0.0036634819042162814
1287.0,0.0036634819042162814
1286.0,0.0037510854308679953
1285.0,0.003794893821675638
1284.0,0.0037510854308679953
1283.0,0.003619686766589858
1282.0,0.003488327845821315
1281.0,0.0033570086445275926
1280.0,0.0032694845648473247
1279.0,0.0032257291386954545
1278.0,0.0032257291386954545
1277.0,0.0032257291386954545
1276.0,0.0032257291386954545
1275.0,0.0032694845648473247
1274.0,0.0032694845648473247
1273.0,0.0032257291386954545
1272.0,0.0031382315093266833
1271.0,0.0030070181092942683
1270.0,0.0029195645282691363
1269.0,0.0028758443407954637
1268.0,0.0028321285541661467
1267.0,0.0028758443407954637
1266.0,0.0029195645282691363
1265.0,0.0028758443407954637
1264.0,0.0028321285541661467
1263.0,0.0027884171674950053
1262.0,0.0026573093983774942
1261.0,0.002569926202528716
1260.0,0.002482560585275184
1259.0,0.0024388843664115978
1258.0,0.0024388843664115978
1257.0,0.002395212539545666
1256.0,0.002351545103793873
1255.0,0.002395212539545666
1254.0,0.002395212539545666
1253.0,0.002395212539545666
1252.0,0.002351545103793873
1251.0,0.0022642234021015284
1250.0,0.0021769192542746563
1249.0,0.002089632653256679
1248.0,0.002089632653256679
1247.0,0.002089632653256679
1246.0,0.0021332737608552588
1245.0,0.0021332737608552588
1244.0,0.0021332737608552588
1243.0,0.002089632653256679
1242.0,0.0020023635919956817
1241.0,0.0020023635919956817
1240.0,0.0020459959305969555
1239.0,0.0021332737608552588
1238.0,0.0022205691343961664
1237.0,0.0022205691343961664
1236.0,0.0022205691343961664
1235.0,0.0021769192542746563
1234.0,0.0021769192542746563
1233.0,0.0021332737608552588
1232.0,0.0020459959305969555
1231.0,0.0020023635919956817
1230.0,0.001915112063444413
1229.0,0.0018714928717336043
1228.0,0.0018714928717336043
1227.0,0.0018278780605593958
1226.0,0.0018714928717336043
1225.0,0.001915112063444413
1224.0,0.0019587356365717845
1223.0,0.0020459959305969555
1222.0,0.0021332737608552588
1221.0,0.0021769192542746563
1220.0,0.0021769192542746563
1219.0,0.0021332737608552588
1218.0,0.0021332737608552588
1217.0,0.0021769192542746563
1216.0,0.0022205691343961664
1215.0,0.0023078820582733695
1214.0,0.0022642234021015284
1213.0,0.0021769192542746563
1212.0,0.002089632653256679
1211.0,0.0021332737608552588
1210.0,0.0023078820582733695
1209.0,0.0024388843664115978
1208.0,0.0025262411970197185
1207.0,0.002569926202528716
1206.0,0.002613615602686581
1205.0,0.0026573093983774942
1204.0,0.0027447101798967477
1203.0,0.0027447101798967477
1202.0,0.002701007590486082
1201.0,0.002613615602686581
1200.0,0.0025262411970197185
1199.0,0.0024388843664115978
1198.0,0.0024388843664115978
1197.0,0.0024388843664115978
1196.0,0.002482560585275184
1195.0,0.002482560585275184
1194.0,0.0025262411970197185
1193.0,0.0025262411970197185
1192.0,0.0025262411970197185
1191.0,0.002482560585275184
1190.0,0.0024388843664115978
1189.0,0.002395212539545666
1188.0,0.002395212539545666
1187.0,0.0024388843664115978
1186.0,0.0025262411970197185
1185.0,0.0026573093983774942
1184.0,0.0027447101798967477
1183.0,0.0027884171674950053
1182.0,0.0028321285541661467
1181.0,0.0028758443407954637
1180.0,0.0028758443407954637
1179.0,0.0029632891174733444
1178.0,0.0030944893043338695
1177.0,0.0031819781204844855
1176.0,0.0032257291386954545
1175.0,0.0031819781204844855
1174.0,0.0031819781204844855
1173.0,0.0031382315093266833
1172.0,0.0031382315093266833
1171.0,0.0030944893043338695
1170.0,0.0030070181092942683
1169.0,0.0029195645282691363
1168.0,0.0028758443407954637
1167.0,0.0029195645282691363
1166.0,0.0029632891174733444
1165.0,0.0030070181092942683
1164.0,0.0029632891174733444
1163.0,0.0029195645282691363
1162.0,0.0027884171674950053
1161.0,0.002701007590486082
1160.0,0.0026573093983774942
1159.0,0.0026573093983774942
1158.0,0.002613615602686581
1157.0,0.0025262411970197185
1156.0,0.0025262411970197185
1155.0,0.002482560585275184
1154.0,0.0024388843664115978
1153.0,0.002395212539545666
1152.0,0.002395212539545666
1151.0,0.002482560585275184
1150.0,0.0025262411970197185
1149.0,0.0025262411970197185
1148.0,0.0024388843664115978
1147.0,0.002351545103793873
1146.0,0.0022642234021015284
1145.0,0.0022205691343961664
1144.0,0.0021769192542746563
1143.0,0.0021769192542746563
1142.0,0.0022205691343961664
1141.0,0.0022205691343961664
1140.0,0.0021769192542746563
1139.0,0.002089632653256679
1138.0,0.0020459959305969555
1137.0,0.0020459959305969555
1136.0,0.002089632653256679
1135.0,0.0021332737608552588
1134.0,0.0021332737608552588
1133.0,0.002089632653256679
1132.0,0.0019587356365717845
1131.0,0.0017842676290416026
1130.0,0.001609869681952425
1129.0,0.0014791171649619628
1128.0,0.0014791171649619628
1127.0,0.0015662811355310335
1126.0,0.0017406615763013722
1125.0,0.0017842676290416026
1124.0,0.0017406615763013722
1123.0,0.001609869681952425
1122.0,0.0015226969634936083
1121.0,0.0014791171649619628
1120.0,0.0014791171649619628
1119.0,0.0015662811355310335
1118.0,0.0016534626036355249
1117.0,0.0016534626036355249
1116.0,0.001609869681952425
1115.0,0.0015226969634936083
1114.0,0.0014355417390583547
1113.0,0.001304841688344327
1112.0,0.0011741809597138886
1111.0,0.0010870956412141197
1110.0,0.0010435595295137379
1109.0,0.0010000277816797354
1108.0,0.000869458712629001
1107.0,0.0007824344698965646
1106.0,0.0006519307932786322
1105.0,0.0005649501236701937
1104.0,0.0004779868710962365
1103.0,0.0004779868710962365
1102.0,0.000521466320689834
1101.0,0.000521466320689834
1100.0,0.000521466320689834
1099.0,0.0004779868710962365
1098.0,0.0003910410285830057
1097.0,0.00026065489343207737
1096.0,0.0001303078917322953
1095.0,8.686758342868472e-05
1094.0,4.343161980746579e-05
1093.0,0.0
1092.0,-0.00013026880522692963
1091.0,-0.0002604985473904087
1090.0,-0.0003906892499099257
1089.0,-0.0005208409361854294
1088.0,-0.0006075870628903246
1087.0,-0.0007376737740329986
1086.0,-0.0009110621312231615
1085.0,-0.0011277002770349043
1084.0,-0.001344230411601366
1083.0,-0.001474096691732818
1082.0,-0.0016039241497978196
1081.0,-0.001776967077439462
1080.0,-0.0019931738235303698
1079.0,-0.0022524799205383417
1078.0,-0.0024684501283323
1077.0,-0.002597980719908577
1076.0,-0.002684312989729598
1075.0,-0.0027274726898296464
1074.0,-0.0026411490000399773
1073.0,-0.0025116312849080558
1072.0,-0.002338880892056583
1071.0,-0.0022524799205383417
1070.0,-0.002338880892056583
1069.0,-0.0025548081484823015
1068.0,-0.002900068611387585
1067.0,-0.003158833950862139
1066.0,-0.003201946521692367
1065.0,-0.0029863408567849525
1064.0,-0.002684312989729598
1063.0,-0.0024252646779014952
1062.0,-0.0022956825549340643
1061.0,-0.0023820749327607693
1060.0,-0.002597980719908577
1059.0,-0.002900068611387585
1058.0,-0.0030725959676747294
1057.0,-0.0030725959676747294
1056.0,-0.002900068611387585
1055.0,-0.0027706281011936618
1054.0,-0.002684312989729598
1053.0,-0.0027274726898296464
1052.0,-0.0027706281011936618
1051.0,-0.0028137792246734072
1050.0,-0.002856926061120646
1049.0,-0.002856926061120646
1048.0,-0.0028137792246734072
1047.0,-0.0028137792246734072
1046.0,-0.002856926061120646
1045.0,-0.002900068611387585
1044.0,-0.0028137792246734072
1043.0,-0.0026411490000399773
1042.0,-0.0024684501283323
1041.0,-0.0024684501283323
1040.0,-0.0025548081484823015
1039.0,-0.002597980719908577
1038.0,-0.0025548081484823015
1037.0,-0.0024684501283323
1036.0,-0.0022956825549340643
1035.0,-0.0020364022595291686
1034.0,-0.001776967077439462
1033.0,-0.0015606526425728795
1032.0,-0.0014308122463981832
1031.0,-0.0013875234866409514
1030.0,-0.0015173768235041685
1029.0,-0.0016471913460383014
1028.0,-0.001776967077439462
1027.0,-0.001733712809000476
1026.0,-0.0015606526425728795
1025.0,-0.0014308122463981832
1024.0,-0.0013009330204178937
1023.0,-0.0011710149414008164
1022.0,-0.0010843812922201046
1021.0,-0.0009977303577937136
1020.0,-0.0009110621312231615
1019.0,-0.0008677215312267172
1018.0,-0.0007376737740329986
1017.0,-0.0006943158663546001
1016.0,-0.0006943158663546001
1015.0,-0.0007810273534953893
1014.0,-0.0008243766056055257
1013.0,-0.0008677215312267172
1012.0,-0.0007810273534953893
1011.0,-0.0006509536295951079
1010.0,-0.0004774613744551459
1009.0,-0.0003906892499099257
1008.0,-0.0003906892499099257
1007.0,-0.0004774613744551459
1006.0,-0.0004774613744551459
1005.0,-0.0004774613744551459
1004.0,-0.0003472966853634851
1003.0,-0.00021709297223004853
1002.0,-4.3427276862573194e-05
1001.0,4.343161980746579e-05
1000.0,4.343161980746579e-05
999.0,0.0
998.0,0.0
997.0,0.0
996.0,4.343161980746579e-05
995.0,0.00017375254558760211
994.0,0.00030411258916074324
993.0,0.0003910410285830057
992.0,0.00043451177401765406
991.0,0.0003910410285830057
990.0,0.00030411258916074324
989.0,0.00030411258916074324
988.0,0.0003910410285830057
987.0,0.0004779868710962365
986.0,0.0005649501236701937
985.0,0.00043451177401765406
984.0,0.00017375254558760211
983.0,-4.3427276862573194e-05
982.0,-0.00021709297223004853
981.0,-0.00030389978481260016
980.0,-0.0003906892499099257
979.0,-0.0004774613744551459
978.0,-0.0005208409361854294
977.0,-0.0005208409361854294
976.0,-0.00043407747931878404
975.0,-0.00030389978481260016
974.0,-0.00030389978481260016
973.0,-0.0004774613744551459
972.0,-0.0006943158663546001
971.0,-0.0008677215312267172
970.0,-0.0008243766056055257
969.0,-0.0006509536295951079
968.0,-0.00043407747931878404
967.0,-0.0003472966853634851
966.0,-0.0003906892499099257
965.0,-0.00043407747931878404
964.0,-0.0005208409361854294
963.0,-0.0005642161653756084
962.0,-0.0006509536295951079
961.0,-0.0007376737740329986
960.0,-0.0008243766056055257
959.0,-0.0008243766056055257
958.0,-0.0007376737740329986
957.0,-0.0006943158663546001
956.0,-0.0007376737740329986
955.0,-0.0007810273534953893
954.0,-0.0007376737740329986
953.0,-0.0006075870628903246
952.0,-0.0004774613744551459
951.0,-0.0003906892499099257
950.0,-0.00043407747931878404
949.0,-0.0004774613744551459
948.0,-0.0005208409361854294
947.0,-0.0005642161653756084
946.0,-0.0006509536295951079
945.0,-0.0007376737740329986
944.0,-0.0006943158663546001
943.0,-0.0006075870628903246
942.0,-0.00043407747931878404
941.0,-0.00030389978481260016
940.0,-0.00021709297223004853
939.0,-8.685021164911433e-05
938.0,0.0
937.0,4.343161980746579e-05
936.0,8.686758342868472e-05
935.0,0.00017375254558760211
934.0,0.00030411258916074324
933.0,0.0004779868710962365
932.0,0.000521466320689834
931.0,0.00043451177401765406
930.0,0.0003475746339209884
929.0,0.00026065489343207737
928.0,0.00017375254558760211
927.0,0.0001303078917322953
926.0,4.343161980746579e-05
925.0,4.343161980746579e-05
924.0,4.343161980746579e-05
923.0,4.343161980746579e-05
922.0,-4.3427276862573194e-05
921.0,-0.00021709297223004853
920.0,-0.0004774613744551459
919.0,-0.0006509536295951079
918.0,-0.0006943158663546001
917.0,-0.0006509536295951079
916.0,-0.0005642161653756084
915.0,-0.0005642161653756084
914.0,-0.0006943158663546001
913.0,-0.0009110621312231615
912.0,-0.0010843812922201046
911.0,-0.0011710149414008164
910.0,-0.001257631312230778
909.0,-0.001344230411601366
908.0,-0.001474096691732818
907.0,-0.0015606526425728795
906.0,-0.0016471913460383014
905.0,-0.001776967077439462
904.0,-0.0019499410842680476
903.0,-0.0020796263931210923
902.0,-0.0022524799205383417
901.0,-0.0023820749327607693
900.0,-0.0025548081484823015
899.0,-0.0026411490000399773
898.0,-0.0026411490000399773
897.0,-0.0025548081484823015
896.0,-0.0025116312849080558
895.0,-0.0025116312849080558
894.0,-0.0026411490000399773
893.0,-0.002856926061120646
892.0,-0.0029432068763250996
891.0,-0.0028137792246734072
890.0,-0.0025548081484823015
889.0,-0.0022956825549340643
888.0,-0.0020364022595291686
887.0,-0.0018634626925240205
886.0,-0.0018202170383281313
885.0,-0.0019067040408846658
884.0,-0.0020364022595291686
883.0,-0.0021228462251614566
882.0,-0.0021228462251614566
881.0,-0.0020364022595291686
880.0,-0.0019499410842680476
879.0,-0.0019067040408846658
878.0,-0.0019499410842680476
877.0,-0.0020364022595291686
876.0,-0.0020796263931210923
875.0,-0.0019499410842680476
874.0,-0.001733712809000476
873.0,-0.0015173768235041685
872.0,-0.001344230411601366
871.0,-0.0011277002770349043
870.0,-0.0009110621312231615
869.0,-0.0007376737740329986
868.0,-0.0007810273534953893
867.0,-0.0009110621312231615
866.0,-0.001041057986093552
865.0,-0.0011710149414008164
864.0,-0.0011277002770349043
863.0,-0.0010843812922201046
862.0,-0.001041057986093552
861.0,-0.0010843812922201046
860.0,-0.00121432528617893
859.0,-0.0013009330204178937
858.0,-0.001257631312230778
857.0,-0.00121432528617893
856.0,-0.0011277002770349043
855.0,-0.0010843812922201046
854.0,-0.0011277002770349043
853.0,-0.001257631312230778
852.0,-0.001474096691732818
851.0,-0.0016904542321527494
850.0,-0.0018634626925240205
849.0,-0.0020364022595291686
848.0,-0.0021660617565077978
847.0,-0.0022092729880145434
846.0,-0.0022092729880145434
845.0,-0.0022524799205383417
844.0,-0.0022956825549340643
843.0,-0.0023820749327607693
842.0,-0.0024252646779014952
841.0,-0.0024684501283323
840.0,-0.0025116312849080558
839.0,-0.0025116312849080558
838.0,-0.0024684501283323
837.0,-0.0024252646779014952
836.0,-0.0024252646779014952
835.0,-0.0025116312849080558
834.0,-0.0026411490000399773
833.0,-0.002856926061120646
832.0,-0.0030725959676747294
831.0,-0.0032450548131470747
830.0,-0.0032450548131470747
829.0,-0.003158833950862139
828.0,-0.003115717099805959
827.0,-0.003158833950862139
826.0,-0.0032450548131470747
825.0,-0.0032881588260753603
824.0,-0.003201946521692367
823.0,-0.0030725959676747294
822.0,-0.0029432068763250996
821.0,-0.0029432068763250996
820.0,-0.0029432068763250996
819.0,-0.0028137792246734072
818.0,-0.0025548081484823015
817.0,-0.0023820749327607693
816.0,-0.0023820749327607693
815.0,-0.0026411490000399773
814.0,-0.0029432068763250996
813.0,-0.003158833950862139
812.0,-0.003115717099805959
811.0,-0.0029863408567849525
810.0,-0.0028137792246734072
809.0,-0.002684312989729598
808.0,-0.0026411490000399773
807.0,-0.0025548081484823015
806.0,-0.002338880892056583
805.0,-0.0021228462251614566
804.0,-0.0019499410842680476
803.0,-0.0019067040408846658
802.0,-0.0019931738235303698
801.0,-0.0022524799205383417
800.0,-0.0024684501283323
799.0,-0.002597980719908577
798.0,-0.0027274726898296464
797.0,-0.0028137792246734072
796.0,-0.002856926061120646
795.0,-0.0026411490000399773
794.0,-0.0022956825549340643
793.0,-0.0020796263931210923
792.0,-0.0021660617565077978
791.0,-0.0024252646779014952
790.0,-0.0027274726898296464
789.0,-0.0028137792246734072
788.0,-0.0027706281011936618
787.0,-0.002684312989729598
786.0,-0.0026411490000399773
785.0,-0.002597980719908577
784.0,-0.0025116312849080558
783.0,-0.0024684501283323
782.0,-0.0025116312849080558
781.0,-0.002856926061120646
780.0,-0.0032881588260753603
779.0,-0.003546693102131737
778.0,-0.003546693102131737
777.0,-0.0033312585613267665
776.0,-0.0032881588260753603
775.0,-0.0033743540197499478
774.0,-0.003503614742536687
773.0,-0.003632837004408529
772.0,-0.003762020828246282
771.0,-0.0038481220342978517
770.0,-0.003891166236910326
769.0,-0.003805073565025019
768.0,-0.0035897671891400584
767.0,-0.0033312585613267665
766.0,-0.0030725959676747294
765.0,-0.0030725959676747294
764.0,-0.0033743540197499478
763.0,-0.0038481220342978517
762.0,-0.0042783722001624724
761.0,-0.004493337547274212
760.0,-0.00445035298922436
759.0,-0.0042783722001624724
758.0,-0.004149341900058889
757.0,-0.004106323279658319
756.0,-0.004020273253241502
755.0,-0.003891166236910326
754.0,-0.003675902548784027
753.0,-0.0034605321095062536
752.0,-0.0033743540197499478
751.0,-0.0034174452021935586
750.0,-0.0035897671891400584
749.0,-0.003805073565025019
748.0,-0.004020273253241502
747.0,-0.0042353663594676405
746.0,-0.004407364176330919
745.0,-0.004622265700782613
744.0,-0.004922949296525481
743.0,-0.005137595908863979
742.0,-0.005008820672367076
741.0,-0.00445035298922436
740.0,-0.003675902548784027
739.0,-0.0029863408567849525
738.0,-0.0024252646779014952
737.0,-0.001733712809000476
736.0,-0.00017368305846510168
735.0,0.0033570086445275926
734.0,0.009883233932095559
733.0,0.01949668180660491
732.0,0.03025802323714588
731.0,0.038531444649213764
730.0,0.04124505013091051
729.0,0.038151940981675736
728.0,0.032031037121307726
727.0,0.026318081496016443
726.0,0.02296266477531872
725.0,0.02255077261765881
724.0,0.02498200236711723
723.0,0.030444315779156517
722.0,0.03914884628031379
721.0,0.050414848673348
720.0,0.061380218497318895
719.0,0.0680846829187538
718.0,0.06859298644342648
717.0,0.06388856832514578
716.0,0.055961719945581745
715.0,0.04667530361081473
714.0,0.03739392707587297
713.0,0.029188389127482228
712.0,0.022871099419317753
711.0,0.018362575344230914
710.0,0.015067833932588037
709.0,0.01260190086298274
708.0,0.01077272626946324
707.0,0.009527946474380489
706.0,0.008375265465994541
705.0,0.007049039429553483
704.0,0.005594853310833647
703.0,0.0044964297349936455
702.0,0.0038825238627120395
701.0,0.0034445503666347133
700.0,0.0029195645282691363
699.0,0.0020459959305969555
698.0,0.0009129773741116676
697.0,-0.00021709297223004853
696.0,-0.001041057986093552
695.0,-0.001344230411601366
694.0,-0.0013009330204178937
693.0,-0.001344230411601366
692.0,-0.0013009330204178937
691.0,-0.0008677215312267172
690.0,-4.3427276862573194e-05
689.0,0.0007389288868995258
688.0,0.0015226969634936083
687.0,0.002351545103793873
686.0,0.0030070181092942683
685.0,0.0030944893043338695
684.0,0.0027884171674950053
683.0,0.0027884171674950053
682.0,0.0032694845648473247
681.0,0.003707281458678491
680.0,0.003488327845821315
679.0,0.0028758443407954637
678.0,0.0021769192542746563
677.0,0.0008259444115150671
676.0,-0.0013009330204178937
675.0,-0.003762020828246282
674.0,-0.005395031886706203
673.0,-0.005223424858135761
672.0,-0.0022956825549340643
671.0,0.003707281458678491
670.0,0.012780770091995297
669.0,0.022688026603074007
668.0,0.026041313893296225
667.0,0.017321806616515723
666.0,0.00590291041179003
665.0,-0.0015173768235041685
664.0,-0.00552369267327979
663.0,-0.007491733295335923
662.0,-0.008088936291577475
661.0,-0.00766244653727588
660.0,-0.006423252507643085
659.0,-0.004965887106823441
658.0,-0.004106323279658319
657.0,-0.004192356259714369
656.0,-0.004665233247877154
655.0,-0.004922949296525481
654.0,-0.005266332972768684
653.0,-0.0058666018753847915
652.0,-0.0064660422492317515
651.0,-0.006551609086648202
650.0,-0.006123606211854593
649.0,-0.005609445360280407
648.0,-0.005309236848516363
647.0,-0.005266332972768684
646.0,-0.005609445360280407
645.0,-0.006252051369364686
644.0,-0.006808208492578682
643.0,-0.007064656378331868
642.0,-0.00697919057427665
641.0,-0.006637159068586307
640.0,-0.006123606211854593
639.0,-0.005652315355074045
638.0,-0.005738042651424635
637.0,-0.006423252507643085
636.0,-0.007064656378331868
635.0,-0.006850960324272126
634.0,-0.005909446494558601
633.0,-0.005051749993995713
632.0,-0.005008820672367076
631.0,-0.005609445360280407
630.0,-0.006166425485431226
629.0,-0.005909446494558601
628.0,-0.0045792939022115675
627.0,-0.002900068611387585
626.0,-0.0020364022595291686
625.0,-0.0023820749327607693
624.0,-0.0033743540197499478
623.0,-0.0042783722001624724
622.0,-0.005008820672367076
621.0,-0.005652315355074045
620.0,-0.005952286887382918
619.0,-0.0058666018753847915
618.0,-0.005909446494558601
617.0,-0.0064660422492317515
616.0,-0.006936451364292662
615.0,-0.006765452451992449
614.0,-0.006166425485431226
613.0,-0.005609445360280407
612.0,-0.00552369267327979
611.0,-0.006380458549692936
610.0,-0.008557591784247087
609.0,-0.011528153857539358
608.0,-0.013932120711203755
607.0,-0.01468851187233744
606.0,-0.014100321519620707
605.0,-0.012541972775836019
604.0,-0.010172703286778884
603.0,-0.00766244653727588
602.0,-0.006808208492578682
601.0,-0.008003671840159488
600.0,-0.009025742086910427
