cm-1,A
4000.0,0.0094
3999.0,0.0093
3998.0,0.0093
3997.0,0.0092
3996.0,0.0092
3995.0,0.0092
3994.0,0.0093
3993.0,0.0093
3992.0,0.0093
3991.0,0.0093
3990.0,0.0094
3989.0,0.0094
3988.0,0.0094
3987.0,0.0094
3986.0,0.0093
3985.0,0.0093
3984.0,0.0092
3983.0,0.0092
3982.0,0.0092
3981.0,0.0092
3980.0,0.0092
3979.0,0.0093
3978.0,0.0093
3977.0,0.0094
3976.0,0.0094
3975.0,0.0094
3974.0,0.0094
3973.0,0.0093
3972.0,0.0093
3971.0,0.0092
3970.0,0.0091
3969.0,0.0092
3968.0,0.0093
3967.0,0.0093
3966.0,0.0094
3965.0,0.0094
3964.0,0.0093
3963.0,0.0093
3962.0,0.0093
3961.0,0.0093
3960.0,0.0094
3959.0,0.0094
3958.0,0.0094
3957.0,0.0095
3956.0,0.0094
3955.0,0.0094
3954.0,0.0094
3953.0,0.0094
3952.0,0.0094
3951.0,0.0093
3950.0,0.0093
3949.0,0.0092
3948.0,0.0092
3947.0,0.0092
3946.0,0.0093
3945.0,0.0093
3944.0,0.0094
3943.0,0.0093
3942.0,0.0092
3941.0,0.0092
3940.0,0.0092
3939.0,0.0092
3938.0,0.0093
3937.0,0.0094
3936.0,0.0094
3935.0,0.0093
3934.0,0.0093
3933.0,0.0093
3932.0,0.0093
3931.0,0.0093
3930.0,0.0093
3929.0,0.0093
3928.0,0.0093
3927.0,0.0093
3926.0,0.0093
3925.0,0.0094
3924.0,0.0094
3923.0,0.0094
3922.0,0.0093
3921.0,0.0093
3920.0,0.0093
3919.0,0.0093
3918.0,0.0093
3917.0,0.0093
3916.0,0.0093
3915.0,0.0093
3914.0,0.0094
3913.0,0.0094
3912.0,0.0094
3911.0,0.0094
3910.0,0.0094
3909.0,0.0094
3908.0,0.0093
3907.0,0.0093
3906.0,0.0092
3905.0,0.0091
3904.0,0.009
3903.0,0.0088
3902.0,0.0087
3901.0,0.0087
3900.0,0.0088
3899.0,0.0089
3898.0,0.009
3897.0,0.0091
3896.0,0.0092
3895.0,0.0093
3894.0,0.0093
3893.0,0.0093
3892.0,0.0093
3891.0,0.0091
3890.0,0.009
3889.0,0.0089
3888.0,0.0088
3887.0,0.0088
3886.0,0.0087
3885.0,0.0087
3884.0,0.0087
3883.0,0.0088
3882.0,0.0089
3881.0,0.009
3880.0,0.009
3879.0,0.009
3878.0,0.0091
3877.0,0.0092
3876.0,0.0092
3875.0,0.0092
3874.0,0.0091
3873.0,0.009
3872.0,0.009
3871.0,0.0091
3870.0,0.009
3869.0,0.0089
3868.0,0.0088
3867.0,0.0088
3866.0,0.0089
3865.0,0.009
3864.0,0.0091
3863.0,0.0092
3862.0,0.0092
3861.0,0.0092
3860.0,0.0092
3859.0,0.0092
3858.0,0.009
3857.0,0.0088
3856.0,0.0087
3855.0,0.0088
3854.0,0.0091
3853.0,0.0091
3852.0,0.009
3851.0,0.0091
3850.0,0.0093
3849.0,0.0094
3848.0,0.0094
3847.0,0.0093
3846.0,0.0093
3845.0,0.0093
3844.0,0.0092
3843.0,0.0091
3842.0,0.009
3841.0,0.009
3840.0,0.009
3839.0,0.009
3838.0,0.0089
3837.0,0.0088
3836.0,0.0088
3835.0,0.009
3834.0,0.0091
3833.0,0.0093
3832.0,0.0094
3831.0,0.0095
3830.0,0.0096
3829.0,0.0096
3828.0,0.0097
3827.0,0.0096
3826.0,0.0095
3825.0,0.0093
3824.0,0.0091
3823.0,0.0091
3822.0,0.0092
3821.0,0.0093
3820.0,0.0092
3819.0,0.0091
3818.0,0.009
3817.0,0.0091
3816.0,0.0091
3815.0,0.0093
3814.0,0.0095
3813.0,0.0097
3812.0,0.0098
3811.0,0.0097
3810.0,0.0096
3809.0,0.0096
3808.0,0.0096
3807.0,0.0096
3806.0,0.0095
3805.0,0.0093
3804.0,0.0093
3803.0,0.0092
3802.0,0.0092
3801.0,0.0091
3800.0,0.0091
3799.0,0.0092
3798.0,0.0093
3797.0,0.0094
3796.0,0.0095
3795.0,0.0095
3794.0,0.0097
3793.0,0.0098
3792.0,0.0099
3791.0,0.0099
3790.0,0.0099
3789.0,0.0099
3788.0,0.0098
3787.0,0.0098
3786.0,0.0098
3785.0,0.0098
3784.0,0.0097
3783.0,0.0097
3782.0,0.0096
3781.0,0.0096
3780.0,0.0096
3779.0,0.0097
3778.0,0.0098
3777.0,0.0099
3776.0,0.01
3775.0,0.01
3774.0,0.0099
3773.0,0.0098
3772.0,0.0098
3771.0,0.0097
3770.0,0.0097
3769.0,0.0097
3768.0,0.0097
3767.0,0.0097
3766.0,0.0097
3765.0,0.0097
3764.0,0.0097
3763.0,0.0098
3762.0,0.0098
3761.0,0.0098
3760.0,0.0097
3759.0,0.0096
3758.0,0.0095
3757.0,0.0094
3756.0,0.0093
3755.0,0.0093
3754.0,0.0092
3753.0,0.0092
3752.0,0.0093
3751.0,0.0094
3750.0,0.0094
3749.0,0.0094
3748.0,0.0095
3747.0,0.0096
3746.0,0.0097
3745.0,0.0096
3744.0,0.0095
3743.0,0.0094
3742.0,0.0094
3741.0,0.0094
3740.0,0.0092
3739.0,0.009
3738.0,0.0088
3737.0,0.0088
3736.0,0.0088
3735.0,0.0087
3734.0,0.0086
3733.0,0.0085
3732.0,0.0085
3731.0,0.0085
3730.0,0.0086
3729.0,0.0087
3728.0,0.0087
3727.0,0.0086
3726.0,0.0084
3725.0,0.0083
3724.0,0.0083
3723.0,0.0085
3722.0,0.0087
3721.0,0.009
3720.0,0.0092
3719.0,0.0094
3718.0,0.0096
3717.0,0.0097
3716.0,0.0097
3715.0,0.0097
3714.0,0.0095
3713.0,0.0094
3712.0,0.0093
3711.0,0.0092
3710.0,0.0092
3709.0,0.0091
3708.0,0.0092
3707.0,0.0092
3706.0,0.0092
3705.0,0.0092
3704.0,0.0091
3703.0,0.0091
3702.0,0.0091
3701.0,0.009
3700.0,0.0091
3699.0,0.0092
3698.0,0.0094
3697.0,0.0095
3696.0,0.0096
3695.0,0.0096
3694.0,0.0095
3693.0,0.0095
3692.0,0.0095
3691.0,0.0096
3690.0,0.0096
3689.0,0.0095
3688.0,0.0095
3687.0,0.0096
3686.0,0.0099
3685.0,0.01
3684.0,0.0101
3683.0,0.0101
3682.0,0.0101
3681.0,0.0101
3680.0,0.0101
3679.0,0.01
3678.0,0.0099
3677.0,0.0098
3676.0,0.0099
3675.0,0.0097
3674.0,0.0097
3673.0,0.0097
3672.0,0.0099
3671.0,0.01
3670.0,0.0102
3669.0,0.0103
3668.0,0.0104
3667.0,0.0106
3666.0,0.0107
3665.0,0.0108
3664.0,0.0108
3663.0,0.0108
3662.0,0.0108
3661.0,0.0108
3660.0,0.0108
3659.0,0.0107
3658.0,0.0107
3657.0,0.0107
3656.0,0.0107
3655.0,0.0106
3654.0,0.0104
3653.0,0.0103
3652.0,0.0101
3651.0,0.0101
3650.0,0.0102
3649.0,0.0103
3648.0,0.0103
3647.0,0.0103
3646.0,0.0105
3645.0,0.0107
3644.0,0.0109
3643.0,0.0111
3642.0,0.0112
3641.0,0.0112
3640.0,0.0112
3639.0,0.0112
3638.0,0.0111
3637.0,0.011
3636.0,0.011
3635.0,0.0109
3634.0,0.0108
3633.0,0.0106
3632.0,0.0105
3631.0,0.0104
3630.0,0.0107
3629.0,0.0109
3628.0,0.0108
3627.0,0.0108
3626.0,0.011
3625.0,0.0112
3624.0,0.0113
3623.0,0.0114
3622.0,0.0115
3621.0,0.0116
3620.0,0.0118
3619.0,0.0118
3618.0,0.0117
3617.0,0.0116
3616.0,0.0118
3615.0,0.012
3614.0,0.0122
3613.0,0.0123
3612.0,0.0123
3611.0,0.0122
3610.0,0.0121
3609.0,0.012
3608.0,0.0121
3607.0,0.0123
3606.0,0.0125
3605.0,0.0126
3604.0,0.0128
3603.0,0.0128
3602.0,0.0129
3601.0,0.0129
3600.0,0.0129
3599.0,0.0128
3598.0,0.0127
3597.0,0.0127
3596.0,0.0127
3595.0,0.0129
3594.0,0.0131
3593.0,0.0132
3592.0,0.0132
3591.0,0.0132
3590.0,0.0131
3589.0,0.0132
3588.0,0.0133
3587.0,0.0134
3586.0,0.0135
3585.0,0.0137
3584.0,0.0139
3583.0,0.0142
3582.0,0.0144
3581.0,0.0146
3580.0,0.0147
3579.0,0.0147
3578.0,0.0148
3577.0,0.0148
3576.0,0.0148
3575.0,0.0148
3574.0,0.0148
3573.0,0.0148
3572.0,0.0148
3571.0,0.0149
3570.0,0.0149
3569.0,0.0151
3568.0,0.0153
3567.0,0.0155
3566.0,0.0155
3565.0,0.0155
3564.0,0.0155
3563.0,0.0155
3562.0,0.0155
3561.0,0.0155
3560.0,0.0156
3559.0,0.0158
3558.0,0.0158
3557.0,0.0159
3556.0,0.0159
3555.0,0.0159
3554.0,0.016
3553.0,0.0162
3552.0,0.0163
3551.0,0.0163
3550.0,0.0164
3549.0,0.0163
3548.0,0.0163
3547.0,0.0164
3546.0,0.0165
3545.0,0.0166
3544.0,0.0167
3543.0,0.0168
3542.0,0.0169
3541.0,0.017
3540.0,0.0171
3539.0,0.0171
3538.0,0.0172
3537.0,0.0172
3536.0,0.0172
3535.0,0.0172
3534.0,0.0172
3533.0,0.0172
3532.0,0.0173
3531.0,0.0174
3530.0,0.0175
3529.0,0.0176
3528.0,0.0177
3527.0,0.0178
3526.0,0.0178
3525.0,0.0179
3524.0,0.0179
3523.0,0.018
3522.0,0.018
3521.0,0.018
3520.0,0.0181
3519.0,0.0183
3518.0,0.0184
3517.0,0.0185
3516.0,0.0186
3515.0,0.0186
3514.0,0.0186
3513.0,0.0186
3512.0,0.0186
3511.0,0.0186
3510.0,0.0186
3509.0,0.0187
3508.0,0.0187
3507.0,0.0187
3506.0,0.0188
3505.0,0.0189
3504.0,0.0191
3503.0,0.0192
3502.0,0.0193
3501.0,0.0194
3500.0,0.0195
3499.0,0.0195
3498.0,0.0195
3497.0,0.0195
3496.0,0.0196
3495.0,0.0196
3494.0,0.0197
3493.0,0.0199
3492.0,0.02
3491.0,0.0202
3490.0,0.0203
3489.0,0.0204
3488.0,0.0204
3487.0,0.0205
3486.0,0.0206
3485.0,0.0206
3484.0,0.0206
3483.0,0.0205
3482.0,0.0205
3481.0,0.0205
3480.0,0.0206
3479.0,0.0207
3478.0,0.0208
3477.0,0.0208
3476.0,0.0209
3475.0,0.0209
3474.0,0.021
3473.0,0.0212
3472.0,0.0213
3471.0,0.0213
3470.0,0.0213
3469.0,0.0214
3468.0,0.0214
3467.0,0.0214
3466.0,0.0215
3465.0,0.0217
3464.0,0.0218
3463.0,0.022
3462.0,0.0221
3461.0,0.0221
3460.0,0.0221
3459.0,0.0221
3458.0,0.0222
3457.0,0.0223
3456.0,0.0223
3455.0,0.0223
3454.0,0.0224
3453.0,0.0224
3452.0,0.0225
3451.0,0.0226
3450.0,0.0227
3449.0,0.0228
3448.0,0.0228
3447.0,0.0228
3446.0,0.0228
3445.0,0.0229
3444.0,0.023
3443.0,0.0231
3442.0,0.0231
3441.0,0.0231
3440.0,0.0231
3439.0,0.0231
3438.0,0.0232
3437.0,0.0234
3436.0,0.0235
3435.0,0.0236
3434.0,0.0237
3433.0,0.0238
3432.0,0.0238
3431.0,0.0237
3430.0,0.0237
3429.0,0.0238
3428.0,0.0238
3427.0,0.0238
3426.0,0.0238
3425.0,0.0239
3424.0,0.024
3423.0,0.0241
3422.0,0.0242
3421.0,0.0243
3420.0,0.0244
3419.0,0.0245
3418.0,0.0245
3417.0,0.0244
3416.0,0.0244
3415.0,0.0244
3414.0,0.0244
3413.0,0.0244
3412.0,0.0245
3411.0,0.0245
3410.0,0.0246
3409.0,0.0246
3408.0,0.0246
3407.0,0.0246
3406.0,0.0246
3405.0,0.0246
3404.0,0.0246
3403.0,0.0246
3402.0,0.0247
3401.0,0.0247
3400.0,0.0248
3399.0,0.0248
3398.0,0.0247
3397.0,0.0246
3396.0,0.0245
3395.0,0.0244
3394.0,0.0244
3393.0,0.0244
3392.0,0.0244
3391.0,0.0244
3390.0,0.0245
3389.0,0.0246
3388.0,0.0246
3387.0,0.0246
3386.0,0.0245
3385.0,0.0245
3384.0,0.0244
3383.0,0.0244
3382.0,0.0244
3381.0,0.0243
3380.0,0.0243
3379.0,0.0243
3378.0,0.0242
3377.0,0.0242
3376.0,0.0242
3375.0,0.0242
3374.0,0.0241
3373.0,0.024
3372.0,0.0239
3371.0,0.0238
3370.0,0.0237
3369.0,0.0237
3368.0,0.0237
3367.0,0.0236
3366.0,0.0236
3365.0,0.0235
3364.0,0.0235
3363.0,0.0236
3362.0,0.0236
3361.0,0.0236
3360.0,0.0236
3359.0,0.0235
3358.0,0.0235
3357.0,0.0234
3356.0,0.0233
3355.0,0.0233
3354.0,0.0233
3353.0,0.0233
3352.0,0.0233
3351.0,0.0233
3350.0,0.0233
3349.0,0.0232
3348.0,0.0231
3347.0,0.023
3346.0,0.0229
3345.0,0.0229
3344.0,0.0229
3343.0,0.0228
3342.0,0.0228
3341.0,0.0227
3340.0,0.0226
3339.0,0.0225
3338.0,0.0225
3337.0,0.0225
3336.0,0.0225
3335.0,0.0224
3334.0,0.0222
3333.0,0.0221
3332.0,0.022
3331.0,0.0219
3330.0,0.0219
3329.0,0.0219
3328.0,0.0219
3327.0,0.0218
3326.0,0.0217
3325.0,0.0216
3324.0,0.0216
3323.0,0.0216
3322.0,0.0216
3321.0,0.0216
3320.0,0.0215
3319.0,0.0215
3318.0,0.0214
3317.0,0.0214
3316.0,0.0213
3315.0,0.0212
3314.0,0.0211
3313.0,0.0211
3312.0,0.021
3311.0,0.021
3310.0,0.021
3309.0,0.021
3308.0,0.021
3307.0,0.021
3306.0,0.021
3305.0,0.021
3304.0,0.0209
3303.0,0.0208
3302.0,0.0208
3301.0,0.0207
3300.0,0.0207
3299.0,0.0206
3298.0,0.0205
3297.0,0.0204
3296.0,0.0204
3295.0,0.0204
3294.0,0.0204
3293.0,0.0204
3292.0,0.0203
3291.0,0.0202
3290.0,0.0202
3289.0,0.0201
3288.0,0.0202
3287.0,0.0202
3286.0,0.0202
3285.0,0.0202
3284.0,0.0201
3283.0,0.02
3282.0,0.0199
3281.0,0.0199
3280.0,0.0198
3279.0,0.0198
3278.0,0.0198
3277.0,0.0198
3276.0,0.0198
3275.0,0.0197
3274.0,0.0196
3273.0,0.0195
3272.0,0.0195
3271.0,0.0195
3270.0,0.0195
3269.0,0.0195
3268.0,0.0195
3267.0,0.0195
3266.0,0.0194
3265.0,0.0194
3264.0,0.0193
3263.0,0.0193
3262.0,0.0192
3261.0,0.0191
3260.0,0.019
3259.0,0.0189
3258.0,0.0188
3257.0,0.0188
3256.0,0.0188
3255.0,0.0189
3254.0,0.0189
3253.0,0.0189
3252.0,0.0189
3251.0,0.0188
3250.0,0.0187
3249.0,0.0187
3248.0,0.0187
3247.0,0.0187
3246.0,0.0187
3245.0,0.0186
3244.0,0.0185
3243.0,0.0184
3242.0,0.0183
3241.0,0.0183
3240.0,0.0183
3239.0,0.0182
3238.0,0.0182
3237.0,0.0182
3236.0,0.0182
3235.0,0.0182
3234.0,0.0181
3233.0,0.0181
3232.0,0.0181
3231.0,0.0181
3230.0,0.018
3229.0,0.018
3228.0,0.018
3227.0,0.0178
3226.0,0.0177
3225.0,0.0176
3224.0,0.0175
3223.0,0.0175
3222.0,0.0175
3221.0,0.0175
3220.0,0.0175
3219.0,0.0174
3218.0,0.0174
3217.0,0.0173
3216.0,0.0173
3215.0,0.0173
3214.0,0.0173
3213.0,0.0173
3212.0,0.0172
3211.0,0.0172
3210.0,0.0171
3209.0,0.0171
3208.0,0.0171
3207.0,0.017
3206.0,0.017
3205.0,0.0169
3204.0,0.0168
3203.0,0.0168
3202.0,0.0167
3201.0,0.0167
3200.0,0.0166
3199.0,0.0165
3198.0,0.0164
3197.0,0.0164
3196.0,0.0164
3195.0,0.0164
3194.0,0.0164
3193.0,0.0163
3192.0,0.0162
3191.0,0.0161
3190.0,0.0161
3189.0,0.016
3188.0,0.016
3187.0,0.0159
3186.0,0.0158
3185.0,0.0157
3184.0,0.0156
3183.0,0.0155
3182.0,0.0155
3181.0,0.0154
3180.0,0.0153
3179.0,0.0151
3178.0,0.015
3177.0,0.0149
3176.0,0.0149
3175.0,0.015
3174.0,0.015
3173.0,0.015
3172.0,0.0149
3171.0,0.0149
3170.0,0.0148
3169.0,0.0147
3168.0,0.0147
3167.0,0.0147
3166.0,0.0147
3165.0,0.0147
3164.0,0.0148
3163.0,0.0147
3162.0,0.0145
3161.0,0.0143
3160.0,0.0142
3159.0,0.0142
3158.0,0.0142
3157.0,0.0142
3156.0,0.0142
3155.0,0.0142
3154.0,0.0142
3153.0,0.0141
3152.0,0.014
3151.0,0.014
3150.0,0.0139
3149.0,0.0139
3148.0,0.0138
3147.0,0.0137
3146.0,0.0136
3145.0,0.0136
3144.0,0.0136
3143.0,0.0136
3142.0,0.0135
3141.0,0.0134
3140.0,0.0133
3139.0,0.0132
3138.0,0.0132
3137.0,0.0131
3136.0,0.0131
3135.0,0.0131
3134.0,0.013
3133.0,0.013
3132.0,0.0129
3131.0,0.0128
3130.0,0.0128
3129.0,0.0127
3128.0,0.0126
3127.0,0.0125
3126.0,0.0124
3125.0,0.0123
3124.0,0.0122
3123.0,0.0121
3122.0,0.0121
3121.0,0.0121
3120.0,0.012
3119.0,0.012
3118.0,0.0119
3117.0,0.0119
3116.0,0.0118
3115.0,0.0118
3114.0,0.0118
3113.0,0.0118
3112.0,0.0118
3111.0,0.0117
3110.0,0.0116
3109.0,0.0116
3108.0,0.0115
3107.0,0.0114
3106.0,0.0114
3105.0,0.0113
3104.0,0.0113
3103.0,0.0113
3102.0,0.0112
3101.0,0.0111
3100.0,0.011
3099.0,0.011
3098.0,0.0109
3097.0,0.0109
3096.0,0.0109
3095.0,0.0109
3094.0,0.0108
3093.0,0.0108
3092.0,0.0107
3091.0,0.0106
3090.0,0.0105
3089.0,0.0104
3088.0,0.0103
3087.0,0.0103
3086.0,0.0103
3085.0,0.0103
3084.0,0.0103
3083.0,0.0102
3082.0,0.0102
3081.0,0.0101
3080.0,0.0101
3079.0,0.0101
3078.0,0.01
3077.0,0.0099
3076.0,0.0098
3075.0,0.0096
3074.0,0.0095
3073.0,0.0094
3072.0,0.0094
3071.0,0.0094
3070.0,0.0094
3069.0,0.0093
3068.0,0.0093
3067.0,0.0092
3066.0,0.0091
3065.0,0.0091
3064.0,0.009
3063.0,0.009
3062.0,0.009
3061.0,0.0091
3060.0,0.0091
3059.0,0.0091
3058.0,0.0091
3057.0,0.009
3056.0,0.0089
3055.0,0.0087
3054.0,0.0086
3053.0,0.0085
3052.0,0.0084
3051.0,0.0083
3050.0,0.0082
3049.0,0.0082
3048.0,0.0081
3047.0,0.0081
3046.0,0.0081
3045.0,0.008
3044.0,0.0079
3043.0,0.0078
3042.0,0.0077
3041.0,0.0077
3040.0,0.0076
3039.0,0.0075
3038.0,0.0074
3037.0,0.0074
3036.0,0.0074
3035.0,0.0074
3034.0,0.0074
3033.0,0.0073
3032.0,0.0073
3031.0,0.0072
3030.0,0.0072
3029.0,0.0072
3028.0,0.0072
3027.0,0.0072
3026.0,0.0072
3025.0,0.0071
3024.0,0.0071
3023.0,0.007
3022.0,0.007
3021.0,0.007
3020.0,0.0069
3019.0,0.0068
3018.0,0.0067
3017.0,0.0066
3016.0,0.0066
3015.0,0.0065
3014.0,0.0065
3013.0,0.0064
3012.0,0.0063
3011.0,0.0063
3010.0,0.0062
3009.0,0.0062
3008.0,0.0061
3007.0,0.006
3006.0,0.006
3005.0,0.006
3004.0,0.006
3003.0,0.006
3002.0,0.006
3001.0,0.0061
3000.0,0.0061
2999.0,0.0061
2998.0,0.0062
2997.0,0.0062
2996.0,0.0063
2995.0,0.0064
2994.0,0.0065
2993.0,0.0067
2992.0,0.0068
2991.0,0.0071
2990.0,0.0074
2989.0,0.0077
2988.0,0.0082
2987.0,0.0087
2986.0,0.0093
2985.0,0.0099
2984.0,0.0106
2983.0,0.0115
2982.0,0.0125
2981.0,0.0137
2980.0,0.0151
2979.0,0.0168
2978.0,0.0188
2977.0,0.0211
2976.0,0.0237
2975.0,0.0266
2974.0,0.03
2973.0,0.0338
2972.0,0.0382
2971.0,0.0432
2970.0,0.0486
2969.0,0.0546
2968.0,0.0611
2967.0,0.068
2966.0,0.0753
2965.0,0.0825
2964.0,0.0895
2963.0,0.0957
2962.0,0.1007
2961.0,0.1044
2960.0,0.1068
2959.0,0.1085
2958.0,0.11
2957.0,0.1118
2956.0,0.1143
2955.0,0.1179
2954.0,0.1222
2953.0,0.1269
2952.0,0.131
2951.0,0.1337
2950.0,0.1342
2949.0,0.1322
2948.0,0.1277
2947.0,0.1212
2946.0,0.1135
2945.0,0.1054
2944.0,0.0977
2943.0,0.0909
2942.0,0.0854
2941.0,0.0814
2940.0,0.0788
2939.0,0.0776
2938.0,0.0777
2937.0,0.079
2936.0,0.0813
2935.0,0.0847
2934.0,0.089
2933.0,0.0943
2932.0,0.1003
2931.0,0.1071
2930.0,0.1142
2929.0,0.1217
2928.0,0.1292
2927.0,0.1366
2926.0,0.1438
2925.0,0.1509
2924.0,0.1581
2923.0,0.1652
2922.0,0.1722
2921.0,0.1788
2920.0,0.1845
2919.0,0.1886
2918.0,0.1904
2917.0,0.1895
2916.0,0.1863
2915.0,0.1812
2914.0,0.1752
2913.0,0.1689
2912.0,0.163
2911.0,0.1579
2910.0,0.1534
2909.0,0.1496
2908.0,0.1461
2907.0,0.1427
2906.0,0.1393
2905.0,0.1357
2904.0,0.1319
2903.0,0.128
2902.0,0.124
2901.0,0.1201
2900.0,0.1163
2899.0,0.1127
2898.0,0.1092
2897.0,0.106
2896.0,0.103
2895.0,0.1003
2894.0,0.098
2893.0,0.0962
2892.0,0.0948
2891.0,0.0937
2890.0,0.093
2889.0,0.0925
2888.0,0.0922
2887.0,0.0921
2886.0,0.0922
2885.0,0.0924
2884.0,0.0928
2883.0,0.0934
2882.0,0.0944
2881.0,0.0954
2880.0,0.0965
2879.0,0.0973
2878.0,0.0977
2877.0,0.0976
2876.0,0.0971
2875.0,0.0966
2874.0,0.0963
2873.0,0.0964
2872.0,0.097
2871.0,0.0981
2870.0,0.0994
2869.0,0.1007
2868.0,0.1016
2867.0,0.1016
2866.0,0.1002
2865.0,0.0975
2864.0,0.0935
2863.0,0.0888
2862.0,0.0842
2861.0,0.08
2860.0,0.0767
2859.0,0.0745
2858.0,0.0733
2857.0,0.0733
2856.0,0.0741
2855.0,0.0758
2854.0,0.0781
2853.0,0.0807
2852.0,0.0831
2851.0,0.0849
2850.0,0.0858
2849.0,0.0858
2848.0,0.0854
2847.0,0.0853
2846.0,0.0861
2845.0,0.0878
2844.0,0.0906
2843.0,0.0941
2842.0,0.0978
2841.0,0.1012
2840.0,0.1037
2839.0,0.1049
2838.0,0.1045
2837.0,0.1023
2836.0,0.0984
2835.0,0.0932
2834.0,0.0872
2833.0,0.0809
2832.0,0.075
2831.0,0.0698
2830.0,0.0653
2829.0,0.0614
2828.0,0.0582
2827.0,0.0555
2826.0,0.0532
2825.0,0.0512
2824.0,0.0496
2823.0,0.0482
2822.0,0.047
2821.0,0.0459
2820.0,0.0449
2819.0,0.044
2818.0,0.0431
2817.0,0.0423
2816.0,0.0416
2815.0,0.0409
2814.0,0.0404
2813.0,0.0398
2812.0,0.0393
2811.0,0.0387
2810.0,0.0382
2809.0,0.0377
2808.0,0.0372
2807.0,0.0367
2806.0,0.0361
2805.0,0.0355
2804.0,0.035
2803.0,0.0344
2802.0,0.0339
2801.0,0.0334
2800.0,0.0331
2799.0,0.0328
2798.0,0.0325
2797.0,0.0322
2796.0,0.032
2795.0,0.0317
2794.0,0.0315
2793.0,0.0311
2792.0,0.0308
2791.0,0.0304
2790.0,0.0301
2789.0,0.0297
2788.0,0.0294
2787.0,0.0291
2786.0,0.0288
2785.0,0.0285
2784.0,0.0283
2783.0,0.0279
2782.0,0.0276
2781.0,0.0273
2780.0,0.0271
2779.0,0.0269
2778.0,0.0268
2777.0,0.0266
2776.0,0.0264
2775.0,0.0262
2774.0,0.026
2773.0,0.0257
2772.0,0.0256
2771.0,0.0255
2770.0,0.0254
2769.0,0.0254
2768.0,0.0253
2767.0,0.0252
2766.0,0.0251
2765.0,0.025
2764.0,0.025
2763.0,0.0249
2762.0,0.0247
2761.0,0.0246
2760.0,0.0244
2759.0,0.0242
2758.0,0.0241
2757.0,0.024
2756.0,0.0239
2755.0,0.0239
2754.0,0.0239
2753.0,0.0238
2752.0,0.0238
2751.0,0.0236
2750.0,0.0236
2749.0,0.0235
2748.0,0.0235
2747.0,0.0235
2746.0,0.0235
2745.0,0.0234
2744.0,0.0233
2743.0,0.0233
2742.0,0.0233
2741.0,0.0234
2740.0,0.0235
2739.0,0.0235
2738.0,0.0236
2737.0,0.0237
2736.0,0.0238
2735.0,0.0239
2734.0,0.0239
2733.0,0.024
2732.0,0.024
2731.0,0.0241
2730.0,0.0242
2729.0,0.0244
2728.0,0.0246
2727.0,0.0249
2726.0,0.0251
2725.0,0.0253
2724.0,0.0254
2723.0,0.0255
2722.0,0.0254
2721.0,0.0252
2720.0,0.025
2719.0,0.0248
2718.0,0.0246
2717.0,0.0244
2716.0,0.0241
2715.0,0.0239
2714.0,0.0236
2713.0,0.0234
2712.0,0.0232
2711.0,0.023
2710.0,0.0229
2709.0,0.0227
2708.0,0.0226
2707.0,0.0225
2706.0,0.0224
2705.0,0.0223
2704.0,0.0222
2703.0,0.0221
2702.0,0.022
2701.0,0.0219
2700.0,0.0218
2699.0,0.0217
2698.0,0.0216
2697.0,0.0215
2696.0,0.0215
2695.0,0.0214
2694.0,0.0213
2693.0,0.0213
2692.0,0.0213
2691.0,0.0213
2690.0,0.0212
2689.0,0.0212
2688.0,0.0211
2687.0,0.0211
2686.0,0.0211
2685.0,0.0212
2684.0,0.0212
2683.0,0.0213
2682.0,0.0213
2681.0,0.0212
2680.0,0.0212
2679.0,0.0211
2678.0,0.0211
2677.0,0.021
2676.0,0.021
2675.0,0.021
2674.0,0.021
2673.0,0.021
2672.0,0.021
2671.0,0.0209
2670.0,0.0208
2669.0,0.0208
2668.0,0.0208
2667.0,0.0208
2666.0,0.0207
2665.0,0.0207
2664.0,0.0207
2663.0,0.0207
2662.0,0.0207
2661.0,0.0208
2660.0,0.0208
2659.0,0.0207
2658.0,0.0207
2657.0,0.0206
2656.0,0.0205
2655.0,0.0204
2654.0,0.0203
2653.0,0.0202
2652.0,0.0202
2651.0,0.0202
2650.0,0.0201
2649.0,0.0201
2648.0,0.02
2647.0,0.02
2646.0,0.02
2645.0,0.0199
2644.0,0.0198
2643.0,0.0198
2642.0,0.0197
2641.0,0.0196
2640.0,0.0195
2639.0,0.0195
2638.0,0.0195
2637.0,0.0196
2636.0,0.0195
2635.0,0.0195
2634.0,0.0195
2633.0,0.0195
2632.0,0.0195
2631.0,0.0195
2630.0,0.0194
2629.0,0.0194
2628.0,0.0194
2627.0,0.0194
2626.0,0.0194
2625.0,0.0195
2624.0,0.0195
2623.0,0.0195
2622.0,0.0195
2621.0,0.0195
2620.0,0.0195
2619.0,0.0195
2618.0,0.0194
2617.0,0.0194
2616.0,0.0194
2615.0,0.0194
2614.0,0.0194
2613.0,0.0194
2612.0,0.0194
2611.0,0.0194
2610.0,0.0193
2609.0,0.0193
2608.0,0.0192
2607.0,0.0191
2606.0,0.0189
2605.0,0.0188
2604.0,0.0188
2603.0,0.0187
2602.0,0.0188
2601.0,0.0188
2600.0,0.0188
2599.0,0.0187
2598.0,0.0187
2597.0,0.0187
2596.0,0.0187
2595.0,0.0187
2594.0,0.0187
2593.0,0.0188
2592.0,0.0188
2591.0,0.0189
2590.0,0.0189
2589.0,0.0189
2588.0,0.0189
2587.0,0.019
2586.0,0.0191
2585.0,0.0192
2584.0,0.0193
2583.0,0.0193
2582.0,0.0193
2581.0,0.0192
2580.0,0.0192
2579.0,0.0191
2578.0,0.019
2577.0,0.019
2576.0,0.0189
2575.0,0.0189
2574.0,0.0188
2573.0,0.0187
2572.0,0.0186
2571.0,0.0185
2570.0,0.0183
2569.0,0.0182
2568.0,0.0182
2567.0,0.0181
2566.0,0.0181
2565.0,0.0181
2564.0,0.018
2563.0,0.0179
2562.0,0.0179
2561.0,0.0178
2560.0,0.0178
2559.0,0.0179
2558.0,0.0179
2557.0,0.0179
2556.0,0.0178
2555.0,0.0178
2554.0,0.0178
2553.0,0.0178
2552.0,0.0178
2551.0,0.0178
2550.0,0.0177
2549.0,0.0176
2548.0,0.0175
2547.0,0.0174
2546.0,0.0174
2545.0,0.0174
2544.0,0.0174
2543.0,0.0174
2542.0,0.0174
2541.0,0.0174
2540.0,0.0173
2539.0,0.0173
2538.0,0.0172
2537.0,0.0172
2536.0,0.0172
2535.0,0.0171
2534.0,0.0171
2533.0,0.017
2532.0,0.0169
2531.0,0.0169
2530.0,0.0169
2529.0,0.0168
2528.0,0.0168
2527.0,0.0169
2526.0,0.0169
2525.0,0.0169
2524.0,0.0169
2523.0,0.0169
2522.0,0.0168
2521.0,0.0168
2520.0,0.0167
2519.0,0.0167
2518.0,0.0167
2517.0,0.0167
2516.0,0.0166
2515.0,0.0166
2514.0,0.0165
2513.0,0.0165
2512.0,0.0165
2511.0,0.0166
2510.0,0.0166
2509.0,0.0167
2508.0,0.0167
2507.0,0.0166
2506.0,0.0165
2505.0,0.0164
2504.0,0.0164
2503.0,0.0163
2502.0,0.0163
2501.0,0.0163
2500.0,0.0164
2499.0,0.0164
2498.0,0.0164
2497.0,0.0164
2496.0,0.0164
2495.0,0.0164
2494.0,0.0164
2493.0,0.0164
2492.0,0.0164
2491.0,0.0164
2490.0,0.0164
2489.0,0.0163
2488.0,0.0163
2487.0,0.0163
2486.0,0.0163
2485.0,0.0163
2484.0,0.0163
2483.0,0.0162
2482.0,0.0162
2481.0,0.0162
2480.0,0.0162
2479.0,0.0162
2478.0,0.0161
2477.0,0.0161
2476.0,0.0161
2475.0,0.016
2474.0,0.016
2473.0,0.0161
2472.0,0.0161
2471.0,0.0161
2470.0,0.0161
2469.0,0.016
2468.0,0.016
2467.0,0.016
2466.0,0.016
2465.0,0.016
2464.0,0.0159
2463.0,0.0159
2462.0,0.0159
2461.0,0.0159
2460.0,0.016
2459.0,0.016
2458.0,0.016
2457.0,0.016
2456.0,0.016
2455.0,0.016
2454.0,0.0161
2453.0,0.016
2452.0,0.016
2451.0,0.0159
2450.0,0.0158
2449.0,0.0158
2448.0,0.0158
2447.0,0.0159
2446.0,0.016
2445.0,0.016
2444.0,0.0161
2443.0,0.0161
2442.0,0.0161
2441.0,0.0161
2440.0,0.0161
2439.0,0.0161
2438.0,0.0161
2437.0,0.0161
2436.0,0.0161
2435.0,0.0161
2434.0,0.0161
2433.0,0.0161
2432.0,0.0161
2431.0,0.016
2430.0,0.016
2429.0,0.016
2428.0,0.016
2427.0,0.0161
2426.0,0.0161
2425.0,0.0162
2424.0,0.0162
2423.0,0.0162
2422.0,0.0161
2421.0,0.016
2420.0,0.016
2419.0,0.0159
2418.0,0.0159
2417.0,0.0159
2416.0,0.0158
2415.0,0.0158
2414.0,0.0158
2413.0,0.0158
2412.0,0.0159
2411.0,0.0159
2410.0,0.0159
2409.0,0.016
2408.0,0.016
2407.0,0.016
2406.0,0.016
2405.0,0.016
2404.0,0.016
2403.0,0.016
2402.0,0.0159
2401.0,0.016
2400.0,0.016
2399.0,0.016
2398.0,0.016
2397.0,0.016
2396.0,0.016
2395.0,0.016
2394.0,0.016
2393.0,0.016
2392.0,0.0159
2391.0,0.0159
2390.0,0.0159
2389.0,0.0158
2388.0,0.0158
2387.0,0.0156
2386.0,0.0154
2385.0,0.0152
2384.0,0.015
2383.0,0.0148
2382.0,0.0147
2381.0,0.0145
2380.0,0.0144
2379.0,0.0143
2378.0,0.0143
2377.0,0.0142
2376.0,0.0141
2375.0,0.014
2374.0,0.0139
2373.0,0.0138
2372.0,0.0135
2371.0,0.0127
2370.0,0.0114
2369.0,0.0101
2368.0,0.0095
2367.0,0.0099
2366.0,0.0109
2365.0,0.0121
2364.0,0.0134
2363.0,0.0152
2362.0,0.0173
2361.0,0.019
2360.0,0.0192
2359.0,0.0179
2358.0,0.0155
2357.0,0.0133
2356.0,0.0121
2355.0,0.0116
2354.0,0.0114
2353.0,0.0111
2352.0,0.011
2351.0,0.0113
2350.0,0.0116
2349.0,0.0115
2348.0,0.0107
2347.0,0.0094
2346.0,0.0083
2345.0,0.0081
2344.0,0.0087
2343.0,0.0092
2342.0,0.0094
2341.0,0.0095
2340.0,0.0096
2339.0,0.01
2338.0,0.0108
2337.0,0.0115
2336.0,0.0117
2335.0,0.0113
2334.0,0.011
2333.0,0.0111
2332.0,0.0114
2331.0,0.0118
2330.0,0.012
2329.0,0.0121
2328.0,0.0124
2327.0,0.0132
2326.0,0.0142
2325.0,0.0148
2324.0,0.015
2323.0,0.0148
2322.0,0.0147
2321.0,0.0147
2320.0,0.0148
2319.0,0.0149
2318.0,0.0151
2317.0,0.0152
2316.0,0.0151
2315.0,0.0147
2314.0,0.0142
2313.0,0.0138
2312.0,0.0137
2311.0,0.0137
2310.0,0.0137
2309.0,0.0138
2308.0,0.0138
2307.0,0.0138
2306.0,0.0138
2305.0,0.0138
2304.0,0.0139
2303.0,0.014
2302.0,0.0141
2301.0,0.0142
2300.0,0.0142
2299.0,0.0141
2298.0,0.014
2297.0,0.014
2296.0,0.014
2295.0,0.014
2294.0,0.0141
2293.0,0.0142
2292.0,0.0143
2291.0,0.0144
2290.0,0.0144
2289.0,0.0145
2288.0,0.0146
2287.0,0.0147
2286.0,0.0148
2285.0,0.0149
2284.0,0.0149
2283.0,0.0148
2282.0,0.0148
2281.0,0.0147
2280.0,0.0147
2279.0,0.0147
2278.0,0.0147
2277.0,0.0147
2276.0,0.0147
2275.0,0.0147
2274.0,0.0147
2273.0,0.0147
2272.0,0.0147
2271.0,0.0147
2270.0,0.0147
2269.0,0.0147
2268.0,0.0147
2267.0,0.0147
2266.0,0.0147
2265.0,0.0147
2264.0,0.0148
2263.0,0.0148
2262.0,0.0148
2261.0,0.0148
2260.0,0.0148
2259.0,0.0148
2258.0,0.0149
2257.0,0.0149
2256.0,0.015
2255.0,0.015
2254.0,0.015
2253.0,0.015
2252.0,0.015
2251.0,0.015
2250.0,0.015
2249.0,0.015
2248.0,0.0151
2247.0,0.0151
2246.0,0.0151
2245.0,0.0151
2244.0,0.0151
2243.0,0.0151
2242.0,0.0151
2241.0,0.0151
2240.0,0.015
2239.0,0.015
2238.0,0.015
2237.0,0.0149
2236.0,0.015
2235.0,0.015
2234.0,0.015
2233.0,0.015
2232.0,0.015
2231.0,0.015
2230.0,0.015
2229.0,0.015
2228.0,0.015
2227.0,0.015
2226.0,0.015
2225.0,0.015
2224.0,0.015
2223.0,0.015
2222.0,0.015
2221.0,0.015
2220.0,0.015
2219.0,0.015
2218.0,0.015
2217.0,0.0149
2216.0,0.0149
2215.0,0.0149
2214.0,0.0149
2213.0,0.0149
2212.0,0.0149
2211.0,0.0149
2210.0,0.0148
2209.0,0.0148
2208.0,0.0148
2207.0,0.0149
2206.0,0.0149
2205.0,0.015
2204.0,0.015
2203.0,0.015
2202.0,0.015
2201.0,0.015
2200.0,0.015
2199.0,0.015
2198.0,0.015
2197.0,0.0149
2196.0,0.0149
2195.0,0.0149
2194.0,0.0149
2193.0,0.015
2192.0,0.015
2191.0,0.015
2190.0,0.015
2189.0,0.015
2188.0,0.015
2187.0,0.015
2186.0,0.015
2185.0,0.0151
2184.0,0.0151
2183.0,0.0151
2182.0,0.0151
2181.0,0.015
2180.0,0.015
2179.0,0.015
2178.0,0.015
2177.0,0.0151
2176.0,0.0151
2175.0,0.0151
2174.0,0.015
2173.0,0.015
2172.0,0.015
2171.0,0.015
2170.0,0.0151
2169.0,0.0151
2168.0,0.0151
2167.0,0.0151
2166.0,0.0151
2165.0,0.015
2164.0,0.015
2163.0,0.015
2162.0,0.0149
2161.0,0.0149
2160.0,0.0149
2159.0,0.0149
2158.0,0.0149
2157.0,0.0149
2156.0,0.0149
2155.0,0.0149
2154.0,0.0149
2153.0,0.0149
2152.0,0.0149
2151.0,0.0148
2150.0,0.0148
2149.0,0.0148
2148.0,0.0148
2147.0,0.0148
2146.0,0.0148
2145.0,0.0148
2144.0,0.0148
2143.0,0.0148
2142.0,0.0148
2141.0,0.0148
2140.0,0.0148
2139.0,0.0148
2138.0,0.0148
2137.0,0.0148
2136.0,0.0148
2135.0,0.0148
2134.0,0.0148
2133.0,0.0148
2132.0,0.0148
2131.0,0.0148
2130.0,0.0148
2129.0,0.0148
2128.0,0.0148
2127.0,0.0148
2126.0,0.0148
2125.0,0.0147
2124.0,0.0147
2123.0,0.0147
2122.0,0.0147
2121.0,0.0147
2120.0,0.0147
2119.0,0.0147
2118.0,0.0147
2117.0,0.0147
2116.0,0.0147
2115.0,0.0147
2114.0,0.0147
2113.0,0.0147
2112.0,0.0147
2111.0,0.0146
2110.0,0.0146
2109.0,0.0146
2108.0,0.0146
2107.0,0.0147
2106.0,0.0148
2105.0,0.0148
2104.0,0.0147
2103.0,0.0147
2102.0,0.0146
2101.0,0.0146
2100.0,0.0145
2099.0,0.0145
2098.0,0.0146
2097.0,0.0146
2096.0,0.0146
2095.0,0.0146
2094.0,0.0146
2093.0,0.0146
2092.0,0.0146
2091.0,0.0146
2090.0,0.0146
2089.0,0.0146
2088.0,0.0146
2087.0,0.0146
2086.0,0.0146
2085.0,0.0146
2084.0,0.0145
2083.0,0.0145
2082.0,0.0145
2081.0,0.0145
2080.0,0.0146
2079.0,0.0146
2078.0,0.0146
2077.0,0.0146
2076.0,0.0146
2075.0,0.0146
2074.0,0.0146
2073.0,0.0146
2072.0,0.0146
2071.0,0.0146
2070.0,0.0145
2069.0,0.0145
2068.0,0.0145
2067.0,0.0145
2066.0,0.0146
2065.0,0.0146
2064.0,0.0146
2063.0,0.0146
2062.0,0.0146
2061.0,0.0146
2060.0,0.0146
2059.0,0.0146
2058.0,0.0147
2057.0,0.0147
2056.0,0.0147
2055.0,0.0146
2054.0,0.0146
2053.0,0.0146
2052.0,0.0146
2051.0,0.0146
2050.0,0.0146
2049.0,0.0146
2048.0,0.0145
2047.0,0.0145
2046.0,0.0145
2045.0,0.0145
2044.0,0.0145
2043.0,0.0145
2042.0,0.0145
2041.0,0.0146
2040.0,0.0146
2039.0,0.0146
2038.0,0.0146
2037.0,0.0146
2036.0,0.0146
2035.0,0.0145
2034.0,0.0145
2033.0,0.0145
2032.0,0.0146
2031.0,0.0146
2030.0,0.0146
2029.0,0.0146
2028.0,0.0146
2027.0,0.0146
2026.0,0.0146
2025.0,0.0146
2024.0,0.0146
2023.0,0.0146
2022.0,0.0146
2021.0,0.0146
2020.0,0.0147
2019.0,0.0147
2018.0,0.0147
2017.0,0.0147
2016.0,0.0147
2015.0,0.0146
2014.0,0.0145
2013.0,0.0145
2012.0,0.0145
2011.0,0.0145
2010.0,0.0145
2009.0,0.0146
2008.0,0.0146
2007.0,0.0146
2006.0,0.0146
2005.0,0.0146
2004.0,0.0146
2003.0,0.0146
2002.0,0.0145
2001.0,0.0145
2000.0,0.0145
1999.0,0.0145
1998.0,0.0146
1997.0,0.0146
1996.0,0.0145
1995.0,0.0145
1994.0,0.0145
1993.0,0.0145
1992.0,0.0146
1991.0,0.0146
1990.0,0.0146
1989.0,0.0146
1988.0,0.0146
1987.0,0.0146
1986.0,0.0146
1985.0,0.0146
1984.0,0.0146
1983.0,0.0146
1982.0,0.0146
1981.0,0.0145
1980.0,0.0145
1979.0,0.0145
1978.0,0.0145
1977.0,0.0145
1976.0,0.0145
1975.0,0.0145
1974.0,0.0145
1973.0,0.0145
1972.0,0.0145
1971.0,0.0145
1970.0,0.0145
1969.0,0.0145
1968.0,0.0146
1967.0,0.0146
1966.0,0.0146
1965.0,0.0146
1964.0,0.0146
1963.0,0.0146
1962.0,0.0145
1961.0,0.0145
1960.0,0.0145
1959.0,0.0145
1958.0,0.0145
1957.0,0.0145
1956.0,0.0145
1955.0,0.0145
1954.0,0.0145
1953.0,0.0145
1952.0,0.0145
1951.0,0.0146
1950.0,0.0146
1949.0,0.0146
1948.0,0.0146
1947.0,0.0146
1946.0,0.0146
1945.0,0.0145
1944.0,0.0145
1943.0,0.0146
1942.0,0.0146
1941.0,0.0146
1940.0,0.0147
1939.0,0.0147
1938.0,0.0147
1937.0,0.0147
1936.0,0.0147
1935.0,0.0147
1934.0,0.0147
1933.0,0.0146
1932.0,0.0146
1931.0,0.0146
1930.0,0.0146
1929.0,0.0146
1928.0,0.0146
1927.0,0.0146
1926.0,0.0147
1925.0,0.0147
1924.0,0.0147
1923.0,0.0147
1922.0,0.0147
1921.0,0.0147
1920.0,0.0147
1919.0,0.0147
1918.0,0.0147
1917.0,0.0147
1916.0,0.0147
1915.0,0.0147
1914.0,0.0147
1913.0,0.0147
1912.0,0.0147
1911.0,0.0147
1910.0,0.0147
1909.0,0.0147
1908.0,0.0147
1907.0,0.0147
1906.0,0.0148
1905.0,0.0148
1904.0,0.0148
1903.0,0.0148
1902.0,0.0148
1901.0,0.0148
1900.0,0.0147
1899.0,0.0147
1898.0,0.0147
1897.0,0.0147
1896.0,0.0147
1895.0,0.0147
1894.0,0.0147
1893.0,0.0147
1892.0,0.0148
1891.0,0.0148
1890.0,0.0147
1889.0,0.0147
1888.0,0.0147
1887.0,0.0147
1886.0,0.0148
1885.0,0.0148
1884.0,0.0148
1883.0,0.0147
1882.0,0.0146
1881.0,0.0146
1880.0,0.0145
1879.0,0.0146
1878.0,0.0146
1877.0,0.0147
1876.0,0.0147
1875.0,0.0147
1874.0,0.0148
1873.0,0.0148
1872.0,0.0148
1871.0,0.0147
1870.0,0.0147
1869.0,0.0148
1868.0,0.0148
1867.0,0.0147
1866.0,0.0147
1865.0,0.0147
1864.0,0.0147
1863.0,0.0147
1862.0,0.0147
1861.0,0.0147
1860.0,0.0147
1859.0,0.0147
1858.0,0.0147
1857.0,0.0147
1856.0,0.0148
1855.0,0.0147
1854.0,0.0147
1853.0,0.0147
1852.0,0.0147
1851.0,0.0147
1850.0,0.0147
1849.0,0.0148
1848.0,0.0148
1847.0,0.0148
1846.0,0.0149
1845.0,0.0149
1844.0,0.0149
1843.0,0.0149
1842.0,0.0148
1841.0,0.0148
1840.0,0.0148
1839.0,0.0148
1838.0,0.0148
1837.0,0.0148
1836.0,0.0148
1835.0,0.0148
1834.0,0.0148
1833.0,0.0148
1832.0,0.0148
1831.0,0.0148
1830.0,0.0148
1829.0,0.0148
1828.0,0.0148
1827.0,0.0149
1826.0,0.0148
1825.0,0.0148
1824.0,0.0148
1823.0,0.0147
1822.0,0.0147
1821.0,0.0147
1820.0,0.0148
1819.0,0.0148
1818.0,0.0148
1817.0,0.0147
1816.0,0.0146
1815.0,0.0146
1814.0,0.0146
1813.0,0.0146
1812.0,0.0147
1811.0,0.0147
1810.0,0.0147
1809.0,0.0147
1808.0,0.0147
1807.0,0.0147
1806.0,0.0147
1805.0,0.0148
1804.0,0.0148
1803.0,0.0148
1802.0,0.0149
1801.0,0.0149
1800.0,0.0149
1799.0,0.0149
1798.0,0.0148
1797.0,0.0149
1796.0,0.0149
1795.0,0.015
1794.0,0.015
1793.0,0.0151
1792.0,0.0151
1791.0,0.015
1790.0,0.015
1789.0,0.015
1788.0,0.0149
1787.0,0.0149
1786.0,0.0149
1785.0,0.015
1784.0,0.0151
1783.0,0.0151
1782.0,0.0151
1781.0,0.015
1780.0,0.015
1779.0,0.015
1778.0,0.015
1777.0,0.015
1776.0,0.0151
1775.0,0.0151
1774.0,0.0152
1773.0,0.0153
1772.0,0.0154
1771.0,0.0153
1770.0,0.0153
1769.0,0.0153
1768.0,0.0154
1767.0,0.0154
1766.0,0.0153
1765.0,0.0153
1764.0,0.0153
1763.0,0.0153
1762.0,0.0154
1761.0,0.0155
1760.0,0.0155
1759.0,0.0156
1758.0,0.0157
1757.0,0.0159
1756.0,0.016
1755.0,0.0162
1754.0,0.0163
1753.0,0.0164
1752.0,0.0167
1751.0,0.017
1750.0,0.0173
1749.0,0.0175
1748.0,0.0177
1747.0,0.0179
1746.0,0.018
1745.0,0.0181
1744.0,0.0183
1743.0,0.0184
1742.0,0.0184
1741.0,0.0185
1740.0,0.0186
1739.0,0.0186
1738.0,0.0186
1737.0,0.0186
1736.0,0.0186
1735.0,0.0186
1734.0,0.0185
1733.0,0.0184
1732.0,0.0182
1731.0,0.0181
1730.0,0.018
1729.0,0.0179
1728.0,0.0179
1727.0,0.0178
1726.0,0.0177
1725.0,0.0177
1724.0,0.0177
1723.0,0.0177
1722.0,0.0177
1721.0,0.0177
1720.0,0.0177
1719.0,0.0176
1718.0,0.0177
1717.0,0.0178
1716.0,0.0178
1715.0,0.0177
1714.0,0.0177
1713.0,0.0176
1712.0,0.0176
1711.0,0.0176
1710.0,0.0176
1709.0,0.0176
1708.0,0.0176
1707.0,0.0176
1706.0,0.0177
1705.0,0.0178
1704.0,0.018
1703.0,0.0181
1702.0,0.0182
1701.0,0.0183
1700.0,0.0185
1699.0,0.0185
1698.0,0.0185
1697.0,0.0185
1696.0,0.0185
1695.0,0.0184
1694.0,0.0183
1693.0,0.0184
1692.0,0.0184
1691.0,0.0184
1690.0,0.0184
1689.0,0.0185
1688.0,0.0187
1687.0,0.0187
1686.0,0.0187
1685.0,0.0188
1684.0,0.019
1683.0,0.0191
1682.0,0.0192
1681.0,0.0193
1680.0,0.0194
1679.0,0.0195
1678.0,0.0195
1677.0,0.0195
1676.0,0.0197
1675.0,0.0198
1674.0,0.0199
1673.0,0.0199
1672.0,0.02
1671.0,0.0201
1670.0,0.0202
1669.0,0.0203
1668.0,0.0204
1667.0,0.0204
1666.0,0.0204
1665.0,0.0204
1664.0,0.0205
1663.0,0.0207
1662.0,0.0208
1661.0,0.0209
1660.0,0.021
1659.0,0.021
1658.0,0.021
1657.0,0.021
1656.0,0.021
1655.0,0.021
1654.0,0.0212
1653.0,0.0215
1652.0,0.0215
1651.0,0.0215
1650.0,0.0216
1649.0,0.0215
1648.0,0.0217
1647.0,0.0219
1646.0,0.0221
1645.0,0.0221
1644.0,0.0222
1643.0,0.0222
1642.0,0.0223
1641.0,0.0223
1640.0,0.0224
1639.0,0.0223
1638.0,0.0222
1637.0,0.0221
1636.0,0.0219
1635.0,0.0217
1634.0,0.0216
1633.0,0.0215
1632.0,0.0213
1631.0,0.0211
1630.0,0.0209
1629.0,0.0208
1628.0,0.0207
1627.0,0.0206
1626.0,0.0206
1625.0,0.0205
1624.0,0.0205
1623.0,0.0204
1622.0,0.0203
1621.0,0.0203
1620.0,0.0203
1619.0,0.0202
1618.0,0.0201
1617.0,0.0201
1616.0,0.02
1615.0,0.0199
1614.0,0.0199
1613.0,0.0199
1612.0,0.0199
1611.0,0.0199
1610.0,0.0199
1609.0,0.0199
1608.0,0.0199
1607.0,0.0198
1606.0,0.0199
1605.0,0.0199
1604.0,0.0201
1603.0,0.0203
1602.0,0.0204
1601.0,0.0204
1600.0,0.0203
1599.0,0.0202
1598.0,0.0201
1597.0,0.02
1596.0,0.02
1595.0,0.0199
1594.0,0.0199
1593.0,0.0198
1592.0,0.0198
1591.0,0.0198
1590.0,0.0198
1589.0,0.0198
1588.0,0.0198
1587.0,0.0199
1586.0,0.02
1585.0,0.02
1584.0,0.0201
1583.0,0.0202
1582.0,0.0202
1581.0,0.0201
1580.0,0.0201
1579.0,0.0201
1578.0,0.0201
1577.0,0.0201
1576.0,0.0201
1575.0,0.0201
1574.0,0.02
1573.0,0.02
1572.0,0.0199
1571.0,0.0198
1570.0,0.0197
1569.0,0.0196
1568.0,0.0196
1567.0,0.0196
1566.0,0.0195
1565.0,0.0194
1564.0,0.0193
1563.0,0.0193
1562.0,0.0192
1561.0,0.0189
1560.0,0.0187
1559.0,0.0187
1558.0,0.0187
1557.0,0.0188
1556.0,0.0189
1555.0,0.0188
1554.0,0.0187
1553.0,0.0185
1552.0,0.0185
1551.0,0.0184
1550.0,0.0182
1549.0,0.0182
1548.0,0.0181
1547.0,0.0181
1546.0,0.018
1545.0,0.0179
1544.0,0.018
1543.0,0.018
1542.0,0.0179
1541.0,0.018
1540.0,0.0179
1539.0,0.0175
1538.0,0.0173
1537.0,0.0172
1536.0,0.0172
1535.0,0.017
1534.0,0.0168
1533.0,0.0167
1532.0,0.0166
1531.0,0.0165
1530.0,0.0164
1529.0,0.0164
1528.0,0.0164
1527.0,0.0163
1526.0,0.0163
1525.0,0.0162
1524.0,0.0162
1523.0,0.016
1522.0,0.0159
1521.0,0.0159
1520.0,0.016
1519.0,0.0159
1518.0,0.0159
1517.0,0.0159
1516.0,0.016
1515.0,0.016
1514.0,0.016
1513.0,0.016
1512.0,0.0161
1511.0,0.016
1510.0,0.016
1509.0,0.016
1508.0,0.0162
1507.0,0.0163
1506.0,0.016
1505.0,0.016
1504.0,0.0161
1503.0,0.016
1502.0,0.016
1501.0,0.0161
1500.0,0.0163
1499.0,0.0164
1498.0,0.0167
1497.0,0.0172
1496.0,0.0178
1495.0,0.0182
1494.0,0.0185
1493.0,0.0187
1492.0,0.0188
1491.0,0.0186
1490.0,0.0184
1489.0,0.0183
1488.0,0.0184
1487.0,0.0184
1486.0,0.0184
1485.0,0.0186
1484.0,0.0189
1483.0,0.0191
1482.0,0.0195
1481.0,0.0201
1480.0,0.0209
1479.0,0.0216
1478.0,0.0225
1477.0,0.0242
1476.0,0.0266
1475.0,0.0293
1474.0,0.0331
1473.0,0.0384
1472.0,0.0438
1471.0,0.0479
1470.0,0.0516
1469.0,0.0556
1468.0,0.0601
1467.0,0.0653
1466.0,0.0719
1465.0,0.0798
1464.0,0.0867
1463.0,0.0909
1462.0,0.0932
1461.0,0.0947
1460.0,0.0957
1459.0,0.0966
1458.0,0.0985
1457.0,0.1014
1456.0,0.1031
1455.0,0.1034
1454.0,0.1034
1453.0,0.1032
1452.0,0.1023
1451.0,0.1008
1450.0,0.0983
1449.0,0.0943
1448.0,0.0888
1447.0,0.0826
1446.0,0.0771
1445.0,0.0722
1444.0,0.0677
1443.0,0.0638
1442.0,0.0608
1441.0,0.0585
1440.0,0.057
1439.0,0.0561
1438.0,0.056
1437.0,0.0563
1436.0,0.0559
1435.0,0.0544
1434.0,0.052
1433.0,0.0489
1432.0,0.0456
1431.0,0.0426
1430.0,0.0401
1429.0,0.0382
1428.0,0.0368
1427.0,0.0358
1426.0,0.035
1425.0,0.0342
1424.0,0.0335
1423.0,0.033
1422.0,0.0326
1421.0,0.0322
1420.0,0.0317
1419.0,0.0315
1418.0,0.0313
1417.0,0.031
1416.0,0.0305
1415.0,0.03
1414.0,0.0296
1413.0,0.0292
1412.0,0.0289
1411.0,0.0286
1410.0,0.0284
1409.0,0.028
1408.0,0.0276
1407.0,0.0273
1406.0,0.0271
1405.0,0.0268
1404.0,0.0264
1403.0,0.0262
1402.0,0.026
1401.0,0.0258
1400.0,0.0255
1399.0,0.0254
1398.0,0.0253
1397.0,0.0251
1396.0,0.0248
1395.0,0.0247
1394.0,0.0248
1393.0,0.0247
1392.0,0.0246
1391.0,0.0247
1390.0,0.0249
1389.0,0.0253
1388.0,0.0261
1387.0,0.0278
1386.0,0.0302
1385.0,0.0336
1384.0,0.0386
1383.0,0.0459
1382.0,0.0559
1381.0,0.0689
1380.0,0.0851
1379.0,0.1039
1378.0,0.1221
1377.0,0.1357
1376.0,0.1415
1375.0,0.1371
1374.0,0.1241
1373.0,0.1085
1372.0,0.0944
1371.0,0.0825
1370.0,0.0722
1369.0,0.0637
1368.0,0.0576
1367.0,0.0536
1366.0,0.0512
1365.0,0.05
1364.0,0.0498
1363.0,0.0506
1362.0,0.0521
1361.0,0.0536
1360.0,0.0548
1359.0,0.0551
1358.0,0.0544
1357.0,0.0527
1356.0,0.0504
1355.0,0.0477
1354.0,0.045
1353.0,0.0426
1352.0,0.0407
1351.0,0.039
1350.0,0.0377
1349.0,0.0365
1348.0,0.0356
1347.0,0.0347
1346.0,0.0339
1345.0,0.0332
1344.0,0.0326
1343.0,0.0321
1342.0,0.0316
1341.0,0.0312
1340.0,0.031
1339.0,0.0308
1338.0,0.0307
1337.0,0.0305
1336.0,0.0304
1335.0,0.0304
1334.0,0.0306
1333.0,0.0308
1332.0,0.0311
1331.0,0.0313
1330.0,0.0314
1329.0,0.0313
1328.0,0.0311
1327.0,0.0308
1326.0,0.0304
1325.0,0.03
1324.0,0.0296
1323.0,0.0292
1322.0,0.0288
1321.0,0.0285
1320.0,0.0283
1319.0,0.0281
1318.0,0.0279
1317.0,0.0277
1316.0,0.0275
1315.0,0.0274
1314.0,0.0273
1313.0,0.0273
1312.0,0.0273
1311.0,0.0273
1310.0,0.0275
1309.0,0.0278
1308.0,0.0285
1307.0,0.0293
1306.0,0.0302
1305.0,0.0309
1304.0,0.0311
1303.0,0.031
1302.0,0.0306
1301.0,0.0303
1300.0,0.03
1299.0,0.03
1298.0,0.03
1297.0,0.0301
1296.0,0.03
1295.0,0.0298
1294.0,0.0295
1293.0,0.0292
1292.0,0.0288
1291.0,0.0285
1290.0,0.0282
1289.0,0.0279
1288.0,0.0277
1287.0,0.0276
1286.0,0.0273
1285.0,0.0271
1284.0,0.027
1283.0,0.0268
1282.0,0.0267
1281.0,0.0266
1280.0,0.0264
1279.0,0.0264
1278.0,0.0263
1277.0,0.0263
1276.0,0.0262
1275.0,0.0262
1274.0,0.0261
1273.0,0.0262
1272.0,0.0262
1271.0,0.0262
1270.0,0.0263
1269.0,0.0263
1268.0,0.0264
1267.0,0.0265
1266.0,0.0266
1265.0,0.0267
1264.0,0.0268
1263.0,0.027
1262.0,0.0272
1261.0,0.0276
1260.0,0.028
1259.0,0.0286
1258.0,0.0292
1257.0,0.0298
1256.0,0.0301
1255.0,0.0301
1254.0,0.0297
1253.0,0.0291
1252.0,0.0285
1251.0,0.028
1250.0,0.0276
1249.0,0.0273
1248.0,0.027
1247.0,0.0268
1246.0,0.0266
1245.0,0.0264
1244.0,0.0263
1243.0,0.0262
1242.0,0.0261
1241.0,0.0261
1240.0,0.026
1239.0,0.026
1238.0,0.0259
1237.0,0.0259
1236.0,0.0259
1235.0,0.0258
1234.0,0.0257
1233.0,0.0256
1232.0,0.0255
1231.0,0.0255
1230.0,0.0254
1229.0,0.0254
1228.0,0.0255
1227.0,0.0256
1226.0,0.0257
1225.0,0.0259
1224.0,0.0261
1223.0,0.0263
1222.0,0.0265
1221.0,0.0267
1220.0,0.0268
1219.0,0.0269
1218.0,0.0269
1217.0,0.0269
1216.0,0.0267
1215.0,0.0265
1214.0,0.0263
1213.0,0.0261
1212.0,0.0258
1211.0,0.0257
1210.0,0.0255
1209.0,0.0255
1208.0,0.0255
1207.0,0.0254
1206.0,0.0254
1205.0,0.0254
1204.0,0.0254
1203.0,0.0255
1202.0,0.0255
1201.0,0.0256
1200.0,0.0257
1199.0,0.0257
1198.0,0.0258
1197.0,0.0258
1196.0,0.0257
1195.0,0.0257
1194.0,0.0256
1193.0,0.0256
1192.0,0.0256
1191.0,0.0257
1190.0,0.0257
1189.0,0.0258
1188.0,0.0259
1187.0,0.0261
1186.0,0.0263
1185.0,0.0265
1184.0,0.0268
1183.0,0.027
1182.0,0.0272
1181.0,0.0274
1180.0,0.0276
1179.0,0.0279
1178.0,0.0283
1177.0,0.0289
1176.0,0.0297
1175.0,0.0308
1174.0,0.0323
1173.0,0.0342
1172.0,0.0366
1171.0,0.0393
1170.0,0.0419
1169.0,0.0442
1168.0,0.0457
1167.0,0.0462
1166.0,0.0458
1165.0,0.0448
1164.0,0.0435
1163.0,0.0423
1162.0,0.0411
1161.0,0.0402
1160.0,0.0394
1159.0,0.0389
1158.0,0.0384
1157.0,0.0381
1156.0,0.0379
1155.0,0.0378
1154.0,0.0378
1153.0,0.0377
1152.0,0.0374
1151.0,0.037
1150.0,0.0364
1149.0,0.0358
1148.0,0.0351
1147.0,0.0345
1146.0,0.0339
1145.0,0.0333
1144.0,0.0328
1143.0,0.0324
1142.0,0.0321
1141.0,0.0317
1140.0,0.0314
1139.0,0.031
1138.0,0.0307
1137.0,0.0305
1136.0,0.0303
1135.0,0.0302
1134.0,0.0301
1133.0,0.0301
1132.0,0.03
1131.0,0.03
1130.0,0.0299
1129.0,0.0298
1128.0,0.0298
1127.0,0.0297
1126.0,0.0297
1125.0,0.0297
1124.0,0.0297
1123.0,0.0297
1122.0,0.0297
1121.0,0.0297
1120.0,0.0297
1119.0,0.0297
1118.0,0.0297
1117.0,0.0297
1116.0,0.0297
1115.0,0.0297
1114.0,0.0297
1113.0,0.0298
1112.0,0.0298
1111.0,0.0299
1110.0,0.03
1109.0,0.0303
1108.0,0.0306
1107.0,0.031
1106.0,0.0315
1105.0,0.032
1104.0,0.0324
1103.0,0.0327
1102.0,0.0328
1101.0,0.0326
1100.0,0.0322
1099.0,0.0317
1098.0,0.0312
1097.0,0.0307
1096.0,0.0302
1095.0,0.0299
1094.0,0.0297
1093.0,0.0295
1092.0,0.0293
1091.0,0.0291
1090.0,0.0289
1089.0,0.0287
1088.0,0.0286
1087.0,0.0285
1086.0,0.0284
1085.0,0.0283
1084.0,0.0282
1083.0,0.0281
1082.0,0.028
1081.0,0.0278
1080.0,0.0276
1079.0,0.0275
1078.0,0.0274
1077.0,0.0273
1076.0,0.0272
1075.0,0.0272
1074.0,0.0271
1073.0,0.0271
1072.0,0.027
1071.0,0.0269
1070.0,0.0268
1069.0,0.0267
1068.0,0.0266
1067.0,0.0266
1066.0,0.0265
1065.0,0.0265
1064.0,0.0264
1063.0,0.0264
1062.0,0.0263
1061.0,0.0263
1060.0,0.0263
1059.0,0.0263
1058.0,0.0263
1057.0,0.0263
1056.0,0.0263
1055.0,0.0263
1054.0,0.0263
1053.0,0.0265
1052.0,0.0267
1051.0,0.027
1050.0,0.0274
1049.0,0.0276
1048.0,0.0279
1047.0,0.0281
1046.0,0.0282
1045.0,0.0283
1044.0,0.0283
1043.0,0.0281
1042.0,0.0277
1041.0,0.0274
1040.0,0.0271
1039.0,0.0269
1038.0,0.0268
1037.0,0.0266
1036.0,0.0265
1035.0,0.0264
1034.0,0.0263
1033.0,0.0262
1032.0,0.0262
1031.0,0.0262
1030.0,0.0262
1029.0,0.0263
1028.0,0.0263
1027.0,0.0263
1026.0,0.0262
1025.0,0.0262
1024.0,0.0261
1023.0,0.0262
1022.0,0.0262
1021.0,0.0263
1020.0,0.0264
1019.0,0.0265
1018.0,0.0265
1017.0,0.0265
1016.0,0.0265
1015.0,0.0265
1014.0,0.0264
1013.0,0.0263
1012.0,0.0262
1011.0,0.0262
1010.0,0.0263
1009.0,0.0264
1008.0,0.0267
1007.0,0.0271
1006.0,0.0276
1005.0,0.0285
1004.0,0.0297
1003.0,0.0314
1002.0,0.0339
1001.0,0.037
1000.0,0.0405
999.0,0.0435
998.0,0.0454
997.0,0.0454
996.0,0.0437
995.0,0.0409
994.0,0.038
993.0,0.0354
992.0,0.0333
991.0,0.0317
990.0,0.0305
989.0,0.0295
988.0,0.0288
987.0,0.0283
986.0,0.0281
985.0,0.028
984.0,0.0281
983.0,0.0284
982.0,0.029
981.0,0.0301
980.0,0.0318
979.0,0.034
978.0,0.0369
977.0,0.0403
976.0,0.0439
975.0,0.0476
974.0,0.0505
973.0,0.052
972.0,0.0516
971.0,0.0493
970.0,0.0459
969.0,0.0422
968.0,0.039
967.0,0.0365
966.0,0.0346
965.0,0.0332
964.0,0.0322
963.0,0.0313
962.0,0.0306
961.0,0.03
960.0,0.0295
959.0,0.0291
958.0,0.0287
957.0,0.0284
956.0,0.0281
955.0,0.0279
954.0,0.0277
953.0,0.0275
952.0,0.0274
951.0,0.0273
950.0,0.0272
949.0,0.027
948.0,0.0269
947.0,0.0269
946.0,0.0269
945.0,0.0271
944.0,0.0274
943.0,0.0277
942.0,0.028
941.0,0.0282
940.0,0.0282
939.0,0.028
938.0,0.0277
937.0,0.0273
936.0,0.0269
935.0,0.0265
934.0,0.0262
933.0,0.0259
932.0,0.0258
931.0,0.0256
930.0,0.0255
929.0,0.0253
928.0,0.0252
927.0,0.0252
926.0,0.0252
925.0,0.0252
924.0,0.0252
923.0,0.0252
922.0,0.0252
921.0,0.0252
920.0,0.0252
919.0,0.0252
918.0,0.0252
917.0,0.0252
916.0,0.0253
915.0,0.0254
914.0,0.0255
913.0,0.0256
912.0,0.0257
911.0,0.0258
910.0,0.0259
909.0,0.0261
908.0,0.0263
907.0,0.0267
906.0,0.0272
905.0,0.0279
904.0,0.0289
903.0,0.0302
902.0,0.0317
901.0,0.0333
900.0,0.0345
899.0,0.0351
898.0,0.0348
897.0,0.0339
896.0,0.0326
895.0,0.0313
894.0,0.0301
893.0,0.0292
892.0,0.0286
891.0,0.0282
890.0,0.0279
889.0,0.0276
888.0,0.0274
887.0,0.0274
886.0,0.0273
885.0,0.0273
884.0,0.0272
883.0,0.0271
882.0,0.0271
881.0,0.0271
880.0,0.0274
879.0,0.0278
878.0,0.0283
877.0,0.0286
876.0,0.0287
875.0,0.0286
874.0,0.0284
873.0,0.0281
872.0,0.0277
871.0,0.0274
870.0,0.0273
869.0,0.0272
868.0,0.0272
867.0,0.0272
866.0,0.0271
865.0,0.027
864.0,0.027
863.0,0.0269
862.0,0.027
861.0,0.027
860.0,0.027
859.0,0.027
858.0,0.0271
857.0,0.0272
856.0,0.0272
855.0,0.0273
854.0,0.0274
853.0,0.0276
852.0,0.028
851.0,0.0283
850.0,0.0287
849.0,0.029
848.0,0.0295
847.0,0.0303
846.0,0.0316
845.0,0.0339
844.0,0.0374
843.0,0.0416
842.0,0.0453
841.0,0.0469
840.0,0.0458
839.0,0.0428
838.0,0.0393
837.0,0.0363
836.0,0.0344
835.0,0.0331
834.0,0.0323
833.0,0.0317
832.0,0.0313
831.0,0.0309
830.0,0.0306
829.0,0.0303
828.0,0.0301
827.0,0.03
826.0,0.0298
825.0,0.0296
824.0,0.0295
823.0,0.0294
822.0,0.0293
821.0,0.0294
820.0,0.0295
819.0,0.0297
818.0,0.03
817.0,0.0303
816.0,0.0307
815.0,0.0314
814.0,0.0325
813.0,0.0339
812.0,0.0355
811.0,0.0368
810.0,0.0378
809.0,0.0384
808.0,0.0384
807.0,0.0379
806.0,0.0369
805.0,0.0358
804.0,0.0346
803.0,0.0337
802.0,0.033
801.0,0.0325
800.0,0.0322
799.0,0.032
798.0,0.0317
797.0,0.0314
796.0,0.0311
795.0,0.0308
794.0,0.0306
793.0,0.0304
792.0,0.0303
791.0,0.0301
790.0,0.03
789.0,0.03
788.0,0.03
787.0,0.03
786.0,0.0299
785.0,0.0297
784.0,0.0296
783.0,0.0294
782.0,0.0293
781.0,0.0294
780.0,0.0294
779.0,0.0296
778.0,0.0297
777.0,0.0298
776.0,0.0299
775.0,0.03
774.0,0.0302
773.0,0.0305
772.0,0.0307
771.0,0.0309
770.0,0.031
769.0,0.031
768.0,0.0312
767.0,0.0313
766.0,0.0315
765.0,0.0318
764.0,0.0321
763.0,0.0324
762.0,0.0326
761.0,0.0328
760.0,0.033
759.0,0.0332
758.0,0.0334
757.0,0.0335
756.0,0.0337
755.0,0.0338
754.0,0.0339
753.0,0.0339
752.0,0.0339
751.0,0.0338
750.0,0.0336
749.0,0.0336
748.0,0.0339
747.0,0.0343
746.0,0.0345
745.0,0.0345
744.0,0.0344
743.0,0.0343
742.0,0.0343
741.0,0.0343
740.0,0.0343
739.0,0.0343
738.0,0.0344
737.0,0.0345
736.0,0.0347
735.0,0.0352
734.0,0.0361
733.0,0.0376
732.0,0.0394
731.0,0.0409
730.0,0.0416
729.0,0.0415
728.0,0.0408
727.0,0.0401
726.0,0.0396
725.0,0.0395
724.0,0.0398
723.0,0.0404
722.0,0.0412
721.0,0.0421
720.0,0.0427
719.0,0.0427
718.0,0.042
717.0,0.0411
716.0,0.0404
715.0,0.0399
714.0,0.0395
713.0,0.0391
712.0,0.0386
711.0,0.0381
710.0,0.0379
709.0,0.0381
708.0,0.0386
707.0,0.0393
706.0,0.0404
705.0,0.0419
704.0,0.0438
703.0,0.046
702.0,0.0481
701.0,0.05
700.0,0.0514
699.0,0.0521
698.0,0.0519
697.0,0.0508
696.0,0.049
695.0,0.0469
694.0,0.0449
693.0,0.0432
692.0,0.0419
691.0,0.0408
690.0,0.0399
689.0,0.0393
688.0,0.039
687.0,0.0391
686.0,0.039
685.0,0.0386
684.0,0.0377
683.0,0.0367
682.0,0.036
681.0,0.0358
680.0,0.0357
679.0,0.0355
678.0,0.0352
677.0,0.035
676.0,0.035
675.0,0.0355
674.0,0.0363
673.0,0.0371
672.0,0.038
671.0,0.0389
670.0,0.0407
669.0,0.0381
668.0,0.0376
667.0,0.0379
666.0,0.0375
665.0,0.037
664.0,0.0365
663.0,0.0362
662.0,0.036
661.0,0.0359
660.0,0.0359
659.0,0.035
658.0,0.0348
657.0,0.0348
656.0,0.0349
655.0,0.0351
654.0,0.0352
653.0,0.0352
652.0,0.0351
651.0,0.0346
650.0,0.0339
649.0,0.0335
648.0,0.0337
647.0,0.0345
646.0,0.0352
645.0,0.0357
644.0,0.0358
643.0,0.0358
642.0,0.0358
641.0,0.0361
640.0,0.0368
639.0,0.0377
638.0,0.0386
637.0,0.0397
636.0,0.0409
635.0,0.0421
634.0,0.0424
633.0,0.0419
632.0,0.0407
631.0,0.0394
630.0,0.0384
629.0,0.0377
628.0,0.0373
627.0,0.0372
626.0,0.0375
625.0,0.0379
624.0,0.0382
623.0,0.0382
622.0,0.0381
621.0,0.0379
620.0,0.0379
619.0,0.038
618.0,0.0383
617.0,0.0389
616.0,0.0393
615.0,0.0392
614.0,0.0386
613.0,0.0379
612.0,0.0378
611.0,0.0384
610.0,0.039
609.0,0.0393
608.0,0.039
607.0,0.0385
606.0,0.0382
605.0,0.038
604.0,0.038
603.0,0.0378
602.0,0.0371
601.0,0.0366
600.0,0.037
