cm-1,A
4000.0,0.015022873584506602
3999.0,0.014977917890464765
3998.0,0.014888020460646079
3997.0,0.014843078722943437
3996.0,0.014843078722943437
3995.0,0.014843078722943437
3994.0,0.014932966849499074
3993.0,0.014977917890464765
3992.0,0.015067833932588037
3991.0,0.015067833932588037
3990.0,0.015067833932588037
3989.0,0.015022873584506602
3988.0,0.014977917890464765
3987.0,0.014888020460646079
3986.0,0.014843078722943437
3985.0,0.014798141635428141
3984.0,0.014843078722943437
3983.0,0.014888020460646079
3982.0,0.014888020460646079
3981.0,0.014888020460646079
3980.0,0.014843078722943437
3979.0,0.014798141635428141
3978.0,0.014753209197138295
3977.0,0.014708281407112
3976.0,0.014708281407112
3975.0,0.014753209197138295
3974.0,0.014798141635428141
3973.0,0.014798141635428141
3972.0,0.014798141635428141
3971.0,0.014798141635428141
3970.0,0.014753209197138295
3969.0,0.014753209197138295
3968.0,0.014753209197138295
3967.0,0.014753209197138295
3966.0,0.014798141635428141
3965.0,0.014798141635428141
3964.0,0.014798141635428141
3963.0,0.014753209197138295
3962.0,0.014708281407112
3961.0,0.014618439768003144
3960.0,0.014618439768003144
3959.0,0.014663358264387139
3958.0,0.014753209197138295
3957.0,0.014798141635428141
3956.0,0.014753209197138295
3955.0,0.014618439768003144
3954.0,0.01452861671041239
3953.0,0.0144837121472845
3952.0,0.01452861671041239
3951.0,0.014618439768003144
3950.0,0.014708281407112
3949.0,0.014708281407112
3948.0,0.014663358264387139
3947.0,0.01452861671041239
3946.0,0.014438812226654996
3945.0,0.014438812226654996
3944.0,0.014438812226654996
3943.0,0.014438812226654996
3942.0,0.014438812226654996
3941.0,0.0144837121472845
3940.0,0.014573525916998342
3939.0,0.014708281407112
3938.0,0.014753209197138295
3937.0,0.014708281407112
3936.0,0.014708281407112
3935.0,0.014753209197138295
3934.0,0.014753209197138295
3933.0,0.014708281407112
3932.0,0.014618439768003144
3931.0,0.014438812226654996
3930.0,0.014304140310157809
3929.0,0.014214382227394795
3928.0,0.014214382227394795
3927.0,0.014304140310157809
3926.0,0.014349026309051105
3925.0,0.014304140310157809
3924.0,0.014214382227394795
3923.0,0.014124642691606404
3922.0,0.014124642691606404
3921.0,0.014169510141607944
3920.0,0.014214382227394795
3919.0,0.014349026309051105
3918.0,0.0144837121472845
3917.0,0.01452861671041239
3916.0,0.014573525916998342
3915.0,0.014618439768003144
3914.0,0.014753209197138295
3913.0,0.014888020460646079
3912.0,0.014888020460646079
3911.0,0.014798141635428141
3910.0,0.014663358264387139
3909.0,0.0144837121472845
3908.0,0.014259258949925524
3907.0,0.014124642691606404
3906.0,0.01403492169512921
3905.0,0.013990068146738865
3904.0,0.013900374944870508
3903.0,0.01385553528947936
3902.0,0.013945219230304673
3901.0,0.014259258949925524
3900.0,0.0144837121472845
3899.0,0.01452861671041239
3898.0,0.014438812226654996
3897.0,0.014349026309051105
3896.0,0.014304140310157809
3895.0,0.014169510141607944
3894.0,0.014124642691606404
3893.0,0.014304140310157809
3892.0,0.0144837121472845
3891.0,0.014349026309051105
3890.0,0.01403492169512921
3889.0,0.013990068146738865
3888.0,0.014214382227394795
3887.0,0.014393916947563534
3886.0,0.014349026309051105
3885.0,0.013990068146738865
3884.0,0.013631406429727155
3883.0,0.013586594534531482
3882.0,0.013765869865004277
3881.0,0.013900374944870508
3880.0,0.01381070026317599
3879.0,0.013676222949234651
3878.0,0.01372104409400876
3877.0,0.013990068146738865
3876.0,0.014079779876432497
3875.0,0.013990068146738865
3874.0,0.013631406429727155
3873.0,0.013407393177789162
3872.0,0.013586594534531482
3871.0,0.013900374944870508
3870.0,0.013945219230304673
3869.0,0.013586594534531482
3868.0,0.013496984613259544
3867.0,0.01385553528947936
3866.0,0.014169510141607944
3865.0,0.014214382227394795
3864.0,0.014079779876432497
3863.0,0.013990068146738865
3862.0,0.013990068146738865
3861.0,0.013945219230304673
3860.0,0.013900374944870508
3859.0,0.01372104409400876
3858.0,0.013407393177789162
3857.0,0.013004460275618523
3856.0,0.01264661126420652
3855.0,0.012825498912458322
3854.0,0.013496984613259544
3853.0,0.013631406429727155
3852.0,0.013317820220494436
3851.0,0.013541787262693505
3850.0,0.01403492169512921
3849.0,0.014259258949925524
3848.0,0.014169510141607944
3847.0,0.013990068146738865
3846.0,0.013900374944870508
3845.0,0.01385553528947936
3844.0,0.01372104409400876
3843.0,0.013452186585275916
3842.0,0.01318349541446362
3841.0,0.013004460275618523
3840.0,0.012959713020733288
3839.0,0.013004460275618523
3838.0,0.013004460275618523
3837.0,0.013093968619278806
3836.0,0.013317820220494436
3835.0,0.013676222949234651
3834.0,0.01403492169512921
3833.0,0.014169510141607944
3832.0,0.014079779876432497
3831.0,0.013900374944870508
3830.0,0.01381070026317599
3829.0,0.013900374944870508
3828.0,0.013945219230304673
3827.0,0.01385553528947936
3826.0,0.013541787262693505
3825.0,0.01318349541446362
3824.0,0.013093968619278806
3823.0,0.013273040668781544
3822.0,0.013496984613259544
3821.0,0.013452186585275916
3820.0,0.013093968619278806
3819.0,0.013138729709955221
3818.0,0.013631406429727155
3817.0,0.013990068146738865
3816.0,0.013945219230304673
3815.0,0.013676222949234651
3814.0,0.013676222949234651
3813.0,0.01403492169512921
3812.0,0.014124642691606404
3811.0,0.013900374944870508
3810.0,0.013676222949234651
3809.0,0.013676222949234651
3808.0,0.013900374944870508
3807.0,0.01385553528947936
3806.0,0.013452186585275916
3805.0,0.01322826573375524
3804.0,0.013362604389846044
3803.0,0.013676222949234651
3802.0,0.013765869865004277
3801.0,0.013407393177789162
3800.0,0.013004460275618523
3799.0,0.01318349541446362
3798.0,0.013631406429727155
3797.0,0.013945219230304673
3796.0,0.013945219230304673
3795.0,0.013945219230304673
3794.0,0.014079779876432497
3793.0,0.014259258949925524
3792.0,0.014304140310157809
3791.0,0.014214382227394795
3790.0,0.014079779876432497
3789.0,0.013900374944870508
3788.0,0.01372104409400876
3787.0,0.013586594534531482
3786.0,0.013541787262693505
3785.0,0.013496984613259544
3784.0,0.013407393177789162
3783.0,0.013317820220494436
3782.0,0.013362604389846044
3781.0,0.013586594534531482
3780.0,0.01381070026317599
3779.0,0.013900374944870508
3778.0,0.013900374944870508
3777.0,0.013990068146738865
3776.0,0.014079779876432497
3775.0,0.01403492169512921
3774.0,0.01381070026317599
3773.0,0.013631406429727155
3772.0,0.013586594534531482
3771.0,0.013631406429727155
3770.0,0.013676222949234651
3769.0,0.013631406429727155
3768.0,0.013676222949234651
3767.0,0.01381070026317599
3766.0,0.013900374944870508
3765.0,0.013765869865004277
3764.0,0.013586594534531482
3763.0,0.013496984613259544
3762.0,0.013541787262693505
3761.0,0.013496984613259544
3760.0,0.013496984613259544
3759.0,0.013496984613259544
3758.0,0.013407393177789162
3757.0,0.01322826573375524
3756.0,0.013004460275618523
3755.0,0.012780770091995297
3754.0,0.012512493866907004
3753.0,0.012244383261476699
3752.0,0.012289056869694281
3751.0,0.012557195064198723
3750.0,0.012557195064198723
3749.0,0.012333735073725371
3748.0,0.012378417874516323
3747.0,0.012914970375878188
3746.0,0.013676222949234651
3745.0,0.014124642691606404
3744.0,0.013765869865004277
3743.0,0.013093968619278806
3742.0,0.013093968619278806
3741.0,0.013273040668781544
3740.0,0.013093968619278806
3739.0,0.01264661126420652
3738.0,0.012289056869694281
3737.0,0.012199714248127602
3736.0,0.012199714248127602
3735.0,0.01215504982870197
3734.0,0.012244383261476699
3733.0,0.012423105273012602
3732.0,0.012557195064198723
3731.0,0.01260190086298274
3730.0,0.012691326268817527
3729.0,0.012870232340102872
3728.0,0.013004460275618523
3727.0,0.012959713020733288
3726.0,0.012736045877764557
3725.0,0.012557195064198723
3724.0,0.012512493866907004
3723.0,0.012557195064198723
3722.0,0.01264661126420652
3721.0,0.012825498912458322
3720.0,0.013049212141483357
3719.0,0.013317820220494436
3718.0,0.013407393177789162
3717.0,0.013273040668781544
3716.0,0.013049212141483357
3715.0,0.012825498912458322
3714.0,0.01260190086298274
3713.0,0.012557195064198723
3712.0,0.012736045877764557
3711.0,0.012914970375878188
3710.0,0.013049212141483357
3709.0,0.01318349541446362
3708.0,0.013317820220494436
3707.0,0.013407393177789162
3706.0,0.013407393177789162
3705.0,0.013407393177789162
3704.0,0.013407393177789162
3703.0,0.013496984613259544
3702.0,0.013541787262693505
3701.0,0.013541787262693505
3700.0,0.013496984613259544
3699.0,0.013631406429727155
3698.0,0.013765869865004277
3697.0,0.01372104409400876
3696.0,0.013541787262693505
3695.0,0.013317820220494436
3694.0,0.013093968619278806
3693.0,0.012825498912458322
3692.0,0.01260190086298274
3691.0,0.012557195064198723
3690.0,0.012780770091995297
3689.0,0.012914970375878188
3688.0,0.012870232340102872
3687.0,0.013004460275618523
3686.0,0.013452186585275916
3685.0,0.01385553528947936
3684.0,0.013945219230304673
3683.0,0.01381070026317599
3682.0,0.013676222949234651
3681.0,0.013586594534531482
3680.0,0.013407393177789162
3679.0,0.01322826573375524
3678.0,0.01322826573375524
3677.0,0.013586594534531482
3676.0,0.01385553528947936
3675.0,0.013407393177789162
3674.0,0.012825498912458322
3673.0,0.012914970375878188
3672.0,0.013362604389846044
3671.0,0.013676222949234651
3670.0,0.01381070026317599
3669.0,0.01372104409400876
3668.0,0.013765869865004277
3667.0,0.014079779876432497
3666.0,0.014349026309051105
3665.0,0.014438812226654996
3664.0,0.014393916947563534
3663.0,0.014349026309051105
3662.0,0.014304140310157809
3661.0,0.014214382227394795
3660.0,0.014079779876432497
3659.0,0.014079779876432497
3658.0,0.014214382227394795
3657.0,0.014304140310157809
3656.0,0.014169510141607944
3655.0,0.01385553528947936
3654.0,0.013631406429727155
3653.0,0.013586594534531482
3652.0,0.013452186585275916
3651.0,0.013496984613259544
3650.0,0.013945219230304673
3649.0,0.014259258949925524
3648.0,0.014259258949925524
3647.0,0.014259258949925524
3646.0,0.0144837121472845
3645.0,0.014843078722943437
3644.0,0.015067833932588037
3643.0,0.015157768594724175
3642.0,0.015067833932588037
3641.0,0.015022873584506602
3640.0,0.014977917890464765
3639.0,0.014977917890464765
3638.0,0.014977917890464765
3637.0,0.015022873584506602
3636.0,0.015157768594724175
3635.0,0.015247721884586563
3634.0,0.015202742910707112
3633.0,0.015022873584506602
3632.0,0.014843078722943437
3631.0,0.014932966849499074
3630.0,0.01538268676325183
3629.0,0.015832872853011715
3628.0,0.01578783323856614
3627.0,0.015742798294583915
3626.0,0.016058141016111804
3625.0,0.01632861713980338
3624.0,0.01628352608625061
3623.0,0.016058141016111804
3622.0,0.015832872853011715
3621.0,0.015742798294583915
3620.0,0.015742798294583915
3619.0,0.01578783323856614
3618.0,0.01578783323856614
3617.0,0.015877917138889863
3616.0,0.016193358021584725
3615.0,0.016509028184833463
3614.0,0.016734647433454652
3613.0,0.01677978535189717
3612.0,0.01677978535189717
3611.0,0.01677978535189717
3610.0,0.016915227262211507
3609.0,0.017050711425501408
3608.0,0.017186237868137555
3607.0,0.017321806616515723
3606.0,0.017412209298337533
3605.0,0.017547848615010242
3604.0,0.01759307113620534
3603.0,0.01759307113620534
3602.0,0.01759307113620534
3601.0,0.017638298366853045
3600.0,0.017638298366853045
3599.0,0.01759307113620534
3598.0,0.01759307113620534
3597.0,0.017638298366853045
3596.0,0.017774008325325275
3595.0,0.017864505196230507
3594.0,0.017955020928509757
3593.0,0.017909760704207134
3592.0,0.017864505196230507
3591.0,0.01781925440359733
3590.0,0.01781925440359733
3589.0,0.017955020928509757
3588.0,0.018226681372252695
3587.0,0.018362575344230914
3586.0,0.018362575344230914
3585.0,0.018498511851753108
3584.0,0.018725167293411005
3583.0,0.01899731005860028
3582.0,0.0192242260373785
3581.0,0.019360432556262852
3580.0,0.01940584422377989
3579.0,0.01940584422377989
3578.0,0.019360432556262852
3577.0,0.019360432556262852
3576.0,0.01940584422377989
3575.0,0.01954210772389997
3574.0,0.01958753839310856
3573.0,0.019632973815224997
3572.0,0.01954210772389997
3571.0,0.019451260640229506
3570.0,0.019360432556262852
3569.0,0.019451260640229506
3568.0,0.019769308608968306
3567.0,0.020087589665283012
3566.0,0.020178569969774962
3565.0,0.020178569969774962
3564.0,0.02026956933771462
3563.0,0.020406104151069693
3562.0,0.020497151212598652
3561.0,0.020633757603838898
3560.0,0.02081596632558158
3559.0,0.021043834782408455
3558.0,0.0211806132671577
3557.0,0.02122621566987748
3556.0,0.02122621566987748
3555.0,0.02122621566987748
3554.0,0.02122621566987748
3553.0,0.021317434843055594
3552.0,0.02140867317992523
3551.0,0.0214542995372613
3550.0,0.021545566634771474
3549.0,0.02159120737696063
3548.0,0.021636852916117055
3547.0,0.021728158389364705
3546.0,0.021865152601710403
3545.0,0.021956506090037076
3544.0,0.02204787879853809
3543.0,0.022093572362881675
3542.0,0.022139270735302752
3541.0,0.022230681908425698
3540.0,0.022322112326006227
3539.0,0.02245929405346514
3538.0,0.02259651912656535
3537.0,0.022688026603074007
3536.0,0.022688026603074007
3535.0,0.022688026603074007
3534.0,0.022688026603074007
3533.0,0.022688026603074007
3532.0,0.022733787572707387
3531.0,0.02277955336461468
3530.0,0.022871099419317753
3529.0,0.02296266477531872
3528.0,0.02300845469384938
3527.0,0.023054249440757957
3526.0,0.023100049017062307
3525.0,0.023237476732539397
3524.0,0.023466619608062178
3523.0,0.023695883447997224
3522.0,0.023879381700184332
3521.0,0.02406295751688936
3520.0,0.024246610963712723
3519.0,0.02438440203310499
3518.0,0.024430342106337877
3517.0,0.024430342106337877
3516.0,0.024430342106337877
3515.0,0.024430342106337877
3514.0,0.024476287039668643
3513.0,0.024568191490736968
3512.0,0.024706084643793647
3511.0,0.024936003904763915
3510.0,0.02512002699306959
3509.0,0.025258095499050004
3508.0,0.025350165561278004
3507.0,0.02544225514642018
3506.0,0.02562649291857677
3505.0,0.025856900097785074
3504.0,0.026041313893296225
3503.0,0.026225806029419818
3502.0,0.02636422658259252
3501.0,0.026456531467510258
3500.0,0.02654885597506529
3499.0,0.02664120011360227
3498.0,0.026733563891471412
3497.0,0.02682594731702781
3496.0,0.02696455931306696
3495.0,0.02710321556345563
3494.0,0.02724191609646076
3493.0,0.027334407733889066
3492.0,0.02738066094037661
3491.0,0.02738066094037661
3490.0,0.02747318213414429
3489.0,0.027658283674251827
3488.0,0.027889771597169544
3487.0,0.02812138297373412
3486.0,0.02826040911222183
3485.0,0.028306761050139073
3484.0,0.028353117935693284
3483.0,0.028445846553939003
3482.0,0.02858497661500481
3481.0,0.028770552723758724
3480.0,0.028863370523193765
3479.0,0.02890978686288448
3478.0,0.028956208163971375
3477.0,0.029002634427514717
3476.0,0.029141943003497595
3475.0,0.029281296279810798
3474.0,0.029467170231675777
3473.0,0.02969962459782227
3472.0,0.029839156962686353
3471.0,0.029978734171634214
3470.0,0.03002526987828502
3469.0,0.030071810571884017
3468.0,0.030164906924202484
3467.0,0.03025802323714588
3466.0,0.030397735151460825
3465.0,0.030490901403433135
3464.0,0.03063068826647264
3463.0,0.030770520137356927
3462.0,0.031003673351687855
3461.0,0.031236951802751545
3460.0,0.03147035562516054
3459.0,0.031657169041054534
3458.0,0.03170388495374454
3457.0,0.03170388495374454
3456.0,0.03170388495374454
3455.0,0.03184406285002961
3454.0,0.031984286006358165
3453.0,0.032124554451966825
3452.0,0.032218091924200776
3451.0,0.032311649546687526
3450.0,0.03235843591698884
3449.0,0.03249882527715853
3448.0,0.032686081712916426
3447.0,0.0329671178412978
3446.0,0.033295223342125535
3445.0,0.03357665405630694
3444.0,0.0338113190438627
3443.0,0.034046110897937076
3442.0,0.03428102975577918
3441.0,0.03456310022373987
3440.0,0.03479829897408804
3439.0,0.03508070571335731
3438.0,0.035363296211498474
3437.0,0.035693217696063595
3436.0,0.03602339000339416
3435.0,0.03630659476198117
3434.0,0.03649550058570927
3433.0,0.03668448861388862
3432.0,0.036873558918095295
3431.0,0.03701541568300293
3430.0,0.03720463014276687
3429.0,0.037346595106788616
3428.0,0.03753595394209874
3427.0,0.03772539537668518
3426.0,0.03791491948264003
3425.0,0.03800971255993524
3424.0,0.038151940981675736
3423.0,0.03838909190871931
3422.0,0.038721320914956836
3421.0,0.03905380426616856
3420.0,0.03929144831144349
3419.0,0.03952922246570112
3418.0,0.039719535563357944
3417.0,0.03995754427315856
3416.0,0.04019568349166214
3415.0,0.04043395336207234
3414.0,0.04062466342415694
3413.0,0.04076775094900409
3412.0,0.04091088563260792
3411.0,0.04105406750606355
3410.0,0.04129280891271536
3409.0,0.041483896576958834
3408.0,0.04167506835594681
3407.0,0.04181850243505214
3406.0,0.041914151478914974
3405.0,0.04196198390166317
3404.0,0.04210551278710151
3403.0,0.042201225070002124
3402.0,0.042392712939904875
3401.0,0.042584285277331047
3400.0,0.04272802000705722
3399.0,0.04287180232318688
3398.0,0.042967683653061695
3397.0,0.043063586155803746
3396.0,0.04315950984076644
3395.0,0.043303435105349175
3394.0,0.0435434165901003
3393.0,0.0437835307566099
3392.0,0.04387961360698034
3391.0,0.0439276630048171
3390.0,0.0439276630048171
3389.0,0.04402377775167454
3388.0,0.04411991377462465
3387.0,0.04426415772233416
3386.0,0.04440844959427559
3385.0,0.04455278942230456
3384.0,0.04464904263234004
3383.0,0.04469717723830824
3382.0,0.04474531717982
3381.0,0.04484161307420642
3380.0,0.04503426894157925
3379.0,0.0451788169482068
3378.0,0.045323413081356456
3377.0,0.0454680573730859
3376.0,0.045612749855485024
3375.0,0.04570923829887308
3374.0,0.04575749056067524
3373.0,0.04575749056067524
3372.0,0.04575749056067524
3371.0,0.04580574818413763
3370.0,0.045902279520810385
3369.0,0.046047116768076934
3368.0,0.04609540658654021
3367.0,0.046192002334692894
3366.0,0.04628861957244457
3365.0,0.04643358574299339
3364.0,0.04662694927330402
3363.0,0.04677202844014605
3362.0,0.04682039893436585
3361.0,0.04686877481655505
3360.0,0.04686877481655505
3359.0,0.04696554274964315
3358.0,0.047062332249019345
3357.0,0.04720755695590784
3356.0,0.04730440041308315
3355.0,0.04740126547022694
3354.0,0.04749815213697639
3353.0,0.04754660357696672
3352.0,0.047643522676209304
3351.0,0.04774046340917959
3350.0,0.04778894189133087
3349.0,0.04778894189133087
3348.0,0.04774046340917959
3347.0,0.04774046340917959
3346.0,0.04774046340917959
3345.0,0.04778894189133087
3344.0,0.0478374257855374
3343.0,0.0478374257855374
3342.0,0.047885915093007325
3341.0,0.047934409814949674
3340.0,0.04803141550708934
3339.0,0.048128442871635535
3338.0,0.04827402457540786
3337.0,0.04841965509660828
3336.0,0.048565334467987054
3335.0,0.04866248120408234
3334.0,0.04871106272232795
3333.0,0.04871106272232795
3332.0,0.04866248120408234
3331.0,0.048565334467987054
3330.0,0.048565334467987054
3329.0,0.048565334467987054
3328.0,0.0486139051197072
3327.0,0.04871106272232795
3326.0,0.04875964967565971
3325.0,0.04875964967565971
3324.0,0.04875964967565971
3323.0,0.04871106272232795
3322.0,0.0486139051197072
3321.0,0.04851676924770687
3320.0,0.04851676924770687
3319.0,0.048565334467987054
3318.0,0.0486139051197072
3317.0,0.0486139051197072
3316.0,0.048468209457651845
3315.0,0.04827402457540786
3314.0,0.048128442871635535
3313.0,0.04807992647970649
3312.0,0.04807992647970649
3311.0,0.048128442871635535
3310.0,0.04817696468408794
3309.0,0.04817696468408794
3308.0,0.048128442871635535
3307.0,0.048128442871635535
3306.0,0.04807992647970649
3305.0,0.04807992647970649
3304.0,0.04803141550708934
3303.0,0.047934409814949674
3302.0,0.047885915093007325
3301.0,0.04778894189133087
3300.0,0.04778894189133087
3299.0,0.04778894189133087
3298.0,0.04774046340917959
3297.0,0.047691990337874746
3296.0,0.047595060422975566
3295.0,0.04744970610179822
3294.0,0.04730440041308315
3293.0,0.04720755695590784
3292.0,0.04711073508906982
3291.0,0.04701393480294458
3290.0,0.04696554274964315
3289.0,0.0469171560879138
3288.0,0.04682039893436585
3287.0,0.04667530361081473
3286.0,0.04653025674659861
3285.0,0.04643358574299339
3284.0,0.04638525830935958
3283.0,0.04638525830935958
3282.0,0.04643358574299339
3281.0,0.046481918555007384
3280.0,0.046481918555007384
3279.0,0.04643358574299339
3278.0,0.04628861957244457
3277.0,0.04609540658654021
3276.0,0.04595055323640551
3275.0,0.04575749056067524
3274.0,0.045660991397539874
3273.0,0.045516282844447975
3272.0,0.04537162249272897
3271.0,0.045323413081356456
3270.0,0.04527520902093718
3269.0,0.045323413081356456
3268.0,0.045323413081356456
3267.0,0.04522701031028298
3266.0,0.04508244626504121
3265.0,0.044937930324967956
3264.0,0.04484161307420642
3263.0,0.044793462458058375
3262.0,0.044793462458058375
3261.0,0.044793462458058375
3260.0,0.04474531717982
3259.0,0.04464904263234004
3258.0,0.04450467081587295
3257.0,0.044360346976747955
3256.0,0.04421607108308856
3255.0,0.044071843103049346
3254.0,0.04397571771932274
3253.0,0.04387961360698034
3252.0,0.04383156952463674
3251.0,0.0437835307566099
3250.0,0.043735497301724546
3249.0,0.04368746915880539
3248.0,0.04368746915880539
3247.0,0.04368746915880539
3246.0,0.043735497301724546
3245.0,0.043735497301724546
3244.0,0.04359142880416744
3243.0,0.0433514207947967
3242.0,0.043063586155803746
3241.0,0.04287180232318688
3240.0,0.042775942156833
3239.0,0.04282386959515394
3238.0,0.04291974034210022
3237.0,0.04301563225723992
3236.0,0.043063586155803746
3235.0,0.042967683653061695
3234.0,0.042775942156833
3233.0,0.04253638427006878
3232.0,0.042392712939904875
3231.0,0.04229695845116854
3230.0,0.04224908912272074
3229.0,0.04224908912272074
3228.0,0.04224908912272074
3227.0,0.042201225070002124
3226.0,0.042201225070002124
3225.0,0.04215336629184985
3224.0,0.04210551278710151
3223.0,0.04210551278710151
3222.0,0.04215336629184985
3221.0,0.042201225070002124
3220.0,0.04215336629184985
3219.0,0.042057664554595586
3218.0,0.04186632432376469
3217.0,0.041579471947481794
3216.0,0.041340572947066834
3215.0,0.041101805289228244
3214.0,0.040958607678906356
3213.0,0.04091088563260792
3212.0,0.04091088563260792
3211.0,0.040958607678906356
3210.0,0.04091088563260792
3209.0,0.04081545726880842
3208.0,0.04072004986906119
3207.0,0.04057697805689475
3206.0,0.040481623027001756
3205.0,0.040481623027001756
3204.0,0.040529297924893015
3203.0,0.040529297924893015
3202.0,0.04043395336207234
3201.0,0.0402909757535701
3200.0,0.04014804520039483
3199.0,0.0400527842915015
3198.0,0.040005161671583744
3197.0,0.03995754427315856
3196.0,0.03986232513620536
3195.0,0.039719535563357944
3194.0,0.03962436858984186
3193.0,0.03952922246570112
3192.0,0.03943409718180235
3191.0,0.03938654235209116
3190.0,0.03938654235209116
3189.0,0.039338992729018196
3188.0,0.03919637508823026
3187.0,0.039006291057664066
3186.0,0.03886378261277468
3185.0,0.03876880295533702
3184.0,0.038721320914956836
3183.0,0.038673844065289176
3182.0,0.03862637240519895
3181.0,0.03857890593355173
3180.0,0.03857890593355173
3179.0,0.038531444649213764
3178.0,0.03848398855105106
3177.0,0.038341651362284734
3176.0,0.03810452633214956
3175.0,0.03791491948264003
3174.0,0.03772539537668518
3173.0,0.037583306554248797
3172.0,0.03744126420403626
3171.0,0.03739392707587297
3170.0,0.037346595106788616
3169.0,0.03739392707587297
3168.0,0.037346595106788616
3167.0,0.037251946641359446
3166.0,0.0371100126082089
3165.0,0.0369681249461018
3164.0,0.03682628362474838
3163.0,0.03668448861388862
3162.0,0.03658998431977123
3161.0,0.03649550058570927
3160.0,0.03635381351515665
3159.0,0.03625938114211591
3158.0,0.03616496929785207
3157.0,0.0360705779734416
3156.0,0.03592902944204468
3155.0,0.035740369803151095
3154.0,0.03559892883726867
3153.0,0.03545753392086315
3152.0,0.035363296211498474
3151.0,0.03526907894637077
3150.0,0.03517488211661135
3149.0,0.03508070571335731
3148.0,0.03508070571335731
3147.0,0.03512779136222477
3146.0,0.03512779136222477
3145.0,0.03503362516890207
3144.0,0.03479829897408804
3143.0,0.03456310022373987
3142.0,0.03437503289075727
3141.0,0.03428102975577918
3140.0,0.03423403581731388
3139.0,0.03414006319292828
3138.0,0.033952178923546183
3137.0,0.03371743783253667
3136.0,0.03352973627071565
3135.0,0.03343591590268957
3134.0,0.03338901331806565
3133.0,0.03334211579824231
3132.0,0.033201453616638954
3131.0,0.033060836978886954
3130.0,0.0329671178412978
3129.0,0.032873418923587305
3128.0,0.03277974021703267
3127.0,0.03273290844021437
3126.0,0.032686081712916426
3125.0,0.032592443402527316
3124.0,0.03249882527715853
3123.0,0.03240522732811035
3122.0,0.032311649546687526
3121.0,0.032218091924200776
3120.0,0.032124554451966825
3119.0,0.03207779326948268
3118.0,0.031984286006358165
3117.0,0.03189079887180224
3116.0,0.03179733185715028
3115.0,0.03170388495374454
3114.0,0.03161045815293173
3113.0,0.031563752288295444
3112.0,0.03147035562516054
3111.0,0.03142366482450232
3110.0,0.03137697904301118
3109.0,0.03133029827960798
3108.0,0.031236951802751545
3107.0,0.031143625385307683
3106.0,0.03105031901865729
3105.0,0.030910397045078586
3104.0,0.03081714076773867
3103.0,0.03067729388779794
3102.0,0.03058408764601861
3101.0,0.030490901403433135
3100.0,0.030397735151460825
3099.0,0.030351159519274695
3098.0,0.03030458888152676
3097.0,0.03030458888152676
3096.0,0.030351159519274695
3095.0,0.030351159519274695
3094.0,0.03030458888152676
3093.0,0.030211462585061133
3092.0,0.030118356253500123
3091.0,0.03002526987828502
3090.0,0.029978734171634214
3089.0,0.029932203450862893
3088.0,0.029839156962686353
3087.0,0.029746130405213123
3086.0,0.02960662792039992
3085.0,0.029513651152349718
3084.0,0.029374223311705583
3083.0,0.029234840219232394
3082.0,0.029141943003497595
3081.0,0.029002634427514717
3080.0,0.02890978686288448
3079.0,0.028816959143838528
3078.0,0.028770552723758724
3077.0,0.02872415126189476
3076.0,0.02872415126189476
3075.0,0.02872415126189476
3074.0,0.02872415126189476
3073.0,0.02872415126189476
3072.0,0.02863136320857662
3071.0,0.02849221828874393
3070.0,0.02839947976994095
3069.0,0.028306761050139073
3068.0,0.028167720075074953
3067.0,0.028028723600243666
3066.0,0.027936083991977778
3065.0,0.027843464140506313
3064.0,0.027750864037404455
3063.0,0.027658283674251827
3062.0,0.027565723042634938
3061.0,0.02751945012352408
3060.0,0.027426919073445077
3059.0,0.02738066094037661
3058.0,0.027334407733889066
3057.0,0.027288159452933503
3056.0,0.02724191609646076
3055.0,0.027149444152769986
3054.0,0.027056991894431892
3053.0,0.02696455931306696
3052.0,0.02696455931306696
3051.0,0.02691835039863255
3050.0,0.026872146400301444
3049.0,0.02677975314776626
3048.0,0.026687379547098322
3047.0,0.026595025589939425
3046.0,0.02654885597506529
3045.0,0.026502691267936695
3044.0,0.026456531467510258
3043.0,0.026318081496016443
3042.0,0.02617967564731627
3041.0,0.026041313893296225
3040.0,0.025902996205869
3039.0,0.025856900097785074
3038.0,0.025810808881832736
3037.0,0.025810808881832736
3036.0,0.025764722556973707
3035.0,0.025718641122169483
3034.0,0.02562649291857677
3033.0,0.02553436426275746
3032.0,0.025488307262671706
3031.0,0.02544225514642018
3030.0,0.02539620791296726
3029.0,0.02539620791296726
3028.0,0.025304128090317013
3027.0,0.02521206778644225
3026.0,0.025074013910237447
3025.0,0.02498200236711723
3024.0,0.024890010313838973
3023.0,0.024798037742147727
3022.0,0.024706084643793647
3021.0,0.02461415101053266
3020.0,0.024476287039668643
3019.0,0.024338466818941473
3018.0,0.024246610963712723
3017.0,0.024200690320592466
3016.0,0.024154774532432866
3015.0,0.024108863598207186
3014.0,0.024017056287453542
3013.0,0.023925268380126097
3012.0,0.023879381700184332
3011.0,0.023833499868024743
3010.0,0.023741750742954926
3009.0,0.023695883447997224
3008.0,0.023695883447997224
3007.0,0.023604163388120325
3006.0,0.02355831062115543
3005.0,0.02342078135989012
3004.0,0.023329119375188556
3003.0,0.023191662661933732
3002.0,0.02314585342378117
3001.0,0.02314585342378117
3000.0,0.02314585342378117
2999.0,0.02314585342378117
2998.0,0.023100049017062307
2997.0,0.023054249440757957
2996.0,0.02300845469384938
2995.0,0.02300845469384938
2994.0,0.02300845469384938
2993.0,0.02300845469384938
2992.0,0.02296266477531872
2991.0,0.022871099419317753
2990.0,0.02282532397981263
2989.0,0.02282532397981263
2988.0,0.02291687968414724
2987.0,0.023100049017062307
2986.0,0.023283295636617574
2985.0,0.02342078135989012
2984.0,0.02355831062115543
2983.0,0.02365002099672653
2982.0,0.023741750742954926
2981.0,0.023925268380126097
2980.0,0.024154774532432866
2979.0,0.024476287039668643
2978.0,0.024798037742147727
2977.0,0.02512002699306959
2976.0,0.02544225514642018
2975.0,0.025810808881832736
2974.0,0.026271941311972746
2973.0,0.02677975314776626
2972.0,0.027426919073445077
2971.0,0.028075050815808744
2970.0,0.028816959143838528
2969.0,0.029513651152349718
2968.0,0.03025802323714588
2967.0,0.031003673351687855
2966.0,0.03179733185715028
2965.0,0.032545631817259224
2964.0,0.033295223342125535
2963.0,0.034046110897937076
2962.0,0.03475124903287918
2961.0,0.03541041251009669
2960.0,0.0360705779734416
2959.0,0.03658998431977123
2958.0,0.037062711569998186
2957.0,0.03744126420403626
2956.0,0.03772539537668518
2955.0,0.03791491948264003
2954.0,0.03810452633214956
2953.0,0.038199360808321536
2952.0,0.038341651362284734
2951.0,0.03848398855105106
2950.0,0.038816290187564384
2949.0,0.03929144831144349
2948.0,0.040005161671583744
2947.0,0.04091088563260792
2946.0,0.042057664554595586
2945.0,0.04344740808260106
2944.0,0.04508244626504121
2943.0,0.04696554274964315
2942.0,0.049148541111453614
2941.0,0.05153812993871654
2940.0,0.054186873412661596
2939.0,0.057000406633959555
2938.0,0.060081579630943294
2937.0,0.06343599486473406
2936.0,0.06696850489759454
2935.0,0.07073438174693436
2934.0,0.0748426728241014
2933.0,0.07925073872429178
2932.0,0.08402008585977572
2931.0,0.08905559425002108
2930.0,0.09436599867304518
2929.0,0.09996076451267522
2928.0,0.10590557267730127
2927.0,0.11221396516162851
2926.0,0.1190150095132465
2925.0,0.12627261935332057
2924.0,0.13394907599072514
2923.0,0.14200450443907608
2922.0,0.1503963419175529
2921.0,0.15882830550046778
2920.0,0.16685288808721488
2919.0,0.17386038206408516
2918.0,0.17901082358395048
2917.0,0.18144422070219735
2916.0,0.18065351591954726
2915.0,0.17678668671733244
2914.0,0.17056756638240134
2913.0,0.16310648362356628
2912.0,0.15539858037365328
2911.0,0.1480693213597324
2910.0,0.1415229581866595
2909.0,0.13578566953867033
2908.0,0.1308856730206247
2907.0,0.126621263590859
2906.0,0.12291674334934943
2905.0,0.11970100857424737
2904.0,0.11690664142431006
2903.0,0.11441264381034388
2902.0,0.11221396516162851
2901.0,0.11025022473596224
2900.0,0.10846254232743546
2899.0,0.10673771411200872
2898.0,0.10501970907203151
2897.0,0.10319830233507843
2896.0,0.1014393550602879
2895.0,0.09968750301627338
2894.0,0.09794268919153337
2893.0,0.09620485725896466
2892.0,0.09436599867304518
2891.0,0.09248115389337075
2890.0,0.09049745859458458
2889.0,0.0884695376928375
2888.0,0.08634506491338012
2887.0,0.08428366205400617
2886.0,0.08228448344050654
2885.0,0.08029446545087904
2884.0,0.07841755960658348
2883.0,0.07654873036034848
2882.0,0.07463633264589853
2881.0,0.07273231918911849
2880.0,0.07083661679493547
2879.0,0.06905096883247697
2878.0,0.06742477650170953
2877.0,0.06605739725873905
2876.0,0.06484555278383164
2875.0,0.06373765809652254
2874.0,0.06268275223750575
2873.0,0.061680456657844385
2872.0,0.06083032037482261
2871.0,0.060131455540490375
2870.0,0.05953332233647113
2869.0,0.05908526241971446
2868.0,0.058786812414678646
2867.0,0.058737090681050264
2866.0,0.058936011780097886
2865.0,0.0595831353183347
2864.0,0.06078036414518184
2863.0,0.06263258248271053
2862.0,0.06509774167768612
2861.0,0.06828793294324442
2860.0,0.07221915065262552
2859.0,0.07696333132921396
2858.0,0.08270459905431071
2857.0,0.08942895151874142
2856.0,0.09739886933346864
2855.0,0.10657115822045493
2854.0,0.1169634899723202
2853.0,0.1281352979118051
2852.0,0.13936258322624528
2851.0,0.14941502364796855
2850.0,0.15676722190199066
2849.0,0.159956669396506
2848.0,0.15864052954514496
2847.0,0.15347733158371324
2846.0,0.14575470293388149
2845.0,0.1367961409713705
2844.0,0.1277271537757949
2843.0,0.11907213473291511
2842.0,0.11125903931710734
2841.0,0.10424605792627206
2840.0,0.09816040794877057
2839.0,0.09285746899685954
2838.0,0.08830984124613894
2837.0,0.08428366205400617
2836.0,0.08076496207674921
2835.0,0.07763790321520991
2834.0,0.07489427319033615
2833.0,0.07242434530888953
2832.0,0.07032568205141221
2831.0,0.0684912781333824
2830.0,0.06676587128519196
2829.0,0.06524912533642091
2828.0,0.06378795567975115
2827.0,0.06248210798265341
2826.0,0.06128018521761747
2825.0,0.060131455540490375
2824.0,0.05908526241971446
2823.0,0.05809122563440061
2822.0,0.057198533682059516
2821.0,0.05635711724787096
2820.0,0.05551732784983132
2819.0,0.054728418492290265
2818.0,0.05394093961487645
2817.0,0.05325306496641513
2816.0,0.05261529831525902
2815.0,0.052027420754219955
2814.0,0.05144033789103841
2813.0,0.05085404758005607
2812.0,0.05026854768429301
2811.0,0.04968383607539972
2810.0,0.049245818406496555
2809.0,0.048808242065293994
2808.0,0.04837110616336182
2807.0,0.047934409814949674
2806.0,0.04749815213697639
2805.0,0.04711073508906982
2804.0,0.04667530361081473
2803.0,0.04628861957244457
2802.0,0.04585401117045196
2801.0,0.0454680573730859
2800.0,0.04508244626504121
2799.0,0.04469717723830824
2798.0,0.044360346976747955
2797.0,0.04402377775167454
2796.0,0.043735497301724546
2795.0,0.04344740808260106
2794.0,0.04320747962950522
2793.0,0.04287180232318688
2792.0,0.04244059810252043
2791.0,0.042057664554595586
2790.0,0.04172287445230238
2789.0,0.04153168163305643
2788.0,0.041340572947066834
2787.0,0.041149548320321694
2786.0,0.04091088563260792
2785.0,0.04062466342415694
2784.0,0.0402909757535701
2783.0,0.03995754427315856
2782.0,0.03967194946985697
2781.0,0.03943409718180235
2780.0,0.03919637508823026
2779.0,0.039006291057664066
2778.0,0.038816290187564384
2777.0,0.03862637240519895
2776.0,0.03848398855105106
2775.0,0.03829421599749461
2774.0,0.038151940981675736
2773.0,0.03800971255993524
2772.0,0.03782014709123227
2771.0,0.03763066432997886
2770.0,0.03739392707587297
2769.0,0.0371573187987575
2768.0,0.036873558918095295
2767.0,0.03658998431977123
2766.0,0.03635381351515665
2765.0,0.03616496929785207
2764.0,0.03602339000339416
2763.0,0.03592902944204468
2762.0,0.03588185684851508
2761.0,0.03583468937826462
2760.0,0.035740369803151095
2759.0,0.035646070707806565
2758.0,0.03550466044490741
2757.0,0.035363296211498474
2756.0,0.03526907894637077
2755.0,0.03512779136222477
2754.0,0.0349394793888016
2753.0,0.03475124903287918
2752.0,0.03456310022373987
2751.0,0.03442204208947208
2750.0,0.03437503289075727
2749.0,0.03432802877989327
2748.0,0.03428102975577918
2747.0,0.03423403581731388
2746.0,0.03414006319292828
2745.0,0.03399914237121604
2744.0,0.03385826726096752
2743.0,0.03371743783253667
2742.0,0.03362357691107709
2741.0,0.03357665405630694
2740.0,0.03352973627071565
2739.0,0.033482823553208085
2738.0,0.03338901331806565
2737.0,0.03334211579824231
2736.0,0.0332483359486222
2735.0,0.033201453616638954
2734.0,0.033154576345083564
2733.0,0.033154576345083564
2732.0,0.033154576345083564
2731.0,0.033201453616638954
2730.0,0.033154576345083564
2729.0,0.033060836978886954
2728.0,0.032920265855503006
2727.0,0.03273290844021437
2726.0,0.032592443402527316
2725.0,0.03245202378113787
2724.0,0.03235843591698884
2723.0,0.03226486821611996
2722.0,0.032218091924200776
2721.0,0.03217132066984485
2720.0,0.03217132066984485
2719.0,0.03217132066984485
2718.0,0.03217132066984485
2717.0,0.032124554451966825
2716.0,0.031984286006358165
2715.0,0.03179733185715028
2714.0,0.03161045815293173
2713.0,0.03147035562516054
2712.0,0.03133029827960798
2711.0,0.031236951802751545
2710.0,0.031190286087141805
2709.0,0.031143625385307683
2708.0,0.031143625385307683
2707.0,0.031096969696171817
2706.0,0.03105031901865729
2705.0,0.031003673351687855
2704.0,0.030957032694186815
2703.0,0.030863766403287585
2702.0,0.03081714076773867
2701.0,0.0307239045110681
2700.0,0.03058408764601861
2699.0,0.030490901403433135
2698.0,0.030397735151460825
2697.0,0.030351159519274695
2696.0,0.03030458888152676
2695.0,0.03030458888152676
2694.0,0.03030458888152676
2693.0,0.03030458888152676
2692.0,0.03030458888152676
2691.0,0.03025802323714588
2690.0,0.030164906924202484
2689.0,0.030118356253500123
2688.0,0.030118356253500123
2687.0,0.030071810571884017
2686.0,0.030071810571884017
2685.0,0.030071810571884017
2684.0,0.030118356253500123
2683.0,0.030118356253500123
2682.0,0.030118356253500123
2681.0,0.030071810571884017
2680.0,0.03002526987828502
2679.0,0.029978734171634214
2678.0,0.029885677714903025
2677.0,0.029839156962686353
2676.0,0.029792641193145286
2675.0,0.029792641193145286
2674.0,0.029792641193145286
2673.0,0.029746130405213123
2672.0,0.029653123769906697
2671.0,0.02960662792039992
2670.0,0.02960662792039992
2669.0,0.029653123769906697
2668.0,0.02969962459782227
2667.0,0.029653123769906697
2666.0,0.029653123769906697
2665.0,0.029653123769906697
2664.0,0.029653123769906697
2663.0,0.02960662792039992
2662.0,0.029513651152349718
2661.0,0.02942069428514915
2660.0,0.029374223311705583
2659.0,0.029281296279810798
2658.0,0.029281296279810798
2657.0,0.02932775731028059
2656.0,0.02932775731028059
2655.0,0.02932775731028059
2654.0,0.029281296279810798
2653.0,0.029188389127482228
2652.0,0.029141943003497595
2651.0,0.02904906565457588
2650.0,0.028956208163971375
2649.0,0.02890978686288448
2648.0,0.028863370523193765
2647.0,0.028863370523193765
2646.0,0.028863370523193765
2645.0,0.028863370523193765
2644.0,0.028863370523193765
2643.0,0.028816959143838528
2642.0,0.028770552723758724
2641.0,0.02872415126189476
2640.0,0.028770552723758724
2639.0,0.028770552723758724
2638.0,0.028770552723758724
2637.0,0.02872415126189476
2636.0,0.02872415126189476
2635.0,0.02863136320857662
2634.0,0.028538594975413334
2633.0,0.028445846553939003
2632.0,0.028353117935693284
2631.0,0.02826040911222183
2630.0,0.028167720075074953
2629.0,0.02812138297373412
2628.0,0.028028723600243666
2627.0,0.02798240132598462
2626.0,0.02798240132598462
2625.0,0.027936083991977778
2624.0,0.027889771597169544
2623.0,0.027843464140506313
2622.0,0.027797161620935595
2621.0,0.027797161620935595
2620.0,0.027750864037404455
2619.0,0.0277045713888604
2618.0,0.027658283674251827
2617.0,0.027565723042634938
2616.0,0.02751945012352408
2615.0,0.027426919073445077
2614.0,0.02738066094037661
2613.0,0.027288159452933503
2612.0,0.02724191609646076
2611.0,0.027195677663422346
2610.0,0.02710321556345563
2609.0,0.027010773144651168
2608.0,0.02691835039863255
2607.0,0.026872146400301444
2606.0,0.02682594731702781
2605.0,0.02682594731702781
2604.0,0.02677975314776626
2603.0,0.026687379547098322
2602.0,0.026595025589939425
2601.0,0.026502691267936695
2600.0,0.026456531467510258
2599.0,0.026456531467510258
2598.0,0.026456531467510258
2597.0,0.026456531467510258
2596.0,0.026456531467510258
2595.0,0.026410376572743033
2594.0,0.026410376572743033
2593.0,0.02636422658259252
2592.0,0.026318081496016443
2591.0,0.026225806029419818
2590.0,0.02617967564731627
2589.0,0.02613355016462182
2588.0,0.026087429580295085
2587.0,0.026041313893296225
2586.0,0.025995203102585407
2585.0,0.025949097207122573
2584.0,0.025949097207122573
2583.0,0.025902996205869
2582.0,0.025856900097785074
2581.0,0.025856900097785074
2580.0,0.025856900097785074
2579.0,0.025856900097785074
2578.0,0.025856900097785074
2577.0,0.025856900097785074
2576.0,0.025856900097785074
2575.0,0.025856900097785074
2574.0,0.025764722556973707
2573.0,0.025764722556973707
2572.0,0.025764722556973707
2571.0,0.025764722556973707
2570.0,0.025718641122169483
2569.0,0.025672564576383117
2568.0,0.02558042614771394
2567.0,0.025488307262671706
2566.0,0.02544225514642018
2565.0,0.02539620791296726
2564.0,0.025304128090317013
2563.0,0.025258095499050004
2562.0,0.025258095499050004
2561.0,0.02521206778644225
2560.0,0.02521206778644225
2559.0,0.02512002699306959
2558.0,0.025074013910237447
2557.0,0.02498200236711723
2556.0,0.02498200236711723
2555.0,0.024936003904763915
2554.0,0.024936003904763915
2553.0,0.02498200236711723
2552.0,0.02498200236711723
2551.0,0.025028005701930978
2550.0,0.025074013910237447
2549.0,0.025074013910237447
2548.0,0.025074013910237447
2547.0,0.025028005701930978
2546.0,0.025028005701930978
2545.0,0.025028005701930978
2544.0,0.024936003904763915
2543.0,0.024798037742147727
2542.0,0.024660115394541604
2541.0,0.024568191490736968
2540.0,0.024568191490736968
2539.0,0.02461415101053266
2538.0,0.024660115394541604
2537.0,0.02461415101053266
2536.0,0.024568191490736968
2535.0,0.024476287039668643
2534.0,0.02438440203310499
2533.0,0.02438440203310499
2532.0,0.02438440203310499
2531.0,0.024430342106337877
2530.0,0.024430342106337877
2529.0,0.024476287039668643
2528.0,0.024476287039668643
2527.0,0.024476287039668643
2526.0,0.024476287039668643
2525.0,0.024522236834125355
2524.0,0.024522236834125355
2523.0,0.024522236834125355
2522.0,0.024476287039668643
2521.0,0.024338466818941473
2520.0,0.024292536462819925
2519.0,0.024246610963712723
2518.0,0.024246610963712723
2517.0,0.024200690320592466
2516.0,0.024154774532432866
2515.0,0.024017056287453542
2514.0,0.023879381700184332
2513.0,0.023741750742954926
2512.0,0.02365002099672653
2511.0,0.02355831062115543
2510.0,0.023604163388120325
2509.0,0.023695883447997224
2508.0,0.023833499868024743
2507.0,0.023925268380126097
2506.0,0.023925268380126097
2505.0,0.023879381700184332
2504.0,0.023741750742954926
2503.0,0.02365002099672653
2502.0,0.02365002099672653
2501.0,0.02365002099672653
2500.0,0.02365002099672653
2499.0,0.02351246269481
2498.0,0.023374947949272418
2497.0,0.023283295636617574
2496.0,0.023237476732539397
2495.0,0.023283295636617574
2494.0,0.023374947949272418
2493.0,0.02342078135989012
2492.0,0.023374947949272418
2491.0,0.023329119375188556
2490.0,0.023283295636617574
2489.0,0.023283295636617574
2488.0,0.023329119375188556
2487.0,0.023374947949272418
2486.0,0.023329119375188556
2485.0,0.023237476732539397
2484.0,0.02314585342378117
2483.0,0.023100049017062307
2482.0,0.023100049017062307
2481.0,0.023100049017062307
2480.0,0.023054249440757957
2479.0,0.02300845469384938
2478.0,0.02296266477531872
2477.0,0.02296266477531872
2476.0,0.02296266477531872
2475.0,0.02296266477531872
2474.0,0.022871099419317753
2473.0,0.02282532397981263
2472.0,0.02282532397981263
2471.0,0.02277955336461468
2470.0,0.02277955336461468
2469.0,0.02277955336461468
2468.0,0.02277955336461468
2467.0,0.02277955336461468
2466.0,0.022733787572707387
2465.0,0.022688026603074007
2464.0,0.022642270454698687
2463.0,0.022642270454698687
2462.0,0.022688026603074007
2461.0,0.02277955336461468
2460.0,0.02277955336461468
2459.0,0.022688026603074007
2458.0,0.022642270454698687
2457.0,0.02255077261765881
2456.0,0.022505030926963654
2455.0,0.022505030926963654
2454.0,0.022505030926963654
2453.0,0.022505030926963654
2452.0,0.022505030926963654
2451.0,0.02245929405346514
2450.0,0.022367834754000393
2449.0,0.02227639471115217
2448.0,0.0221849739168134
2447.0,0.022139270735302752
2446.0,0.0221849739168134
2445.0,0.02227639471115217
2444.0,0.022322112326006227
2443.0,0.022322112326006227
2442.0,0.022322112326006227
2441.0,0.022322112326006227
2440.0,0.02227639471115217
2439.0,0.0221849739168134
2438.0,0.022093572362881675
2437.0,0.02204787879853809
2436.0,0.02204787879853809
2435.0,0.022093572362881675
2434.0,0.022093572362881675
2433.0,0.022093572362881675
2432.0,0.021956506090037076
2431.0,0.021865152601710403
2430.0,0.021865152601710403
2429.0,0.021865152601710403
2428.0,0.021956506090037076
2427.0,0.02200219004126036
2426.0,0.02200219004126036
2425.0,0.02204787879853809
2424.0,0.022093572362881675
2423.0,0.022093572362881675
2422.0,0.022093572362881675
2421.0,0.02204787879853809
2420.0,0.02204787879853809
2419.0,0.02200219004126036
2418.0,0.02204787879853809
2417.0,0.02204787879853809
2416.0,0.02204787879853809
2415.0,0.02204787879853809
2414.0,0.02204787879853809
2413.0,0.022093572362881675
2412.0,0.022093572362881675
2411.0,0.022093572362881675
2410.0,0.022093572362881675
2409.0,0.02204787879853809
2408.0,0.021956506090037076
2407.0,0.021910826943857264
2406.0,0.021819483062586187
2405.0,0.021819483062586187
2404.0,0.021819483062586187
2403.0,0.021865152601710403
2402.0,0.021865152601710403
2401.0,0.021956506090037076
2400.0,0.021956506090037076
2399.0,0.021956506090037076
2398.0,0.021865152601710403
2397.0,0.021773818325474092
2396.0,0.021728158389364705
2395.0,0.021728158389364705
2394.0,0.021728158389364705
2393.0,0.021728158389364705
2392.0,0.021636852916117055
2391.0,0.021545566634771474
2390.0,0.021499930688540836
2389.0,0.0214542995372613
2388.0,0.021499930688540836
2387.0,0.0214542995372613
2386.0,0.02140867317992523
2385.0,0.021271822861508305
2384.0,0.0211806132671577
2383.0,0.0209982515252789
2382.0,0.020861530453190058
2381.0,0.020724852408976924
2380.0,0.02058821736556471
2379.0,0.02036058777709271
2378.0,0.020178569969774962
2377.0,0.02004210665933459
2376.0,0.01995115493504329
2375.0,0.019860222254245663
2374.0,0.019860222254245663
2373.0,0.01995115493504329
2372.0,0.02004210665933459
2371.0,0.01990568621470623
2370.0,0.01954210772389997
2369.0,0.019133445417920836
2368.0,0.018906576854070378
2367.0,0.01899731005860028
2366.0,0.019451260640229506
2365.0,0.02013307743509718
2364.0,0.020633757603838898
2363.0,0.02067930261797568
2362.0,0.02036058777709271
2361.0,0.019814763052665052
2360.0,0.019360432556262852
2359.0,0.019178833355664393
2358.0,0.019315025636685412
2357.0,0.01954210772389997
2356.0,0.01958753839310856
2355.0,0.01940584422377989
2354.0,0.019360432556262852
2353.0,0.01940584422377989
2352.0,0.019360432556262852
2351.0,0.019178833355664393
2350.0,0.019178833355664393
2349.0,0.019360432556262852
2348.0,0.01940584422377989
2347.0,0.019269623464054586
2346.0,0.019133445417920836
2345.0,0.019269623464054586
2344.0,0.01940584422377989
2343.0,0.01954210772389997
2342.0,0.019678413991243593
2341.0,0.019632973815224997
2340.0,0.01954210772389997
2339.0,0.01949668180660491
2338.0,0.019632973815224997
2337.0,0.019678413991243593
2336.0,0.01958753839310856
2335.0,0.019451260640229506
2334.0,0.01949668180660491
2333.0,0.019678413991243593
2332.0,0.019769308608968306
2331.0,0.019632973815224997
2330.0,0.019451260640229506
2329.0,0.019269623464054586
2328.0,0.019133445417920836
2327.0,0.019178833355664393
2326.0,0.01958753839310856
2325.0,0.02026956933771462
2324.0,0.020770406977844713
2323.0,0.0209982515252789
2322.0,0.021043834782408455
2321.0,0.0209982515252789
2320.0,0.0209982515252789
2319.0,0.0209982515252789
2318.0,0.021135015652343103
2317.0,0.021317434843055594
2316.0,0.0214542995372613
2315.0,0.02140867317992523
2314.0,0.021271822861508305
2313.0,0.021089422824428272
2312.0,0.020907099361673565
2311.0,0.020724852408976924
2310.0,0.02058821736556471
2309.0,0.02045162529590483
2308.0,0.02036058777709271
2307.0,0.020315076172974234
2306.0,0.02036058777709271
2305.0,0.020497151212598652
2304.0,0.02058821736556471
2303.0,0.020633757603838898
2302.0,0.02067930261797568
2301.0,0.02067930261797568
2300.0,0.02067930261797568
2299.0,0.02067930261797568
2298.0,0.020770406977844713
2297.0,0.020861530453190058
2296.0,0.020907099361673565
2295.0,0.020952673052035298
2294.0,0.0209982515252789
2293.0,0.0209982515252789
2292.0,0.020952673052035298
2291.0,0.020907099361673565
2290.0,0.020861530453190058
2289.0,0.02081596632558158
2288.0,0.02081596632558158
2287.0,0.02081596632558158
2286.0,0.020907099361673565
2285.0,0.020952673052035298
2284.0,0.0209982515252789
2283.0,0.0209982515252789
2282.0,0.0209982515252789
2281.0,0.020952673052035298
2280.0,0.020861530453190058
2279.0,0.020770406977844713
2278.0,0.02067930261797568
2277.0,0.02067930261797568
2276.0,0.02067930261797568
2275.0,0.02067930261797568
2274.0,0.02067930261797568
2273.0,0.020633757603838898
2272.0,0.02058821736556471
2271.0,0.02058821736556471
2270.0,0.020633757603838898
2269.0,0.02067930261797568
2268.0,0.020724852408976924
2267.0,0.020724852408976924
2266.0,0.02067930261797568
2265.0,0.020633757603838898
2264.0,0.020542681902151694
2263.0,0.02045162529590483
2262.0,0.020406104151069693
2261.0,0.020406104151069693
2260.0,0.020406104151069693
2259.0,0.020406104151069693
2258.0,0.02036058777709271
2257.0,0.02026956933771462
2256.0,0.02026956933771462
2255.0,0.02026956933771462
2254.0,0.020315076172974234
2253.0,0.020406104151069693
2252.0,0.020497151212598652
2251.0,0.020542681902151694
2250.0,0.020497151212598652
2249.0,0.020497151212598652
2248.0,0.020497151212598652
2247.0,0.020497151212598652
2246.0,0.020497151212598652
2245.0,0.020542681902151694
2244.0,0.02058821736556471
2243.0,0.02058821736556471
2242.0,0.02067930261797568
2241.0,0.020724852408976924
2240.0,0.020724852408976924
2239.0,0.02067930261797568
2238.0,0.020633757603838898
2237.0,0.020633757603838898
2236.0,0.02058821736556471
2235.0,0.02058821736556471
2234.0,0.020542681902151694
2233.0,0.020542681902151694
2232.0,0.020497151212598652
2231.0,0.020497151212598652
2230.0,0.020542681902151694
2229.0,0.02058821736556471
2228.0,0.02058821736556471
2227.0,0.02058821736556471
2226.0,0.02058821736556471
2225.0,0.020542681902151694
2224.0,0.02045162529590483
2223.0,0.02036058777709271
2222.0,0.02036058777709271
2221.0,0.02036058777709271
2220.0,0.020406104151069693
2219.0,0.02045162529590483
2218.0,0.020542681902151694
2217.0,0.020633757603838898
2216.0,0.020633757603838898
2215.0,0.020542681902151694
2214.0,0.02045162529590483
2213.0,0.02036058777709271
2212.0,0.02026956933771462
2211.0,0.020178569969774962
2210.0,0.020087589665283012
2209.0,0.02013307743509718
2208.0,0.020178569969774962
2207.0,0.020178569969774962
2206.0,0.02022406727031445
2205.0,0.02022406727031445
2204.0,0.020178569969774962
2203.0,0.020178569969774962
2202.0,0.02022406727031445
2201.0,0.02026956933771462
2200.0,0.020315076172974234
2199.0,0.02036058777709271
2198.0,0.02036058777709271
2197.0,0.02036058777709271
2196.0,0.02036058777709271
2195.0,0.020315076172974234
2194.0,0.02026956933771462
2193.0,0.02026956933771462
2192.0,0.020315076172974234
2191.0,0.020315076172974234
2190.0,0.020315076172974234
2189.0,0.02026956933771462
2188.0,0.020178569969774962
2187.0,0.020087589665283012
2186.0,0.020087589665283012
2185.0,0.02013307743509718
2184.0,0.020178569969774962
2183.0,0.02022406727031445
2182.0,0.02022406727031445
2181.0,0.02022406727031445
2180.0,0.02022406727031445
2179.0,0.02022406727031445
2178.0,0.020178569969774962
2177.0,0.020178569969774962
2176.0,0.020178569969774962
2175.0,0.020178569969774962
2174.0,0.020178569969774962
2173.0,0.020178569969774962
2172.0,0.02013307743509718
2171.0,0.02013307743509718
2170.0,0.02013307743509718
2169.0,0.02013307743509718
2168.0,0.02013307743509718
2167.0,0.02013307743509718
2166.0,0.02013307743509718
2165.0,0.02022406727031445
2164.0,0.02026956933771462
2163.0,0.02026956933771462
2162.0,0.020315076172974234
2161.0,0.020315076172974234
2160.0,0.02026956933771462
2159.0,0.02022406727031445
2158.0,0.02013307743509718
2157.0,0.02013307743509718
2156.0,0.020178569969774962
2155.0,0.02022406727031445
2154.0,0.02022406727031445
2153.0,0.020178569969774962
2152.0,0.02013307743509718
2151.0,0.020087589665283012
2150.0,0.020087589665283012
2149.0,0.020087589665283012
2148.0,0.02004210665933459
2147.0,0.019996628416253603
2146.0,0.019996628416253603
2145.0,0.01995115493504329
2144.0,0.01995115493504329
2143.0,0.01990568621470623
2142.0,0.01990568621470623
2141.0,0.01995115493504329
2140.0,0.019996628416253603
2139.0,0.01995115493504329
2138.0,0.01995115493504329
2137.0,0.01995115493504329
2136.0,0.019996628416253603
2135.0,0.019996628416253603
2134.0,0.019996628416253603
2133.0,0.019996628416253603
2132.0,0.019996628416253603
2131.0,0.01995115493504329
2130.0,0.01995115493504329
2129.0,0.01990568621470623
2128.0,0.019860222254245663
2127.0,0.019769308608968306
2126.0,0.019678413991243593
2125.0,0.019678413991243593
2124.0,0.019678413991243593
2123.0,0.019678413991243593
2122.0,0.019769308608968306
2121.0,0.019769308608968306
2120.0,0.019769308608968306
2119.0,0.019678413991243593
2118.0,0.019632973815224997
2117.0,0.01958753839310856
2116.0,0.01958753839310856
2115.0,0.01958753839310856
2114.0,0.01958753839310856
2113.0,0.01958753839310856
2112.0,0.01958753839310856
2111.0,0.01958753839310856
2110.0,0.01954210772389997
2109.0,0.01954210772389997
2108.0,0.01954210772389997
2107.0,0.01954210772389997
2106.0,0.01949668180660491
2105.0,0.019451260640229506
2104.0,0.019360432556262852
2103.0,0.019269623464054586
2102.0,0.0192242260373785
2101.0,0.0192242260373785
2100.0,0.0192242260373785
2099.0,0.019178833355664393
2098.0,0.019178833355664393
2097.0,0.0192242260373785
2096.0,0.019269623464054586
2095.0,0.019269623464054586
2094.0,0.019269623464054586
2093.0,0.019178833355664393
2092.0,0.0190880622231564
2091.0,0.019042683770379876
2090.0,0.019042683770379876
2089.0,0.0190880622231564
2088.0,0.0190880622231564
2087.0,0.019133445417920836
2086.0,0.019133445417920836
2085.0,0.019178833355664393
2084.0,0.0192242260373785
2083.0,0.019269623464054586
2082.0,0.019269623464054586
2081.0,0.0192242260373785
2080.0,0.019133445417920836
2079.0,0.0190880622231564
2078.0,0.01899731005860028
2077.0,0.018951941086827073
2076.0,0.018906576854070378
2075.0,0.018906576854070378
2074.0,0.018906576854070378
2073.0,0.018906576854070378
2072.0,0.018906576854070378
2071.0,0.018861217359339655
2070.0,0.018815862601645694
2069.0,0.018770512579999288
2068.0,0.018770512579999288
2067.0,0.018770512579999288
2066.0,0.018770512579999288
2065.0,0.018770512579999288
2064.0,0.018725167293411005
2063.0,0.018634490921455527
2062.0,0.018634490921455527
2061.0,0.018634490921455527
2060.0,0.018679826740892747
2059.0,0.018679826740892747
2058.0,0.018725167293411005
2057.0,0.018725167293411005
2056.0,0.018725167293411005
2055.0,0.018725167293411005
2054.0,0.018725167293411005
2053.0,0.018725167293411005
2052.0,0.018725167293411005
2051.0,0.018679826740892747
2050.0,0.018634490921455527
2049.0,0.018679826740892747
2048.0,0.018679826740892747
2047.0,0.018679826740892747
2046.0,0.018725167293411005
2045.0,0.018770512579999288
2044.0,0.018770512579999288
2043.0,0.018770512579999288
2042.0,0.018770512579999288
2041.0,0.018815862601645694
2040.0,0.018815862601645694
2039.0,0.018770512579999288
2038.0,0.018770512579999288
2037.0,0.018725167293411005
2036.0,0.018725167293411005
2035.0,0.018725167293411005
2034.0,0.018770512579999288
2033.0,0.018815862601645694
2032.0,0.018770512579999288
2031.0,0.018725167293411005
2030.0,0.018679826740892747
2029.0,0.018725167293411005
2028.0,0.018770512579999288
2027.0,0.018770512579999288
2026.0,0.018815862601645694
2025.0,0.018815862601645694
2024.0,0.018815862601645694
2023.0,0.018861217359339655
2022.0,0.018861217359339655
2021.0,0.018861217359339655
2020.0,0.018815862601645694
2019.0,0.018770512579999288
2018.0,0.018725167293411005
2017.0,0.018679826740892747
2016.0,0.018634490921455527
2015.0,0.018634490921455527
2014.0,0.018634490921455527
2013.0,0.01858915983411169
2012.0,0.018543833477873584
2011.0,0.01845319495476394
2010.0,0.018362575344230914
2009.0,0.018362575344230914
2008.0,0.01831727262871463
2007.0,0.018271974638383703
2006.0,0.018271974638383703
2005.0,0.01831727262871463
2004.0,0.01831727262871463
2003.0,0.018271974638383703
2002.0,0.018226681372252695
2001.0,0.018181392829336396
2000.0,0.018136109008649592
1999.0,0.018045555530026514
1998.0,0.01800028587012159
1997.0,0.017909760704207134
1996.0,0.017909760704207134
1995.0,0.017909760704207134
1994.0,0.01800028587012159
1993.0,0.01800028587012159
1992.0,0.01800028587012159
1991.0,0.017955020928509757
1990.0,0.017955020928509757
1989.0,0.018045555530026514
1988.0,0.018045555530026514
1987.0,0.017955020928509757
1986.0,0.017909760704207134
1985.0,0.017955020928509757
1984.0,0.01800028587012159
1983.0,0.017955020928509757
1982.0,0.017909760704207134
1981.0,0.017909760704207134
1980.0,0.017864505196230507
1979.0,0.017774008325325275
1978.0,0.017774008325325275
1977.0,0.017774008325325275
1976.0,0.01781925440359733
1975.0,0.017864505196230507
1974.0,0.017909760704207134
1973.0,0.017909760704207134
1972.0,0.017864505196230507
1971.0,0.017774008325325275
1970.0,0.017728766960431575
1969.0,0.017728766960431575
1968.0,0.017728766960431575
1967.0,0.017638298366853045
1966.0,0.01759307113620534
1965.0,0.01759307113620534
1964.0,0.01759307113620534
1963.0,0.01759307113620534
1962.0,0.017547848615010242
1961.0,0.01759307113620534
1960.0,0.01768353030793479
1959.0,0.017728766960431575
1958.0,0.017774008325325275
1957.0,0.01781925440359733
1956.0,0.01781925440359733
1955.0,0.01781925440359733
1954.0,0.01781925440359733
1953.0,0.01781925440359733
1952.0,0.017774008325325275
1951.0,0.01768353030793479
1950.0,0.01759307113620534
1949.0,0.017502630802287644
1948.0,0.017412209298337533
1947.0,0.017367005605150476
1946.0,0.017367005605150476
1945.0,0.017502630802287644
1944.0,0.01759307113620534
1943.0,0.017638298366853045
1942.0,0.017547848615010242
1941.0,0.017457417697056554
1940.0,0.017412209298337533
1939.0,0.017412209298337533
1938.0,0.017412209298337533
1937.0,0.017412209298337533
1936.0,0.017412209298337533
1935.0,0.017457417697056554
1934.0,0.017457417697056554
1933.0,0.017412209298337533
1932.0,0.01727661233145472
1931.0,0.017186237868137555
1930.0,0.017231422748988034
1929.0,0.01727661233145472
1928.0,0.017367005605150476
1927.0,0.017367005605150476
1926.0,0.017367005605150476
1925.0,0.017367005605150476
1924.0,0.017321806616515723
1923.0,0.017186237868137555
1922.0,0.017050711425501408
1921.0,0.017095882207371904
1920.0,0.017321806616515723
1919.0,0.017457417697056554
1918.0,0.017412209298337533
1917.0,0.01727661233145472
1916.0,0.017231422748988034
1915.0,0.017231422748988034
1914.0,0.01727661233145472
1913.0,0.017231422748988034
1912.0,0.017186237868137555
1911.0,0.017095882207371904
1910.0,0.017005545341335804
1909.0,0.016915227262211507
1908.0,0.016870075265299933
1907.0,0.016915227262211507
1906.0,0.017005545341335804
1905.0,0.017141057687924732
1904.0,0.017141057687924732
1903.0,0.017141057687924732
1902.0,0.017095882207371904
1901.0,0.017095882207371904
1900.0,0.017050711425501408
1899.0,0.017050711425501408
1898.0,0.017005545341335804
1897.0,0.017005545341335804
1896.0,0.016960383953898095
1895.0,0.016870075265299933
1894.0,0.016870075265299933
1893.0,0.016960383953898095
1892.0,0.017141057687924732
1891.0,0.017231422748988034
1890.0,0.017141057687924732
1889.0,0.016960383953898095
1888.0,0.01677978535189717
1887.0,0.016734647433454652
1886.0,0.016734647433454652
1885.0,0.016689514205884493
1884.0,0.016644385668211692
1883.0,0.016644385668211692
1882.0,0.016689514205884493
1881.0,0.01677978535189717
1880.0,0.01677978535189717
1879.0,0.01677978535189717
1878.0,0.01677978535189717
1877.0,0.016734647433454652
1876.0,0.016644385668211692
1875.0,0.01646391839700767
1874.0,0.016373712875465518
1873.0,0.016418813294209356
1872.0,0.016554142658660398
1871.0,0.016644385668211692
1870.0,0.016644385668211692
1869.0,0.016509028184833463
1868.0,0.016193358021584725
1867.0,0.016013078034810446
1866.0,0.016058141016111804
1865.0,0.016193358021584725
1864.0,0.01628352608625061
1863.0,0.01632861713980338
1862.0,0.016373712875465518
1861.0,0.016418813294209356
1860.0,0.016418813294209356
1859.0,0.016373712875465518
1858.0,0.01632861713980338
1857.0,0.01632861713980338
1856.0,0.016373712875465518
1855.0,0.016418813294209356
1854.0,0.01646391839700767
1853.0,0.01646391839700767
1852.0,0.016418813294209356
1851.0,0.01632861713980338
1850.0,0.01628352608625061
1849.0,0.016238439713835096
1848.0,0.016238439713835096
1847.0,0.016418813294209356
1846.0,0.016689514205884493
1845.0,0.01677978535189717
1844.0,0.016509028184833463
1843.0,0.016148281008528276
1842.0,0.016058141016111804
1841.0,0.01628352608625061
1840.0,0.016418813294209356
1839.0,0.01632861713980338
1838.0,0.016193358021584725
1837.0,0.016103208673694303
1836.0,0.016013078034810446
1835.0,0.01596801972881945
1834.0,0.01596801972881945
1833.0,0.016148281008528276
1832.0,0.016373712875465518
1831.0,0.016418813294209356
1830.0,0.016148281008528276
1829.0,0.015877917138889863
1828.0,0.015922966097169144
1827.0,0.016238439713835096
1826.0,0.016418813294209356
1825.0,0.01628352608625061
1824.0,0.016058141016111804
1823.0,0.01596801972881945
1822.0,0.016013078034810446
1821.0,0.016058141016111804
1820.0,0.016058141016111804
1819.0,0.016058141016111804
1818.0,0.016058141016111804
1817.0,0.016103208673694303
1816.0,0.016058141016111804
1815.0,0.016013078034810446
1814.0,0.01596801972881945
1813.0,0.01596801972881945
1812.0,0.015832872853011715
1811.0,0.015652742414136167
1810.0,0.01547268665620738
1809.0,0.015517693597737248
1808.0,0.015607721475734415
1807.0,0.015652742414136167
1806.0,0.015697768020096703
1805.0,0.01578783323856614
1804.0,0.015877917138889863
1803.0,0.01596801972881945
1802.0,0.016013078034810446
1801.0,0.01596801972881945
1800.0,0.015832872853011715
1799.0,0.015652742414136167
1798.0,0.015607721475734415
1797.0,0.015652742414136167
1796.0,0.01578783323856614
1795.0,0.01596801972881945
1794.0,0.016193358021584725
1793.0,0.01628352608625061
1792.0,0.016103208673694303
1791.0,0.015832872853011715
1790.0,0.015742798294583915
1789.0,0.01596801972881945
1788.0,0.016103208673694303
1787.0,0.016148281008528276
1786.0,0.016148281008528276
1785.0,0.016148281008528276
1784.0,0.016103208673694303
1783.0,0.016058141016111804
1782.0,0.016058141016111804
1781.0,0.015922966097169144
1780.0,0.015742798294583915
1779.0,0.015607721475734415
1778.0,0.015697768020096703
1777.0,0.015832872853011715
1776.0,0.01596801972881945
1775.0,0.016103208673694303
1774.0,0.016103208673694303
1773.0,0.015832872853011715
1772.0,0.015337693809893471
1771.0,0.015202742910707112
1770.0,0.015652742414136167
1769.0,0.016238439713835096
1768.0,0.016373712875465518
1767.0,0.016103208673694303
1766.0,0.01596801972881945
1765.0,0.016193358021584725
1764.0,0.016509028184833463
1763.0,0.016599261819461697
1762.0,0.016418813294209356
1761.0,0.016148281008528276
1760.0,0.016103208673694303
1759.0,0.01628352608625061
1758.0,0.016418813294209356
1757.0,0.016373712875465518
1756.0,0.016238439713835096
1755.0,0.01632861713980338
1754.0,0.016644385668211692
1753.0,0.016915227262211507
1752.0,0.016824927962187042
1751.0,0.01646391839700767
1750.0,0.016103208673694303
1749.0,0.016148281008528276
1748.0,0.016373712875465518
1747.0,0.016599261819461697
1746.0,0.016734647433454652
1745.0,0.016870075265299933
1744.0,0.017005545341335804
1743.0,0.017141057687924732
1742.0,0.017412209298337533
1741.0,0.01781925440359733
1740.0,0.017909760704207134
1739.0,0.01759307113620534
1738.0,0.01759307113620534
1737.0,0.018181392829336396
1736.0,0.018770512579999288
1735.0,0.018770512579999288
1734.0,0.017864505196230507
1733.0,0.016824927962187042
1732.0,0.016734647433454652
1731.0,0.017321806616515723
1730.0,0.01781925440359733
1729.0,0.01800028587012159
1728.0,0.01809082990920774
1727.0,0.018226681372252695
1726.0,0.01840788278591865
1725.0,0.01858915983411169
1724.0,0.018725167293411005
1723.0,0.018725167293411005
1722.0,0.018861217359339655
1721.0,0.019315025636685412
1720.0,0.019814763052665052
1719.0,0.019814763052665052
1718.0,0.0192242260373785
1717.0,0.01840788278591865
1716.0,0.018045555530026514
1715.0,0.018271974638383703
1714.0,0.018861217359339655
1713.0,0.019451260640229506
1712.0,0.019860222254245663
1711.0,0.020087589665283012
1710.0,0.02036058777709271
1709.0,0.02067930261797568
1708.0,0.021135015652343103
1707.0,0.021499930688540836
1706.0,0.02159120737696063
1705.0,0.02159120737696063
1704.0,0.02200219004126036
1703.0,0.02296266477531872
1702.0,0.02406295751688936
1701.0,0.02498200236711723
1700.0,0.025258095499050004
1699.0,0.02498200236711723
1698.0,0.025304128090317013
1697.0,0.026041313893296225
1696.0,0.02636422658259252
1695.0,0.026271941311972746
1694.0,0.02682594731702781
1693.0,0.028167720075074953
1692.0,0.029467170231675777
1691.0,0.03030458888152676
1690.0,0.030910397045078586
1689.0,0.031563752288295444
1688.0,0.03235843591698884
1687.0,0.0329671178412978
1686.0,0.033482823553208085
1685.0,0.034516075754861264
1684.0,0.035693217696063595
1683.0,0.03635381351515665
1682.0,0.03753595394209874
1681.0,0.03876880295533702
1680.0,0.03957679292217042
1679.0,0.04019568349166214
1678.0,0.041006334969674096
1677.0,0.04215336629184985
1676.0,0.04339941178682327
1675.0,0.04421607108308856
1674.0,0.04455278942230456
1673.0,0.04484161307420642
1672.0,0.04537162249272897
1671.0,0.04599883231842972
1670.0,0.04677202844014605
1669.0,0.04744970610179822
1668.0,0.04803141550708934
1667.0,0.04851676924770687
1666.0,0.048954051864180226
1665.0,0.04944043838819989
1664.0,0.04997609347667353
1663.0,0.05056119896349576
1662.0,0.05100054597304693
1661.0,0.05129369109514803
1660.0,0.0515870342213991
1659.0,0.05173378011970464
1658.0,0.0518316382728683
1657.0,0.052027420754219955
1656.0,0.05227227303668425
1655.0,0.05227227303668425
1654.0,0.05271335532220167
1653.0,0.05310580489767336
1652.0,0.05217431555754937
1651.0,0.05212534510230182
1650.0,0.05295859474477971
1649.0,0.05374429280060267
1648.0,0.05423607688882637
1647.0,0.054679159207724926
1646.0,0.05482695382609992
1645.0,0.0549255115212699
1644.0,0.055122694036304765
1643.0,0.05531996611868961
1642.0,0.05551732784983132
1641.0,0.055566682299785564
1640.0,0.05551732784983132
1639.0,0.05546797900801881
1638.0,0.05551732784983132
1637.0,0.05586292684190197
1636.0,0.05655495097496965
1635.0,0.056950888991593285
1634.0,0.057198533682059516
1633.0,0.05754547365752294
1632.0,0.05779345772290467
1631.0,0.05779345772290467
1630.0,0.05784307153250956
1629.0,0.05809122563440061
1628.0,0.0583395216116076
1627.0,0.058538260652670315
1626.0,0.058737090681050264
1625.0,0.059035506507200575
1624.0,0.05948351506743288
1623.0,0.05988213325228142
1622.0,0.060131455540490375
1621.0,0.06038092104330195
1620.0,0.06058059667068294
1619.0,0.06063052992534024
1618.0,0.060730413661268745
1617.0,0.06128018521761747
1616.0,0.061830653609679764
1615.0,0.06243196139961715
1614.0,0.06343599486473406
1613.0,0.06444235490698613
1612.0,0.06514819703433927
1611.0,0.06570359318059427
1610.0,0.06646209802829528
1609.0,0.06737405597821788
1608.0,0.06828793294324442
1607.0,0.06925467168888666
1606.0,0.0702746216219956
1605.0,0.07124579782334672
1604.0,0.07227044022834539
1603.0,0.07334892291111106
1602.0,0.07443009045662374
1601.0,0.07546228222451012
1600.0,0.07649693305789551
1599.0,0.07743023101428781
1598.0,0.07836553894629472
1597.0,0.0794071379151915
1596.0,0.08060807322614072
1595.0,0.08191721535781271
1594.0,0.0832303157168639
1593.0,0.08444188458847957
1592.0,0.08555105930144569
1591.0,0.08666307406737683
1590.0,0.08783110394037297
1589.0,0.08905559425002108
1588.0,0.09023008526723086
1587.0,0.09135416109288674
1586.0,0.09248115389337075
1585.0,0.0935572061829677
1584.0,0.09458193129745807
1583.0,0.09566320779750503
1582.0,0.09669292003582619
1581.0,0.09745322068600859
1580.0,0.09794268919153337
1579.0,0.09816040794877057
1578.0,0.09843270997155007
1577.0,0.09957824654226233
1576.0,0.1014393550602879
1575.0,0.10281292341984649
1574.0,0.10352889952072264
1573.0,0.10397008760377302
1572.0,0.10419084983086901
1571.0,0.10479852522110678
1570.0,0.1062937069352865
1569.0,0.10784972209863586
1568.0,0.10862982530385179
1567.0,0.10885296955122903
1566.0,0.10907622851098608
1565.0,0.10957898119908571
1564.0,0.11013827874181148
1563.0,0.11008231656379408
1562.0,0.10924374808178183
1561.0,0.10790539730951965
1560.0,0.10896458468468917
1559.0,0.11475189221861393
1558.0,0.11804502866039956
1557.0,0.11844417020668851
1556.0,0.11850122038501709
1555.0,0.11867241589944855
1554.0,0.11890078161098283
1553.0,0.1190150095132465
1552.0,0.11924355548978971
1551.0,0.11970100857424737
1550.0,0.1203880929341492
1549.0,0.12084675381575383
1548.0,0.1207320431753871
1547.0,0.1202162199095842
1546.0,0.11964380058076385
1545.0,0.11941504393502012
1544.0,0.11935787359571504
1543.0,0.11884367892443626
1542.0,0.11798803837334138
1541.0,0.11804502866039956
1540.0,0.11918640771920863
1539.0,0.1190150095132465
1538.0,0.11787408022996826
1537.0,0.116736140415026
1536.0,0.11565785235294102
1535.0,0.11463877996848804
1534.0,0.11418662533951118
1533.0,0.11424311893073247
1532.0,0.1137349409702435
1531.0,0.11260778102815316
1530.0,0.11125903931710734
1529.0,0.11019424813191447
1528.0,0.10969078310005154
1527.0,0.10941133229451272
1526.0,0.10918790104487552
1525.0,0.10885296955122903
1524.0,0.1082953237608173
1523.0,0.10784972209863586
1522.0,0.1082953237608173
1521.0,0.10935546370475246
1520.0,0.10980261378997125
1519.0,0.10963487855187593
1518.0,0.10974669484546551
1517.0,0.11058623595729111
1516.0,0.1114835389250548
1515.0,0.1117081546434846
1514.0,0.1114835389250548
1513.0,0.11131515334030118
1512.0,0.11120293254331926
1511.0,0.11075433910702048
1510.0,0.11002636159600376
1509.0,0.10941133229451272
1508.0,0.11058623595729111
1507.0,0.11390426756225258
1506.0,0.11599807523121286
1505.0,0.11616828667054757
1504.0,0.11565785235294102
1503.0,0.11492161585077598
1502.0,0.11441264381034388
1501.0,0.11424311893073247
1500.0,0.11446916681190777
1499.0,0.114865033936566
1498.0,0.11560117444331386
1497.0,0.11667932161702477
1496.0,0.11758931562603192
1495.0,0.1175323851046286
1494.0,0.11702034596270106
1493.0,0.1165089098110701
1492.0,0.11622503864474187
1491.0,0.1163953390777075
1490.0,0.11730473761840288
1489.0,0.11844417020668851
1488.0,0.1190150095132465
1487.0,0.11890078161098283
1486.0,0.11855827805860697
1485.0,0.11821604440661537
1484.0,0.11776015198117662
1483.0,0.11741854644554883
1482.0,0.11741854644554883
1481.0,0.11781711236973003
1480.0,0.11815903167507247
1479.0,0.11855827805860697
1478.0,0.11987267778337518
1477.0,0.12326270285933538
1476.0,0.12895273869450063
1475.0,0.13649869935854997
1474.0,0.1463626180414057
1473.0,0.157390760389438
1472.0,0.1644362483309032
1471.0,0.16557929631846746
1470.0,0.16424603248061653
1469.0,0.1627904721987936
1468.0,0.16178077809237412
1467.0,0.16171775008531153
1466.0,0.1637391971415132
1465.0,0.16793838540927308
1464.0,0.1714045436282976
1463.0,0.1714045436282976
1462.0,0.16819419132560887
1461.0,0.16291684917681404
1460.0,0.15682953548010214
1459.0,0.15119529894819617
1458.0,0.1477030341730745
1457.0,0.14642345638035836
1456.0,0.14490504884137811
1455.0,0.1423660148499919
1454.0,0.1394224487555844
1453.0,0.13632033212410222
1452.0,0.13329924395750092
1451.0,0.1305922506177981
1450.0,0.1282519810081284
1449.0,0.1263307072932056
1448.0,0.12464930342071079
1447.0,0.12314735239865637
1446.0,0.12147820449879343
1445.0,0.11964380058076385
1444.0,0.11781711236973003
1443.0,0.11605480496572018
1442.0,0.11429961987167014
1441.0,0.11249522576462212
1440.0,0.1106422631110684
1439.0,0.10896458468468917
1438.0,0.10740457717110186
1437.0,0.10596099919539115
1436.0,0.10435649517592083
1435.0,0.10231793820358015
1434.0,0.10007011727213588
1433.0,0.09777947172068524
1432.0,0.09550084460218011
1431.0,0.09344948089854999
1430.0,0.09146136782804049
1429.0,0.08953568400438638
1428.0,0.08761850108119962
1427.0,0.08581556657675371
1426.0,0.08402008585977572
1425.0,0.08217951800630297
1424.0,0.0805035121369384
1423.0,0.07914650387874067
1422.0,0.07794959783282618
1421.0,0.07670415934449615
1420.0,0.07572071393811841
1419.0,0.07515236702446293
1418.0,0.07443009045662374
1417.0,0.07355465218161061
1416.0,0.07278366940873537
1415.0,0.0720140529005715
1414.0,0.07129697256940304
1413.0,0.07068327324650436
1412.0,0.0702746216219956
1411.0,0.07001940948448526
1410.0,0.06971335275448043
1409.0,0.06930561233546473
1408.0,0.0690000580438479
1407.0,0.0688982543673613
1406.0,0.0690000580438479
1405.0,0.06915280831750303
1404.0,0.06935655895783555
1403.0,0.06956040523329987
1402.0,0.06961138175567827
1401.0,0.06961138175567827
1400.0,0.06996838504902692
1399.0,0.07052998382251041
1398.0,0.07093887591523451
1397.0,0.07114346641808922
1396.0,0.07150173187630915
1395.0,0.07221915065262552
1394.0,0.07293775650699996
1393.0,0.07329750581735506
1392.0,0.0734517753643813
1391.0,0.07360609973031784
1390.0,0.07376047895413773
1389.0,0.07406940213152868
1388.0,0.07468790850035045
1387.0,0.07556563645676939
1386.0,0.07628980560343712
1385.0,0.07675598136972361
1384.0,0.07732643214144574
1383.0,0.07805354577058976
1382.0,0.07893810920972144
1381.0,0.07998108397108505
1380.0,0.08107890990866418
1379.0,0.08223199755224364
1378.0,0.08301995267961781
1377.0,0.08344078069888616
1376.0,0.08370400543686918
1375.0,0.08417821237960132
1374.0,0.08486409337798806
1373.0,0.08549817717268593
1372.0,0.08597434830367123
1371.0,0.08645104209348209
1370.0,0.08698131625203986
1369.0,0.08756536662442538
1368.0,0.08825662214406838
1367.0,0.08884239126002336
1366.0,0.0892689019566193
1365.0,0.08964244272712252
1364.0,0.09023008526723086
1363.0,0.09124698081546634
1362.0,0.09226626300234453
1361.0,0.09301884677114591
1360.0,0.0935033402006471
1359.0,0.09393445524476318
1358.0,0.09441997176475758
1357.0,0.09496007192378841
1356.0,0.09566320779750503
1355.0,0.09663866374468144
1354.0,0.0975619438013351
1353.0,0.09848719087006019
1352.0,0.09925064193892053
1351.0,0.10001543745060903
1350.0,0.10067205012234592
1349.0,0.10132965703447017
1348.0,0.10193333935836524
1347.0,0.10259286033841963
1346.0,0.10314322726279568
1345.0,0.10363915453068362
1344.0,0.10402526764093545
1343.0,0.10430127304069425
1342.0,0.10452220372428545
1341.0,0.10479852522110678
1340.0,0.10529634739076998
1339.0,0.10585015323207791
1338.0,0.1061827760325369
1337.0,0.1061827760325369
1336.0,0.10596099919539115
1335.0,0.10557316203581202
1334.0,0.10513034325474746
1333.0,0.10452220372428545
1332.0,0.10397008760377302
1331.0,0.1033635694704158
1330.0,0.10253786198693682
1329.0,0.10160395406999112
1328.0,0.1005625457138224
1327.0,0.09952362861074304
1326.0,0.09848719087006019
1325.0,0.09739886933346864
1324.0,0.09625905937846135
1323.0,0.09506817260434741
1322.0,0.09382663635595145
1321.0,0.09253489323414388
1320.0,0.09130056764777605
1319.0,0.09023008526723086
1318.0,0.08916223500731646
1317.0,0.0880970039559672
1316.0,0.08698131625203986
1315.0,0.08592141461088798
1314.0,0.08491689834879956
1313.0,0.08396738981143059
1312.0,0.0830725338870073
1311.0,0.08228448344050654
1310.0,0.08155025759884227
1309.0,0.08076496207674921
1308.0,0.07998108397108505
1307.0,0.07935499859321249
1306.0,0.07878187880504961
1305.0,0.0781575185941421
1304.0,0.07758597585436577
1303.0,0.07701518429111709
1302.0,0.07649693305789551
1301.0,0.07592757008963713
1300.0,0.07541061433058172
1299.0,0.07494587968815725
1298.0,0.07443009045662374
1297.0,0.07396640332115534
1296.0,0.0734517753643813
1295.0,0.0729891310243489
1294.0,0.07247565912497134
1293.0,0.07186029312488018
1292.0,0.07124579782334672
1291.0,0.07073438174693436
1290.0,0.0702746216219956
1289.0,0.06981534770138009
1288.0,0.06935655895783555
1287.0,0.0688982543673613
1286.0,0.06844043290919477
1285.0,0.06798309356579857
1284.0,0.06752623532284674
1283.0,0.06712054217620067
1282.0,0.0666645899223488
1281.0,0.06625970050306473
1280.0,0.06580465065211571
1279.0,0.0654005617819271
1278.0,0.06494641076893504
1277.0,0.06449273417528723
1276.0,0.06403953101083348
1275.0,0.06363708040225546
1274.0,0.06328524178879635
1273.0,0.06303410289212974
1272.0,0.0627329277885873
1271.0,0.06248210798265341
1270.0,0.06223143295006417
1269.0,0.06193081377661436
1268.0,0.061680456657844385
1267.0,0.061580354206806964
1266.0,0.061580354206806964
1265.0,0.061580354206806964
1264.0,0.06153031163235467
1263.0,0.06148027482350815
1262.0,0.06143024377893891
1261.0,0.06128018521761747
1260.0,0.0611301784870133
1259.0,0.06103020277710969
1258.0,0.06093025007657582
1257.0,0.060730413661268745
1256.0,0.060430831344098435
1255.0,0.0601813371786204
1254.0,0.05988213325228142
1253.0,0.0595831353183347
1252.0,0.05928434309333741
1251.0,0.059035506507200575
1250.0,0.058786812414678646
1249.0,0.05848856736559682
1248.0,0.05814087347462649
1247.0,0.05779345772290467
1246.0,0.05744631966579017
1245.0,0.05709945885970602
1244.0,0.0567528748621382
1243.0,0.05635711724787096
1242.0,0.055912320584565744
1241.0,0.05546797900801881
1240.0,0.05502409158795207
1239.0,0.054679159207724926
1238.0,0.05438372077326825
1237.0,0.05403929642243144
1236.0,0.05369514500652506
1235.0,0.05330216275425803
1234.0,0.05295859474477971
1233.0,0.05261529831525902
1232.0,0.05227227303668425
1231.0,0.052027420754219955
1230.0,0.0518316382728683
1229.0,0.05163594401163074
1228.0,0.05139145012356372
1227.0,0.051244819831730126
1226.0,0.051049389754451946
1225.0,0.050902874887084115
1224.0,0.050805225762017736
1223.0,0.05085404758005607
1222.0,0.050902874887084115
1221.0,0.05100054597304693
1220.0,0.051098239029786274
1219.0,0.05129369109514803
1218.0,0.05148923116234294
1217.0,0.051684859310652254
1216.0,0.05188057561946402
1215.0,0.05212534510230182
1214.0,0.052468254304406825
1213.0,0.05281143447390635
1212.0,0.053203972728539606
1211.0,0.053646002773725554
1210.0,0.054088483180726676
1209.0,0.05443294655761144
1208.0,0.054728418492290265
1207.0,0.05507339001378431
1206.0,0.05536929814372171
1205.0,0.05566540802921782
1204.0,0.05606053552778367
1203.0,0.056456022846545606
1202.0,0.05685187064143715
1201.0,0.057198533682059516
1200.0,0.05749589383191922
1199.0,0.05779345772290467
1198.0,0.05809122563440061
1197.0,0.0583395216116076
1196.0,0.05863766428823891
1195.0,0.05898575629443026
1194.0,0.05933412752417122
1193.0,0.05973260855398799
1192.0,0.060081579630943294
1191.0,0.06038092104330195
1190.0,0.060730413661268745
1189.0,0.06108018775522828
1188.0,0.06148027482350815
1187.0,0.06193081377661436
1186.0,0.06243196139961715
1185.0,0.06288348923294618
1184.0,0.06343599486473406
1183.0,0.06403953101083348
1182.0,0.06459351024765114
1181.0,0.06519865825346338
1180.0,0.0658551882075229
1179.0,0.06656333217371957
1178.0,0.06732334137759932
1177.0,0.06803388527182741
1176.0,0.06874559358358656
1175.0,0.06945847013556561
1174.0,0.07017251876930874
1173.0,0.07088774334533943
1172.0,0.07155293679081787
1171.0,0.07221915065262552
1170.0,0.07283502570063005
1169.0,0.07340034609297241
1168.0,0.07396640332115534
1167.0,0.07463633264589853
1166.0,0.07525564752005143
1165.0,0.07577241873988227
1164.0,0.07623803917129979
1163.0,0.07660053384128362
1162.0,0.07691148455760066
1161.0,0.07717078033335123
1160.0,0.07743023101428781
1159.0,0.0777417765670334
1158.0,0.07794959783282618
1157.0,0.07810552907089763
1156.0,0.07826151631540124
1155.0,0.07831352451639795
1154.0,0.07831352451639795
1153.0,0.0781575185941421
1152.0,0.07800156869172903
1151.0,0.07789763319239285
1150.0,0.07779372256098371
1149.0,0.07763790321520991
1148.0,0.07753405470158659
1147.0,0.07737832847680104
1146.0,0.0772226580712021
1145.0,0.07696333132921396
1144.0,0.07665234350217442
1143.0,0.07634157820669385
1142.0,0.0760310351245288
1141.0,0.07587584681417514
1140.0,0.07577241873988227
1139.0,0.07566901529132153
1138.0,0.07556563645676939
1137.0,0.07541061433058172
1136.0,0.07520400420208784
1135.0,0.07504911108438939
1134.0,0.07489427319033615
1133.0,0.07473949048056472
1132.0,0.07463633264589853
1131.0,0.07453319930846214
1130.0,0.07448164182257
1129.0,0.07443009045662374
1128.0,0.07432700607875953
1127.0,0.07422394616325367
1126.0,0.07412091069849924
1125.0,0.07406940213152868
1124.0,0.07406940213152868
1123.0,0.07412091069849924
1122.0,0.07412091069849924
1121.0,0.07406940213152868
1120.0,0.07396640332115534
1119.0,0.07386342893255127
1118.0,0.07376047895413773
1117.0,0.07360609973031784
1116.0,0.0734517753643813
1115.0,0.07329750581735506
1114.0,0.07319468988839395
1113.0,0.07309189829456408
1112.0,0.07293775650699996
1111.0,0.07273231918911849
1110.0,0.07247565912497134
1109.0,0.07211658966929302
1108.0,0.0718090519612431
1107.0,0.07155293679081787
1106.0,0.07119462910671581
1105.0,0.07078549626260622
1104.0,0.07042782092345012
1103.0,0.07017251876930874
1102.0,0.06996838504902692
1101.0,0.06966236426227002
1100.0,0.06930561233546473
1099.0,0.06894915322260897
1098.0,0.0685421293109949
1097.0,0.0681862960408608
1096.0,0.06793230779927839
1095.0,0.06777998612288094
1094.0,0.0675769736232612
1093.0,0.06732334137759932
1092.0,0.06701917807680191
1091.0,0.06671522765130522
1090.0,0.06641148980334699
1089.0,0.06610796423578891
1088.0,0.0658551882075229
1087.0,0.06565307326174441
1086.0,0.0654005617819271
1085.0,0.06509774167768612
1084.0,0.06484555278383164
1083.0,0.06474471821595262
1082.0,0.06469430971007495
1081.0,0.06474471821595262
1080.0,0.06474471821595262
1079.0,0.06474471821595262
1078.0,0.06464390705442691
1077.0,0.06444235490698613
1076.0,0.06419054619006714
1075.0,0.06408986356949264
1074.0,0.06408986356949264
1073.0,0.06419054619006714
1072.0,0.06434161389936577
1071.0,0.06449273417528723
1070.0,0.06459351024765114
1069.0,0.06454311928839007
1068.0,0.06459351024765114
1067.0,0.06474471821595262
1066.0,0.06499684854634524
1065.0,0.06529959828457499
1064.0,0.0655520510510299
1063.0,0.06575411897692884
1062.0,0.06590573164451952
1061.0,0.06600683616875758
1060.0,0.06620911585658007
1059.0,0.06641148980334699
1058.0,0.06661395809694559
1057.0,0.06681652082538614
1056.0,0.0671712330991534
1055.0,0.0675769736232612
1054.0,0.06803388527182741
1053.0,0.0684912781333824
1052.0,0.06894915322260897
1051.0,0.06945847013556561
1050.0,0.06996838504902692
1049.0,0.07058107428570715
1048.0,0.07119462910671581
1047.0,0.07175781684269089
1046.0,0.07216786713341827
1045.0,0.07247565912497134
1044.0,0.07278366940873537
1043.0,0.07309189829456408
1042.0,0.07334892291111106
1041.0,0.07365755337434488
1040.0,0.07401789967289685
1039.0,0.07432700607875953
1038.0,0.07463633264589853
1037.0,0.07494587968815725
1036.0,0.07530729697981409
1035.0,0.07577241873988227
1034.0,0.07623803917129979
1033.0,0.07670415934449615
1032.0,0.07706704344478843
1031.0,0.07732643214144574
1030.0,0.07753405470158659
1029.0,0.07768983678560404
1028.0,0.07794959783282618
1027.0,0.07831352451639795
1026.0,0.07872981449018734
1025.0,0.07914650387874067
1024.0,0.07966792846041071
1023.0,0.08013774644446192
1022.0,0.08055578953476306
1021.0,0.08081727095749947
1020.0,0.08102656950704579
1019.0,0.0812359689720008
1018.0,0.08134070657817682
1017.0,0.08134070657817682
1016.0,0.0812883346176787
1015.0,0.08118360963962057
1014.0,0.08102656950704579
1013.0,0.08076496207674921
1012.0,0.08034671768963575
1011.0,0.07992887570247587
1010.0,0.0794071379151915
1009.0,0.07883394936226118
1008.0,0.07831352451639795
1007.0,0.07784567476894111
1006.0,0.07727454200674
1005.0,0.07649693305789551
1004.0,0.07551395626608493
1003.0,0.07437854520917098
1002.0,0.07329750581735506
1001.0,0.07227044022834539
1000.0,0.0713481533463054
999.0,0.07052998382251041
998.0,0.06976434723371505
997.0,0.0690000580438479
996.0,0.06823711151882228
995.0,0.06747550294945781
994.0,0.06671522765130522
993.0,0.0659562809644747
992.0,0.06514819703433927
991.0,0.06439198148213077
990.0,0.0636873663378068
989.0,0.06298389253518577
988.0,0.062281556382736136
987.0,0.061580354206806964
986.0,0.060880282351513104
985.0,0.060231224546650086
984.0,0.05963295401433477
983.0,0.059035506507200575
982.0,0.05843887976392925
981.0,0.05784307153250956
980.0,0.057198533682059516
979.0,0.05655495097496965
978.0,0.055912320584565744
977.0,0.05522131887649295
976.0,0.05453141486818014
975.0,0.05394093961487645
974.0,0.053351266093323746
973.0,0.052762392129333646
972.0,0.05212534510230182
971.0,0.05148923116234294
970.0,0.05095170768433621
969.0,0.050317309204795935
968.0,0.04973253198641148
967.0,0.049148541111453614
966.0,0.04866248120408234
965.0,0.04817696468408794
964.0,0.047643522676209304
963.0,0.04715914332429838
962.0,0.04672366333269573
961.0,0.04638525830935958
960.0,0.046047116768076934
959.0,0.04570923829887308
958.0,0.045323413081356456
957.0,0.044937930324967956
956.0,0.04460091336073302
955.0,0.044312249686494276
954.0,0.044071843103049346
953.0,0.04383156952463674
952.0,0.043495409683302455
951.0,0.04320747962950522
950.0,0.04287180232318688
949.0,0.04253638427006878
948.0,0.04224908912272074
947.0,0.041914151478914974
946.0,0.041627267521392675
945.0,0.041436116778032606
944.0,0.04124505013091051
943.0,0.04105406750606355
942.0,0.04076775094900409
941.0,0.04038628892895613
940.0,0.0400527842915015
939.0,0.039719535563357944
938.0,0.03943409718180235
937.0,0.03919637508823026
936.0,0.039006291057664066
935.0,0.038816290187564384
934.0,0.03862637240519895
933.0,0.038436537637930535
932.0,0.038151940981675736
931.0,0.03782014709123227
930.0,0.03753595394209874
929.0,0.037346595106788616
928.0,0.037299268295658994
927.0,0.037346595106788616
926.0,0.03739392707587297
925.0,0.03744126420403626
924.0,0.03739392707587297
923.0,0.037346595106788616
922.0,0.037299268295658994
921.0,0.03720463014276687
920.0,0.0371100126082089
919.0,0.0371573187987575
918.0,0.037346595106788616
917.0,0.037583306554248797
916.0,0.03772539537668518
915.0,0.03777276864991497
914.0,0.03777276864991497
913.0,0.03777276864991497
912.0,0.03777276864991497
911.0,0.03777276864991497
910.0,0.03782014709123227
909.0,0.03777276864991497
908.0,0.03777276864991497
907.0,0.03777276864991497
906.0,0.03782014709123227
905.0,0.03777276864991497
904.0,0.03777276864991497
903.0,0.03772539537668518
902.0,0.03777276864991497
901.0,0.03777276864991497
900.0,0.03791491948264003
899.0,0.038057116858612794
898.0,0.038151940981675736
897.0,0.038199360808321536
896.0,0.038199360808321536
895.0,0.038199360808321536
894.0,0.03824678581321739
893.0,0.038151940981675736
892.0,0.03800971255993524
891.0,0.03786753070176463
890.0,0.03777276864991497
889.0,0.03767802727041558
888.0,0.03763066432997886
887.0,0.037583306554248797
886.0,0.03744126420403626
885.0,0.037299268295658994
884.0,0.0371100126082089
883.0,0.0369681249461018
882.0,0.036873558918095295
881.0,0.036779013477011624
880.0,0.03668448861388862
879.0,0.03658998431977123
878.0,0.03649550058570927
877.0,0.03635381351515665
876.0,0.03616496929785207
875.0,0.03602339000339416
874.0,0.03592902944204468
873.0,0.03588185684851508
872.0,0.03583468937826462
871.0,0.035693217696063595
870.0,0.03550466044490741
869.0,0.03526907894637077
868.0,0.03508070571335731
867.0,0.0349394793888016
866.0,0.03489241415094413
865.0,0.03489241415094413
864.0,0.03498654972775217
863.0,0.03508070571335731
862.0,0.03503362516890207
861.0,0.0349394793888016
860.0,0.03475124903287918
859.0,0.03461012978487776
858.0,0.034516075754861264
857.0,0.03442204208947208
856.0,0.03432802877989327
855.0,0.03432802877989327
854.0,0.03432802877989327
853.0,0.03437503289075727
852.0,0.03432802877989327
851.0,0.03428102975577918
850.0,0.03414006319292828
849.0,0.034046110897937076
848.0,0.03399914237121604
847.0,0.034046110897937076
846.0,0.03414006319292828
845.0,0.034046110897937076
844.0,0.033905220553829274
843.0,0.03367050483612166
842.0,0.03352973627071565
841.0,0.03352973627071565
840.0,0.03367050483612166
839.0,0.03385826726096752
838.0,0.03399914237121604
837.0,0.033952178923546183
836.0,0.033905220553829274
835.0,0.03399914237121604
834.0,0.034187046963396917
833.0,0.03442204208947208
832.0,0.03461012978487776
831.0,0.03475124903287918
830.0,0.0349394793888016
829.0,0.03526907894637077
828.0,0.03583468937826462
827.0,0.036731748473764814
826.0,0.03786753070176463
825.0,0.03924390909822728
824.0,0.041006334969674096
823.0,0.04339941178682327
822.0,0.046481918555007384
821.0,0.05036607620073763
820.0,0.054876229877880656
819.0,0.05983228596592505
818.0,0.06494641076893504
817.0,0.06971335275448043
816.0,0.07381195089279391
815.0,0.07691148455760066
814.0,0.07883394936226118
813.0,0.07930286553008004
812.0,0.07846958649875768
811.0,0.07634157820669385
810.0,0.07314329105030759
809.0,0.06915280831750303
808.0,0.06469430971007495
807.0,0.06028111764589528
806.0,0.05625823416868636
805.0,0.05300765925162776
804.0,0.05065879322950262
803.0,0.049148541111453614
802.0,0.048225491918274965
801.0,0.04774046340917959
800.0,0.04749815213697639
799.0,0.047352830241056854
798.0,0.04715914332429838
797.0,0.0469171560879138
796.0,0.04686877481655505
795.0,0.04696554274964315
794.0,0.04725597598510167
793.0,0.04754660357696672
792.0,0.0478374257855374
791.0,0.048128442871635535
790.0,0.048468209457651845
789.0,0.048808242065293994
788.0,0.049148541111453614
787.0,0.04953778109440221
786.0,0.049927370249842395
785.0,0.050317309204795935
784.0,0.05065879322950262
783.0,0.050902874887084115
782.0,0.051049389754451946
781.0,0.051098239029786274
780.0,0.051244819831730126
779.0,0.05139145012356372
778.0,0.05153812993871654
777.0,0.051684859310652254
776.0,0.05192951848105887
775.0,0.052419250695677544
774.0,0.05300765925162776
773.0,0.0534986094304124
772.0,0.05374429280060267
771.0,0.053842605077627725
770.0,0.05399011523423525
769.0,0.05438372077326825
768.0,0.05502409158795207
767.0,0.055764156206519866
766.0,0.05625823416868636
765.0,0.05650548409389744
764.0,0.05655495097496965
763.0,0.05670338543334519
762.0,0.05709945885970602
761.0,0.05769424710410598
760.0,0.0583395216116076
759.0,0.058836539841526925
758.0,0.05918479134919874
757.0,0.05948351506743288
756.0,0.05998184499233683
755.0,0.060730413661268745
754.0,0.06153031163235467
753.0,0.06223143295006417
752.0,0.06278310913729457
751.0,0.06333548699992453
750.0,0.06388856832514578
749.0,0.06439198148213077
748.0,0.06484555278383164
747.0,0.06529959828457499
746.0,0.06590573164451952
745.0,0.06661395809694559
744.0,0.06712054217620067
743.0,0.06732334137759932
742.0,0.06722192993944942
741.0,0.06732334137759932
740.0,0.06793230779927839
739.0,0.0688982543673613
738.0,0.06986635415888243
737.0,0.07058107428570715
736.0,0.07124579782334672
735.0,0.07252697900472405
734.0,0.07535895258283709
733.0,0.08034671768963575
732.0,0.08687520961044104
731.0,0.09328794305703592
730.0,0.0975619438013351
729.0,0.09875969792669093
728.0,0.09777947172068524
727.0,0.09631326826349751
726.0,0.09582563171583658
725.0,0.09701860020249709
724.0,0.09990609845660159
723.0,0.1047432468551055
722.0,0.1117081546434846
721.0,0.12027350336042275
720.0,0.1283103343144847
719.0,0.13288622016802298
718.0,0.13259144347720886
717.0,0.1281352979118051
716.0,0.12136332697348307
715.0,0.11418662533951118
714.0,0.10796107965870849
713.0,0.10325338439259446
712.0,0.09990609845660159
711.0,0.09750757884139638
710.0,0.0955549589230904
709.0,0.0937727369476411
708.0,0.09205147838772776
707.0,0.09039048950983108
706.0,0.08900228368935714
705.0,0.0881502035005799
704.0,0.08767164203958999
703.0,0.08745911720936239
702.0,0.08735289378168276
701.0,0.0872997918091396
700.0,0.08756536662442538
699.0,0.08820340956274775
698.0,0.08910891135547172
697.0,0.08990945440593179
696.0,0.0900697402471693
695.0,0.08937559511079884
694.0,0.08825662214406838
693.0,0.08745911720936239
692.0,0.08756536662442538
691.0,0.08841629901892434
690.0,0.08958906008531176
689.0,0.09060445403289452
688.0,0.09124698081546634
687.0,0.09140776115243066
686.0,0.09124698081546634
685.0,0.09108625997902897
684.0,0.09119340059432579
683.0,0.09151498112135026
682.0,0.0917831469106074
681.0,0.0919977988274463
680.0,0.09242742120144909
679.0,0.09323411045927221
678.0,0.09441997176475758
677.0,0.09587978652380036
676.0,0.0972358560759139
675.0,0.09783387072894878
674.0,0.0972358560759139
673.0,0.09582563171583658
672.0,0.09436599867304518
671.0,0.09334178232840018
670.0,0.09318028453345462
669.0,0.09463593123310776
668.0,0.09767069414168117
667.0,0.09996076451267522
666.0,0.09990609845660159
665.0,0.09821485469640057
664.0,0.0964759355287379
663.0,0.09528445472131919
662.0,0.09436599867304518
661.0,0.09328794305703592
660.0,0.09242742120144909
659.0,0.09205147838772776
658.0,0.0919441259012328
657.0,0.09183679994445204
656.0,0.09156860103399356
655.0,0.09146136782804049
654.0,0.0917831469106074
653.0,0.09248115389337075
652.0,0.09339562827501968
651.0,0.09409623378338305
650.0,0.09447395156495153
649.0,0.09463593123310776
648.0,0.09506817260434741
647.0,0.09582563171583658
646.0,0.09669292003582619
645.0,0.09729018703012282
644.0,0.09777947172068524
643.0,0.09837823590664274
642.0,0.09919606518963042
641.0,0.10007011727213588
640.0,0.10089114180660053
639.0,0.10154908080162528
638.0,0.10231793820358015
637.0,0.10385974855798041
636.0,0.10657115822045493
635.0,0.10969078310005154
634.0,0.11182050608167504
633.0,0.1120452961911984
632.0,0.1106422631110684
631.0,0.10890877353227624
630.0,0.10762709260156367
629.0,0.10718217569042365
628.0,0.10707101764479421
627.0,0.10690433390377163
626.0,0.10651565378151395
625.0,0.10651565378151395
624.0,0.10729336219433439
623.0,0.10851829616048003
622.0,0.10963487855187593
621.0,0.11036219959333216
620.0,0.11053021603049262
619.0,0.11030620855581463
618.0,0.10997041383658313
617.0,0.11002636159600376
616.0,0.11058623595729111
615.0,0.11131515334030118
614.0,0.11187669270209155
613.0,0.11243895906999102
612.0,0.11277666863747693
611.0,0.11221396516162851
610.0,0.11047420332880886
609.0,0.10835105612944096
608.0,0.10668218838388821
607.0,0.10562854614376227
606.0,0.10501970907203151
605.0,0.10479852522110678
604.0,0.10518567091669917
603.0,0.10596099919539115
602.0,0.10651565378151395
601.0,0.10668218838388821
600.0,0.10601643278815298
