cm-1,A
4000.0,0.04871106272232795
3999.0,0.04875964967565971
3998.0,0.048808242065293994
3997.0,0.04885683989244738
3996.0,0.048905443158337114
3995.0,0.04900266601119507
3994.0,0.04900266601119507
3993.0,0.048954051864180226
3992.0,0.048905443158337114
3991.0,0.048808242065293994
3990.0,0.048808242065293994
3989.0,0.048808242065293994
3988.0,0.04885683989244738
3987.0,0.04900266601119507
3986.0,0.049148541111453614
3985.0,0.049245818406496555
3984.0,0.049294465226138895
3983.0,0.049294465226138895
3982.0,0.049245818406496555
3981.0,0.049245818406496555
3980.0,0.049245818406496555
3979.0,0.049294465226138895
3978.0,0.04944043838819989
3977.0,0.04953778109440221
3976.0,0.04958646063061889
3975.0,0.04948910701400333
3974.0,0.04934311749548925
3973.0,0.049245818406496555
3972.0,0.04919717703534143
3971.0,0.049245818406496555
3970.0,0.049245818406496555
3969.0,0.049148541111453614
3968.0,0.04905128560059957
3967.0,0.04900266601119507
3966.0,0.04900266601119507
3965.0,0.04900266601119507
3964.0,0.04905128560059957
3963.0,0.04905128560059957
3962.0,0.04909991063361274
3961.0,0.049148541111453614
3960.0,0.049148541111453614
3959.0,0.049245818406496555
3958.0,0.04944043838819989
3957.0,0.04968383607539972
3956.0,0.04987865248862655
3955.0,0.049927370249842395
3954.0,0.04982994019179987
3953.0,0.04963514562387683
3952.0,0.04944043838819989
3951.0,0.049245818406496555
3950.0,0.04909991063361274
3949.0,0.048905443158337114
3948.0,0.04875964967565971
3947.0,0.04866248120408234
3946.0,0.048565334467987054
3945.0,0.0486139051197072
3944.0,0.04866248120408234
3943.0,0.04871106272232795
3942.0,0.04871106272232795
3941.0,0.04866248120408234
3940.0,0.04875964967565971
3939.0,0.04905128560059957
3938.0,0.04934311749548925
3937.0,0.04944043838819989
3936.0,0.04934311749548925
3935.0,0.049245818406496555
3934.0,0.04919717703534143
3933.0,0.04919717703534143
3932.0,0.04909991063361274
3931.0,0.048808242065293994
3930.0,0.048565334467987054
3929.0,0.04832256265669943
3928.0,0.048225491918274965
3927.0,0.04817696468408794
3926.0,0.04827402457540786
3925.0,0.04851676924770687
3924.0,0.04871106272232795
3923.0,0.04871106272232795
3922.0,0.048565334467987054
3921.0,0.04841965509660828
3920.0,0.04832256265669943
3919.0,0.048225491918274965
3918.0,0.048225491918274965
3917.0,0.04841965509660828
3916.0,0.0486139051197072
3915.0,0.04875964967565971
3914.0,0.04900266601119507
3913.0,0.04944043838819989
3912.0,0.04997609347667353
3911.0,0.050463626623857394
3910.0,0.05065879322950262
3909.0,0.050463626623857394
3908.0,0.04987865248862655
3907.0,0.04900266601119507
3906.0,0.04803141550708934
3905.0,0.04720755695590784
3904.0,0.04677202844014605
3903.0,0.04653025674659861
3902.0,0.046481918555007384
3901.0,0.04677202844014605
3900.0,0.04740126547022694
3899.0,0.04807992647970649
3898.0,0.04837110616336182
3897.0,0.04832256265669943
3896.0,0.048225491918274965
3895.0,0.04817696468408794
3894.0,0.048128442871635535
3893.0,0.04817696468408794
3892.0,0.048565334467987054
3891.0,0.04919717703534143
3890.0,0.04934311749548925
3889.0,0.04866248120408234
3888.0,0.048128442871635535
3887.0,0.04837110616336182
3886.0,0.04885683989244738
3885.0,0.04900266601119507
3884.0,0.048468209457651845
3883.0,0.04778894189133087
3882.0,0.047691990337874746
3881.0,0.048225491918274965
3880.0,0.04885683989244738
3879.0,0.04900266601119507
3878.0,0.048565334467987054
3877.0,0.04827402457540786
3876.0,0.048468209457651845
3875.0,0.04866248120408234
3874.0,0.04832256265669943
3873.0,0.04740126547022694
3872.0,0.04662694927330402
3871.0,0.04677202844014605
3870.0,0.047595060422975566
3869.0,0.047982909952573705
3868.0,0.04744970610179822
3867.0,0.04686877481655505
3866.0,0.04720755695590784
3865.0,0.0478374257855374
3864.0,0.047982909952573705
3863.0,0.04774046340917959
3862.0,0.04774046340917959
3861.0,0.04807992647970649
3860.0,0.048468209457651845
3859.0,0.04871106272232795
3858.0,0.04871106272232795
3857.0,0.04841965509660828
3856.0,0.047982909952573705
3855.0,0.04774046340917959
3854.0,0.04817696468408794
3853.0,0.04939177521576932
3852.0,0.05002482217034632
3851.0,0.04900266601119507
3850.0,0.048468209457651845
3849.0,0.049148541111453614
3848.0,0.04973253198641148
3847.0,0.04968383607539972
3846.0,0.04934311749548925
3845.0,0.048954051864180226
3844.0,0.048565334467987054
3843.0,0.04827402457540786
3842.0,0.047934409814949674
3841.0,0.047643522676209304
3840.0,0.04754660357696672
3839.0,0.04774046340917959
3838.0,0.047982909952573705
3837.0,0.048128442871635535
3836.0,0.047982909952573705
3835.0,0.0478374257855374
3834.0,0.047982909952573705
3833.0,0.04841965509660828
3832.0,0.04885683989244738
3831.0,0.04905128560059957
3830.0,0.04900266601119507
3829.0,0.048954051864180226
3828.0,0.049245818406496555
3827.0,0.04963514562387683
3826.0,0.04973253198641148
3825.0,0.049294465226138895
3824.0,0.0486139051197072
3823.0,0.048468209457651845
3822.0,0.048808242065293994
3821.0,0.049148541111453614
3820.0,0.0486139051197072
3819.0,0.04725597598510167
3818.0,0.04667530361081473
3817.0,0.047885915093007325
3816.0,0.04978123335813667
3815.0,0.05095170768433621
3814.0,0.05095170768433621
3813.0,0.050707598587974356
3812.0,0.05100054597304693
3811.0,0.051244819831730126
3810.0,0.05095170768433621
3809.0,0.05051241005349638
3808.0,0.050414848673348
3807.0,0.05065879322950262
3806.0,0.050463626623857394
3805.0,0.04944043838819989
3804.0,0.04841965509660828
3803.0,0.04841965509660828
3802.0,0.04919717703534143
3801.0,0.04982994019179987
3800.0,0.04968383607539972
3799.0,0.04885683989244738
3798.0,0.048808242065293994
3797.0,0.04978123335813667
3796.0,0.05065879322950262
3795.0,0.05100054597304693
3794.0,0.050902874887084115
3793.0,0.05095170768433621
3792.0,0.05119595406718891
3791.0,0.05139145012356372
3790.0,0.05139145012356372
3789.0,0.05129369109514803
3788.0,0.05114709380028648
3787.0,0.05095170768433621
3786.0,0.050805225762017736
3785.0,0.05075640943173498
3784.0,0.05075640943173498
3783.0,0.0506099933550872
3782.0,0.050414848673348
3781.0,0.050463626623857394
3780.0,0.05065879322950262
3779.0,0.05085404758005607
3778.0,0.05075640943173498
3777.0,0.05051241005349638
3776.0,0.05051241005349638
3775.0,0.050805225762017736
3774.0,0.05100054597304693
3773.0,0.050805225762017736
3772.0,0.05051241005349638
3771.0,0.050414848673348
3770.0,0.050463626623857394
3769.0,0.050414848673348
3768.0,0.05021979163799939
3767.0,0.05026854768429301
3766.0,0.050805225762017736
3765.0,0.05134256785867963
3764.0,0.05134256785867963
3763.0,0.05095170768433621
3762.0,0.050707598587974356
3761.0,0.050707598587974356
3760.0,0.05056119896349576
3759.0,0.050171041064686284
3758.0,0.04973253198641148
3757.0,0.049245818406496555
3756.0,0.04871106272232795
3755.0,0.04817696468408794
3754.0,0.04778894189133087
3753.0,0.04749815213697639
3752.0,0.04725597598510167
3751.0,0.047595060422975566
3750.0,0.048808242065293994
3749.0,0.04963514562387683
3748.0,0.04919717703534143
3747.0,0.04866248120408234
3746.0,0.04919717703534143
3745.0,0.05051241005349638
3744.0,0.05163594401163074
3743.0,0.051098239029786274
3742.0,0.049294465226138895
3741.0,0.04837110616336182
3740.0,0.04851676924770687
3739.0,0.04832256265669943
3738.0,0.047691990337874746
3737.0,0.04711073508906982
3736.0,0.04682039893436585
3735.0,0.046481918555007384
3734.0,0.046192002334692894
3733.0,0.04643358574299339
3732.0,0.04725597598510167
3731.0,0.047982909952573705
3730.0,0.04817696468408794
3729.0,0.04817696468408794
3728.0,0.04832256265669943
3727.0,0.04832256265669943
3726.0,0.04807992647970649
3725.0,0.047643522676209304
3724.0,0.04740126547022694
3723.0,0.047595060422975566
3722.0,0.047934409814949674
3721.0,0.04827402457540786
3720.0,0.048565334467987054
3719.0,0.04900266601119507
3718.0,0.04948910701400333
3717.0,0.04973253198641148
3716.0,0.04968383607539972
3715.0,0.04939177521576932
3714.0,0.04909991063361274
3713.0,0.04875964967565971
3712.0,0.04837110616336182
3711.0,0.048225491918274965
3710.0,0.048225491918274965
3709.0,0.048225491918274965
3708.0,0.048225491918274965
3707.0,0.04841965509660828
3706.0,0.0486139051197072
3705.0,0.048565334467987054
3704.0,0.048468209457651845
3703.0,0.04837110616336182
3702.0,0.04841965509660828
3701.0,0.048468209457651845
3700.0,0.04832256265669943
3699.0,0.047982909952573705
3698.0,0.047934409814949674
3697.0,0.048128442871635535
3696.0,0.048128442871635535
3695.0,0.04774046340917959
3694.0,0.04701393480294458
3693.0,0.04628861957244457
3692.0,0.045564513671517703
3691.0,0.04508244626504121
3690.0,0.0451788169482068
3689.0,0.04599883231842972
3688.0,0.04667530361081473
3687.0,0.04653025674659861
3686.0,0.046143701775014145
3685.0,0.04628861957244457
3684.0,0.04682039893436585
3683.0,0.04711073508906982
3682.0,0.04701393480294458
3681.0,0.04677202844014605
3680.0,0.04638525830935958
3679.0,0.045516282844447975
3678.0,0.04421607108308856
3677.0,0.04315950984076644
3676.0,0.04301563225723992
3675.0,0.043735497301724546
3674.0,0.04397571771932274
3673.0,0.04325545471730896
3672.0,0.0433514207947967
3671.0,0.04440844959427559
3670.0,0.045564513671517703
3669.0,0.04628861957244457
3668.0,0.04638525830935958
3667.0,0.04624030826677128
3666.0,0.04657860031896477
3665.0,0.04711073508906982
3664.0,0.04749815213697639
3663.0,0.047643522676209304
3662.0,0.047643522676209304
3661.0,0.04749815213697639
3660.0,0.04720755695590784
3659.0,0.04682039893436585
3658.0,0.04677202844014605
3657.0,0.04720755695590784
3656.0,0.04778894189133087
3655.0,0.047982909952573705
3654.0,0.04740126547022694
3653.0,0.04667530361081473
3652.0,0.04599883231842972
3651.0,0.04508244626504121
3650.0,0.04421607108308856
3649.0,0.044360346976747955
3648.0,0.045612749855485024
3647.0,0.04662694927330402
3646.0,0.04711073508906982
3645.0,0.047595060422975566
3644.0,0.04841965509660828
3643.0,0.04939177521576932
3642.0,0.05021979163799939
3641.0,0.05085404758005607
3640.0,0.05129369109514803
3639.0,0.05163594401163074
3638.0,0.0518316382728683
3637.0,0.05188057561946402
3636.0,0.05197846685889629
3635.0,0.05222329153526162
3634.0,0.05237025261564554
3633.0,0.05197846685889629
3632.0,0.05119595406718891
3631.0,0.050463626623857394
3630.0,0.050317309204795935
3629.0,0.05095170768433621
3628.0,0.05192951848105887
3627.0,0.05212534510230182
3626.0,0.0518316382728683
3625.0,0.05222329153526162
3624.0,0.05290953578037816
3623.0,0.05310580489767336
3622.0,0.05295859474477971
3621.0,0.05281143447390635
3620.0,0.05281143447390635
3619.0,0.05305672930217464
3618.0,0.0531548860393769
3617.0,0.05290953578037816
3616.0,0.05261529831525902
3615.0,0.05261529831525902
3614.0,0.05281143447390635
3613.0,0.05290953578037816
3612.0,0.05290953578037816
3611.0,0.05286048235717078
3610.0,0.05305672930217464
3609.0,0.053596866100945384
3608.0,0.05428528594013993
3607.0,0.0549747987575373
3606.0,0.05546797900801881
3605.0,0.05571477931124735
3604.0,0.055764156206519866
3603.0,0.05561604235915585
3602.0,0.05531996611868961
3601.0,0.05507339001378431
3600.0,0.05507339001378431
3599.0,0.055172003656783764
3598.0,0.05531996611868961
3597.0,0.05536929814372171
3596.0,0.05541863577307371
3595.0,0.05566540802921782
3594.0,0.05610995175152733
3593.0,0.05660442349104544
3592.0,0.057000406633959555
3591.0,0.05724807957018618
3590.0,0.05729763111133224
3589.0,0.05724807957018618
3588.0,0.05729763111133224
3587.0,0.0575950591438934
3586.0,0.05799194697768684
3585.0,0.05824018618530458
3584.0,0.05858795962645047
3583.0,0.059035506507200575
3582.0,0.05943371350990989
3581.0,0.05963295401433477
3580.0,0.05978244440026481
3579.0,0.05993198626064755
3578.0,0.0601813371786204
3577.0,0.060430831344098435
3576.0,0.06068046892176193
3575.0,0.06093025007657582
3574.0,0.06118017497378969
3573.0,0.061380218497318895
3572.0,0.061380218497318895
3571.0,0.06108018775522828
3570.0,0.060530669156469985
3569.0,0.05983228596592505
3568.0,0.05923456436878238
3567.0,0.059035506507200575
3566.0,0.05928434309333741
3565.0,0.05973260855398799
3564.0,0.06033101647767336
3563.0,0.0611301784870133
3562.0,0.06198090252378963
3561.0,0.06268275223750575
3560.0,0.06318476880236723
3559.0,0.06363708040225546
3558.0,0.06403953101083348
3557.0,0.06439198148213077
3556.0,0.06449273417528723
3555.0,0.06444235490698613
3554.0,0.06424089625468832
3553.0,0.06429125215733666
3552.0,0.06469430971007495
3551.0,0.06519865825346338
3550.0,0.06550154875643233
3549.0,0.0655520510510299
3548.0,0.0653500770992892
3547.0,0.06509774167768612
3546.0,0.06494641076893504
3545.0,0.06504729218214189
3544.0,0.06545105233385295
3543.0,0.06600683616875758
3542.0,0.06661395809694559
3541.0,0.06706985716921054
3540.0,0.06727263269847072
3539.0,0.06732334137759932
3538.0,0.06732334137759932
3537.0,0.06747550294945781
3536.0,0.06777998612288094
3535.0,0.06813548650796819
3534.0,0.068389593637038
3533.0,0.06844043290919477
3532.0,0.06833876031551878
3531.0,0.0680846829187538
3530.0,0.06777998612288094
3529.0,0.06747550294945781
3528.0,0.06732334137759932
3527.0,0.06727263269847072
3526.0,0.06737405597821788
3525.0,0.06767846801070698
3524.0,0.0680846829187538
3523.0,0.06859298644342648
3522.0,0.0690000580438479
3521.0,0.06935655895783555
3520.0,0.06961138175567827
3519.0,0.06986635415888243
3518.0,0.07012147634321675
3517.0,0.07022356719509815
3516.0,0.07022356719509815
3515.0,0.0702746216219956
3514.0,0.07032568205141221
3513.0,0.07032568205141221
3512.0,0.07022356719509815
3511.0,0.07001940948448526
3510.0,0.06981534770138009
3509.0,0.06971335275448043
3508.0,0.06966236426227002
3507.0,0.06961138175567827
3506.0,0.06950943469373039
3505.0,0.06956040523329987
3504.0,0.06976434723371505
3503.0,0.07012147634321675
3502.0,0.07058107428570715
3501.0,0.07088774334533943
3500.0,0.0710411591191702
3499.0,0.0710411591191702
3498.0,0.07088774334533943
3497.0,0.07073438174693436
3496.0,0.07063217075990047
3495.0,0.07078549626260622
3494.0,0.0710411591191702
3493.0,0.07124579782334672
3492.0,0.0713481533463054
3491.0,0.0713481533463054
3490.0,0.07139934015547578
3489.0,0.07150173187630915
3488.0,0.0716553647351379
3487.0,0.0718090519612431
3486.0,0.07196279359311708
3485.0,0.07191154033502922
3484.0,0.07170658776779781
3483.0,0.07145053299833615
3482.0,0.07129697256940304
3481.0,0.07129697256940304
3480.0,0.07155293679081787
3479.0,0.0718090519612431
3478.0,0.07206531825882068
3477.0,0.07221915065262552
3476.0,0.07232173586200852
3475.0,0.07252697900472405
3474.0,0.07273231918911849
3473.0,0.07288638806623937
3472.0,0.0729891310243489
3471.0,0.07304051161972436
3470.0,0.07314329105030759
3469.0,0.07329750581735506
3468.0,0.0734517753643813
3467.0,0.07350321072677968
3466.0,0.0734517753643813
3465.0,0.07334892291111106
3464.0,0.07314329105030759
3463.0,0.07293775650699996
3462.0,0.07273231918911849
3461.0,0.0725783049495814
3460.0,0.0725783049495814
3459.0,0.07278366940873537
3458.0,0.07304051161972436
3457.0,0.07329750581735506
3456.0,0.07360609973031784
3455.0,0.07391491307485598
3454.0,0.07412091069849924
3453.0,0.07417242537525759
3452.0,0.07412091069849924
3451.0,0.07401789967289685
3450.0,0.07391491307485598
3449.0,0.07381195089279391
3448.0,0.07376047895413773
3447.0,0.07381195089279391
3446.0,0.07391491307485598
3445.0,0.07401789967289685
3444.0,0.07406940213152868
3443.0,0.07417242537525759
3442.0,0.07437854520917098
3441.0,0.07473949048056472
3440.0,0.07510073598571654
3439.0,0.07541061433058172
3438.0,0.07572071393811841
3437.0,0.0759792995259323
3436.0,0.07608277688689435
3435.0,0.0760310351245288
3434.0,0.07592757008963713
3433.0,0.07587584681417514
3432.0,0.07592757008963713
3431.0,0.0760310351245288
3430.0,0.07618627890881036
3429.0,0.0763933569825408
3428.0,0.07654873036034848
3427.0,0.07660053384128362
3426.0,0.07644514193245056
3425.0,0.07628980560343712
3424.0,0.07608277688689435
3423.0,0.0760310351245288
3422.0,0.07608277688689435
3421.0,0.07628980560343712
3420.0,0.07665234350217442
3419.0,0.07701518429111709
3418.0,0.07743023101428781
3417.0,0.07789763319239285
3416.0,0.07831352451639795
3415.0,0.07852161962430992
3414.0,0.07862570458152551
3413.0,0.07867775641617802
3412.0,0.07878187880504961
3411.0,0.07899019850296574
3410.0,0.07925073872429178
3409.0,0.07961575782164254
3408.0,0.07992887570247587
3407.0,0.08008551934056851
3406.0,0.08003329851661278
3405.0,0.07992887570247587
3404.0,0.07987667370927598
3403.0,0.07992887570247587
3402.0,0.08013774644446192
3401.0,0.08034671768963575
3400.0,0.08055578953476306
3399.0,0.08060807322614072
3398.0,0.0805035121369384
3397.0,0.08045124103115198
3396.0,0.0805035121369384
3395.0,0.08066036321258663
3394.0,0.08086958613938555
3393.0,0.0809742354126397
3392.0,0.08107890990866418
3391.0,0.08107890990866418
3390.0,0.08102656950704579
3389.0,0.08092190762392604
3388.0,0.08071265949561734
3387.0,0.0805035121369384
3386.0,0.08039897621588898
3385.0,0.08029446545087904
3384.0,0.08013774644446192
3383.0,0.07998108397108505
3382.0,0.07992887570247587
3381.0,0.08008551934056851
3380.0,0.08039897621588898
3379.0,0.08081727095749947
3378.0,0.08113125661901543
3377.0,0.0812883346176787
3376.0,0.0812883346176787
3375.0,0.08118360963962057
3374.0,0.08086958613938555
3373.0,0.08045124103115198
3372.0,0.08008551934056851
3371.0,0.07982447798997727
3370.0,0.07977228854307139
3369.0,0.07982447798997727
3368.0,0.07992887570247587
3367.0,0.07998108397108505
3366.0,0.07992887570247587
3365.0,0.07977228854307139
3364.0,0.07956359344924135
3363.0,0.0794071379151915
3362.0,0.07935499859321249
3361.0,0.0794592834975203
3360.0,0.07951143534170213
3359.0,0.0794071379151915
3358.0,0.07925073872429178
3357.0,0.079094395835976
3356.0,0.07904229404455076
3355.0,0.07904229404455076
3354.0,0.07899019850296574
3353.0,0.07904229404455076
3352.0,0.07914650387874067
3351.0,0.07935499859321249
3350.0,0.0794592834975203
3349.0,0.0794071379151915
3348.0,0.07935499859321249
3347.0,0.07935499859321249
3346.0,0.0794592834975203
3345.0,0.0794592834975203
3344.0,0.07956359344924135
3343.0,0.07972010536705154
3342.0,0.07992887570247587
3341.0,0.08008551934056851
3340.0,0.08008551934056851
3339.0,0.07992887570247587
3338.0,0.07977228854307139
3337.0,0.07972010536705154
3336.0,0.07977228854307139
3335.0,0.07977228854307139
3334.0,0.07966792846041071
3333.0,0.0794592834975203
3332.0,0.07930286553008004
3331.0,0.07919861817434581
3330.0,0.07914650387874067
3329.0,0.079094395835976
3328.0,0.07914650387874067
3327.0,0.07925073872429178
3326.0,0.0794592834975203
3325.0,0.07951143534170213
3324.0,0.0794071379151915
3323.0,0.07919861817434581
3322.0,0.07904229404455076
3321.0,0.07899019850296574
3320.0,0.07899019850296574
3319.0,0.07893810920972144
3318.0,0.07893810920972144
3317.0,0.0788860261633193
3316.0,0.07872981449018734
3315.0,0.07857365898473456
3314.0,0.07846958649875768
3313.0,0.07852161962430992
3312.0,0.07862570458152551
3311.0,0.07872981449018734
3310.0,0.07878187880504961
3309.0,0.07872981449018734
3308.0,0.07878187880504961
3307.0,0.07883394936226118
3306.0,0.07893810920972144
3305.0,0.0788860261633193
3304.0,0.07872981449018734
3303.0,0.07857365898473456
3302.0,0.07857365898473456
3301.0,0.07867775641617802
3300.0,0.07878187880504961
3299.0,0.07878187880504961
3298.0,0.07867775641617802
3297.0,0.07867775641617802
3296.0,0.07872981449018734
3295.0,0.07883394936226118
3294.0,0.07878187880504961
3293.0,0.07867775641617802
3292.0,0.07846958649875768
3291.0,0.07841755960658348
3290.0,0.07841755960658348
3289.0,0.07846958649875768
3288.0,0.07852161962430992
3287.0,0.07846958649875768
3286.0,0.07831352451639795
3285.0,0.07810552907089763
3284.0,0.07789763319239285
3283.0,0.07779372256098371
3282.0,0.07779372256098371
3281.0,0.07805354577058976
3280.0,0.07841755960658348
3279.0,0.07872981449018734
3278.0,0.0788860261633193
3277.0,0.07878187880504961
3276.0,0.07852161962430992
3275.0,0.07820951434181311
3274.0,0.07800156869172903
3273.0,0.07805354577058976
3272.0,0.07826151631540124
3271.0,0.07846958649875768
3270.0,0.07857365898473456
3269.0,0.07852161962430992
3268.0,0.07831352451639795
3267.0,0.07805354577058976
3266.0,0.07784567476894111
3265.0,0.07768983678560404
3264.0,0.07758597585436577
3263.0,0.07753405470158659
3262.0,0.07748213975538865
3261.0,0.07737832847680104
3260.0,0.07727454200674
3259.0,0.07717078033335123
3258.0,0.07717078033335123
3257.0,0.0772226580712021
3256.0,0.07732643214144574
3255.0,0.07732643214144574
3254.0,0.07727454200674
3253.0,0.07727454200674
3252.0,0.07727454200674
3251.0,0.07732643214144574
3250.0,0.07727454200674
3249.0,0.07711890879170658
3248.0,0.07691148455760066
3247.0,0.07680780957933253
3246.0,0.07670415934449615
3245.0,0.07665234350217442
3244.0,0.07665234350217442
3243.0,0.07665234350217442
3242.0,0.07670415934449615
3241.0,0.07680780957933253
3240.0,0.07691148455760066
3239.0,0.07696333132921396
3238.0,0.07701518429111709
3237.0,0.07696333132921396
3236.0,0.07675598136972361
3235.0,0.07649693305789551
3234.0,0.07623803917129979
3233.0,0.07618627890881036
3232.0,0.07623803917129979
3231.0,0.0763933569825408
3230.0,0.07649693305789551
3229.0,0.07649693305789551
3228.0,0.07649693305789551
3227.0,0.07649693305789551
3226.0,0.07654873036034848
3225.0,0.07649693305789551
3224.0,0.07634157820669385
3223.0,0.07613452481449845
3222.0,0.07587584681417514
3221.0,0.07566901529132153
3220.0,0.07551395626608493
3219.0,0.07546228222451012
3218.0,0.07551395626608493
3217.0,0.07556563645676939
3216.0,0.07556563645676939
3215.0,0.07551395626608493
3214.0,0.07556563645676939
3213.0,0.07582412969807906
3212.0,0.07613452481449845
3211.0,0.0763933569825408
3210.0,0.07644514193245056
3209.0,0.07613452481449845
3208.0,0.07572071393811841
3207.0,0.07535895258283709
3206.0,0.07520400420208784
3205.0,0.07525564752005143
3204.0,0.07541061433058172
3203.0,0.07556563645676939
3202.0,0.0756173227980268
3201.0,0.07556563645676939
3200.0,0.07546228222451012
3199.0,0.07525564752005143
3198.0,0.07520400420208784
3197.0,0.07530729697981409
3196.0,0.07546228222451012
3195.0,0.07566901529132153
3194.0,0.07572071393811841
3193.0,0.07556563645676939
3192.0,0.07535895258283709
3191.0,0.07510073598571654
3190.0,0.0748426728241014
3189.0,0.07468790850035045
3188.0,0.07458476291575367
3187.0,0.07448164182257
3186.0,0.07437854520917098
3185.0,0.07427547306393745
3184.0,0.07417242537525759
3183.0,0.07406940213152868
3182.0,0.07406940213152868
3181.0,0.07401789967289685
3180.0,0.07406940213152868
3179.0,0.07412091069849924
3178.0,0.07417242537525759
3177.0,0.07422394616325367
3176.0,0.07412091069849924
3175.0,0.07396640332115534
3174.0,0.07381195089279391
3173.0,0.07376047895413773
3172.0,0.07365755337434488
3171.0,0.07355465218161061
3170.0,0.07340034609297241
3169.0,0.07329750581735506
3168.0,0.0732460948102629
3167.0,0.0732460948102629
3166.0,0.07314329105030759
3165.0,0.07293775650699996
3164.0,0.07262963696097646
3163.0,0.07242434530888953
3162.0,0.07232173586200852
3161.0,0.07227044022834539
3160.0,0.07227044022834539
3159.0,0.07216786713341827
3158.0,0.07211658966929302
3157.0,0.07211658966929302
3156.0,0.07211658966929302
3155.0,0.07216786713341827
3154.0,0.07227044022834539
3153.0,0.07237303755504598
3152.0,0.07242434530888953
3151.0,0.07237303755504598
3150.0,0.07216786713341827
3149.0,0.07186029312488018
3148.0,0.07160414774328627
3147.0,0.07139934015547578
3146.0,0.07129697256940304
3145.0,0.07129697256940304
3144.0,0.07129697256940304
3143.0,0.0713481533463054
3142.0,0.07145053299833615
3141.0,0.07160414774328627
3140.0,0.0718090519612431
3139.0,0.07196279359311708
3138.0,0.07206531825882068
3137.0,0.0720140529005715
3136.0,0.07170658776779781
3135.0,0.07129697256940304
3134.0,0.07088774334533943
3133.0,0.07063217075990047
3132.0,0.07047889936889606
3131.0,0.07042782092345012
3130.0,0.07032568205141221
3129.0,0.0702746216219956
3128.0,0.0702746216219956
3127.0,0.07032568205141221
3126.0,0.07042782092345012
3125.0,0.07047889936889606
3124.0,0.07042782092345012
3123.0,0.0702746216219956
3122.0,0.07007043991541217
3121.0,0.06996838504902692
3120.0,0.06986635415888243
3119.0,0.06981534770138009
3118.0,0.06981534770138009
3117.0,0.06976434723371505
3116.0,0.06966236426227002
3115.0,0.06950943469373039
3114.0,0.06935655895783555
3113.0,0.06925467168888666
3112.0,0.0691018855898955
3111.0,0.0688982543673613
3110.0,0.06859298644342648
3109.0,0.06833876031551878
3108.0,0.0681862960408608
3107.0,0.06813548650796819
3106.0,0.0680846829187538
3105.0,0.06803388527182741
3104.0,0.0678307540792078
3103.0,0.06752623532284674
3102.0,0.06727263269847072
3101.0,0.06712054217620067
3100.0,0.06706985716921054
3099.0,0.0671712330991534
3098.0,0.06727263269847072
3097.0,0.06732334137759932
3096.0,0.06732334137759932
3095.0,0.06732334137759932
3094.0,0.06727263269847072
3093.0,0.0671712330991534
3092.0,0.06696850489759454
3091.0,0.06671522765130522
3090.0,0.0665127121512945
3089.0,0.06641148980334699
3088.0,0.06641148980334699
3087.0,0.06641148980334699
3086.0,0.0663102910421054
3085.0,0.06615853710127872
3084.0,0.06590573164451952
3083.0,0.06575411897692884
3082.0,0.06575411897692884
3081.0,0.06580465065211571
3080.0,0.0658551882075229
3079.0,0.0658551882075229
3078.0,0.06570359318059427
3077.0,0.0655520510510299
3076.0,0.0654005617819271
3075.0,0.06519865825346338
3074.0,0.06504729218214189
3073.0,0.06489597884855036
3072.0,0.06469430971007495
3071.0,0.06444235490698613
3070.0,0.06424089625468832
3069.0,0.06403953101083348
3068.0,0.06383825908884244
3067.0,0.0636873663378068
3066.0,0.06353652599525317
3065.0,0.06333548699992453
3064.0,0.06318476880236723
3063.0,0.0630843190547461
3062.0,0.06303410289212974
3061.0,0.06298389253518577
3060.0,0.06293368798257193
3059.0,0.06283329628496737
3058.0,0.06268275223750575
3057.0,0.06253226035662252
3056.0,0.062381820606176586
3055.0,0.062131203436140536
3054.0,0.06173051653708872
3053.0,0.06123017721688262
3052.0,0.06093025007657582
3051.0,0.06083032037482261
3050.0,0.06093025007657582
3049.0,0.06098022355133348
3048.0,0.06083032037482261
3047.0,0.06048074738138154
3046.0,0.060081579630943294
3045.0,0.05973260855398799
3044.0,0.05948351506743288
3043.0,0.05933412752417122
3042.0,0.05918479134919874
3041.0,0.059035506507200575
3040.0,0.058786812414678646
3039.0,0.0583891978463662
3038.0,0.05789269101064454
3037.0,0.05744631966579017
3036.0,0.0571489934456626
3035.0,0.05690137699451481
3034.0,0.05660442349104544
3033.0,0.05606053552778367
3032.0,0.05536929814372171
3031.0,0.05453141486818014
3030.0,0.05374429280060267
3029.0,0.053203972728539606
3028.0,0.05281143447390635
3027.0,0.05256627811294923
3026.0,0.05232126006306337
3025.0,0.05197846685889629
3024.0,0.05148923116234294
3023.0,0.05085404758005607
3022.0,0.050073556332087765
3021.0,0.04934311749548925
3020.0,0.0486139051197072
3019.0,0.0478374257855374
3018.0,0.04701393480294458
3017.0,0.04624030826677128
3016.0,0.0454680573730859
3015.0,0.04474531717982
3014.0,0.04402377775167454
3013.0,0.043303435105349175
3012.0,0.042584285277331047
3011.0,0.0417706858116178
3010.0,0.04086316882962593
3009.0,0.03981472339538916
3008.0,0.038721320914956836
3007.0,0.03763066432997886
3006.0,0.03668448861388862
3005.0,0.03592902944204468
3004.0,0.03522197797762394
3003.0,0.034469056377139484
3002.0,0.03357665405630694
3001.0,0.032592443402527316
3000.0,0.03161045815293173
2999.0,0.030770520137356927
2998.0,0.03002526987828502
2997.0,0.029281296279810798
2996.0,0.028538594975413334
2995.0,0.0277045713888604
2994.0,0.02696455931306696
2993.0,0.026225806029419818
2992.0,0.025350165561278004
2991.0,0.024108863598207186
2990.0,0.022688026603074007
2989.0,0.02140867317992523
2988.0,0.02058821736556471
2987.0,0.02026956933771462
2986.0,0.020315076172974234
2985.0,0.020497151212598652
2984.0,0.02067930261797568
2983.0,0.020861530453190058
2982.0,0.020952673052035298
2981.0,0.020952673052035298
2980.0,0.021089422824428272
2979.0,0.02140867317992523
2978.0,0.022093572362881675
2977.0,0.02296266477531872
2976.0,0.023925268380126097
2975.0,0.025028005701930978
2974.0,0.026318081496016443
2973.0,0.028075050815808744
2972.0,0.030444315779156517
2971.0,0.033482823553208085
2970.0,0.037251946641359446
2969.0,0.04181850243505214
2968.0,0.04701393480294458
2967.0,0.05286048235717078
2966.0,0.05938391766259232
2965.0,0.06646209802829528
2964.0,0.07401789967289685
2963.0,0.08186477383364066
2962.0,0.08969583193143116
2961.0,0.09718153191774648
2960.0,0.10397008760377302
2959.0,0.10980261378997125
2958.0,0.11463877996848804
2957.0,0.11850122038501709
2956.0,0.12170805075020397
2955.0,0.12459143992293642
2954.0,0.12761061158217912
2953.0,0.13100309751286465
2952.0,0.13483678049391368
2951.0,0.13894375542312654
2950.0,0.14290884532648618
2949.0,0.14599776687301103
2948.0,0.14764201633217278
2947.0,0.14745901423020125
2946.0,0.14526898278605782
2945.0,0.14110204276799654
2944.0,0.13519237097385295
2943.0,0.12819363554127072
2942.0,0.12090412049992727
2941.0,0.11396072443355765
2940.0,0.10779405402422748
2939.0,0.10270287794050348
2938.0,0.09870518283443275
2937.0,0.0957714836599215
2936.0,0.0937727369476411
2935.0,0.09280368972839836
2934.0,0.09280368972839836
2933.0,0.09388054245443844
2932.0,0.09593394808549704
2931.0,0.09886874864462802
2930.0,0.10248287059947447
2929.0,0.10679324694015202
2928.0,0.11153968196461372
2927.0,0.11645212073195621
2926.0,0.1213058996038916
2925.0,0.12586622117202761
2924.0,0.13012318673323353
2923.0,0.13430394008392943
2922.0,0.13864483980673992
2921.0,0.1432711096171173
2920.0,0.14800825203784274
2919.0,0.15279763601907614
2918.0,0.157390760389438
2917.0,0.16146572948813143
2916.0,0.1646899991309374
2915.0,0.16672536070943655
2914.0,0.1674910872937636
2913.0,0.16717187046064663
2912.0,0.16596098184053343
2911.0,0.1644362483309032
2910.0,0.16291684917681404
2909.0,0.16165473122400909
2908.0,0.1607105439938532
2907.0,0.15989390554324223
2906.0,0.15914144595812063
2905.0,0.15826522102525642
2904.0,0.15714123755470633
2903.0,0.15546069787099204
2902.0,0.15335367142288248
2901.0,0.1509493094304879
2900.0,0.14868048735125483
2899.0,0.146788665496683
2898.0,0.14502632627358292
2897.0,0.1430899396992138
2896.0,0.14086170270546927
2895.0,0.13828641242856565
2894.0,0.13572630319562085
2893.0,0.13335827943396006
2892.0,0.1312967977214634
2891.0,0.12965462891904034
2890.0,0.1283103343144847
2889.0,0.12731939284807026
2888.0,0.126621263590859
2887.0,0.1260984021355387
2886.0,0.1258081953209289
2885.0,0.12563416426995122
2884.0,0.12557616941349803
2883.0,0.12575017722159698
2882.0,0.12638880300353272
2881.0,0.12749410065407507
2880.0,0.12912810493225724
2879.0,0.13100309751286465
2878.0,0.13294519952329842
2877.0,0.1345998818206986
2876.0,0.13572630319562085
2875.0,0.13626089265478303
2874.0,0.1363797797296844
2873.0,0.13626089265478303
2872.0,0.13626089265478303
2871.0,0.13655817138629134
2870.0,0.13739163603505822
2869.0,0.1388241644869712
2868.0,0.1407415825326932
2867.0,0.14296920172737604
2866.0,0.14502632627358292
2865.0,0.1463626180414057
2864.0,0.1466060225493342
2863.0,0.1456332219591303
2862.0,0.14351278713136928
2861.0,0.1405014418122239
2860.0,0.13697470377052956
2859.0,0.13329924395750092
2858.0,0.12971317100740865
2857.0,0.1263307072932056
2856.0,0.1233203895807995
2855.0,0.1207893947082408
2854.0,0.11890078161098283
2853.0,0.11758931562603192
2852.0,0.11667932161702477
2851.0,0.11588463798833115
2850.0,0.11526126223036814
2849.0,0.114865033936566
2848.0,0.11492161585077598
2847.0,0.11554450392951199
2846.0,0.11679296664760996
2845.0,0.11884367892443626
2844.0,0.12182301950849372
2843.0,0.12569216687196105
2842.0,0.13024040521758962
2841.0,0.13537027545448765
2840.0,0.14086170270546927
2839.0,0.1463626180414057
2838.0,0.15162611615539823
2837.0,0.1560823619936076
2836.0,0.15926676538819318
2835.0,0.1607105439938532
2834.0,0.16039627052916305
2833.0,0.15845283474344662
2832.0,0.15533647175976073
2831.0,0.1515645446685292
2830.0,0.14752000636314366
2829.0,0.14363367634075197
2828.0,0.1400815147992842
2827.0,0.13697470377052956
2826.0,0.13436311230037123
2825.0,0.132179091954427
2824.0,0.13035765534840538
2823.0,0.1287190271420271
2822.0,0.12726117252733116
2821.0,0.12592425477696523
2820.0,0.12470717462899183
2819.0,0.12349349573411894
2818.0,0.12234075588839133
2817.0,0.12124847982699793
2816.0,0.12027350336042275
2815.0,0.11947222180119477
2814.0,0.11890078161098283
2813.0,0.11844417020668851
2812.0,0.11804502866039956
2811.0,0.11758931562603192
2810.0,0.1170772093974013
2809.0,0.1165089098110701
2808.0,0.11594135290606156
2807.0,0.11531789579397489
2806.0,0.11469533241103202
2805.0,0.11396072443355765
2804.0,0.11322735694556196
2803.0,0.11243895906999102
2802.0,0.11176432672943282
2801.0,0.11125903931710734
2800.0,0.11097857790477517
2799.0,0.11075433910702048
2798.0,0.11053021603049262
2797.0,0.11025022473596224
2796.0,0.10997041383658313
2795.0,0.10963487855187593
2794.0,0.10924374808178183
2793.0,0.10890877353227624
2792.0,0.10862982530385179
2791.0,0.10835105612944096
2790.0,0.10801676914803293
2789.0,0.10773839308446487
2788.0,0.10746019534136453
2787.0,0.1071265931112344
2786.0,0.10673771411200872
2785.0,0.10623823794205656
2784.0,0.10568393731556158
2783.0,0.10518567091669917
2782.0,0.10479852522110678
2781.0,0.10446696051592963
2780.0,0.10419084983086901
2779.0,0.10391491457671487
2778.0,0.10358402352687701
2777.0,0.10319830233507843
2776.0,0.1028679566179056
2775.0,0.10264786565568684
2774.0,0.10248287059947447
2773.0,0.10231793820358015
2772.0,0.1022080180607754
2771.0,0.10209812573177213
2770.0,0.10193333935836524
2769.0,0.10171372141087698
2768.0,0.10154908080162528
2767.0,0.10138450258381404
2766.0,0.1012199867101744
2765.0,0.10100072911021085
2764.0,0.10089114180660053
2763.0,0.10083635852278117
2762.0,0.10078158214862709
2761.0,0.10072681268239614
2760.0,0.1005078038618683
2759.0,0.10028890542885538
2758.0,0.10017949757290379
2757.0,0.10012480397898926
2756.0,0.10012480397898926
2755.0,0.10001543745060903
2754.0,0.09979678698310646
2753.0,0.09946901754724413
2752.0,0.09914149529800831
2751.0,0.09892328427374508
2750.0,0.09881421986284966
2749.0,0.09865067458435761
2748.0,0.09854167860388774
2747.0,0.09837823590664274
2746.0,0.09821485469640057
2745.0,0.09794268919153337
2744.0,0.09772507952549825
2743.0,0.09750757884139638
2742.0,0.0975619438013351
2741.0,0.09772507952549825
2740.0,0.09794268919153337
2739.0,0.09805153492691598
2738.0,0.09805153492691598
2737.0,0.0978882765519955
2736.0,0.09772507952549825
2735.0,0.0975619438013351
2734.0,0.09750757884139638
2733.0,0.09761631556752848
2732.0,0.09777947172068524
2731.0,0.09794268919153337
2730.0,0.09799710864927058
2729.0,0.09799710864927058
2728.0,0.09805153492691598
2727.0,0.09826930827078129
2726.0,0.09865067458435761
2725.0,0.0989778267519208
2724.0,0.09919606518963042
2723.0,0.09930522554760213
2722.0,0.09930522554760213
2721.0,0.09935981601739963
2720.0,0.09935981601739963
2719.0,0.09935981601739963
2718.0,0.09925064193892053
2717.0,0.09903237608087578
2716.0,0.09870518283443275
2715.0,0.09843270997155007
2714.0,0.09826930827078129
2713.0,0.09821485469640057
2712.0,0.09816040794877057
2711.0,0.09805153492691598
2710.0,0.09805153492691598
2709.0,0.09805153492691598
2708.0,0.09799710864927058
2707.0,0.09777947172068524
2706.0,0.09745322068600859
2705.0,0.09712721455392082
2704.0,0.09691001300805646
2703.0,0.09685572959046151
2702.0,0.09696430321150284
2701.0,0.09712721455392082
2700.0,0.0972358560759139
2699.0,0.0972358560759139
2698.0,0.09712721455392082
2697.0,0.09701860020249709
2696.0,0.09691001300805646
2695.0,0.09680145295702158
2694.0,0.09663866374468144
2693.0,0.0964759355287379
2692.0,0.09625905937846135
2691.0,0.09604229147682952
2690.0,0.09593394808549704
2689.0,0.09593394808549704
2688.0,0.09598811640261173
2687.0,0.09604229147682952
2686.0,0.09604229147682952
2685.0,0.09598811640261173
2684.0,0.09598811640261173
2683.0,0.09593394808549704
2682.0,0.09593394808549704
2681.0,0.09582563171583658
2680.0,0.0957714836599215
2679.0,0.09560907998763835
2678.0,0.0955549589230904
2677.0,0.09560907998763835
2676.0,0.09571734235437201
2675.0,0.09582563171583658
2674.0,0.09582563171583658
2673.0,0.0957714836599215
2672.0,0.09571734235437201
2671.0,0.09566320779750503
2670.0,0.09560907998763835
2669.0,0.0955549589230904
2668.0,0.09544673702322726
2667.0,0.09544673702322726
2666.0,0.0955549589230904
2665.0,0.0957714836599215
2664.0,0.09587978652380036
2663.0,0.09582563171583658
2662.0,0.09566320779750503
2661.0,0.0955549589230904
2660.0,0.09550084460218011
2659.0,0.09550084460218011
2658.0,0.0955549589230904
2657.0,0.0955549589230904
2656.0,0.09560907998763835
2655.0,0.09560907998763835
2654.0,0.0955549589230904
2653.0,0.09544673702322726
2652.0,0.09528445472131919
2651.0,0.09506817260434741
2650.0,0.09485199814398393
2649.0,0.09468993788391455
2648.0,0.09447395156495153
2647.0,0.09425807260839858
2646.0,0.09415017335768128
2645.0,0.09420411963213149
2644.0,0.09431203228814788
2643.0,0.09441997176475758
2642.0,0.09447395156495153
2641.0,0.09458193129745807
2640.0,0.09463593123310776
2639.0,0.09468993788391455
2638.0,0.09463593123310776
2637.0,0.09441997176475758
2636.0,0.09420411963213149
2635.0,0.09404230090757282
2634.0,0.09404230090757282
2633.0,0.09415017335768128
2632.0,0.09425807260839858
2631.0,0.09436599867304518
2630.0,0.09431203228814788
2629.0,0.09420411963213149
2628.0,0.09404230090757282
2627.0,0.09393445524476318
2626.0,0.09393445524476318
2625.0,0.09393445524476318
2624.0,0.09404230090757282
2623.0,0.09420411963213149
2622.0,0.09431203228814788
2621.0,0.09436599867304518
2620.0,0.09431203228814788
2619.0,0.09415017335768128
2618.0,0.09404230090757282
2617.0,0.09398837472858723
2616.0,0.09404230090757282
2615.0,0.09404230090757282
2614.0,0.09398837472858723
2613.0,0.09398837472858723
2612.0,0.09404230090757282
2611.0,0.09404230090757282
2610.0,0.09404230090757282
2609.0,0.09404230090757282
2608.0,0.09415017335768128
2607.0,0.09425807260839858
2606.0,0.09425807260839858
2605.0,0.09425807260839858
2604.0,0.09415017335768128
2603.0,0.09404230090757282
2602.0,0.09398837472858723
2601.0,0.09393445524476318
2600.0,0.09382663635595145
2599.0,0.0937727369476411
2598.0,0.09371884422784693
2597.0,0.09366495819490939
2596.0,0.09366495819490939
2595.0,0.09371884422784693
2594.0,0.0937727369476411
2593.0,0.09393445524476318
2592.0,0.09404230090757282
2591.0,0.09415017335768128
2590.0,0.09409623378338305
2589.0,0.09398837472858723
2588.0,0.09388054245443844
2587.0,0.0937727369476411
2586.0,0.09382663635595145
2585.0,0.09393445524476318
2584.0,0.09415017335768128
2583.0,0.09431203228814788
2582.0,0.09441997176475758
2581.0,0.09452793807529569
2580.0,0.09452793807529569
2579.0,0.09447395156495153
2578.0,0.09441997176475758
2577.0,0.09441997176475758
2576.0,0.09441997176475758
2575.0,0.09436599867304518
2574.0,0.09425807260839858
2573.0,0.09415017335768128
2572.0,0.09409623378338305
2571.0,0.09409623378338305
2570.0,0.09404230090757282
2569.0,0.09404230090757282
2568.0,0.09404230090757282
2567.0,0.09404230090757282
2566.0,0.09393445524476318
2565.0,0.09388054245443844
2564.0,0.09398837472858723
2563.0,0.09415017335768128
2562.0,0.09425807260839858
2561.0,0.09425807260839858
2560.0,0.09409623378338305
2559.0,0.09398837472858723
2558.0,0.09404230090757282
2557.0,0.09415017335768128
2556.0,0.09415017335768128
2555.0,0.09409623378338305
2554.0,0.09393445524476318
2553.0,0.09388054245443844
2552.0,0.09388054245443844
2551.0,0.09393445524476318
2550.0,0.09393445524476318
2549.0,0.09398837472858723
2548.0,0.09398837472858723
2547.0,0.09393445524476318
2546.0,0.09382663635595145
2545.0,0.09366495819490939
2544.0,0.0935033402006471
2543.0,0.0935033402006471
2542.0,0.09361107884716913
2541.0,0.09371884422784693
2540.0,0.09382663635595145
2539.0,0.09388054245443844
2538.0,0.09388054245443844
2537.0,0.09388054245443844
2536.0,0.09382663635595145
2535.0,0.09371884422784693
2534.0,0.09371884422784693
2533.0,0.0937727369476411
2532.0,0.09388054245443844
2531.0,0.09393445524476318
2530.0,0.09393445524476318
2529.0,0.09382663635595145
2528.0,0.09371884422784693
2527.0,0.09361107884716913
2526.0,0.0935572061829677
2525.0,0.09361107884716913
2524.0,0.0935572061829677
2523.0,0.09344948089854999
2522.0,0.09334178232840018
2521.0,0.09334178232840018
2520.0,0.0935033402006471
2519.0,0.09366495819490939
2518.0,0.09371884422784693
2517.0,0.09371884422784693
2516.0,0.09361107884716913
2515.0,0.09344948089854999
2514.0,0.09339562827501968
2513.0,0.09344948089854999
2512.0,0.0935033402006471
2511.0,0.09361107884716913
2510.0,0.09371884422784693
2509.0,0.0937727369476411
2508.0,0.09388054245443844
2507.0,0.09388054245443844
2506.0,0.09382663635595145
2505.0,0.0937727369476411
2504.0,0.09366495819490939
2503.0,0.09361107884716913
2502.0,0.0935033402006471
2501.0,0.09344948089854999
2500.0,0.09339562827501968
2499.0,0.09339562827501968
2498.0,0.09344948089854999
2497.0,0.0935033402006471
2496.0,0.0935033402006471
2495.0,0.09339562827501968
2494.0,0.09323411045927221
2493.0,0.09307265269104414
2492.0,0.09296504751658308
2491.0,0.09296504751658308
2490.0,0.09301884677114591
2489.0,0.09312646527792956
2488.0,0.09323411045927221
2487.0,0.09328794305703592
2486.0,0.09334178232840018
2485.0,0.09334178232840018
2484.0,0.09328794305703592
2483.0,0.09323411045927221
2482.0,0.09312646527792956
2481.0,0.09312646527792956
2480.0,0.09312646527792956
2479.0,0.09318028453345462
2478.0,0.09323411045927221
2477.0,0.09334178232840018
2476.0,0.09344948089854999
2475.0,0.0935033402006471
2474.0,0.0935033402006471
2473.0,0.0935033402006471
2472.0,0.0935572061829677
2471.0,0.09371884422784693
2470.0,0.09388054245443844
2469.0,0.09398837472858723
2468.0,0.09409623378338305
2467.0,0.09415017335768128
2466.0,0.09415017335768128
2465.0,0.09404230090757282
2464.0,0.09382663635595145
2463.0,0.09361107884716913
2462.0,0.0935033402006471
2461.0,0.0935033402006471
2460.0,0.09361107884716913
2459.0,0.09371884422784693
2458.0,0.09382663635595145
2457.0,0.09388054245443844
2456.0,0.09393445524476318
2455.0,0.09388054245443844
2454.0,0.09388054245443844
2453.0,0.09382663635595145
2452.0,0.09382663635595145
2451.0,0.09382663635595145
2450.0,0.0937727369476411
2449.0,0.0937727369476411
2448.0,0.09371884422784693
2447.0,0.09371884422784693
2446.0,0.09371884422784693
2445.0,0.09371884422784693
2444.0,0.0937727369476411
2443.0,0.09382663635595145
2442.0,0.09393445524476318
2441.0,0.09398837472858723
2440.0,0.09404230090757282
2439.0,0.09409623378338305
2438.0,0.09404230090757282
2437.0,0.09404230090757282
2436.0,0.09409623378338305
2435.0,0.09420411963213149
2434.0,0.09431203228814788
2433.0,0.09441997176475758
2432.0,0.09463593123310776
2431.0,0.09479797133768142
2430.0,0.09490603167212863
2429.0,0.09485199814398393
2428.0,0.09479797133768142
2427.0,0.09474395125154866
2426.0,0.09479797133768142
2425.0,0.09496007192378841
2424.0,0.09512223303659528
2423.0,0.09523037409340485
2422.0,0.09517630019905599
2421.0,0.09506817260434741
2420.0,0.09490603167212863
2419.0,0.09479797133768142
2418.0,0.09479797133768142
2417.0,0.09485199814398393
2416.0,0.09485199814398393
2415.0,0.09485199814398393
2414.0,0.09485199814398393
2413.0,0.09479797133768142
2412.0,0.09474395125154866
2411.0,0.09485199814398393
2410.0,0.09496007192378841
2409.0,0.0950141189006366
2408.0,0.0950141189006366
2407.0,0.09485199814398393
2406.0,0.09474395125154866
2405.0,0.09463593123310776
2404.0,0.09458193129745807
2403.0,0.09447395156495153
2402.0,0.09436599867304518
2401.0,0.09436599867304518
2400.0,0.09436599867304518
2399.0,0.09436599867304518
2398.0,0.09436599867304518
2397.0,0.09436599867304518
2396.0,0.09452793807529569
2395.0,0.09479797133768142
2394.0,0.0950141189006366
2393.0,0.09523037409340485
2392.0,0.09528445472131919
2391.0,0.09517630019905599
2390.0,0.0950141189006366
2389.0,0.09479797133768142
2388.0,0.09463593123310776
2387.0,0.09441997176475758
2386.0,0.09425807260839858
2385.0,0.09398837472858723
2384.0,0.09382663635595145
2383.0,0.09361107884716913
2382.0,0.09339562827501968
2381.0,0.09312646527792956
2380.0,0.09280368972839836
2379.0,0.09253489323414388
2378.0,0.09226626300234453
2377.0,0.0919977988274463
2376.0,0.0917831469106074
2375.0,0.0917831469106074
2374.0,0.09215885741705532
2373.0,0.09307265269104414
2372.0,0.09404230090757282
2371.0,0.09458193129745807
2370.0,0.09425807260839858
2369.0,0.09296504751658308
2368.0,0.09092559859909577
2367.0,0.08868255767596933
2366.0,0.0872466963286771
2365.0,0.08793744441149753
2364.0,0.09087205801073917
2363.0,0.09431203228814788
2362.0,0.09604229147682952
2361.0,0.09517630019905599
2360.0,0.09312646527792956
2359.0,0.09210516458371698
2358.0,0.09328794305703592
2357.0,0.09587978652380036
2356.0,0.09794268919153337
2355.0,0.09826930827078129
2354.0,0.09745322068600859
2353.0,0.09636748391576244
2352.0,0.09550084460218011
2351.0,0.09463593123310776
2350.0,0.09441997176475758
2349.0,0.09463593123310776
2348.0,0.09404230090757282
2347.0,0.0919441259012328
2346.0,0.08862929288386212
2345.0,0.08608023504853413
2344.0,0.08586848736910624
2343.0,0.08783110394037297
2342.0,0.09012318200960712
2341.0,0.09108625997902897
2340.0,0.09097914578884403
2339.0,0.0905509530187334
2338.0,0.0908185240221473
2337.0,0.09167586072382083
2336.0,0.09274991711867164
2335.0,0.09382663635595145
2334.0,0.09512223303659528
2333.0,0.09663866374468144
2332.0,0.0978882765519955
2331.0,0.09837823590664274
2330.0,0.09821485469640057
2329.0,0.09783387072894878
2328.0,0.09739886933346864
2327.0,0.0972358560759139
2326.0,0.09734452478207412
2325.0,0.09805153492691598
2324.0,0.09865067458435761
2323.0,0.0989778267519208
2322.0,0.0990869322623309
2321.0,0.09903237608087578
2320.0,0.09914149529800831
2319.0,0.09930522554760213
2318.0,0.09952362861074304
2317.0,0.09974214156222239
2316.0,0.09974214156222239
2315.0,0.09952362861074304
2314.0,0.09892328427374508
2313.0,0.09826930827078129
2312.0,0.09767069414168117
2311.0,0.09729018703012282
2310.0,0.0972358560759139
2309.0,0.09739886933346864
2308.0,0.09750757884139638
2307.0,0.09745322068600859
2306.0,0.09734452478207412
2305.0,0.09729018703012282
2304.0,0.09712721455392082
2303.0,0.09691001300805646
2302.0,0.09663866374468144
2301.0,0.0964759355287379
2300.0,0.09636748391576244
2299.0,0.09631326826349751
2298.0,0.09620485725896466
2297.0,0.09620485725896466
2296.0,0.09620485725896466
2295.0,0.09620485725896466
2294.0,0.09620485725896466
2293.0,0.09625905937846135
2292.0,0.09631326826349751
2291.0,0.0964759355287379
2290.0,0.09663866374468144
2289.0,0.09680145295702158
2288.0,0.09696430321150284
2287.0,0.09707290398273716
2286.0,0.09707290398273716
2285.0,0.09707290398273716
2284.0,0.09712721455392082
2283.0,0.09712721455392082
2282.0,0.09718153191774648
2281.0,0.09718153191774648
2280.0,0.09729018703012282
2279.0,0.09734452478207412
2278.0,0.09729018703012282
2277.0,0.09718153191774648
2276.0,0.09701860020249709
2275.0,0.09685572959046151
2274.0,0.09680145295702158
2273.0,0.09680145295702158
2272.0,0.09674718310604158
2271.0,0.09674718310604158
2270.0,0.09680145295702158
2269.0,0.09701860020249709
2268.0,0.0972358560759139
2267.0,0.09734452478207412
2266.0,0.09739886933346864
2265.0,0.09745322068600859
2264.0,0.09761631556752848
2263.0,0.09772507952549825
2262.0,0.09777947172068524
2261.0,0.09777947172068524
2260.0,0.09777947172068524
2259.0,0.09783387072894878
2258.0,0.09794268919153337
2257.0,0.09816040794877057
2256.0,0.09832376867362447
2255.0,0.09843270997155007
2254.0,0.09848719087006019
2253.0,0.09854167860388774
2252.0,0.09859617317474823
2251.0,0.09865067458435761
2250.0,0.09875969792669093
2249.0,0.09886874864462802
2248.0,0.09892328427374508
2247.0,0.09892328427374508
2246.0,0.09886874864462802
2245.0,0.09892328427374508
2244.0,0.0990869322623309
2243.0,0.09919606518963042
2242.0,0.09925064193892053
2241.0,0.09919606518963042
2240.0,0.0990869322623309
2239.0,0.0989778267519208
2238.0,0.09892328427374508
2237.0,0.09886874864462802
2236.0,0.09886874864462802
2235.0,0.0989778267519208
2234.0,0.09903237608087578
2233.0,0.09914149529800831
2232.0,0.09925064193892053
2231.0,0.09930522554760213
2230.0,0.09930522554760213
2229.0,0.09935981601739963
2228.0,0.09946901754724413
2227.0,0.09957824654226233
2226.0,0.09963287134352972
2225.0,0.09957824654226233
2224.0,0.09957824654226233
2223.0,0.09952362861074304
2222.0,0.09957824654226233
2221.0,0.09957824654226233
2220.0,0.09952362861074304
2219.0,0.09952362861074304
2218.0,0.09952362861074304
2217.0,0.09963287134352972
2216.0,0.09963287134352972
2215.0,0.09946901754724413
2214.0,0.09935981601739963
2213.0,0.09930522554760213
2212.0,0.09941441335003853
2211.0,0.09957824654226233
2210.0,0.09968750301627338
2209.0,0.09974214156222239
2208.0,0.09974214156222239
2207.0,0.09974214156222239
2206.0,0.09979678698310646
2205.0,0.09990609845660159
2204.0,0.10001543745060903
2203.0,0.10012480397898926
2202.0,0.10028890542885538
2201.0,0.10045306890913297
2200.0,0.10061729446673495
2199.0,0.10067205012234592
2198.0,0.10061729446673495
2197.0,0.10045306890913297
2196.0,0.10028890542885538
2195.0,0.10017949757290379
2194.0,0.10017949757290379
2193.0,0.10023419805561384
2192.0,0.10039834085387778
2191.0,0.1005625457138224
2190.0,0.1005625457138224
2189.0,0.1005078038618683
2188.0,0.10039834085387778
2187.0,0.10039834085387778
2186.0,0.10045306890913297
2185.0,0.10045306890913297
2184.0,0.10045306890913297
2183.0,0.10045306890913297
2182.0,0.10045306890913297
2181.0,0.10045306890913297
2180.0,0.10039834085387778
2179.0,0.10039834085387778
2178.0,0.10039834085387778
2177.0,0.10034361969436434
2176.0,0.10034361969436434
2175.0,0.10034361969436434
2174.0,0.10039834085387778
2173.0,0.1005078038618683
2172.0,0.10061729446673495
2171.0,0.10067205012234592
2170.0,0.10072681268239614
2169.0,0.10078158214862709
2168.0,0.10078158214862709
2167.0,0.10078158214862709
2166.0,0.10067205012234592
2165.0,0.10067205012234592
2164.0,0.10067205012234592
2163.0,0.10072681268239614
2162.0,0.10078158214862709
2161.0,0.10072681268239614
2160.0,0.10067205012234592
2159.0,0.10067205012234592
2158.0,0.10078158214862709
2157.0,0.10089114180660053
2156.0,0.10105553313349058
2155.0,0.10105553313349058
2154.0,0.10100072911021085
2153.0,0.10083635852278117
2152.0,0.10078158214862709
2151.0,0.10083635852278117
2150.0,0.10100072911021085
2149.0,0.10116516193172598
2148.0,0.10127481841050656
2147.0,0.10132965703447017
2146.0,0.10127481841050656
2145.0,0.1012199867101744
2144.0,0.1012199867101744
2143.0,0.1012199867101744
2142.0,0.1012199867101744
2141.0,0.10127481841050656
2140.0,0.10127481841050656
2139.0,0.10127481841050656
2138.0,0.10132965703447017
2137.0,0.1014393550602879
2136.0,0.10165883427249067
2135.0,0.1017686154869033
2134.0,0.1017686154869033
2133.0,0.10171372141087698
2132.0,0.10165883427249067
2131.0,0.10171372141087698
2130.0,0.1017686154869033
2129.0,0.10187842445889239
2128.0,0.10182351650232357
2127.0,0.10171372141087698
2126.0,0.10154908080162528
2125.0,0.10154908080162528
2124.0,0.10165883427249067
2123.0,0.10187842445889239
2122.0,0.10204318999304807
2121.0,0.10215306842042837
2120.0,0.10215306842042837
2119.0,0.10209812573177213
2118.0,0.10209812573177213
2117.0,0.10215306842042837
2116.0,0.10226297465457268
2115.0,0.10237290870955862
2114.0,0.10237290870955862
2113.0,0.10226297465457268
2112.0,0.10209812573177213
2111.0,0.10193333935836524
2110.0,0.10182351650232357
2109.0,0.1017686154869033
2108.0,0.10171372141087698
2107.0,0.10171372141087698
2106.0,0.1017686154869033
2105.0,0.10193333935836524
2104.0,0.10215306842042837
2103.0,0.10226297465457268
2102.0,0.10226297465457268
2101.0,0.1022080180607754
2100.0,0.10209812573177213
2099.0,0.10209812573177213
2098.0,0.10215306842042837
2097.0,0.10226297465457268
2096.0,0.10231793820358015
2095.0,0.10231793820358015
2094.0,0.10226297465457268
2093.0,0.1022080180607754
2092.0,0.10226297465457268
2091.0,0.10237290870955862
2090.0,0.10253786198693682
2089.0,0.10264786565568684
2088.0,0.10264786565568684
2087.0,0.10253786198693682
2086.0,0.10248287059947447
2085.0,0.10248287059947447
2084.0,0.10259286033841963
2083.0,0.10270287794050348
2082.0,0.10275789719463457
2081.0,0.1028679566179056
2080.0,0.10292299679057959
2079.0,0.10297804393963661
2078.0,0.1028679566179056
2077.0,0.10281292341984649
2076.0,0.10281292341984649
2075.0,0.10281292341984649
2074.0,0.10275789719463457
2073.0,0.10275789719463457
2072.0,0.10270287794050348
2071.0,0.10275789719463457
2070.0,0.10275789719463457
2069.0,0.10270287794050348
2068.0,0.10270287794050348
2067.0,0.10275789719463457
2066.0,0.1028679566179056
2065.0,0.10303309806684524
2064.0,0.10314322726279568
2063.0,0.10308815917397474
2062.0,0.10297804393963661
2061.0,0.10292299679057959
2060.0,0.10292299679057959
2059.0,0.10297804393963661
2058.0,0.10308815917397474
2057.0,0.10319830233507843
2056.0,0.10325338439259446
2055.0,0.1033635694704158
2054.0,0.10330847343711591
2053.0,0.10325338439259446
2052.0,0.10325338439259446
2051.0,0.10325338439259446
2050.0,0.10325338439259446
2049.0,0.10330847343711591
2048.0,0.10330847343711591
2047.0,0.10325338439259446
2046.0,0.10319830233507843
2045.0,0.10308815917397474
2044.0,0.10308815917397474
2043.0,0.10314322726279568
2042.0,0.10330847343711591
2041.0,0.10352889952072264
2040.0,0.10374943753836186
2039.0,0.1038045895457893
2038.0,0.10369429253391926
2037.0,0.10352889952072264
2036.0,0.10341867249426717
2035.0,0.1033635694704158
2034.0,0.1033635694704158
2033.0,0.10341867249426717
2032.0,0.10352889952072264
2031.0,0.10363915453068362
2030.0,0.10374943753836186
2029.0,0.10385974855798041
2028.0,0.10402526764093545
2027.0,0.10408045468998406
2026.0,0.10413564875270076
2025.0,0.10413564875270076
2024.0,0.10402526764093545
2023.0,0.10397008760377302
2022.0,0.10397008760377302
2021.0,0.10402526764093545
2020.0,0.10413564875270076
2019.0,0.10413564875270076
2018.0,0.10413564875270076
2017.0,0.10413564875270076
2016.0,0.10419084983086901
2015.0,0.10430127304069425
2014.0,0.10430127304069425
2013.0,0.10430127304069425
2012.0,0.10435649517592083
2011.0,0.10435649517592083
2010.0,0.10435649517592083
2009.0,0.10441172433373724
2008.0,0.10446696051592963
2007.0,0.10446696051592963
2006.0,0.10435649517592083
2005.0,0.10424605792627206
2004.0,0.10419084983086901
2003.0,0.10424605792627206
2002.0,0.10435649517592083
2001.0,0.10441172433373724
2000.0,0.10441172433373724
1999.0,0.10435649517592083
1998.0,0.10435649517592083
1997.0,0.10435649517592083
1996.0,0.10435649517592083
1995.0,0.10424605792627206
1994.0,0.10419084983086901
1993.0,0.10419084983086901
1992.0,0.10441172433373724
1991.0,0.10463271122663809
1990.0,0.10479852522110678
1989.0,0.10490910306560064
1988.0,0.10490910306560064
1987.0,0.10490910306560064
1986.0,0.10490910306560064
1985.0,0.10496440254767725
1984.0,0.10501970907203151
1983.0,0.10507502264045665
1982.0,0.10513034325474746
1981.0,0.10513034325474746
1980.0,0.10513034325474746
1979.0,0.10507502264045665
1978.0,0.10496440254767725
1977.0,0.10490910306560064
1976.0,0.10490910306560064
1975.0,0.10496440254767725
1974.0,0.10501970907203151
1973.0,0.10507502264045665
1972.0,0.10513034325474746
1971.0,0.10518567091669917
1970.0,0.1052410056281079
1969.0,0.10518567091669917
1968.0,0.10507502264045665
1967.0,0.10507502264045665
1966.0,0.10513034325474746
1965.0,0.10518567091669917
1964.0,0.10513034325474746
1963.0,0.10513034325474746
1962.0,0.10513034325474746
1961.0,0.10513034325474746
1960.0,0.10513034325474746
1959.0,0.10518567091669917
1958.0,0.10518567091669917
1957.0,0.10518567091669917
1956.0,0.10518567091669917
1955.0,0.1052410056281079
1954.0,0.10535169620648288
1953.0,0.10535169620648288
1952.0,0.10540705207704448
1951.0,0.10546241500425357
1950.0,0.10551778498990938
1949.0,0.10551778498990938
1948.0,0.10546241500425357
1947.0,0.10535169620648288
1946.0,0.1052410056281079
1945.0,0.1052410056281079
1944.0,0.10529634739076998
1943.0,0.10551778498990938
1942.0,0.10573933555301185
1941.0,0.10579474085791629
1940.0,0.10562854614376227
1939.0,0.10546241500425357
1938.0,0.10540705207704448
1937.0,0.10540705207704448
1936.0,0.10546241500425357
1935.0,0.10551778498990938
1934.0,0.10551778498990938
1933.0,0.10551778498990938
1932.0,0.10557316203581202
1931.0,0.10562854614376227
1930.0,0.10568393731556158
1929.0,0.10573933555301185
1928.0,0.10579474085791629
1927.0,0.10585015323207791
1926.0,0.10579474085791629
1925.0,0.10562854614376227
1924.0,0.10546241500425357
1923.0,0.10529634739076998
1922.0,0.10540705207704448
1921.0,0.10562854614376227
1920.0,0.10579474085791629
1919.0,0.10596099919539115
1918.0,0.1060718734573931
1917.0,0.1062937069352865
1916.0,0.10646015643533868
1915.0,0.10651565378151395
1914.0,0.10651565378151395
1913.0,0.10646015643533868
1912.0,0.10640466618011679
1911.0,0.1062937069352865
1910.0,0.1062937069352865
1909.0,0.10646015643533868
1908.0,0.10657115822045493
1907.0,0.10657115822045493
1906.0,0.10657115822045493
1905.0,0.10651565378151395
1904.0,0.10651565378151395
1903.0,0.10651565378151395
1902.0,0.10657115822045493
1901.0,0.10673771411200872
1900.0,0.10684878687013422
1899.0,0.10679324694015202
1898.0,0.10668218838388821
1897.0,0.10662666975397506
1896.0,0.10673771411200872
1895.0,0.10695988804288215
1894.0,0.10718217569042365
1893.0,0.10723776538418317
1892.0,0.1071265931112344
1891.0,0.10695988804288215
1890.0,0.10695988804288215
1889.0,0.10718217569042365
1888.0,0.10729336219433439
1887.0,0.10723776538418317
1886.0,0.10718217569042365
1885.0,0.10718217569042365
1884.0,0.10723776538418317
1883.0,0.10723776538418317
1882.0,0.10729336219433439
1881.0,0.10740457717110186
1880.0,0.10757145305477
1879.0,0.10762709260156367
1878.0,0.10757145305477
1877.0,0.10746019534136453
1876.0,0.10740457717110186
1875.0,0.10734896612269962
1874.0,0.10729336219433439
1873.0,0.10723776538418317
1872.0,0.10718217569042365
1871.0,0.10707101764479421
1870.0,0.10695988804288215
1869.0,0.10707101764479421
1868.0,0.10734896612269962
1867.0,0.10757145305477
1866.0,0.10757145305477
1865.0,0.10762709260156367
1864.0,0.10762709260156367
1863.0,0.10762709260156367
1862.0,0.10757145305477
1861.0,0.1075158206353124
1860.0,0.1075158206353124
1859.0,0.1075158206353124
1858.0,0.10757145305477
1857.0,0.10768273927751948
1856.0,0.10779405402422748
1855.0,0.10779405402422748
1854.0,0.10779405402422748
1853.0,0.10784972209863586
1852.0,0.10784972209863586
1851.0,0.10779405402422748
1850.0,0.10773839308446487
1849.0,0.10768273927751948
1848.0,0.10768273927751948
1847.0,0.10779405402422748
1846.0,0.10801676914803293
1845.0,0.10823959854332843
1844.0,0.10835105612944096
1843.0,0.10823959854332843
1842.0,0.10807246577932506
1841.0,0.10801676914803293
1840.0,0.10796107965870849
1839.0,0.10779405402422748
1838.0,0.10762709260156367
1837.0,0.10762709260156367
1836.0,0.10784972209863586
1835.0,0.10807246577932506
1834.0,0.1081838804751396
1833.0,0.1082953237608173
1832.0,0.10835105612944096
1831.0,0.10835105612944096
1830.0,0.10835105612944096
1829.0,0.10857405715200596
1828.0,0.10874138309586101
1827.0,0.10885296955122903
1826.0,0.10896458468468917
1825.0,0.10890877353227624
1824.0,0.10885296955122903
1823.0,0.10874138309586101
1822.0,0.10868560061785693
1821.0,0.10862982530385179
1820.0,0.10857405715200596
1819.0,0.10857405715200596
1818.0,0.10862982530385179
1817.0,0.10868560061785693
1816.0,0.10874138309586101
1815.0,0.10851829616048003
1814.0,0.10823959854332843
1813.0,0.10807246577932506
1812.0,0.10812816955441629
1811.0,0.1082953237608173
1810.0,0.10840679565103484
1809.0,0.10851829616048003
1808.0,0.10857405715200596
1807.0,0.10857405715200596
1806.0,0.10846254232743546
1805.0,0.10840679565103484
1804.0,0.10851829616048003
1803.0,0.10868560061785693
1802.0,0.10885296955122903
1801.0,0.10902040301031102
1800.0,0.10907622851098608
1799.0,0.10896458468468917
1798.0,0.10874138309586101
1797.0,0.10862982530385179
1796.0,0.10874138309586101
1795.0,0.10896458468468917
1794.0,0.10907622851098608
1793.0,0.10913206118855912
1792.0,0.10924374808178183
1791.0,0.10941133229451272
1790.0,0.10941133229451272
1789.0,0.10935546370475246
1788.0,0.10929960230112479
1787.0,0.10913206118855912
1786.0,0.10902040301031102
1785.0,0.10913206118855912
1784.0,0.10935546370475246
1783.0,0.10935546370475246
1782.0,0.10935546370475246
1781.0,0.10929960230112479
1780.0,0.10935546370475246
1779.0,0.10941133229451272
1778.0,0.10935546370475246
1777.0,0.10924374808178183
1776.0,0.10907622851098608
1775.0,0.10913206118855912
1774.0,0.10924374808178183
1773.0,0.10913206118855912
1772.0,0.10907622851098608
1771.0,0.10913206118855912
1770.0,0.10935546370475246
1769.0,0.10974669484546551
1768.0,0.11013827874181148
1767.0,0.11025022473596224
1766.0,0.10997041383658313
1765.0,0.10974669484546551
1764.0,0.10969078310005154
1763.0,0.10969078310005154
1762.0,0.10974669484546551
1761.0,0.10974669484546551
1760.0,0.10980261378997125
1759.0,0.10997041383658313
1758.0,0.11019424813191447
1757.0,0.11025022473596224
1756.0,0.11019424813191447
1755.0,0.11019424813191447
1754.0,0.11030620855581463
1753.0,0.11053021603049262
1752.0,0.11047420332880886
1751.0,0.11025022473596224
1750.0,0.1098585399354226
1749.0,0.10963487855187593
1748.0,0.10974669484546551
1747.0,0.11013827874181148
1746.0,0.11041819785037621
1745.0,0.11047420332880886
1744.0,0.11047420332880886
1743.0,0.1106422631110684
1742.0,0.11092250734993603
1741.0,0.11109074073646874
1740.0,0.11114683301706374
1739.0,0.11103465569966264
1738.0,0.11097857790477517
1737.0,0.11131515334030118
1736.0,0.11182050608167504
1735.0,0.11198908775497118
1734.0,0.11193288659256306
1733.0,0.11165198982195101
1732.0,0.11120293254331926
1731.0,0.11131515334030118
1730.0,0.1117081546434846
1729.0,0.11198908775497118
1728.0,0.11198908775497118
1727.0,0.11198908775497118
1726.0,0.11187669270209155
1725.0,0.11182050608167504
1724.0,0.11193288659256306
1723.0,0.1120452961911984
1722.0,0.11221396516162851
1721.0,0.11232644754555254
1720.0,0.11243895906999102
1719.0,0.11221396516162851
1718.0,0.11176432672943282
1717.0,0.11182050608167504
1716.0,0.11210151190312767
1715.0,0.11221396516162851
1714.0,0.11238269966426384
1713.0,0.1125514997500463
1712.0,0.11272036546997688
1711.0,0.11272036546997688
1710.0,0.11272036546997688
1709.0,0.11266406960083297
1708.0,0.11266406960083297
1707.0,0.11266406960083297
1706.0,0.11266406960083297
1705.0,0.112945621949043
1704.0,0.11350927482751816
1703.0,0.11446916681190777
1702.0,0.11548784080960606
1701.0,0.11605480496572018
1700.0,0.11605480496572018
1699.0,0.11548784080960606
1698.0,0.11537453674376552
1697.0,0.11622503864474187
1696.0,0.11724784438692004
1695.0,0.11730473761840288
1694.0,0.11667932161702477
1693.0,0.11667932161702477
1692.0,0.11724784438692004
1691.0,0.11764625361128611
1690.0,0.11793105556385153
1689.0,0.11850122038501709
1688.0,0.11941504393502012
1687.0,0.12044539906102569
1686.0,0.12096149476276286
1685.0,0.12107626603243293
1684.0,0.12182301950849372
1683.0,0.12257105921178035
1682.0,0.12268625668776156
1681.0,0.12303203256741524
1680.0,0.12360893818081231
1679.0,0.12401322857151209
1678.0,0.12436006299583169
1677.0,0.1244757360506914
1676.0,0.12436006299583169
1675.0,0.12418661116024232
1674.0,0.12395544975390482
1673.0,0.12372441132212098
1672.0,0.12360893818081231
1671.0,0.12355121312165873
1670.0,0.12378215940835768
1669.0,0.12424442074194553
1668.0,0.12436006299583169
1667.0,0.12424442074194553
1666.0,0.12424442074194553
1665.0,0.12424442074194553
1664.0,0.12412880927263426
1663.0,0.12407101507707297
1662.0,0.12424442074194553
1661.0,0.1244757360506914
1660.0,0.12459143992293642
1659.0,0.12470717462899183
1658.0,0.12470717462899183
1657.0,0.12476505354983503
1656.0,0.1251124891538875
1655.0,0.12551818230053358
1654.0,0.12569216687196105
1653.0,0.12644690648638135
1652.0,0.12592425477696523
1651.0,0.12412880927263426
1650.0,0.12383991517437187
1649.0,0.12407101507707297
1648.0,0.12407101507707297
1647.0,0.12453358413361437
1646.0,0.12551818230053358
1645.0,0.12563416426995122
1644.0,0.12517042212027807
1643.0,0.1249387366082999
1642.0,0.1248808345374317
1641.0,0.12476505354983503
1640.0,0.1244757360506914
1639.0,0.12412880927263426
1638.0,0.12389767862220635
1637.0,0.12378215940835768
1636.0,0.12424442074194553
1635.0,0.125054563914468
1634.0,0.12517042212027807
1633.0,0.1249387366082999
1632.0,0.124996646399959
1631.0,0.1251124891538875
1630.0,0.1252863112422209
1629.0,0.12546020292898974
1628.0,0.12569216687196105
1627.0,0.12604034525664676
1626.0,0.12638880300353272
1625.0,0.12679569072295926
1624.0,0.12737762097471172
1623.0,0.1283103343144847
1622.0,0.12918657608440243
1621.0,0.1294790499872358
1620.0,0.12942053944731513
1619.0,0.12930354201075
1618.0,0.12912810493225724
1617.0,0.12889429901441463
1616.0,0.1286022185125162
1615.0,0.1281352979118051
1614.0,0.12778543660241448
1613.0,0.12749410065407507
1612.0,0.12691201440971422
1611.0,0.126156466776564
1610.0,0.12563416426995122
1609.0,0.12534426740189897
1608.0,0.1251124891538875
1607.0,0.12482294018529605
1606.0,0.12453358413361437
1605.0,0.12418661116024232
1604.0,0.12378215940835768
1603.0,0.12360893818081231
1602.0,0.12355121312165873
1601.0,0.12343578601615435
1600.0,0.12314735239865637
1599.0,0.12285911021517903
1598.0,0.12262865413022594
1597.0,0.12239832027072817
1596.0,0.12222565000860186
1595.0,0.12211057462851604
1594.0,0.12205304837081177
1593.0,0.12193801870998744
1592.0,0.12170805075020397
1591.0,0.12142076193778073
1590.0,0.1213058996038916
1589.0,0.1213058996038916
1588.0,0.1213058996038916
1587.0,0.12124847982699793
1586.0,0.12124847982699793
1585.0,0.12113366304327466
1584.0,0.12084675381575383
1583.0,0.12061736282565727
1582.0,0.12050271275057156
1581.0,0.12027350336042275
1580.0,0.1199871616332282
1579.0,0.11992991593593283
1578.0,0.11992991593593283
1577.0,0.11992991593593283
1576.0,0.12004441487725082
1575.0,0.12004441487725082
1574.0,0.12004441487725082
1573.0,0.12027350336042275
1572.0,0.12044539906102569
1571.0,0.1202162199095842
1570.0,0.11992991593593283
1569.0,0.11987267778337518
1568.0,0.11981544717356662
1567.0,0.11987267778337518
1566.0,0.11987267778337518
1565.0,0.11981544717356662
1564.0,0.11970100857424737
1563.0,0.11992991593593283
1562.0,0.12033079436794658
1561.0,0.12027350336042275
1560.0,0.11895789180659433
1559.0,0.11850122038501709
1558.0,0.12015894401343741
1557.0,0.1202162199095842
1556.0,0.1202162199095842
1555.0,0.12056003400478299
1554.0,0.12067469921519258
1553.0,0.12033079436794658
1552.0,0.1199871616332282
1551.0,0.11992991593593283
1550.0,0.12004441487725082
1549.0,0.1202162199095842
1548.0,0.12033079436794658
1547.0,0.12033079436794658
1546.0,0.1201016756699902
1545.0,0.11964380058076385
1544.0,0.11941504393502012
1543.0,0.11941504393502012
1542.0,0.11935787359571504
1541.0,0.11941504393502012
1540.0,0.11987267778337518
1539.0,0.11987267778337518
1538.0,0.11878658374498086
1537.0,0.1183871275216517
1536.0,0.11861534322942724
1535.0,0.11878658374498086
1534.0,0.11878658374498086
1533.0,0.11907213473291511
1532.0,0.11935787359571504
1531.0,0.11930071078129845
1530.0,0.1190150095132465
1529.0,0.11867241589944855
1528.0,0.11844417020668851
1527.0,0.11821604440661537
1526.0,0.11804502866039956
1525.0,0.11776015198117662
1524.0,0.11758931562603192
1523.0,0.1175323851046286
1522.0,0.1175323851046286
1521.0,0.11781711236973003
1520.0,0.11758931562603192
1519.0,0.11690664142431006
1518.0,0.11633856484638239
1517.0,0.11616828667054757
1516.0,0.1165089098110701
1515.0,0.11684980031672243
1514.0,0.11690664142431006
1513.0,0.11662251025166115
1512.0,0.11611154211151953
1511.0,0.11548784080960606
1510.0,0.11503480179926728
1509.0,0.11463877996848804
1508.0,0.11429961987167014
1507.0,0.114865033936566
1506.0,0.11554450392951199
1505.0,0.11446916681190777
1504.0,0.11345287660889425
1503.0,0.11317099532301778
1502.0,0.11288929687511629
1501.0,0.11238269966426384
1500.0,0.11187669270209155
1499.0,0.11153968196461372
1498.0,0.11125903931710734
1497.0,0.11114683301706374
1496.0,0.11109074073646874
1495.0,0.11069829749368965
1494.0,0.11025022473596224
1493.0,0.10997041383658313
1492.0,0.10963487855187593
1491.0,0.10907622851098608
1490.0,0.10857405715200596
1489.0,0.10846254232743546
1488.0,0.10840679565103484
1487.0,0.10801676914803293
1486.0,0.10740457717110186
1485.0,0.10690433390377163
1484.0,0.10640466618011679
1483.0,0.10596099919539115
1482.0,0.10540705207704448
1481.0,0.10496440254767725
1480.0,0.1047432468551055
1479.0,0.10457745396059215
1478.0,0.10424605792627206
1477.0,0.10391491457671487
1476.0,0.10385974855798041
1475.0,0.10413564875270076
1474.0,0.10457745396059215
1473.0,0.10568393731556158
1472.0,0.10784972209863586
1471.0,0.11030620855581463
1470.0,0.11260778102815316
1469.0,0.11543118508166672
1468.0,0.11884367892443626
1467.0,0.12291674334934943
1466.0,0.12796033202671375
1465.0,0.13448148092522594
1464.0,0.14200450443907608
1463.0,0.14855818532794496
1462.0,0.15335367142288248
1461.0,0.15726598105173029
1460.0,0.16089921729284673
1459.0,0.16430942850757435
1458.0,0.16774662980299215
1457.0,0.17237229523256659
1456.0,0.17665620917935154
1455.0,0.1789452449531117
1454.0,0.18078520011761579
1453.0,0.182963773949971
1452.0,0.18535293054814383
1451.0,0.1872871332346313
1450.0,0.1885590563258419
1449.0,0.18916284885951162
1448.0,0.18869315991866387
1447.0,0.1866191932661443
1446.0,0.18336105510153855
1445.0,0.17953580942231584
1444.0,0.17567887514922864
1443.0,0.17179138553205453
1442.0,0.16819419132560887
1441.0,0.16513442009996204
1440.0,0.1627904721987936
1439.0,0.16115090926274478
1438.0,0.1600822243213189
1437.0,0.15970566838856382
1436.0,0.1600194423216572
1435.0,0.15983115075924403
1434.0,0.15882830550046778
1433.0,0.15726598105173029
1432.0,0.15515019919336104
1431.0,0.15261244897260462
1430.0,0.1499667423102311
1429.0,0.14764201633217278
1428.0,0.1455724942121388
1427.0,0.14375459920994582
1426.0,0.14218522202899342
1425.0,0.14068153490288382
1424.0,0.13930272594796111
1423.0,0.13828641242856565
1422.0,0.13763006287711765
1421.0,0.1369151746796402
1420.0,0.13596381727422502
1419.0,0.13483678049391368
1418.0,0.13371266091580503
1417.0,0.13265038281120756
1416.0,0.13159069668503998
1415.0,0.13053358991913355
1414.0,0.12930354201075
1413.0,0.1280186461566306
1412.0,0.12679569072295926
1411.0,0.12575017722159698
1410.0,0.12476505354983503
1409.0,0.12395544975390482
1408.0,0.12320502379929943
1407.0,0.12245589228405596
1406.0,0.12188051530283239
1405.0,0.12147820449879343
1404.0,0.12107626603243293
1403.0,0.1207320431753871
1402.0,0.12033079436794658
1401.0,0.11992991593593283
1400.0,0.11947222180119477
1399.0,0.11912926746757657
1398.0,0.11872949607064243
1397.0,0.11787408022996826
1396.0,0.11622503864474187
1395.0,0.11401718864502697
1394.0,0.11221396516162851
1393.0,0.11142740314240007
1392.0,0.11137127461477392
1391.0,0.11159583226295333
1390.0,0.11165198982195101
1389.0,0.11103465569966264
1388.0,0.10974669484546551
1387.0,0.10812816955441629
1386.0,0.10690433390377163
1385.0,0.10651565378151395
1384.0,0.10729336219433439
1383.0,0.10991447328367476
1382.0,0.1149782051377024
1381.0,0.12308968865537295
1380.0,0.1345998818206986
1379.0,0.14966014541652073
1378.0,0.16742722515382025
1377.0,0.18535293054814383
1376.0,0.20086630669793704
1375.0,0.21176090261783198
1374.0,0.21623930425607596
1373.0,0.21417208000413446
1372.0,0.2083093509798819
1371.0,0.20121128604875071
1370.0,0.19368433019188647
1369.0,0.1862189218259176
1368.0,0.17953580942231584
1367.0,0.1742494186519723
1366.0,0.17024608107502504
1365.0,0.16723569505946845
1364.0,0.16519794595130088
1363.0,0.16418264570652719
1362.0,0.16418264570652719
1361.0,0.16481693015095633
1360.0,0.16589734428720626
1359.0,0.16710805524020933
1358.0,0.16806626953325465
1357.0,0.1685141607513425
1356.0,0.1683221508085333
1355.0,0.1674910872937636
1354.0,0.166151950468852
1353.0,0.1646899991309374
1352.0,0.16329620091026875
1351.0,0.16203298163134527
1350.0,0.16077342598656452
1349.0,0.15964294079664376
1348.0,0.15857795559764076
1347.0,0.1576404266693252
1346.0,0.15676722190199066
1345.0,0.1559579579589836
1344.0,0.15515019919336104
1343.0,0.15446788250642451
1342.0,0.1538485234711846
1341.0,0.15323004646278116
1340.0,0.15279763601907614
1339.0,0.1524890347967518
1338.0,0.15218065270476067
1337.0,0.15187248943212528
1336.0,0.1515645446685292
1335.0,0.1513798825658661
1334.0,0.15125681810431635
1333.0,0.15119529894819617
1332.0,0.15125681810431635
1331.0,0.1515029819096334
1330.0,0.15181088300860135
1329.0,0.15211900255462485
1328.0,0.1523039792658345
1327.0,0.15236565568174498
1326.0,0.15236565568174498
1325.0,0.15218065270476067
1324.0,0.1519957285027318
1323.0,0.1517492853229574
1322.0,0.1515645446685292
1321.0,0.15125681810431635
1320.0,0.15101079374883275
1319.0,0.15082636690117335
1318.0,0.15064201833870117
1317.0,0.15051916275601385
1316.0,0.15033494452126717
1315.0,0.15015080439474215
1314.0,0.15002808767114995
1313.0,0.14984407757790774
1312.0,0.1497214474819628
1311.0,0.1497214474819628
1310.0,0.14978275820161047
1309.0,0.14990540561329913
1308.0,0.15033494452126717
1307.0,0.15113378850522063
1306.0,0.15224231160766877
1305.0,0.15360102696532518
1304.0,0.15471587365200845
1303.0,0.15539858037365328
1302.0,0.15558495952617557
1301.0,0.15539858037365328
1300.0,0.15508812608785938
1299.0,0.15490195998574308
1298.0,0.15490195998574308
1297.0,0.15490195998574308
1296.0,0.15496400648658493
1295.0,0.15508812608785938
1294.0,0.15515019919336104
1293.0,0.15521228117215347
1292.0,0.15521228117215347
1291.0,0.15521228117215347
1290.0,0.1550260618531123
1289.0,0.1548399223480541
1288.0,0.15471587365200845
1287.0,0.1545918603782066
1286.0,0.15446788250642451
1285.0,0.15428198203334142
1284.0,0.1540961611012175
1283.0,0.15397232463562127
1282.0,0.15397232463562127
1281.0,0.15397232463562127
1280.0,0.15391041964201602
1279.0,0.1538485234711846
1278.0,0.15372475758778692
1277.0,0.15360102696532518
1276.0,0.1535391748706676
1275.0,0.15347733158371324
1274.0,0.15347733158371324
1273.0,0.1534154971019539
1272.0,0.15323004646278116
1271.0,0.15298290206464582
1270.0,0.1527358982292355
1269.0,0.1524890347967518
1268.0,0.1523039792658345
1267.0,0.15218065270476067
1266.0,0.15218065270476067
1265.0,0.15211900255462485
1264.0,0.1519957285027318
1263.0,0.15181088300860135
1262.0,0.1515645446685292
1261.0,0.1513798825658661
1260.0,0.1513798825658661
1259.0,0.15168769637271562
1258.0,0.15224231160766877
1257.0,0.15304467498017615
1256.0,0.1540961611012175
1255.0,0.15496400648658493
1254.0,0.15546069787099204
1253.0,0.15539858037365328
1252.0,0.15477789357098626
1251.0,0.15403423845451636
1250.0,0.1532918545439932
1249.0,0.15279763601907614
1248.0,0.15261244897260462
1247.0,0.15267416921457633
1246.0,0.1527358982292355
1245.0,0.1527358982292355
1244.0,0.1524890347967518
1243.0,0.15205736115477642
1242.0,0.15168769637271562
1241.0,0.15168769637271562
1240.0,0.15224231160766877
1239.0,0.15292113793428452
1238.0,0.1532918545439932
1237.0,0.15310645668337486
1236.0,0.15261244897260462
1235.0,0.1519957285027318
1234.0,0.1514414278762366
1233.0,0.1509493094304879
1232.0,0.15058058620310066
1231.0,0.15033494452126717
1230.0,0.1502121757623145
1229.0,0.1500894416985039
1228.0,0.15002808767114995
1227.0,0.15002808767114995
1226.0,0.15015080439474215
1225.0,0.15033494452126717
1224.0,0.15058058620310066
1223.0,0.15088783381542248
1222.0,0.15125681810431635
1221.0,0.1515645446685292
1220.0,0.15181088300860135
1219.0,0.15211900255462485
1218.0,0.1524890347967518
1217.0,0.15292113793428452
1216.0,0.15335367142288248
1215.0,0.15366288787019466
1214.0,0.15372475758778692
1213.0,0.15366288787019466
1212.0,0.1535391748706676
1211.0,0.15347733158371324
1210.0,0.1535391748706676
1209.0,0.15360102696532518
1208.0,0.15372475758778692
1207.0,0.15372475758778692
1206.0,0.15372475758778692
1205.0,0.15366288787019466
1204.0,0.15372475758778692
1203.0,0.1537866361206126
1202.0,0.15391041964201602
1201.0,0.15391041964201602
1200.0,0.15391041964201602
1199.0,0.15391041964201602
1198.0,0.15397232463562127
1197.0,0.15397232463562127
1196.0,0.15403423845451636
1195.0,0.15403423845451636
1194.0,0.1540961611012175
1193.0,0.15415809257824264
1192.0,0.15428198203334142
1191.0,0.15452986701832638
1190.0,0.15477789357098626
1189.0,0.15496400648658493
1188.0,0.1550260618531123
1187.0,0.15508812608785938
1186.0,0.1550260618531123
1185.0,0.1550260618531123
1184.0,0.15508812608785938
1183.0,0.15515019919336104
1182.0,0.15515019919336104
1181.0,0.15527437202677397
1180.0,0.15546069787099204
1179.0,0.1558335895497993
1178.0,0.1562690348879079
1177.0,0.1567049172634929
1176.0,0.15726598105173029
1175.0,0.15801519540988607
1174.0,0.15920410115290617
1173.0,0.16096212661169407
1172.0,0.16361258067358908
1171.0,0.16698045292346864
1170.0,0.17082492608291244
1169.0,0.17476867680009978
1168.0,0.17842097208799124
1167.0,0.18131233655848633
1166.0,0.18329481633348466
1165.0,0.18435585086803474
1164.0,0.18462151503408197
1163.0,0.18442225167573278
1162.0,0.18402399902801458
1161.0,0.18349356295364294
1160.0,0.1831623690979649
1159.0,0.18302996224270052
1158.0,0.18302996224270052
1157.0,0.18289759574307696
1156.0,0.18289759574307696
1155.0,0.182963773949971
1154.0,0.1831623690979649
1153.0,0.18342730397389695
1152.0,0.1838250095711984
1151.0,0.1842894602110372
1150.0,0.18468795647564096
1149.0,0.1848873418101875
1148.0,0.1850203162392432
1147.0,0.18508681872492616
1146.0,0.1851533313955367
1145.0,0.1850203162392432
1144.0,0.18482086986058133
1143.0,0.1847544080834369
1142.0,0.18482086986058133
1141.0,0.1849538239353694
1140.0,0.18508681872492616
1139.0,0.18528638730402336
1138.0,0.18541948398968144
1137.0,0.18528638730402336
1136.0,0.18508681872492616
1135.0,0.18482086986058133
1134.0,0.18462151503408197
1133.0,0.18462151503408197
1132.0,0.1847544080834369
1131.0,0.1848873418101875
1130.0,0.1850203162392432
1129.0,0.18508681872492616
1128.0,0.18508681872492616
1127.0,0.18508681872492616
1126.0,0.18508681872492616
1125.0,0.18508681872492616
1124.0,0.18508681872492616
1123.0,0.18508681872492616
1122.0,0.18508681872492616
1121.0,0.18508681872492616
1120.0,0.18508681872492616
1119.0,0.1851533313955367
1118.0,0.18508681872492616
1117.0,0.18482086986058133
1116.0,0.18462151503408197
1115.0,0.18455508375564977
1114.0,0.18468795647564096
1113.0,0.1848873418101875
1112.0,0.1849538239353694
1111.0,0.1848873418101875
1110.0,0.1847544080834369
1109.0,0.18455508375564977
1108.0,0.1842894602110372
1107.0,0.1840903491132253
1106.0,0.18402399902801458
1105.0,0.18422307970163732
1104.0,0.18455508375564977
1103.0,0.1848873418101875
1102.0,0.1849538239353694
1101.0,0.18468795647564096
1100.0,0.18435585086803474
1099.0,0.1840903491132253
1098.0,0.1838913292600961
1097.0,0.1838250095711984
1096.0,0.18369240056806024
1095.0,0.18336105510153855
1094.0,0.1827652695745019
1093.0,0.1818401136028147
1092.0,0.180587688790675
1091.0,0.17907641211868253
1090.0,0.17750501472124913
1089.0,0.17613469067548881
1088.0,0.17509352869788763
1087.0,0.1742494186519723
1086.0,0.1733422081241307
1085.0,0.17230771132555445
1084.0,0.17108243838331405
1083.0,0.16973219906635828
1082.0,0.1683221508085333
1081.0,0.16691666582165698
1080.0,0.165706487557304
1079.0,0.16481693015095633
1078.0,0.16411926818260536
1077.0,0.16348600110932865
1076.0,0.16304326294044946
1075.0,0.16285365609093994
1074.0,0.16291684917681404
1073.0,0.16298005145909156
1072.0,0.16298005145909156
1071.0,0.16291684917681404
1070.0,0.1626009756579776
1069.0,0.16165473122400909
1068.0,0.1600822243213189
1067.0,0.15845283474344662
1066.0,0.15776531365276036
1065.0,0.1583902878315646
1064.0,0.15989390554324223
1063.0,0.1614027471833437
1062.0,0.16222223044626682
1061.0,0.16203298163134527
1060.0,0.16102504504453208
1059.0,0.15958022226351387
1058.0,0.1583902878315646
1057.0,0.15789023655938994
1056.0,0.15826522102525642
1055.0,0.158765704493959
1054.0,0.1590787998012282
1053.0,0.1590787998012282
1052.0,0.15920410115290617
1051.0,0.159517512786558
1050.0,0.15983115075924403
1049.0,0.1600822243213189
1048.0,0.1602706247936121
1047.0,0.1607105439938532
1046.0,0.16146572948813143
1045.0,0.16247469055039865
1044.0,0.16342272515935097
1043.0,0.16418264570652719
1042.0,0.16462654752999129
1041.0,0.16494389827988365
1040.0,0.16532502553725603
1039.0,0.165706487557304
1038.0,0.166151950468852
1037.0,0.1667891197173912
1036.0,0.16774662980299215
1035.0,0.16909070045355667
1034.0,0.1704389437006073
1033.0,0.17153345264732156
1032.0,0.17224313702138327
1031.0,0.1724368887452763
1030.0,0.17204947169736973
1029.0,0.17108243838331405
1028.0,0.17031035910102887
1027.0,0.1705032502798176
1026.0,0.17159792150840691
1025.0,0.1730186630880064
1024.0,0.17405485679615196
1023.0,0.17457388223217696
1022.0,0.17463880404736676
1021.0,0.17457388223217696
1020.0,0.17444406770964305
1019.0,0.1743791749964998
1018.0,0.1743791749964998
1017.0,0.17444406770964305
1016.0,0.17457388223217696
1015.0,0.17463880404736676
1014.0,0.17470373556903995
1013.0,0.17470373556903995
1012.0,0.17470373556903995
1011.0,0.1745089701205691
1010.0,0.1742494186519723
1009.0,0.17418455501479646
1008.0,0.1743791749964998
1007.0,0.17483362774345035
1006.0,0.17535358528164813
1005.0,0.17587416608345108
1004.0,0.17672144304832926
1003.0,0.17809362264767703
1002.0,0.18025870272698952
1001.0,0.18329481633348466
1000.0,0.18735398376688117
999.0,0.19226207798589923
998.0,0.19708951058096025
997.0,0.20086630669793704
996.0,0.20273245916928362
995.0,0.20259395032361804
994.0,0.2010042655561186
993.0,0.1987335295103798
992.0,0.19647460442346754
991.0,0.19436323369406505
990.0,0.19239733008350535
989.0,0.19064232978889417
988.0,0.18916284885951162
987.0,0.18782222584124608
986.0,0.1866191932661443
985.0,0.18561920553006184
984.0,0.1848873418101875
983.0,0.18442225167573278
982.0,0.18422307970163732
981.0,0.18415670933673334
980.0,0.18442225167573278
979.0,0.18528638730402336
978.0,0.18701983396051958
977.0,0.18970025895983111
976.0,0.19341306567219707
975.0,0.19797924822802404
974.0,0.20300960945431368
973.0,0.20774842809673588
972.0,0.21140744407964052
971.0,0.21324857785443885
970.0,0.2128939069634299
969.0,0.21091308491197136
968.0,0.20809891999042884
967.0,0.20516354218543853
966.0,0.20259395032361804
965.0,0.20045269287438483
964.0,0.1987335295103798
963.0,0.19736308191718943
962.0,0.1962698290254561
961.0,0.19538358301274483
960.0,0.19470308384201496
959.0,0.19409154492580294
958.0,0.1934808659192948
957.0,0.19273564472389304
956.0,0.1920592787845008
955.0,0.19145144875959463
954.0,0.19084446825281964
953.0,0.19044028536473223
952.0,0.19010375339756092
951.0,0.18983471545685027
950.0,0.18956584407732735
949.0,0.18922998876563635
948.0,0.18882730493344568
947.0,0.18842499412940672
946.0,0.18815699382352258
945.0,0.188023055663046
944.0,0.18809001957990112
943.0,0.18822397839709626
942.0,0.18842499412940672
941.0,0.1887602272467106
940.0,0.18916284885951162
939.0,0.18929713905288326
938.0,0.18916284885951162
937.0,0.18869315991866387
936.0,0.18822397839709626
935.0,0.18775530319963063
934.0,0.18742084459095332
933.0,0.1871534630329288
932.0,0.18688624599210146
931.0,0.18681946741398825
930.0,0.18688624599210146
929.0,0.18708664335714453
928.0,0.1872871332346313
927.0,0.1872871332346313
926.0,0.18708664335714453
925.0,0.18668594105416525
924.0,0.18641901143180806
923.0,0.18628560811885508
922.0,0.18615224577114575
921.0,0.1859522790044006
920.0,0.18568579979254052
919.0,0.1854860476317619
918.0,0.18535293054814383
917.0,0.1850203162392432
916.0,0.1847544080834369
915.0,0.18462151503408197
914.0,0.18462151503408197
913.0,0.18482086986058133
912.0,0.1848873418101875
911.0,0.1847544080834369
910.0,0.18435585086803474
909.0,0.1838913292600961
908.0,0.18342730397389695
907.0,0.18302996224270052
906.0,0.18256685588861554
905.0,0.18223636771963214
904.0,0.18223636771963214
903.0,0.182963773949971
902.0,0.18415670933673334
901.0,0.18568579979254052
900.0,0.1872871332346313
899.0,0.18869315991866387
898.0,0.18963304631837485
897.0,0.18990195931885712
896.0,0.18963304631837485
895.0,0.18909571933129965
894.0,0.18842499412940672
893.0,0.18775530319963063
892.0,0.1871534630329288
891.0,0.1867526991023949
890.0,0.1867526991023949
889.0,0.18701983396051958
888.0,0.1871534630329288
887.0,0.18708664335714453
886.0,0.18695303483989223
885.0,0.18688624599210146
884.0,0.18695303483989223
883.0,0.18701983396051958
882.0,0.18688624599210146
881.0,0.18655245573517876
880.0,0.18635230465310326
879.0,0.18655245573517876
878.0,0.1871534630329288
877.0,0.18775530319963063
876.0,0.18809001957990112
875.0,0.18822397839709626
874.0,0.18829097330380895
873.0,0.188357978546849
872.0,0.188357978546849
871.0,0.18822397839709626
870.0,0.1879561020697733
869.0,0.18768839086887623
868.0,0.18748771571001743
867.0,0.18735398376688117
866.0,0.1872871332346313
865.0,0.18735398376688117
864.0,0.1875545971272441
863.0,0.18775530319963063
862.0,0.1879561020697733
861.0,0.188023055663046
860.0,0.1878891587969005
859.0,0.18768839086887623
858.0,0.18748771571001743
857.0,0.18748771571001743
856.0,0.18768839086887623
855.0,0.188023055663046
854.0,0.18829097330380895
853.0,0.18842499412940672
852.0,0.18842499412940672
851.0,0.188357978546849
850.0,0.18829097330380895
849.0,0.188357978546849
848.0,0.18869315991866387
847.0,0.18916284885951162
846.0,0.18990195931885712
845.0,0.1912490276504053
844.0,0.19395576425191186
843.0,0.1985276864785288
842.0,0.20453710560962013
841.0,0.2104897959097456
840.0,0.21431433171909875
839.0,0.21516882187553077
838.0,0.21360353862769577
837.0,0.2108425080885603
836.0,0.20795868928791772
835.0,0.2054422487452383
834.0,0.20349504844670374
833.0,0.20224787134928923
832.0,0.2014874669686484
831.0,0.20086630669793704
830.0,0.20038379551850105
829.0,0.19990181982522426
828.0,0.19969542244380145
827.0,0.19962664510865036
826.0,0.19955787866374353
825.0,0.19935164463601196
824.0,0.19914550849643908
823.0,0.1990081387398286
822.0,0.1990081387398286
821.0,0.1990081387398286
820.0,0.19893947015214453
819.0,0.19880216554085117
818.0,0.198596289982645
817.0,0.19832194096410682
816.0,0.1980477651457182
815.0,0.1981162928747604
814.0,0.19866490432545336
813.0,0.19962664510865036
812.0,0.20086630669793704
811.0,0.20204035626280392
810.0,0.20307892466983124
809.0,0.2041199826559248
808.0,0.20509389348319607
807.0,0.20565139610391725
806.0,0.20579088365350362
805.0,0.2054422487452383
804.0,0.20488501436963658
803.0,0.20418947533259169
802.0,0.2037726859705613
801.0,0.20370325994820848
800.0,0.20391157131933157
799.0,0.20425897913075608
798.0,0.20446755728984556
797.0,0.2043980201058202
796.0,0.20418947533259169
795.0,0.2040505010971967
794.0,0.2037726859705613
793.0,0.20342566678957041
792.0,0.20294030530002893
791.0,0.20259395032361804
790.0,0.20252471246266568
789.0,0.20259395032361804
788.0,0.2028710122034474
787.0,0.20300960945431368
786.0,0.20294030530002893
785.0,0.20273245916928362
784.0,0.20252471246266568
783.0,0.20231706508510094
782.0,0.20217868863597643
781.0,0.20210951694165114
780.0,0.20197120659592693
779.0,0.20183294028406085
778.0,0.20169471797802352
777.0,0.20155653964981246
776.0,0.2016256233184388
775.0,0.20197120659592693
774.0,0.20224787134928923
773.0,0.20224787134928923
772.0,0.20190206793751408
771.0,0.20141840527145227
770.0,0.2010042655561186
769.0,0.200797343699475
768.0,0.200797343699475
767.0,0.2009352806489919
766.0,0.20114226825251436
765.0,0.20141840527145227
764.0,0.20183294028406085
763.0,0.20217868863597643
762.0,0.20252471246266568
761.0,0.20259395032361804
760.0,0.20224787134928923
759.0,0.20176382363206424
758.0,0.2016256233184388
757.0,0.20197120659592693
756.0,0.20252471246266568
755.0,0.2028710122034474
754.0,0.20300960945431368
753.0,0.20300960945431368
752.0,0.20300960945431368
751.0,0.20294030530002893
750.0,0.20266319922465015
749.0,0.20224787134928923
748.0,0.20197120659592693
747.0,0.20210951694165114
746.0,0.20252471246266568
745.0,0.20294030530002893
744.0,0.20294030530002893
743.0,0.20266319922465015
742.0,0.20259395032361804
741.0,0.2028710122034474
740.0,0.20342566678957041
739.0,0.20384212309308558
738.0,0.2040505010971967
737.0,0.20418947533259169
736.0,0.2041199826559248
735.0,0.2037726859705613
734.0,0.20300960945431368
733.0,0.20217868863597643
732.0,0.20155653964981246
731.0,0.20134935455473113
730.0,0.20155653964981246
729.0,0.20204035626280392
728.0,0.20259395032361804
727.0,0.20300960945431368
726.0,0.2033562962148836
725.0,0.20370325994820848
724.0,0.20384212309308558
723.0,0.2036338450224786
722.0,0.20300960945431368
721.0,0.20224787134928923
720.0,0.20169471797802352
719.0,0.2014874669686484
718.0,0.20176382363206424
717.0,0.20259395032361804
716.0,0.20342566678957041
715.0,0.2037726859705613
714.0,0.20342566678957041
713.0,0.20259395032361804
712.0,0.20176382363206424
711.0,0.20141840527145227
710.0,0.2016256233184388
709.0,0.20238626984692432
708.0,0.20356444118982564
707.0,0.2046066650687106
706.0,0.2049546295788751
705.0,0.20467623567068616
704.0,0.20432849405397824
703.0,0.20432849405397824
702.0,0.20446755728984556
701.0,0.2043980201058202
700.0,0.20418947533259169
699.0,0.20398103065285067
698.0,0.2040505010971967
697.0,0.2041199826559248
696.0,0.2040505010971967
695.0,0.20349504844670374
694.0,0.20245548563827365
693.0,0.20107326142279858
692.0,0.19990181982522426
691.0,0.19962664510865036
690.0,0.20059052038487324
689.0,0.20210951694165114
688.0,0.20307892466983124
687.0,0.20266319922465015
686.0,0.20107326142279858
685.0,0.19928292171761486
684.0,0.19832194096410682
683.0,0.19825338078053978
682.0,0.198596289982645
681.0,0.19866490432545336
680.0,0.19825338078053978
679.0,0.1977052886025361
678.0,0.19749993223560658
677.0,0.1981162928747604
676.0,0.19955787866374353
675.0,0.20114226825251436
674.0,0.20245548563827365
673.0,0.2032175882986922
672.0,0.20349504844670374
671.0,0.20398103065285067
670.0,0.2054422487452383
669.0,0.20788859091283163
668.0,0.21204387671606817
667.0,0.21616785661555893
666.0,0.21559669824699146
665.0,0.2107013888405589
664.0,0.20593041601836748
663.0,0.20328693671910347
662.0,0.20224787134928923
661.0,0.20183294028406085
660.0,0.2016256233184388
659.0,0.20121128604875071
658.0,0.20010831534313467
657.0,0.19866490432545336
656.0,0.1977052886025361
655.0,0.19777376230892996
654.0,0.19832194096410682
653.0,0.19832194096410682
652.0,0.19729467292564795
651.0,0.19592875111433883
650.0,0.19490712165732704
649.0,0.1946350925335547
648.0,0.19477108579657387
647.0,0.19456711186786002
646.0,0.19382002601611292
645.0,0.1930742231162681
644.0,0.19334527600813955
643.0,0.19477108579657387
642.0,0.196747788569543
641.0,0.19845909380968174
640.0,0.19976421067264605
639.0,0.20134935455473113
638.0,0.2037726859705613
637.0,0.2074682380986923
636.0,0.2122562283535332
635.0,0.21688286250953293
634.0,0.21917882414652712
633.0,0.21767073100316314
632.0,0.2135325232597176
631.0,0.2090818047854217
630.0,0.20586064423222616
629.0,0.20391157131933157
628.0,0.20314825095011302
627.0,0.20356444118982564
626.0,0.20467623567068616
625.0,0.20586064423222616
624.0,0.20620961530918125
623.0,0.20593041601836748
622.0,0.20565139610391725
621.0,0.20613979865733034
620.0,0.2076083105017461
619.0,0.20943337485392344
618.0,0.2101373699536182
617.0,0.20859008433283988
616.0,0.20502425594886842
615.0,0.20114226825251436
614.0,0.19893947015214453
613.0,0.1990081387398286
612.0,0.20065945054641832
611.0,0.20245548563827365
610.0,0.20342566678957041
609.0,0.2041199826559248
608.0,0.20523320205917894
607.0,0.20669864638688495
606.0,0.20774842809673588
605.0,0.2076083105017461
604.0,0.2069083998234198
603.0,0.20683847075444928
602.0,0.20795868928791772
601.0,0.2092223986623063
600.0,0.2093630380682967
