cm-1,A
4000.0,0.09274991711867164
3999.0,0.09296504751658308
3998.0,0.09318028453345462
3997.0,0.09323411045927221
3996.0,0.09318028453345462
3995.0,0.09312646527792956
3994.0,0.09312646527792956
3993.0,0.09318028453345462
3992.0,0.09334178232840018
3991.0,0.09339562827501968
3990.0,0.09339562827501968
3989.0,0.09334178232840018
3988.0,0.09339562827501968
3987.0,0.0935033402006471
3986.0,0.09361107884716913
3985.0,0.09361107884716913
3984.0,0.0935033402006471
3983.0,0.09328794305703592
3982.0,0.09318028453345462
3981.0,0.09307265269104414
3980.0,0.09312646527792956
3979.0,0.09328794305703592
3978.0,0.0935572061829677
3977.0,0.09371884422784693
3976.0,0.09382663635595145
3975.0,0.09382663635595145
3974.0,0.09382663635595145
3973.0,0.09382663635595145
3972.0,0.09382663635595145
3971.0,0.09388054245443844
3970.0,0.0937727369476411
3969.0,0.0935572061829677
3968.0,0.09334178232840018
3967.0,0.09328794305703592
3966.0,0.09339562827501968
3965.0,0.09366495819490939
3964.0,0.09404230090757282
3963.0,0.09436599867304518
3962.0,0.09458193129745807
3961.0,0.09463593123310776
3960.0,0.09458193129745807
3959.0,0.09452793807529569
3958.0,0.09452793807529569
3957.0,0.09452793807529569
3956.0,0.09458193129745807
3955.0,0.09458193129745807
3954.0,0.09463593123310776
3953.0,0.09468993788391455
3952.0,0.09485199814398393
3951.0,0.09512223303659528
3950.0,0.09544673702322726
3949.0,0.09571734235437201
3948.0,0.09571734235437201
3947.0,0.09550084460218011
3946.0,0.09517630019905599
3945.0,0.09496007192378841
3944.0,0.09496007192378841
3943.0,0.09490603167212863
3942.0,0.09474395125154866
3941.0,0.09468993788391455
3940.0,0.09479797133768142
3939.0,0.0950141189006366
3938.0,0.09512223303659528
3937.0,0.09496007192378841
3936.0,0.09474395125154866
3935.0,0.09468993788391455
3934.0,0.09479797133768142
3933.0,0.09479797133768142
3932.0,0.09468993788391455
3931.0,0.09468993788391455
3930.0,0.09496007192378841
3929.0,0.09539263618455207
3928.0,0.09571734235437201
3927.0,0.09593394808549704
3926.0,0.096150661903319
3925.0,0.09604229147682952
3924.0,0.09582563171583658
3923.0,0.09571734235437201
3922.0,0.09593394808549704
3921.0,0.09620485725896466
3920.0,0.09636748391576244
3919.0,0.09636748391576244
3918.0,0.09642170633694569
3917.0,0.09642170633694569
3916.0,0.09625905937846135
3915.0,0.09604229147682952
3914.0,0.09598811640261173
3913.0,0.096150661903319
3912.0,0.09620485725896466
3911.0,0.09598811640261173
3910.0,0.09560907998763835
3909.0,0.09528445472131919
3908.0,0.09517630019905599
3907.0,0.09544673702322726
3906.0,0.09604229147682952
3905.0,0.09669292003582619
3904.0,0.09712721455392082
3903.0,0.09739886933346864
3902.0,0.09777947172068524
3901.0,0.09821485469640057
3900.0,0.09843270997155007
3899.0,0.09816040794877057
3898.0,0.09750757884139638
3897.0,0.09685572959046151
3896.0,0.09636748391576244
3895.0,0.09604229147682952
3894.0,0.09593394808549704
3893.0,0.096150661903319
3892.0,0.09658441423091357
3891.0,0.09685572959046151
3890.0,0.09663866374468144
3889.0,0.09620485725896466
3888.0,0.09631326826349751
3887.0,0.09680145295702158
3886.0,0.09680145295702158
3885.0,0.09598811640261173
3884.0,0.09566320779750503
3883.0,0.0964759355287379
3882.0,0.0978882765519955
3881.0,0.09865067458435761
3880.0,0.09832376867362447
3879.0,0.09745322068600859
3878.0,0.09680145295702158
3877.0,0.09663866374468144
3876.0,0.09696430321150284
3875.0,0.09707290398273716
3874.0,0.09674718310604158
3873.0,0.0964759355287379
3872.0,0.09707290398273716
3871.0,0.09810596802617932
3870.0,0.09821485469640057
3869.0,0.0972358560759139
3868.0,0.09658441423091357
3867.0,0.09718153191774648
3866.0,0.09821485469640057
3865.0,0.09837823590664274
3864.0,0.09767069414168117
3863.0,0.09739886933346864
3862.0,0.0978882765519955
3861.0,0.09816040794877057
3860.0,0.09777947172068524
3859.0,0.09712721455392082
3858.0,0.09674718310604158
3857.0,0.09685572959046151
3856.0,0.09745322068600859
3855.0,0.09799710864927058
3854.0,0.09734452478207412
3853.0,0.09598811640261173
3852.0,0.096150661903319
3851.0,0.09739886933346864
3850.0,0.09832376867362447
3849.0,0.09854167860388774
3848.0,0.09821485469640057
3847.0,0.09783387072894878
3846.0,0.09772507952549825
3845.0,0.09783387072894878
3844.0,0.0978882765519955
3843.0,0.09761631556752848
3842.0,0.09739886933346864
3841.0,0.09750757884139638
3840.0,0.09816040794877057
3839.0,0.09875969792669093
3838.0,0.09903237608087578
3837.0,0.09892328427374508
3836.0,0.09854167860388774
3835.0,0.09816040794877057
3834.0,0.09799710864927058
3833.0,0.09816040794877057
3832.0,0.09826930827078129
3831.0,0.09805153492691598
3830.0,0.09777947172068524
3829.0,0.09767069414168117
3828.0,0.09783387072894878
3827.0,0.09794268919153337
3826.0,0.0975619438013351
3825.0,0.09707290398273716
3824.0,0.0972358560759139
3823.0,0.09821485469640057
3822.0,0.0990869322623309
3821.0,0.09875969792669093
3820.0,0.09794268919153337
3819.0,0.09767069414168117
3818.0,0.09816040794877057
3817.0,0.09892328427374508
3816.0,0.09865067458435761
3815.0,0.09767069414168117
3814.0,0.09718153191774648
3813.0,0.0975619438013351
3812.0,0.0978882765519955
3811.0,0.09750757884139638
3810.0,0.09685572959046151
3809.0,0.09674718310604158
3808.0,0.09729018703012282
3807.0,0.09745322068600859
3806.0,0.09701860020249709
3805.0,0.09674718310604158
3804.0,0.09734452478207412
3803.0,0.09854167860388774
3802.0,0.09903237608087578
3801.0,0.09821485469640057
3800.0,0.0975619438013351
3799.0,0.0978882765519955
3798.0,0.09886874864462802
3797.0,0.09968750301627338
3796.0,0.09974214156222239
3795.0,0.09935981601739963
3794.0,0.0990869322623309
3793.0,0.09881421986284966
3792.0,0.09843270997155007
3791.0,0.09794268919153337
3790.0,0.09772507952549825
3789.0,0.0978882765519955
3788.0,0.09821485469640057
3787.0,0.09848719087006019
3786.0,0.09865067458435761
3785.0,0.09870518283443275
3784.0,0.09865067458435761
3783.0,0.09859617317474823
3782.0,0.09875969792669093
3781.0,0.09914149529800831
3780.0,0.09935981601739963
3779.0,0.09919606518963042
3778.0,0.0990869322623309
3777.0,0.09914149529800831
3776.0,0.09925064193892053
3775.0,0.09903237608087578
3774.0,0.09837823590664274
3773.0,0.09777947172068524
3772.0,0.09767069414168117
3771.0,0.09783387072894878
3770.0,0.0978882765519955
3769.0,0.09794268919153337
3768.0,0.09848719087006019
3767.0,0.09935981601739963
3766.0,0.09996076451267522
3765.0,0.09996076451267522
3764.0,0.09946901754724413
3763.0,0.09930522554760213
3762.0,0.09963287134352972
3761.0,0.09990609845660159
3760.0,0.09968750301627338
3759.0,0.09935981601739963
3758.0,0.09957824654226233
3757.0,0.09990609845660159
3756.0,0.09985143928065598
3755.0,0.09952362861074304
3754.0,0.09930522554760213
3753.0,0.09881421986284966
3752.0,0.09777947172068524
3751.0,0.09707290398273716
3750.0,0.09761631556752848
3749.0,0.09848719087006019
3748.0,0.09854167860388774
3747.0,0.09886874864462802
3746.0,0.10012480397898926
3745.0,0.10094593200182911
3744.0,0.09985143928065598
3743.0,0.09859617317474823
3742.0,0.09875969792669093
3741.0,0.09952362861074304
3740.0,0.09990609845660159
3739.0,0.09952362861074304
3738.0,0.09925064193892053
3737.0,0.09930522554760213
3736.0,0.09935981601739963
3735.0,0.09957824654226233
3734.0,0.1005078038618683
3733.0,0.10171372141087698
3732.0,0.10171372141087698
3731.0,0.10039834085387778
3730.0,0.09881421986284966
3729.0,0.09805153492691598
3728.0,0.09816040794877057
3727.0,0.09843270997155007
3726.0,0.09848719087006019
3725.0,0.09886874864462802
3724.0,0.09985143928065598
3723.0,0.10078158214862709
3722.0,0.10116516193172598
3721.0,0.10105553313349058
3720.0,0.10078158214862709
3719.0,0.1005625457138224
3718.0,0.10023419805561384
3717.0,0.09974214156222239
3716.0,0.09930522554760213
3715.0,0.09914149529800831
3714.0,0.09919606518963042
3713.0,0.0989778267519208
3712.0,0.09854167860388774
3711.0,0.09865067458435761
3710.0,0.09952362861074304
3709.0,0.10023419805561384
3708.0,0.10007011727213588
3707.0,0.09930522554760213
3706.0,0.09865067458435761
3705.0,0.09843270997155007
3704.0,0.09875969792669093
3703.0,0.09930522554760213
3702.0,0.09968750301627338
3701.0,0.09968750301627338
3700.0,0.09935981601739963
3699.0,0.0989778267519208
3698.0,0.09870518283443275
3697.0,0.09843270997155007
3696.0,0.09794268919153337
3695.0,0.09761631556752848
3694.0,0.09767069414168117
3693.0,0.09783387072894878
3692.0,0.09783387072894878
3691.0,0.09783387072894878
3690.0,0.09821485469640057
3689.0,0.0989778267519208
3688.0,0.09963287134352972
3687.0,0.09963287134352972
3686.0,0.09946901754724413
3685.0,0.09946901754724413
3684.0,0.09935981601739963
3683.0,0.09892328427374508
3682.0,0.09832376867362447
3681.0,0.09805153492691598
3680.0,0.09794268919153337
3679.0,0.0978882765519955
3678.0,0.09832376867362447
3677.0,0.09946901754724413
3676.0,0.10028890542885538
3675.0,0.10034361969436434
3674.0,0.10028890542885538
3673.0,0.10034361969436434
3672.0,0.10072681268239614
3671.0,0.10094593200182911
3670.0,0.10028890542885538
3669.0,0.09974214156222239
3668.0,0.10017949757290379
3667.0,0.10072681268239614
3666.0,0.10072681268239614
3665.0,0.10028890542885538
3664.0,0.09979678698310646
3663.0,0.09952362861074304
3662.0,0.09946901754724413
3661.0,0.09963287134352972
3660.0,0.09979678698310646
3659.0,0.10017949757290379
3658.0,0.10078158214862709
3657.0,0.1012199867101744
3656.0,0.10111034407341357
3655.0,0.10072681268239614
3654.0,0.10061729446673495
3653.0,0.10116516193172598
3652.0,0.10209812573177213
3651.0,0.10242788617426934
3650.0,0.1022080180607754
3649.0,0.10281292341984649
3648.0,0.10468797552421272
3647.0,0.10596099919539115
3646.0,0.10562854614376227
3645.0,0.10457745396059215
3644.0,0.10369429253391926
3643.0,0.10308815917397474
3642.0,0.10264786565568684
3641.0,0.10231793820358015
3640.0,0.10231793820358015
3639.0,0.10242788617426934
3638.0,0.10242788617426934
3637.0,0.10237290870955862
3636.0,0.10248287059947447
3635.0,0.10270287794050348
3634.0,0.10259286033841963
3633.0,0.10226297465457268
3632.0,0.10226297465457268
3631.0,0.10308815917397474
3630.0,0.10402526764093545
3629.0,0.10419084983086901
3628.0,0.10430127304069425
3627.0,0.10501970907203151
3626.0,0.10535169620648288
3625.0,0.10518567091669917
3624.0,0.10468797552421272
3623.0,0.10419084983086901
3622.0,0.10424605792627206
3621.0,0.1047432468551055
3620.0,0.10507502264045665
3619.0,0.10507502264045665
3618.0,0.10513034325474746
3617.0,0.10551778498990938
3616.0,0.1061827760325369
3615.0,0.10695988804288215
3614.0,0.10740457717110186
3613.0,0.10734896612269962
3612.0,0.10695988804288215
3611.0,0.10657115822045493
3610.0,0.1063491830140364
3609.0,0.10601643278815298
3608.0,0.10562854614376227
3607.0,0.10562854614376227
3606.0,0.1060718734573931
3605.0,0.10651565378151395
3604.0,0.10662666975397506
3603.0,0.10623823794205656
3602.0,0.10573933555301185
3601.0,0.10540705207704448
3600.0,0.10535169620648288
3599.0,0.10557316203581202
3598.0,0.10601643278815298
3597.0,0.10640466618011679
3596.0,0.10662666975397506
3595.0,0.10684878687013422
3594.0,0.10701544928928342
3593.0,0.1071265931112344
3592.0,0.10707101764479421
3591.0,0.10695988804288215
3590.0,0.10684878687013422
3589.0,0.10684878687013422
3588.0,0.10695988804288215
3587.0,0.1075158206353124
3586.0,0.10857405715200596
3585.0,0.10929960230112479
3584.0,0.10924374808178183
3583.0,0.10862982530385179
3582.0,0.10796107965870849
3581.0,0.10746019534136453
3580.0,0.10723776538418317
3579.0,0.10723776538418317
3578.0,0.10723776538418317
3577.0,0.10723776538418317
3576.0,0.10729336219433439
3575.0,0.10734896612269962
3574.0,0.10746019534136453
3573.0,0.10746019534136453
3572.0,0.10757145305477
3571.0,0.10779405402422748
3570.0,0.10835105612944096
3569.0,0.10913206118855912
3568.0,0.10991447328367476
3567.0,0.11058623595729111
3566.0,0.11131515334030118
3565.0,0.11187669270209155
3564.0,0.11187669270209155
3563.0,0.11142740314240007
3562.0,0.11097857790477517
3561.0,0.11069829749368965
3560.0,0.11047420332880886
3559.0,0.11036219959333216
3558.0,0.11036219959333216
3557.0,0.11047420332880886
3556.0,0.11058623595729111
3555.0,0.11075433910702048
3554.0,0.11092250734993603
3553.0,0.11114683301706374
3552.0,0.11131515334030118
3551.0,0.11131515334030118
3550.0,0.11120293254331926
3549.0,0.11109074073646874
3548.0,0.11109074073646874
3547.0,0.11125903931710734
3546.0,0.11176432672943282
3545.0,0.11238269966426384
3544.0,0.11288929687511629
3543.0,0.1130019543289007
3542.0,0.11272036546997688
3541.0,0.11221396516162851
3540.0,0.11176432672943282
3539.0,0.11153968196461372
3538.0,0.11165198982195101
3537.0,0.1120452961911984
3536.0,0.11238269966426384
3535.0,0.1125514997500463
3534.0,0.11238269966426384
3533.0,0.1120452961911984
3532.0,0.11182050608167504
3531.0,0.11176432672943282
3530.0,0.11193288659256306
3529.0,0.11210151190312767
3528.0,0.11215773489264302
3527.0,0.11215773489264302
3526.0,0.11221396516162851
3525.0,0.11243895906999102
3524.0,0.1128329791052256
3523.0,0.11328372588352176
3522.0,0.11350927482751816
3521.0,0.1136220932414278
3520.0,0.11350927482751816
3519.0,0.11317099532301778
3518.0,0.11272036546997688
3517.0,0.11227020271196975
3516.0,0.11210151190312767
3515.0,0.11221396516162851
3514.0,0.11243895906999102
3513.0,0.11260778102815316
3512.0,0.11277666863747693
3511.0,0.112945621949043
3510.0,0.11305829401658474
3509.0,0.11311464101399138
3508.0,0.11317099532301778
3507.0,0.11328372588352176
3506.0,0.11345287660889425
3505.0,0.1136220932414278
3504.0,0.11379137583250243
3503.0,0.11390426756225258
3502.0,0.11390426756225258
3501.0,0.1137349409702435
3500.0,0.11345287660889425
3499.0,0.11328372588352176
3498.0,0.1133401021387972
3497.0,0.11356568037106163
3496.0,0.1137349409702435
3495.0,0.11367851344052027
3494.0,0.11345287660889425
3493.0,0.11328372588352176
3492.0,0.11322735694556196
3491.0,0.11317099532301778
3490.0,0.11322735694556196
3489.0,0.1133401021387972
3488.0,0.11367851344052027
3487.0,0.1141301390960936
3486.0,0.11458223488906394
3485.0,0.11492161585077598
3484.0,0.11503480179926728
3483.0,0.1149782051377024
3482.0,0.114865033936566
3481.0,0.1148084593931522
3480.0,0.1148084593931522
3479.0,0.114865033936566
3478.0,0.11492161585077598
3477.0,0.11492161585077598
3476.0,0.11492161585077598
3475.0,0.1149782051377024
3474.0,0.11509140583739286
3473.0,0.11531789579397489
3472.0,0.11554450392951199
3471.0,0.11565785235294102
3470.0,0.11565785235294102
3469.0,0.1157145376603248
3468.0,0.11582793047608719
3467.0,0.11599807523121286
3466.0,0.11611154211151953
3465.0,0.11616828667054757
3464.0,0.11622503864474187
3463.0,0.11628179803604044
3462.0,0.1163953390777075
3461.0,0.11667932161702477
3460.0,0.1170772093974013
3459.0,0.1174754620451195
3458.0,0.11770319906234805
3457.0,0.11770319906234805
3456.0,0.11770319906234805
3455.0,0.11776015198117662
3454.0,0.11804502866039956
3453.0,0.11844417020668851
3452.0,0.11890078161098283
3451.0,0.11924355548978971
3450.0,0.11935787359571504
3449.0,0.11935787359571504
3448.0,0.11941504393502012
3447.0,0.11958660012208333
3446.0,0.11987267778337518
3445.0,0.1202162199095842
3444.0,0.12056003400478299
3443.0,0.1207893947082408
3442.0,0.12096149476276286
3441.0,0.12107626603243293
3440.0,0.12107626603243293
3439.0,0.12107626603243293
3438.0,0.12107626603243293
3437.0,0.12096149476276286
3436.0,0.12090412049992727
3435.0,0.12090412049992727
3434.0,0.12107626603243293
3433.0,0.12147820449879343
3432.0,0.12188051530283239
3431.0,0.12228319913502328
3430.0,0.12262865413022594
3429.0,0.12291674334934943
3428.0,0.12314735239865637
3427.0,0.1233203895807995
3426.0,0.12349349573411894
3425.0,0.12355121312165873
3424.0,0.12360893818081231
3423.0,0.12355121312165873
3422.0,0.12337808396572703
3421.0,0.12320502379929943
3420.0,0.12308968865537295
3419.0,0.12308968865537295
3418.0,0.12320502379929943
3417.0,0.1233203895807995
3416.0,0.12326270285933538
3415.0,0.12308968865537295
3414.0,0.12280148472821018
3413.0,0.12245589228405596
3412.0,0.12205304837081177
3411.0,0.12170805075020397
3410.0,0.12153565465853111
3409.0,0.12153565465853111
3408.0,0.12165057778222454
3407.0,0.12176553132495593
3406.0,0.12176553132495593
3405.0,0.12165057778222454
3404.0,0.12142076193778073
3403.0,0.12113366304327466
3402.0,0.12101887660626365
3401.0,0.12101887660626365
3400.0,0.12113366304327466
3399.0,0.12124847982699793
3398.0,0.1213058996038916
3397.0,0.1213058996038916
3396.0,0.12113366304327466
3395.0,0.12090412049992727
3394.0,0.1207320431753871
3393.0,0.12067469921519258
3392.0,0.12067469921519258
3391.0,0.1207893947082408
3390.0,0.12084675381575383
3389.0,0.12084675381575383
3388.0,0.1207893947082408
3387.0,0.1207893947082408
3386.0,0.12096149476276286
3385.0,0.12119106764079435
3384.0,0.12147820449879343
3383.0,0.12170805075020397
3382.0,0.12176553132495593
3381.0,0.12170805075020397
3380.0,0.12159311241900439
3379.0,0.12142076193778073
3378.0,0.12136332697348307
3377.0,0.12136332697348307
3376.0,0.1213058996038916
3375.0,0.12113366304327466
3374.0,0.12101887660626365
3373.0,0.12090412049992727
3372.0,0.12090412049992727
3371.0,0.12096149476276286
3370.0,0.12107626603243293
3369.0,0.12119106764079435
3368.0,0.1213058996038916
3367.0,0.12136332697348307
3366.0,0.1213058996038916
3365.0,0.12124847982699793
3364.0,0.12119106764079435
3363.0,0.12113366304327466
3362.0,0.12107626603243293
3361.0,0.12101887660626365
3360.0,0.12107626603243293
3359.0,0.12107626603243293
3358.0,0.12107626603243293
3357.0,0.12113366304327466
3356.0,0.12113366304327466
3355.0,0.12124847982699793
3354.0,0.1213058996038916
3353.0,0.12142076193778073
3352.0,0.12153565465853111
3351.0,0.12165057778222454
3350.0,0.12182301950849372
3349.0,0.12193801870998744
3348.0,0.12205304837081177
3347.0,0.12211057462851604
3346.0,0.12211057462851604
3345.0,0.12205304837081177
3344.0,0.12193801870998744
3343.0,0.12193801870998744
3342.0,0.12205304837081177
3341.0,0.12234075588839133
3340.0,0.12257105921178035
3339.0,0.12280148472821018
3338.0,0.12297438413275108
3337.0,0.12308968865537295
3336.0,0.12308968865537295
3335.0,0.12308968865537295
3334.0,0.12297438413275108
3333.0,0.12280148472821018
3332.0,0.12257105921178035
3331.0,0.12251347193039863
3330.0,0.12251347193039863
3329.0,0.12257105921178035
3328.0,0.12257105921178035
3327.0,0.12257105921178035
3326.0,0.12251347193039863
3325.0,0.12251347193039863
3324.0,0.12245589228405596
3323.0,0.12239832027072817
3322.0,0.12239832027072817
3321.0,0.12245589228405596
3320.0,0.12239832027072817
3319.0,0.12222565000860186
3318.0,0.1219955297319748
3317.0,0.12176553132495593
3316.0,0.12170805075020397
3315.0,0.12182301950849372
3314.0,0.1219955297319748
3313.0,0.12222565000860186
3312.0,0.12234075588839133
3311.0,0.12239832027072817
3310.0,0.12239832027072817
3309.0,0.12239832027072817
3308.0,0.12251347193039863
3307.0,0.12280148472821018
3306.0,0.12303203256741524
3305.0,0.12308968865537295
3304.0,0.12303203256741524
3303.0,0.12291674334934943
3302.0,0.12280148472821018
3301.0,0.12268625668776156
3300.0,0.12257105921178035
3299.0,0.12245589228405596
3298.0,0.12257105921178035
3297.0,0.12280148472821018
3296.0,0.12308968865537295
3295.0,0.12320502379929943
3294.0,0.12303203256741524
3293.0,0.12274386688641381
3292.0,0.12257105921178035
3291.0,0.12268625668776156
3290.0,0.12303203256741524
3289.0,0.12337808396572703
3288.0,0.12343578601615435
3287.0,0.1233203895807995
3286.0,0.12308968865537295
3285.0,0.12291674334934943
3284.0,0.12291674334934943
3283.0,0.12303203256741524
3282.0,0.12320502379929943
3281.0,0.12326270285933538
3280.0,0.12308968865537295
3279.0,0.12280148472821018
3278.0,0.12245589228405596
3277.0,0.12222565000860186
3276.0,0.12205304837081177
3275.0,0.1219955297319748
3274.0,0.12205304837081177
3273.0,0.12228319913502328
3272.0,0.12257105921178035
3271.0,0.12280148472821018
3270.0,0.12291674334934943
3269.0,0.12291674334934943
3268.0,0.12291674334934943
3267.0,0.12285911021517903
3266.0,0.12280148472821018
3265.0,0.12274386688641381
3264.0,0.12262865413022594
3263.0,0.12262865413022594
3262.0,0.12268625668776156
3261.0,0.12274386688641381
3260.0,0.12285911021517903
3259.0,0.12285911021517903
3258.0,0.12268625668776156
3257.0,0.12245589228405596
3256.0,0.12222565000860186
3255.0,0.12205304837081177
3254.0,0.12193801870998744
3253.0,0.12188051530283239
3252.0,0.12182301950849372
3251.0,0.12170805075020397
3250.0,0.12170805075020397
3249.0,0.12176553132495593
3248.0,0.12193801870998744
3247.0,0.12211057462851604
3246.0,0.12216810850710624
3245.0,0.12211057462851604
3244.0,0.12193801870998744
3243.0,0.12182301950849372
3242.0,0.12170805075020397
3241.0,0.12159311241900439
3240.0,0.12153565465853111
3239.0,0.12153565465853111
3238.0,0.12153565465853111
3237.0,0.12153565465853111
3236.0,0.12153565465853111
3235.0,0.12147820449879343
3234.0,0.12153565465853111
3233.0,0.12165057778222454
3232.0,0.12170805075020397
3231.0,0.12165057778222454
3230.0,0.12142076193778073
3229.0,0.12124847982699793
3228.0,0.12113366304327466
3227.0,0.12124847982699793
3226.0,0.12153565465853111
3225.0,0.12188051530283239
3224.0,0.12211057462851604
3223.0,0.12228319913502328
3222.0,0.12234075588839133
3221.0,0.12228319913502328
3220.0,0.12228319913502328
3219.0,0.12234075588839133
3218.0,0.12245589228405596
3217.0,0.12251347193039863
3216.0,0.12245589228405596
3215.0,0.12234075588839133
3214.0,0.12216810850710624
3213.0,0.1219955297319748
3212.0,0.12182301950849372
3211.0,0.12170805075020397
3210.0,0.12170805075020397
3209.0,0.12170805075020397
3208.0,0.12165057778222454
3207.0,0.12153565465853111
3206.0,0.12147820449879343
3205.0,0.12153565465853111
3204.0,0.12170805075020397
3203.0,0.12176553132495593
3202.0,0.12176553132495593
3201.0,0.12159311241900439
3200.0,0.12142076193778073
3199.0,0.12124847982699793
3198.0,0.12113366304327466
3197.0,0.12101887660626365
3196.0,0.12101887660626365
3195.0,0.12096149476276286
3194.0,0.12101887660626365
3193.0,0.12107626603243293
3192.0,0.12119106764079435
3191.0,0.1213058996038916
3190.0,0.12136332697348307
3189.0,0.12136332697348307
3188.0,0.1213058996038916
3187.0,0.1213058996038916
3186.0,0.12136332697348307
3185.0,0.12142076193778073
3184.0,0.12142076193778073
3183.0,0.12136332697348307
3182.0,0.12119106764079435
3181.0,0.12101887660626365
3180.0,0.12096149476276286
3179.0,0.12101887660626365
3178.0,0.12101887660626365
3177.0,0.12101887660626365
3176.0,0.12084675381575383
3175.0,0.12067469921519258
3174.0,0.12056003400478299
3173.0,0.12044539906102569
3172.0,0.12044539906102569
3171.0,0.1203880929341492
3170.0,0.12044539906102569
3169.0,0.12050271275057156
3168.0,0.12050271275057156
3167.0,0.12050271275057156
3166.0,0.12056003400478299
3165.0,0.12067469921519258
3164.0,0.12090412049992727
3163.0,0.12101887660626365
3162.0,0.12096149476276286
3161.0,0.12084675381575383
3160.0,0.12067469921519258
3159.0,0.12050271275057156
3158.0,0.1203880929341492
3157.0,0.1202162199095842
3156.0,0.12004441487725082
3155.0,0.12004441487725082
3154.0,0.1202162199095842
3153.0,0.1203880929341492
3152.0,0.12056003400478299
3151.0,0.12050271275057156
3150.0,0.12033079436794658
3149.0,0.1201016756699902
3148.0,0.11992991593593283
3147.0,0.11981544717356662
3146.0,0.11987267778337518
3145.0,0.1199871616332282
3144.0,0.1202162199095842
3143.0,0.12033079436794658
3142.0,0.1203880929341492
3141.0,0.12033079436794658
3140.0,0.1202162199095842
3139.0,0.1201016756699902
3138.0,0.12004441487725082
3137.0,0.1201016756699902
3136.0,0.12015894401343741
3135.0,0.12015894401343741
3134.0,0.12015894401343741
3133.0,0.1201016756699902
3132.0,0.12004441487725082
3131.0,0.12004441487725082
3130.0,0.12015894401343741
3129.0,0.1203880929341492
3128.0,0.12050271275057156
3127.0,0.12050271275057156
3126.0,0.12050271275057156
3125.0,0.12061736282565727
3124.0,0.12084675381575383
3123.0,0.12101887660626365
3122.0,0.12101887660626365
3121.0,0.12084675381575383
3120.0,0.12067469921519258
3119.0,0.12050271275057156
3118.0,0.12044539906102569
3117.0,0.12050271275057156
3116.0,0.12061736282565727
3115.0,0.12067469921519258
3114.0,0.12067469921519258
3113.0,0.12056003400478299
3112.0,0.12044539906102569
3111.0,0.12033079436794658
3110.0,0.12044539906102569
3109.0,0.12061736282565727
3108.0,0.1207893947082408
3107.0,0.12090412049992727
3106.0,0.12084675381575383
3105.0,0.1207893947082408
3104.0,0.12090412049992727
3103.0,0.12113366304327466
3102.0,0.12147820449879343
3101.0,0.12176553132495593
3100.0,0.12182301950849372
3099.0,0.12170805075020397
3098.0,0.12136332697348307
3097.0,0.12096149476276286
3096.0,0.12067469921519258
3095.0,0.12056003400478299
3094.0,0.12044539906102569
3093.0,0.1203880929341492
3092.0,0.12027350336042275
3091.0,0.12033079436794658
3090.0,0.12044539906102569
3089.0,0.12067469921519258
3088.0,0.12090412049992727
3087.0,0.12113366304327466
3086.0,0.1213058996038916
3085.0,0.12136332697348307
3084.0,0.12142076193778073
3083.0,0.12153565465853111
3082.0,0.12170805075020397
3081.0,0.12188051530283239
3080.0,0.1219955297319748
3079.0,0.12211057462851604
3078.0,0.12216810850710624
3077.0,0.12211057462851604
3076.0,0.1219955297319748
3075.0,0.12182301950849372
3074.0,0.12170805075020397
3073.0,0.12165057778222454
3072.0,0.12165057778222454
3071.0,0.12165057778222454
3070.0,0.12170805075020397
3069.0,0.12188051530283239
3068.0,0.12205304837081177
3067.0,0.12222565000860186
3066.0,0.12234075588839133
3065.0,0.12234075588839133
3064.0,0.12239832027072817
3063.0,0.12239832027072817
3062.0,0.12239832027072817
3061.0,0.12234075588839133
3060.0,0.12222565000860186
3059.0,0.12211057462851604
3058.0,0.12205304837081177
3057.0,0.12222565000860186
3056.0,0.12245589228405596
3055.0,0.12268625668776156
3054.0,0.12280148472821018
3053.0,0.12268625668776156
3052.0,0.12251347193039863
3051.0,0.12234075588839133
3050.0,0.12211057462851604
3049.0,0.12182301950849372
3048.0,0.12159311241900439
3047.0,0.12136332697348307
3046.0,0.1213058996038916
3045.0,0.12124847982699793
3044.0,0.12107626603243293
3043.0,0.1207320431753871
3042.0,0.12033079436794658
3041.0,0.11987267778337518
3040.0,0.11941504393502012
3039.0,0.11907213473291511
3038.0,0.11872949607064243
3037.0,0.11855827805860697
3036.0,0.11850122038501709
3035.0,0.1183871275216517
3034.0,0.11833009232793867
3033.0,0.11815903167507247
3032.0,0.11810202642698875
3031.0,0.11810202642698875
3030.0,0.11815903167507247
3029.0,0.11810202642698875
3028.0,0.11787408022996826
3027.0,0.11758931562603192
3026.0,0.11730473761840288
3025.0,0.1170772093974013
3024.0,0.11690664142431006
3023.0,0.11667932161702477
3022.0,0.11645212073195621
3021.0,0.11628179803604044
3020.0,0.11616828667054757
3019.0,0.11616828667054757
3018.0,0.11616828667054757
3017.0,0.11616828667054757
3016.0,0.11628179803604044
3015.0,0.1163953390777075
3014.0,0.11645212073195621
3013.0,0.11645212073195621
3012.0,0.11645212073195621
3011.0,0.1163953390777075
3010.0,0.11628179803604044
3009.0,0.11616828667054757
3008.0,0.11605480496572018
3007.0,0.11594135290606156
3006.0,0.11588463798833115
3005.0,0.11582793047608719
3004.0,0.11582793047608719
3003.0,0.11577123036739612
3002.0,0.11577123036739612
3001.0,0.11588463798833115
3000.0,0.11605480496572018
2999.0,0.11622503864474187
2998.0,0.11628179803604044
2997.0,0.11622503864474187
2996.0,0.11622503864474187
2995.0,0.1163953390777075
2994.0,0.1165089098110701
2993.0,0.1165657063169907
2992.0,0.11628179803604044
2991.0,0.11582793047608719
2990.0,0.11537453674376552
2989.0,0.11514801725400226
2988.0,0.11526126223036814
2987.0,0.11560117444331386
2986.0,0.11616828667054757
2985.0,0.11679296664760996
2984.0,0.1174754620451195
2983.0,0.11815903167507247
2982.0,0.11884367892443626
2981.0,0.11947222180119477
2980.0,0.12004441487725082
2979.0,0.12067469921519258
2978.0,0.12124847982699793
2977.0,0.12176553132495593
2976.0,0.12222565000860186
2975.0,0.12274386688641381
2974.0,0.12337808396572703
2973.0,0.12401322857151209
2972.0,0.12464930342071079
2971.0,0.12522836281570182
2970.0,0.12575017722159698
2969.0,0.12627261935332057
2968.0,0.12685384867174432
2967.0,0.12749410065407507
2966.0,0.1280769681176266
2965.0,0.1286022185125162
2964.0,0.12901118623942476
2963.0,0.12936203678919433
2962.0,0.12971317100740865
2961.0,0.13006458935314003
2960.0,0.13041629228657614
2959.0,0.13070959579060148
2958.0,0.1308856730206247
2957.0,0.1308269726783169
2956.0,0.1305922506177981
2955.0,0.13024040521758962
2954.0,0.12988884463559924
2953.0,0.1295960947209729
2952.0,0.12936203678919433
2951.0,0.1290696416513042
2950.0,0.1287190271420271
2949.0,0.12842706445412122
2948.0,0.12819363554127072
2947.0,0.1280186461566306
2946.0,0.1277271537757949
2945.0,0.12726117252733116
2944.0,0.12667939818460128
2943.0,0.12604034525664676
2942.0,0.12540223129680017
2941.0,0.1248808345374317
2940.0,0.12441789567211425
2939.0,0.12407101507707297
2938.0,0.12372441132212098
2937.0,0.12343578601615435
2936.0,0.12308968865537295
2935.0,0.12274386688641381
2934.0,0.12234075588839133
2933.0,0.1219955297319748
2932.0,0.12170805075020397
2931.0,0.12147820449879343
2930.0,0.1213058996038916
2929.0,0.12107626603243293
2928.0,0.1207893947082408
2927.0,0.12044539906102569
2926.0,0.1202162199095842
2925.0,0.1202162199095842
2924.0,0.1202162199095842
2923.0,0.1202162199095842
2922.0,0.12015894401343741
2921.0,0.12015894401343741
2920.0,0.1201016756699902
2919.0,0.12004441487725082
2918.0,0.1199871616332282
2917.0,0.11992991593593283
2916.0,0.11987267778337518
2915.0,0.11992991593593283
2914.0,0.1199871616332282
2913.0,0.12027350336042275
2912.0,0.12061736282565727
2911.0,0.12113366304327466
2910.0,0.12170805075020397
2909.0,0.12216810850710624
2908.0,0.12251347193039863
2907.0,0.12274386688641381
2906.0,0.12285911021517903
2905.0,0.12285911021517903
2904.0,0.12274386688641381
2903.0,0.12239832027072817
2902.0,0.1219955297319748
2901.0,0.12165057778222454
2900.0,0.12147820449879343
2899.0,0.12147820449879343
2898.0,0.12147820449879343
2897.0,0.12142076193778073
2896.0,0.1213058996038916
2895.0,0.12124847982699793
2894.0,0.1213058996038916
2893.0,0.12142076193778073
2892.0,0.12153565465853111
2891.0,0.12165057778222454
2890.0,0.12182301950849372
2889.0,0.12188051530283239
2888.0,0.12193801870998744
2887.0,0.12188051530283239
2886.0,0.12182301950849372
2885.0,0.12170805075020397
2884.0,0.12170805075020397
2883.0,0.12170805075020397
2882.0,0.12182301950849372
2881.0,0.12188051530283239
2880.0,0.1219955297319748
2879.0,0.12216810850710624
2878.0,0.12239832027072817
2877.0,0.12251347193039863
2876.0,0.12245589228405596
2875.0,0.12228319913502328
2874.0,0.12216810850710624
2873.0,0.12222565000860186
2872.0,0.12228319913502328
2871.0,0.12239832027072817
2870.0,0.12251347193039863
2869.0,0.12251347193039863
2868.0,0.12239832027072817
2867.0,0.12222565000860186
2866.0,0.12216810850710624
2865.0,0.12228319913502328
2864.0,0.12257105921178035
2863.0,0.12280148472821018
2862.0,0.12303203256741524
2861.0,0.12314735239865637
2860.0,0.12320502379929943
2859.0,0.12314735239865637
2858.0,0.12320502379929943
2857.0,0.12343578601615435
2856.0,0.1236666709136196
2855.0,0.12395544975390482
2854.0,0.12407101507707297
2853.0,0.12395544975390482
2852.0,0.12378215940835768
2851.0,0.12355121312165873
2850.0,0.12343578601615435
2849.0,0.12337808396572703
2848.0,0.12337808396572703
2847.0,0.12337808396572703
2846.0,0.12326270285933538
2845.0,0.12308968865537295
2844.0,0.12297438413275108
2843.0,0.12297438413275108
2842.0,0.12314735239865637
2841.0,0.12337808396572703
2840.0,0.12355121312165873
2839.0,0.12349349573411894
2838.0,0.12343578601615435
2837.0,0.12343578601615435
2836.0,0.12355121312165873
2835.0,0.12355121312165873
2834.0,0.12343578601615435
2833.0,0.12326270285933538
2832.0,0.12314735239865637
2831.0,0.12314735239865637
2830.0,0.12326270285933538
2829.0,0.12337808396572703
2828.0,0.12343578601615435
2827.0,0.12349349573411894
2826.0,0.12349349573411894
2825.0,0.12343578601615435
2824.0,0.12326270285933538
2823.0,0.12314735239865637
2822.0,0.12303203256741524
2821.0,0.12291674334934943
2820.0,0.12291674334934943
2819.0,0.12297438413275108
2818.0,0.12297438413275108
2817.0,0.12303203256741524
2816.0,0.12303203256741524
2815.0,0.12308968865537295
2814.0,0.12308968865537295
2813.0,0.12303203256741524
2812.0,0.12297438413275108
2811.0,0.12291674334934943
2810.0,0.12297438413275108
2809.0,0.12303203256741524
2808.0,0.12308968865537295
2807.0,0.12308968865537295
2806.0,0.12314735239865637
2805.0,0.12326270285933538
2804.0,0.12326270285933538
2803.0,0.12314735239865637
2802.0,0.12297438413275108
2801.0,0.12285911021517903
2800.0,0.12285911021517903
2799.0,0.12303203256741524
2798.0,0.12320502379929943
2797.0,0.1233203895807995
2796.0,0.12326270285933538
2795.0,0.12320502379929943
2794.0,0.12314735239865637
2793.0,0.12314735239865637
2792.0,0.12320502379929943
2791.0,0.1233203895807995
2790.0,0.12343578601615435
2789.0,0.12355121312165873
2788.0,0.1236666709136196
2787.0,0.1236666709136196
2786.0,0.12355121312165873
2785.0,0.12326270285933538
2784.0,0.12291674334934943
2783.0,0.12262865413022594
2782.0,0.12262865413022594
2781.0,0.12280148472821018
2780.0,0.12297438413275108
2779.0,0.12303203256741524
2778.0,0.12297438413275108
2777.0,0.12280148472821018
2776.0,0.12274386688641381
2775.0,0.12268625668776156
2774.0,0.12257105921178035
2773.0,0.12245589228405596
2772.0,0.12234075588839133
2771.0,0.12222565000860186
2770.0,0.12222565000860186
2769.0,0.12222565000860186
2768.0,0.12222565000860186
2767.0,0.12222565000860186
2766.0,0.12222565000860186
2765.0,0.12222565000860186
2764.0,0.12234075588839133
2763.0,0.12257105921178035
2762.0,0.12280148472821018
2761.0,0.12291674334934943
2760.0,0.12274386688641381
2759.0,0.12257105921178035
2758.0,0.12239832027072817
2757.0,0.12245589228405596
2756.0,0.12257105921178035
2755.0,0.12274386688641381
2754.0,0.12280148472821018
2753.0,0.12268625668776156
2752.0,0.12257105921178035
2751.0,0.12257105921178035
2750.0,0.12268625668776156
2749.0,0.12291674334934943
2748.0,0.12308968865537295
2747.0,0.12308968865537295
2746.0,0.12303203256741524
2745.0,0.12285911021517903
2744.0,0.12262865413022594
2743.0,0.12251347193039863
2742.0,0.12251347193039863
2741.0,0.12251347193039863
2740.0,0.12245589228405596
2739.0,0.12239832027072817
2738.0,0.12251347193039863
2737.0,0.12268625668776156
2736.0,0.12280148472821018
2735.0,0.12274386688641381
2734.0,0.12262865413022594
2733.0,0.12257105921178035
2732.0,0.12257105921178035
2731.0,0.12262865413022594
2730.0,0.12262865413022594
2729.0,0.12251347193039863
2728.0,0.12245589228405596
2727.0,0.12239832027072817
2726.0,0.12239832027072817
2725.0,0.12234075588839133
2724.0,0.12234075588839133
2723.0,0.12228319913502328
2722.0,0.12234075588839133
2721.0,0.12239832027072817
2720.0,0.12239832027072817
2719.0,0.12245589228405596
2718.0,0.12251347193039863
2717.0,0.12257105921178035
2716.0,0.12262865413022594
2715.0,0.12262865413022594
2714.0,0.12262865413022594
2713.0,0.12262865413022594
2712.0,0.12262865413022594
2711.0,0.12257105921178035
2710.0,0.12257105921178035
2709.0,0.12257105921178035
2708.0,0.12257105921178035
2707.0,0.12268625668776156
2706.0,0.12280148472821018
2705.0,0.12285911021517903
2704.0,0.12280148472821018
2703.0,0.12268625668776156
2702.0,0.12257105921178035
2701.0,0.12257105921178035
2700.0,0.12257105921178035
2699.0,0.12251347193039863
2698.0,0.12251347193039863
2697.0,0.12257105921178035
2696.0,0.12262865413022594
2695.0,0.12262865413022594
2694.0,0.12257105921178035
2693.0,0.12239832027072817
2692.0,0.12228319913502328
2691.0,0.12216810850710624
2690.0,0.12211057462851604
2689.0,0.12205304837081177
2688.0,0.12211057462851604
2687.0,0.12216810850710624
2686.0,0.12222565000860186
2685.0,0.12234075588839133
2684.0,0.12239832027072817
2683.0,0.12234075588839133
2682.0,0.12228319913502328
2681.0,0.12234075588839133
2680.0,0.12251347193039863
2679.0,0.12268625668776156
2678.0,0.12268625668776156
2677.0,0.12251347193039863
2676.0,0.12234075588839133
2675.0,0.12228319913502328
2674.0,0.12239832027072817
2673.0,0.12262865413022594
2672.0,0.12280148472821018
2671.0,0.12297438413275108
2670.0,0.12303203256741524
2669.0,0.12297438413275108
2668.0,0.12285911021517903
2667.0,0.12262865413022594
2666.0,0.12234075588839133
2665.0,0.12216810850710624
2664.0,0.12211057462851604
2663.0,0.12216810850710624
2662.0,0.12222565000860186
2661.0,0.12228319913502328
2660.0,0.12228319913502328
2659.0,0.12234075588839133
2658.0,0.12234075588839133
2657.0,0.12234075588839133
2656.0,0.12222565000860186
2655.0,0.12211057462851604
2654.0,0.12205304837081177
2653.0,0.12211057462851604
2652.0,0.12216810850710624
2651.0,0.12228319913502328
2650.0,0.12234075588839133
2649.0,0.12228319913502328
2648.0,0.12222565000860186
2647.0,0.12216810850710624
2646.0,0.12211057462851604
2645.0,0.12205304837081177
2644.0,0.12205304837081177
2643.0,0.1219955297319748
2642.0,0.12188051530283239
2641.0,0.12182301950849372
2640.0,0.12193801870998744
2639.0,0.12216810850710624
2638.0,0.12245589228405596
2637.0,0.12268625668776156
2636.0,0.12274386688641381
2635.0,0.12268625668776156
2634.0,0.12262865413022594
2633.0,0.12257105921178035
2632.0,0.12251347193039863
2631.0,0.12239832027072817
2630.0,0.12228319913502328
2629.0,0.12222565000860186
2628.0,0.12228319913502328
2627.0,0.12234075588839133
2626.0,0.12239832027072817
2625.0,0.12245589228405596
2624.0,0.12251347193039863
2623.0,0.12257105921178035
2622.0,0.12268625668776156
2621.0,0.12268625668776156
2620.0,0.12257105921178035
2619.0,0.12245589228405596
2618.0,0.12239832027072817
2617.0,0.12239832027072817
2616.0,0.12245589228405596
2615.0,0.12245589228405596
2614.0,0.12251347193039863
2613.0,0.12262865413022594
2612.0,0.12268625668776156
2611.0,0.12274386688641381
2610.0,0.12280148472821018
2609.0,0.12285911021517903
2608.0,0.12285911021517903
2607.0,0.12285911021517903
2606.0,0.12285911021517903
2605.0,0.12291674334934943
2604.0,0.12314735239865637
2603.0,0.12337808396572703
2602.0,0.12349349573411894
2601.0,0.12349349573411894
2600.0,0.1233203895807995
2599.0,0.12308968865537295
2598.0,0.12297438413275108
2597.0,0.12297438413275108
2596.0,0.12303203256741524
2595.0,0.12303203256741524
2594.0,0.12297438413275108
2593.0,0.12303203256741524
2592.0,0.12320502379929943
2591.0,0.12337808396572703
2590.0,0.12349349573411894
2589.0,0.12349349573411894
2588.0,0.12337808396572703
2587.0,0.12326270285933538
2586.0,0.12314735239865637
2585.0,0.12308968865537295
2584.0,0.12314735239865637
2583.0,0.12320502379929943
2582.0,0.1233203895807995
2581.0,0.12349349573411894
2580.0,0.1236666709136196
2579.0,0.12389767862220635
2578.0,0.12412880927263426
2577.0,0.12418661116024232
2576.0,0.12407101507707297
2575.0,0.12383991517437187
2574.0,0.12372441132212098
2573.0,0.12372441132212098
2572.0,0.12372441132212098
2571.0,0.1236666709136196
2570.0,0.1236666709136196
2569.0,0.1236666709136196
2568.0,0.12372441132212098
2567.0,0.12383991517437187
2566.0,0.12395544975390482
2565.0,0.12401322857151209
2564.0,0.12407101507707297
2563.0,0.12412880927263426
2562.0,0.12418661116024232
2561.0,0.12418661116024232
2560.0,0.12418661116024232
2559.0,0.12418661116024232
2558.0,0.12424442074194553
2557.0,0.12430223801979201
2556.0,0.12436006299583169
2555.0,0.12441789567211425
2554.0,0.1244757360506914
2553.0,0.12453358413361437
2552.0,0.12464930342071079
2551.0,0.12476505354983503
2550.0,0.12482294018529605
2549.0,0.12482294018529605
2548.0,0.12476505354983503
2547.0,0.12476505354983503
2546.0,0.1248808345374317
2545.0,0.1249387366082999
2544.0,0.12482294018529605
2543.0,0.12453358413361437
2542.0,0.12430223801979201
2541.0,0.12424442074194553
2540.0,0.12436006299583169
2539.0,0.1244757360506914
2538.0,0.12453358413361437
2537.0,0.12459143992293642
2536.0,0.12464930342071079
2535.0,0.12470717462899183
2534.0,0.12482294018529605
2533.0,0.1248808345374317
2532.0,0.1248808345374317
2531.0,0.12482294018529605
2530.0,0.12482294018529605
2529.0,0.12482294018529605
2528.0,0.12482294018529605
2527.0,0.12482294018529605
2526.0,0.1248808345374317
2525.0,0.124996646399959
2524.0,0.1251124891538875
2523.0,0.12517042212027807
2522.0,0.1251124891538875
2521.0,0.125054563914468
2520.0,0.125054563914468
2519.0,0.125054563914468
2518.0,0.125054563914468
2517.0,0.125054563914468
2516.0,0.124996646399959
2515.0,0.1248808345374317
2514.0,0.12470717462899183
2513.0,0.12464930342071079
2512.0,0.12470717462899183
2511.0,0.12476505354983503
2510.0,0.12470717462899183
2509.0,0.12470717462899183
2508.0,0.12464930342071079
2507.0,0.12470717462899183
2506.0,0.12470717462899183
2505.0,0.12482294018529605
2504.0,0.1249387366082999
2503.0,0.1251124891538875
2502.0,0.1252863112422209
2501.0,0.1252863112422209
2500.0,0.12517042212027807
2499.0,0.124996646399959
2498.0,0.1248808345374317
2497.0,0.12482294018529605
2496.0,0.1248808345374317
2495.0,0.1248808345374317
2494.0,0.1248808345374317
2493.0,0.12482294018529605
2492.0,0.12476505354983503
2491.0,0.12470717462899183
2490.0,0.12464930342071079
2489.0,0.12464930342071079
2488.0,0.12459143992293642
2487.0,0.12464930342071079
2486.0,0.12476505354983503
2485.0,0.1249387366082999
2484.0,0.125054563914468
2483.0,0.1249387366082999
2482.0,0.12482294018529605
2481.0,0.12476505354983503
2480.0,0.12464930342071079
2479.0,0.12459143992293642
2478.0,0.12453358413361437
2477.0,0.12453358413361437
2476.0,0.12464930342071079
2475.0,0.12464930342071079
2474.0,0.12464930342071079
2473.0,0.12459143992293642
2472.0,0.12453358413361437
2471.0,0.12453358413361437
2470.0,0.12459143992293642
2469.0,0.12476505354983503
2468.0,0.1248808345374317
2467.0,0.1249387366082999
2466.0,0.1248808345374317
2465.0,0.12470717462899183
2464.0,0.12459143992293642
2463.0,0.12453358413361437
2462.0,0.12459143992293642
2461.0,0.12470717462899183
2460.0,0.12470717462899183
2459.0,0.12464930342071079
2458.0,0.1244757360506914
2457.0,0.12436006299583169
2456.0,0.12436006299583169
2455.0,0.1244757360506914
2454.0,0.12453358413361437
2453.0,0.12453358413361437
2452.0,0.1244757360506914
2451.0,0.12453358413361437
2450.0,0.12453358413361437
2449.0,0.12441789567211425
2448.0,0.12430223801979201
2447.0,0.12424442074194553
2446.0,0.12436006299583169
2445.0,0.1244757360506914
2444.0,0.1244757360506914
2443.0,0.12436006299583169
2442.0,0.12418661116024232
2441.0,0.12401322857151209
2440.0,0.12383991517437187
2439.0,0.12372441132212098
2438.0,0.12378215940835768
2437.0,0.12401322857151209
2436.0,0.12430223801979201
2435.0,0.12453358413361437
2434.0,0.12470717462899183
2433.0,0.12470717462899183
2432.0,0.12464930342071079
2431.0,0.12459143992293642
2430.0,0.12453358413361437
2429.0,0.12441789567211425
2428.0,0.12430223801979201
2427.0,0.12424442074194553
2426.0,0.12424442074194553
2425.0,0.12436006299583169
2424.0,0.12459143992293642
2423.0,0.12476505354983503
2422.0,0.1248808345374317
2421.0,0.1248808345374317
2420.0,0.12482294018529605
2419.0,0.12482294018529605
2418.0,0.12482294018529605
2417.0,0.12476505354983503
2416.0,0.12459143992293642
2415.0,0.12436006299583169
2414.0,0.12418661116024232
2413.0,0.12418661116024232
2412.0,0.12441789567211425
2411.0,0.12470717462899183
2410.0,0.1249387366082999
2409.0,0.125054563914468
2408.0,0.1251124891538875
2407.0,0.12517042212027807
2406.0,0.12522836281570182
2405.0,0.1252863112422209
2404.0,0.12522836281570182
2403.0,0.12517042212027807
2402.0,0.124996646399959
2401.0,0.1248808345374317
2400.0,0.1248808345374317
2399.0,0.124996646399959
2398.0,0.1251124891538875
2397.0,0.12517042212027807
2396.0,0.12517042212027807
2395.0,0.12517042212027807
2394.0,0.12517042212027807
2393.0,0.1251124891538875
2392.0,0.1251124891538875
2391.0,0.125054563914468
2390.0,0.124996646399959
2389.0,0.1248808345374317
2388.0,0.12453358413361437
2387.0,0.12401322857151209
2386.0,0.12326270285933538
2385.0,0.12228319913502328
2384.0,0.12124847982699793
2383.0,0.12015894401343741
2382.0,0.11918640771920863
2381.0,0.1183871275216517
2380.0,0.11793105556385153
2379.0,0.11776015198117662
2378.0,0.11776015198117662
2377.0,0.11776015198117662
2376.0,0.11781711236973003
2375.0,0.11793105556385153
2374.0,0.11810202642698875
2373.0,0.11815903167507247
2372.0,0.11787408022996826
2371.0,0.11730473761840288
2370.0,0.11679296664760996
2369.0,0.1165657063169907
2368.0,0.1165657063169907
2367.0,0.1165657063169907
2366.0,0.11662251025166115
2365.0,0.1169634899723202
2364.0,0.11741854644554883
2363.0,0.11736163830396129
2362.0,0.1165657063169907
2361.0,0.11588463798833115
2360.0,0.11599807523121286
2359.0,0.11628179803604044
2358.0,0.11554450392951199
2357.0,0.11407366019856902
2356.0,0.1133401021387972
2355.0,0.11396072443355765
2354.0,0.11509140583739286
2353.0,0.1157145376603248
2352.0,0.11554450392951199
2351.0,0.11520463605101905
2350.0,0.11509140583739286
2349.0,0.11537453674376552
2348.0,0.11548784080960606
2347.0,0.11492161585077598
2346.0,0.11390426756225258
2345.0,0.1133401021387972
2344.0,0.1137349409702435
2343.0,0.1145256971708426
2342.0,0.11509140583739286
2341.0,0.11537453674376552
2340.0,0.11537453674376552
2339.0,0.11514801725400226
2338.0,0.11509140583739286
2337.0,0.11520463605101905
2336.0,0.11537453674376552
2335.0,0.11520463605101905
2334.0,0.1148084593931522
2333.0,0.11469533241103202
2332.0,0.11526126223036814
2331.0,0.11616828667054757
2330.0,0.11679296664760996
2329.0,0.116736140415026
2328.0,0.11622503864474187
2327.0,0.11582793047608719
2326.0,0.11588463798833115
2325.0,0.1163953390777075
2324.0,0.11713408027837091
2323.0,0.11787408022996826
2322.0,0.1183871275216517
2321.0,0.11850122038501709
2320.0,0.11833009232793867
2319.0,0.11827306462358211
2318.0,0.11844417020668851
2317.0,0.11872949607064243
2316.0,0.11878658374498086
2315.0,0.11850122038501709
2314.0,0.11798803837334138
2313.0,0.1175323851046286
2312.0,0.11730473761840288
2311.0,0.11736163830396129
2310.0,0.11770319906234805
2309.0,0.11821604440661537
2308.0,0.11872949607064243
2307.0,0.11924355548978971
2306.0,0.11975822410451964
2305.0,0.12004441487725082
2304.0,0.1202162199095842
2303.0,0.12033079436794658
2302.0,0.12050271275057156
2301.0,0.12067469921519258
2300.0,0.1207893947082408
2299.0,0.12084675381575383
2298.0,0.12090412049992727
2297.0,0.12101887660626365
2296.0,0.12119106764079435
2295.0,0.12142076193778073
2294.0,0.12176553132495593
2293.0,0.12228319913502328
2292.0,0.12285911021517903
2291.0,0.12337808396572703
2290.0,0.12372441132212098
2289.0,0.12395544975390482
2288.0,0.12407101507707297
2287.0,0.12424442074194553
2286.0,0.1244757360506914
2285.0,0.12470717462899183
2284.0,0.1248808345374317
2283.0,0.124996646399959
2282.0,0.1251124891538875
2281.0,0.12517042212027807
2280.0,0.12517042212027807
2279.0,0.125054563914468
2278.0,0.1249387366082999
2277.0,0.12482294018529605
2276.0,0.12476505354983503
2275.0,0.12464930342071079
2274.0,0.12459143992293642
2273.0,0.12459143992293642
2272.0,0.12453358413361437
2271.0,0.12453358413361437
2270.0,0.12453358413361437
2269.0,0.12459143992293642
2268.0,0.12464930342071079
2267.0,0.12464930342071079
2266.0,0.12476505354983503
2265.0,0.1248808345374317
2264.0,0.125054563914468
2263.0,0.12517042212027807
2262.0,0.12517042212027807
2261.0,0.125054563914468
2260.0,0.1249387366082999
2259.0,0.12476505354983503
2258.0,0.12470717462899183
2257.0,0.12482294018529605
2256.0,0.1249387366082999
2255.0,0.125054563914468
2254.0,0.1251124891538875
2253.0,0.1251124891538875
2252.0,0.125054563914468
2251.0,0.125054563914468
2250.0,0.125054563914468
2249.0,0.124996646399959
2248.0,0.1249387366082999
2247.0,0.1248808345374317
2246.0,0.1248808345374317
2245.0,0.125054563914468
2244.0,0.12517042212027807
2243.0,0.1252863112422209
2242.0,0.12534426740189897
2241.0,0.12534426740189897
2240.0,0.1252863112422209
2239.0,0.12534426740189897
2238.0,0.12540223129680017
2237.0,0.12546020292898974
2236.0,0.12551818230053358
2235.0,0.12546020292898974
2234.0,0.12546020292898974
2233.0,0.12551818230053358
2232.0,0.12557616941349803
2231.0,0.12557616941349803
2230.0,0.12557616941349803
2229.0,0.12546020292898974
2228.0,0.1252863112422209
2227.0,0.12517042212027807
2226.0,0.124996646399959
2225.0,0.124996646399959
2224.0,0.124996646399959
2223.0,0.1251124891538875
2222.0,0.12522836281570182
2221.0,0.12534426740189897
2220.0,0.12534426740189897
2219.0,0.12522836281570182
2218.0,0.125054563914468
2217.0,0.12476505354983503
2216.0,0.12459143992293642
2215.0,0.12453358413361437
2214.0,0.12459143992293642
2213.0,0.12464930342071079
2212.0,0.12470717462899183
2211.0,0.12470717462899183
2210.0,0.12464930342071079
2209.0,0.12453358413361437
2208.0,0.12453358413361437
2207.0,0.12464930342071079
2206.0,0.12476505354983503
2205.0,0.1248808345374317
2204.0,0.1248808345374317
2203.0,0.12482294018529605
2202.0,0.12476505354983503
2201.0,0.12470717462899183
2200.0,0.12464930342071079
2199.0,0.12453358413361437
2198.0,0.12436006299583169
2197.0,0.12418661116024232
2196.0,0.12407101507707297
2195.0,0.12407101507707297
2194.0,0.12401322857151209
2193.0,0.12401322857151209
2192.0,0.12395544975390482
2191.0,0.12395544975390482
2190.0,0.12389767862220635
2189.0,0.12389767862220635
2188.0,0.12389767862220635
2187.0,0.12395544975390482
2186.0,0.12395544975390482
2185.0,0.12395544975390482
2184.0,0.12383991517437187
2183.0,0.12372441132212098
2182.0,0.12355121312165873
2181.0,0.12349349573411894
2180.0,0.12349349573411894
2179.0,0.12355121312165873
2178.0,0.12355121312165873
2177.0,0.12343578601615435
2176.0,0.12337808396572703
2175.0,0.12337808396572703
2174.0,0.12355121312165873
2173.0,0.12360893818081231
2172.0,0.1236666709136196
2171.0,0.12360893818081231
2170.0,0.12360893818081231
2169.0,0.1236666709136196
2168.0,0.12360893818081231
2167.0,0.12343578601615435
2166.0,0.12326270285933538
2165.0,0.12320502379929943
2164.0,0.12320502379929943
2163.0,0.1233203895807995
2162.0,0.12349349573411894
2161.0,0.12355121312165873
2160.0,0.12349349573411894
2159.0,0.12337808396572703
2158.0,0.12337808396572703
2157.0,0.12349349573411894
2156.0,0.12360893818081231
2155.0,0.12360893818081231
2154.0,0.12349349573411894
2153.0,0.12337808396572703
2152.0,0.12320502379929943
2151.0,0.12314735239865637
2150.0,0.12314735239865637
2149.0,0.12326270285933538
2148.0,0.12337808396572703
2147.0,0.12349349573411894
2146.0,0.12349349573411894
2145.0,0.12349349573411894
2144.0,0.12355121312165873
2143.0,0.12360893818081231
2142.0,0.12372441132212098
2141.0,0.12378215940835768
2140.0,0.12372441132212098
2139.0,0.1236666709136196
2138.0,0.1236666709136196
2137.0,0.1236666709136196
2136.0,0.12360893818081231
2135.0,0.12355121312165873
2134.0,0.12349349573411894
2133.0,0.12355121312165873
2132.0,0.12355121312165873
2131.0,0.12360893818081231
2130.0,0.12355121312165873
2129.0,0.12349349573411894
2128.0,0.12349349573411894
2127.0,0.12360893818081231
2126.0,0.12372441132212098
2125.0,0.12378215940835768
2124.0,0.12372441132212098
2123.0,0.1236666709136196
2122.0,0.1236666709136196
2121.0,0.12378215940835768
2120.0,0.12395544975390482
2119.0,0.12412880927263426
2118.0,0.12424442074194553
2117.0,0.12430223801979201
2116.0,0.12436006299583169
2115.0,0.12441789567211425
2114.0,0.12436006299583169
2113.0,0.12424442074194553
2112.0,0.12412880927263426
2111.0,0.12412880927263426
2110.0,0.12418661116024232
2109.0,0.12418661116024232
2108.0,0.12412880927263426
2107.0,0.12395544975390482
2106.0,0.12383991517437187
2105.0,0.12383991517437187
2104.0,0.12389767862220635
2103.0,0.12395544975390482
2102.0,0.12395544975390482
2101.0,0.12395544975390482
2100.0,0.12395544975390482
2099.0,0.12389767862220635
2098.0,0.12389767862220635
2097.0,0.12395544975390482
2096.0,0.12401322857151209
2095.0,0.12412880927263426
2094.0,0.12418661116024232
2093.0,0.12418661116024232
2092.0,0.12418661116024232
2091.0,0.12412880927263426
2090.0,0.12401322857151209
2089.0,0.12389767862220635
2088.0,0.12378215940835768
2087.0,0.12378215940835768
2086.0,0.12378215940835768
2085.0,0.12372441132212098
2084.0,0.1236666709136196
2083.0,0.12355121312165873
2082.0,0.12349349573411894
2081.0,0.12349349573411894
2080.0,0.12360893818081231
2079.0,0.1236666709136196
2078.0,0.1236666709136196
2077.0,0.12355121312165873
2076.0,0.12337808396572703
2075.0,0.12326270285933538
2074.0,0.12326270285933538
2073.0,0.1233203895807995
2072.0,0.12337808396572703
2071.0,0.1233203895807995
2070.0,0.12320502379929943
2069.0,0.12303203256741524
2068.0,0.12285911021517903
2067.0,0.12268625668776156
2066.0,0.12262865413022594
2065.0,0.12262865413022594
2064.0,0.12257105921178035
2063.0,0.12239832027072817
2062.0,0.12222565000860186
2061.0,0.12205304837081177
2060.0,0.12188051530283239
2059.0,0.12176553132495593
2058.0,0.12165057778222454
2057.0,0.12159311241900439
2056.0,0.12159311241900439
2055.0,0.12159311241900439
2054.0,0.12159311241900439
2053.0,0.12147820449879343
2052.0,0.1213058996038916
2051.0,0.12113366304327466
2050.0,0.12101887660626365
2049.0,0.12090412049992727
2048.0,0.1207893947082408
2047.0,0.12061736282565727
2046.0,0.12050271275057156
2045.0,0.1203880929341492
2044.0,0.1203880929341492
2043.0,0.1203880929341492
2042.0,0.1203880929341492
2041.0,0.12027350336042275
2040.0,0.1201016756699902
2039.0,0.11992991593593283
2038.0,0.11981544717356662
2037.0,0.11970100857424737
2036.0,0.11958660012208333
2035.0,0.11947222180119477
2034.0,0.11947222180119477
2033.0,0.11952940719622163
2032.0,0.11952940719622163
2031.0,0.11952940719622163
2030.0,0.11947222180119477
2029.0,0.11935787359571504
2028.0,0.11918640771920863
2027.0,0.11895789180659433
2026.0,0.11878658374498086
2025.0,0.11867241589944855
2024.0,0.11861534322942724
2023.0,0.11861534322942724
2022.0,0.11850122038501709
2021.0,0.11844417020668851
2020.0,0.11827306462358211
2019.0,0.11815903167507247
2018.0,0.11810202642698875
2017.0,0.11804502866039956
2016.0,0.11804502866039956
2015.0,0.11804502866039956
2014.0,0.11798803837334138
2013.0,0.11793105556385153
2012.0,0.11793105556385153
2011.0,0.11793105556385153
2010.0,0.11793105556385153
2009.0,0.11787408022996826
2008.0,0.11776015198117662
2007.0,0.11764625361128611
2006.0,0.11758931562603192
2005.0,0.11758931562603192
2004.0,0.1175323851046286
2003.0,0.1174754620451195
2002.0,0.11741854644554883
2001.0,0.11730473761840288
2000.0,0.11724784438692004
1999.0,0.11719095860756013
1998.0,0.11713408027837091
1997.0,0.1170772093974013
1996.0,0.11702034596270106
1995.0,0.1170772093974013
1994.0,0.11713408027837091
1993.0,0.11724784438692004
1992.0,0.11736163830396129
1991.0,0.11736163830396129
1990.0,0.11719095860756013
1989.0,0.1169634899723202
1988.0,0.11684980031672243
1987.0,0.11684980031672243
1986.0,0.11684980031672243
1985.0,0.11684980031672243
1984.0,0.116736140415026
1983.0,0.11662251025166115
1982.0,0.1165657063169907
1981.0,0.11662251025166115
1980.0,0.11667932161702477
1979.0,0.11679296664760996
1978.0,0.11684980031672243
1977.0,0.11679296664760996
1976.0,0.11667932161702477
1975.0,0.1165657063169907
1974.0,0.1165089098110701
1973.0,0.1165089098110701
1972.0,0.1165657063169907
1971.0,0.116736140415026
1970.0,0.11690664142431006
1969.0,0.11702034596270106
1968.0,0.1170772093974013
1967.0,0.11719095860756013
1966.0,0.11730473761840288
1965.0,0.11730473761840288
1964.0,0.11724784438692004
1963.0,0.11724784438692004
1962.0,0.11724784438692004
1961.0,0.11736163830396129
1960.0,0.11758931562603192
1959.0,0.11781711236973003
1958.0,0.11810202642698875
1957.0,0.11821604440661537
1956.0,0.11821604440661537
1955.0,0.11821604440661537
1954.0,0.11827306462358211
1953.0,0.11827306462358211
1952.0,0.11827306462358211
1951.0,0.11827306462358211
1950.0,0.11833009232793867
1949.0,0.1183871275216517
1948.0,0.11844417020668851
1947.0,0.11844417020668851
1946.0,0.1183871275216517
1945.0,0.11821604440661537
1944.0,0.11798803837334138
1943.0,0.11781711236973003
1942.0,0.11770319906234805
1941.0,0.1175323851046286
1940.0,0.11724784438692004
1939.0,0.11679296664760996
1938.0,0.1163953390777075
1937.0,0.11605480496572018
1936.0,0.1157145376603248
1935.0,0.11548784080960606
1934.0,0.11531789579397489
1933.0,0.11514801725400226
1932.0,0.11492161585077598
1931.0,0.11463877996848804
1930.0,0.11429961987167014
1929.0,0.11396072443355765
1928.0,0.11356568037106163
1927.0,0.11328372588352176
1926.0,0.11305829401658474
1925.0,0.1128329791052256
1924.0,0.11266406960083297
1923.0,0.11249522576462212
1922.0,0.11232644754555254
1921.0,0.1120452961911984
1920.0,0.1117081546434846
1919.0,0.11137127461477392
1918.0,0.11114683301706374
1917.0,0.11103465569966264
1916.0,0.11081038795292675
1915.0,0.11053021603049262
1914.0,0.11030620855581463
1913.0,0.11013827874181148
1912.0,0.10997041383658313
1911.0,0.10974669484546551
1910.0,0.10957898119908571
1909.0,0.10946720807225518
1908.0,0.10929960230112479
1907.0,0.10907622851098608
1906.0,0.10885296955122903
1905.0,0.10862982530385179
1904.0,0.10840679565103484
1903.0,0.10812816955441629
1902.0,0.10784972209863586
1901.0,0.10768273927751948
1900.0,0.10746019534136453
1899.0,0.10723776538418317
1898.0,0.10695988804288215
1897.0,0.10668218838388821
1896.0,0.1062937069352865
1895.0,0.10590557267730127
1894.0,0.10568393731556158
1893.0,0.10562854614376227
1892.0,0.10551778498990938
1891.0,0.10540705207704448
1890.0,0.10529634739076998
1889.0,0.10518567091669917
1888.0,0.10496440254767725
1887.0,0.10463271122663809
1886.0,0.10430127304069425
1885.0,0.10397008760377302
1884.0,0.10369429253391926
1883.0,0.1033635694704158
1882.0,0.10308815917397474
1881.0,0.1028679566179056
1880.0,0.10264786565568684
1879.0,0.10237290870955862
1878.0,0.10204318999304807
1877.0,0.10171372141087698
1876.0,0.10132965703447017
1875.0,0.10094593200182911
1874.0,0.10061729446673495
1873.0,0.10045306890913297
1872.0,0.10039834085387778
1871.0,0.10023419805561384
1870.0,0.10001543745060903
1869.0,0.09968750301627338
1868.0,0.09946901754724413
1867.0,0.09925064193892053
1866.0,0.09903237608087578
1865.0,0.09875969792669093
1864.0,0.09848719087006019
1863.0,0.09805153492691598
1862.0,0.09761631556752848
1861.0,0.09718153191774648
1860.0,0.09674718310604158
1859.0,0.09636748391576244
1858.0,0.09604229147682952
1857.0,0.09593394808549704
1856.0,0.0957714836599215
1855.0,0.0955549589230904
1854.0,0.09533854208447545
1853.0,0.09512223303659528
1852.0,0.09485199814398393
1851.0,0.09468993788391455
1850.0,0.09452793807529569
1849.0,0.09447395156495153
1848.0,0.09447395156495153
1847.0,0.09463593123310776
1846.0,0.09479797133768142
1845.0,0.09463593123310776
1844.0,0.09420411963213149
1843.0,0.09366495819490939
1842.0,0.09323411045927221
1841.0,0.09307265269104414
1840.0,0.09296504751658308
1839.0,0.09280368972839836
1838.0,0.09264239186882706
1837.0,0.09248115389337075
1836.0,0.09231997575758011
1835.0,0.09215885741705532
1834.0,0.09205147838772776
1833.0,0.09210516458371698
1832.0,0.0922125568893839
1831.0,0.09210516458371698
1830.0,0.09183679994445204
1829.0,0.09146136782804049
1828.0,0.09113982698272349
1827.0,0.09097914578884403
1826.0,0.0908185240221473
1825.0,0.09049745859458458
1824.0,0.09012318200960712
1823.0,0.08964244272712252
1822.0,0.0892155652071629
1821.0,0.08884239126002336
1820.0,0.0884695376928375
1819.0,0.0881502035005799
1818.0,0.0877779434675845
1817.0,0.08745911720936239
1816.0,0.08708744882390307
1815.0,0.08666307406737683
1814.0,0.08618614761628329
1813.0,0.08570974433405087
1812.0,0.08523386307414738
1811.0,0.08475850269380558
1810.0,0.08423093401631587
1809.0,0.08365134772453975
1808.0,0.08317771540408803
1807.0,0.08265206237222844
1806.0,0.08212704480115218
1805.0,0.08155025759884227
1804.0,0.08102656950704579
1803.0,0.08045124103115198
1802.0,0.07987667370927598
1801.0,0.07914650387874067
1800.0,0.07836553894629472
1799.0,0.07753405470158659
1798.0,0.07665234350217442
1797.0,0.0759792995259323
1796.0,0.07551395626608493
1795.0,0.07525564752005143
1794.0,0.07489427319033615
1793.0,0.07412091069849924
1792.0,0.07288638806623937
1791.0,0.07155293679081787
1790.0,0.07042782092345012
1789.0,0.06961138175567827
1788.0,0.06884736147670667
1787.0,0.0680846829187538
1786.0,0.06722192993944942
1785.0,0.06615853710127872
1784.0,0.06509774167768612
1783.0,0.06419054619006714
1782.0,0.06348625752110681
1781.0,0.06263258248271053
1780.0,0.06148027482350815
1779.0,0.06028111764589528
1778.0,0.05918479134919874
1777.0,0.05824018618530458
1776.0,0.05734718830678798
1775.0,0.05655495097496965
1774.0,0.05566540802921782
1773.0,0.054088483180726676
1772.0,0.05192951848105887
1771.0,0.04997609347667353
1770.0,0.04871106272232795
1769.0,0.047643522676209304
1768.0,0.04624030826677128
1767.0,0.04455278942230456
1766.0,0.04320747962950522
1765.0,0.042392712939904875
1764.0,0.04186632432376469
1763.0,0.04105406750606355
1762.0,0.03938654235209116
1761.0,0.03720463014276687
1760.0,0.03545753392086315
1759.0,0.03461012978487776
1758.0,0.03428102975577918
1757.0,0.03357665405630694
1756.0,0.03249882527715853
1755.0,0.03193753992355086
1754.0,0.032311649546687526
1753.0,0.033201453616638954
1752.0,0.03399914237121604
1751.0,0.03489241415094413
1750.0,0.03658998431977123
1749.0,0.03924390909822728
1748.0,0.042967683653061695
1747.0,0.04778894189133087
1746.0,0.053449489430144714
1745.0,0.05998184499233683
1744.0,0.06772922410050963
1743.0,0.07701518429111709
1742.0,0.08719360733870762
1741.0,0.09799710864927058
1740.0,0.10991447328367476
1739.0,0.12355121312165873
1738.0,0.13715334001706125
1737.0,0.1489251947711132
1736.0,0.15964294079664376
1735.0,0.17172688794793012
1734.0,0.18882730493344568
1733.0,0.20943337485392344
1732.0,0.22753159694671954
1731.0,0.24313577593945102
1730.0,0.2597162803181208
1729.0,0.2780245984140466
1728.0,0.29739715865957295
1727.0,0.3166827380781174
1726.0,0.33611070137733856
1725.0,0.35644863143705496
1724.0,0.3787198324495853
1723.0,0.4029633350223465
1722.0,0.4277093938485823
1721.0,0.45050628678498694
1720.0,0.4710832997223453
1719.0,0.4920092751803087
1718.0,0.5181275896893365
1717.0,0.550521600812635
1716.0,0.5798791519142972
1715.0,0.6001532872870776
1714.0,0.6136794261059537
1713.0,0.6208758539296082
1712.0,0.6214204238842251
1711.0,0.6160052105582672
1710.0,0.6064247967304124
1709.0,0.5936301645307325
1708.0,0.5785606097799503
1707.0,0.5612994670992637
1706.0,0.5413621509743507
1705.0,0.5204246898250116
1704.0,0.502241281712732
1703.0,0.4883839794308624
1702.0,0.47638358094562916
1701.0,0.46104943798563847
1700.0,0.44141141689180063
1699.0,0.42400437979673233
1698.0,0.4128505017456563
1697.0,0.40395299245456084
1696.0,0.3936186348893951
1695.0,0.3826850667017063
1694.0,0.3736596326249577
1693.0,0.3672391115205613
1692.0,0.3617104645857432
1691.0,0.3557584141562713
1690.0,0.3494011018273431
1689.0,0.3434227086038859
1688.0,0.33837659077076987
1687.0,0.3341376997968448
1686.0,0.329754146925876
1685.0,0.32477174640693596
1684.0,0.3205721033878812
1683.0,0.31812587787135316
1682.0,0.3156035215809796
1681.0,0.3123818704282302
1680.0,0.30891850787703157
1679.0,0.30557030904291693
1678.0,0.30233483735232536
1677.0,0.29903682184045066
1676.0,0.29542055030370085
1675.0,0.2918341421444599
1674.0,0.2888679276931583
1673.0,0.28625752159091755
1672.0,0.283829652140146
1671.0,0.2812492652603349
1670.0,0.2786016244784948
1669.0,0.27605202356835656
1668.0,0.27343578383775524
1667.0,0.27091624295638805
1666.0,0.2684918164039747
1665.0,0.2660808489876092
1664.0,0.2634441528373641
1663.0,0.2607441967314894
1662.0,0.2582970160422602
1661.0,0.25594183412116456
1660.0,0.2534436385896308
1659.0,0.2511145599904834
1658.0,0.248951965179812
1657.0,0.24695343837347083
1656.0,0.24496406623222855
1655.0,0.24267990345332757
1654.0,0.23942674605560588
1653.0,0.23679669962922834
1652.0,0.23552497256559102
1651.0,0.23403357521428614
1650.0,0.2330669061627162
1649.0,0.23232477597203993
1648.0,0.23091821288178105
1647.0,0.22951619056889205
1646.0,0.22855951336008817
1645.0,0.22716507276098175
1644.0,0.2252641174482466
1643.0,0.2235167441663184
1642.0,0.22199353857649173
1641.0,0.2206199885083442
1640.0,0.2193227255666319
1639.0,0.21817284706757212
1638.0,0.21716919479740815
1637.0,0.2159535841918867
1636.0,0.21495504166845603
1635.0,0.2141009716156166
1634.0,0.21282300752944616
1633.0,0.21126614117229248
1632.0,0.20985563495709947
1631.0,0.20866029603486047
1630.0,0.2076783636484265
1629.0,0.20683847075444928
1628.0,0.20600019901552957
1627.0,0.20516354218543853
1626.0,0.20398103065285067
1625.0,0.20273245916928362
1624.0,0.20155653964981246
1623.0,0.20059052038487324
1622.0,0.19983300979863605
1621.0,0.19893947015214453
1620.0,0.19777376230892996
1619.0,0.196747788569543
1618.0,0.19586056766464965
1617.0,0.19565608152013425
1616.0,0.19640633522865558
1615.0,0.19729467292564795
1614.0,0.1977052886025361
1613.0,0.1977052886025361
1612.0,0.19736308191718943
1611.0,0.19667947642124606
1610.0,0.19599694527038736
1609.0,0.19524739784953948
1608.0,0.19429529556613567
1607.0,0.19314197048118253
1606.0,0.1919917000896001
1605.0,0.19070969882368427
1604.0,0.18936429972446267
1603.0,0.18815699382352258
1602.0,0.18708664335714453
1601.0,0.18601892436352818
1600.0,0.18482086986058133
1599.0,0.1835598320438614
1598.0,0.18230244523697592
1597.0,0.1809828013109407
1596.0,0.17966715510059017
1595.0,0.17861750025270084
1594.0,0.1778319206319825
1593.0,0.17717835469689547
1592.0,0.1764605663431411
1591.0,0.17561379768122598
1590.0,0.17496355877864622
1589.0,0.17444406770964305
1588.0,0.17392519729917355
1587.0,0.1733422081241307
1586.0,0.17288931253398876
1585.0,0.17276000049435458
1584.0,0.1730186630880064
1583.0,0.17392519729917355
1582.0,0.17561379768122598
1581.0,0.1778319206319825
1580.0,0.18006143064460467
1579.0,0.18203819546800593
1578.0,0.18336105510153855
1577.0,0.18395765907800343
1576.0,0.18422307970163732
1575.0,0.18415670933673334
1574.0,0.18349356295364294
1573.0,0.18243463044021913
1572.0,0.18111458540599013
1571.0,0.17947015147648027
1570.0,0.17770112873763355
1569.0,0.17619984625012197
1568.0,0.17483362774345035
1567.0,0.17353645090719882
1566.0,0.1725014918665413
1565.0,0.1714689933548985
1564.0,0.1704389437006073
1563.0,0.16966800654803826
1562.0,0.16896251435997467
1561.0,0.16825816635436186
1560.0,0.16647041824135633
1559.0,0.16532502553725603
1558.0,0.16647041824135633
1557.0,0.166151950468852
1556.0,0.16488040957545036
1555.0,0.16418264570652719
1554.0,0.16348600110932865
1553.0,0.16272729749769965
1552.0,0.16196991701467978
1551.0,0.16146572948813143
1550.0,0.16096212661169407
1549.0,0.1605219526258017
1548.0,0.159956669396506
1547.0,0.15939212099070987
1546.0,0.158765704493959
1545.0,0.15807768832054925
1544.0,0.15745316350498495
1543.0,0.15689185800039307
1542.0,0.15602015552184012
1541.0,0.15496400648658493
1540.0,0.15440590683997568
1539.0,0.15403423845451636
1538.0,0.15304467498017615
1537.0,0.15224231160766877
1536.0,0.15205736115477642
1535.0,0.15193410459600853
1534.0,0.1517492853229574
1533.0,0.15168769637271562
1532.0,0.15162611615539823
1531.0,0.15125681810431635
1530.0,0.15101079374883275
1529.0,0.15101079374883275
1528.0,0.1509493094304879
1527.0,0.1507034591652734
1526.0,0.15033494452126717
1525.0,0.14984407757790774
1524.0,0.14923127307111983
1523.0,0.14837479684669086
1522.0,0.14739803066176504
1521.0,0.1465451586319333
1520.0,0.14575470293388149
1519.0,0.14496568332411575
1518.0,0.14429916916456276
1517.0,0.14363367634075197
1516.0,0.1427278264359586
1515.0,0.1415229581866595
1514.0,0.14038142122781938
1513.0,0.13954220457652888
1512.0,0.1390633792999063
1511.0,0.13924287691845794
1510.0,0.14014147951900724
1509.0,0.14200450443907608
1508.0,0.1456939581989194
1507.0,0.15521228117215347
1506.0,0.16915480769138846
1505.0,0.17743966305730785
1504.0,0.1788141173911546
1503.0,0.17743966305730785
1502.0,0.17431429197824166
1501.0,0.1699248335702499
1500.0,0.16481693015095633
1499.0,0.159517512786558
1498.0,0.15434394001645568
1497.0,0.1495988520028415
1496.0,0.1455724942121388
1495.0,0.1423660148499919
1494.0,0.14002155835797914
1493.0,0.1385253311428314
1492.0,0.1374512304752069
1491.0,0.13632033212410222
1490.0,0.13513308567147386
1489.0,0.13448148092522594
1488.0,0.13418561983203192
1487.0,0.13383085236622927
1486.0,0.13353543402825974
1485.0,0.13359450162194508
1484.0,0.13406733180681396
1483.0,0.13483678049391368
1482.0,0.13596381727422502
1481.0,0.13751083309410284
1480.0,0.13924287691845794
1479.0,0.1409217752530305
1478.0,0.1423660148499919
1477.0,0.14381507327283027
1476.0,0.14526898278605782
1475.0,0.1463626180414057
1474.0,0.14709324120304634
1473.0,0.1477030341730745
1472.0,0.14831368455757254
1471.0,0.14837479684669086
1470.0,0.14782509557969692
1469.0,0.14733705565543076
1468.0,0.14703230897118158
1467.0,0.14684956355215717
1466.0,0.146788665496683
1465.0,0.14709324120304634
1464.0,0.1477030341730745
1463.0,0.14831368455757254
1462.0,0.1490476002065071
1461.0,0.15015080439474215
1460.0,0.1514414278762366
1459.0,0.15279763601907614
1458.0,0.15403423845451636
1457.0,0.15552282425431851
1456.0,0.15676722190199066
1455.0,0.15701652987778258
1454.0,0.15726598105173029
1453.0,0.15757799664235028
1452.0,0.1577028656719348
1451.0,0.15732836623921154
1450.0,0.15664262156204445
1449.0,0.1558335895497993
1448.0,0.15496400648658493
1447.0,0.15397232463562127
1446.0,0.15292113793428452
1445.0,0.15193410459600853
1444.0,0.1509493094304879
1443.0,0.15002808767114995
1442.0,0.14917004015146906
1441.0,0.14849704722945534
1440.0,0.14813039927023364
1439.0,0.14776406058811253
1438.0,0.14691047014813452
1437.0,0.14514763758216587
1436.0,0.1427278264359586
1435.0,0.14032142337155173
1434.0,0.13822670328130693
1433.0,0.13626089265478303
1432.0,0.1340081998737246
1431.0,0.1311792938024825
1430.0,0.12796033202671375
1429.0,0.12459143992293642
1428.0,0.12153565465853111
1427.0,0.1190150095132465
1426.0,0.11690664142431006
1425.0,0.1148084593931522
1424.0,0.11266406960083297
1423.0,0.11086644403327606
1422.0,0.10963487855187593
1421.0,0.10874138309586101
1420.0,0.10807246577932506
1419.0,0.10823959854332843
1418.0,0.11008231656379408
1417.0,0.11379137583250243
1416.0,0.11947222180119477
1415.0,0.1275523522109867
1414.0,0.13828641242856565
1413.0,0.15187248943212528
1412.0,0.16845014800424418
1411.0,0.18708664335714453
1410.0,0.20530287310800133
1409.0,0.2206199885083442
1408.0,0.2316579413554667
1407.0,0.23747147755300002
1406.0,0.23754651763645307
1405.0,0.2326214758858196
1404.0,0.224608028303388
1403.0,0.21573941743391623
1402.0,0.20739821883503362
1401.0,0.19976421067264605
1400.0,0.19232969876951622
1399.0,0.18468795647564096
1398.0,0.17737432122585917
1397.0,0.17121125181504682
1396.0,0.1657700971483227
1395.0,0.16045910703103106
1394.0,0.15533647175976073
1393.0,0.15119529894819617
1392.0,0.14837479684669086
1391.0,0.14642345638035836
1390.0,0.14472319616990825
1389.0,0.14302956651750764
1388.0,0.14116214857141451
1387.0,0.13936258322624528
1386.0,0.13780896894840278
1385.0,0.13649869935854997
1384.0,0.1354889189416082
1383.0,0.134659094375416
1382.0,0.1341264717921853
1381.0,0.13383085236622927
1380.0,0.13388996015562338
1379.0,0.13406733180681396
1378.0,0.13430394008392943
1377.0,0.134659094375416
1376.0,0.13513308567147386
1375.0,0.13596381727422502
1374.0,0.1369151746796402
1373.0,0.13774932540207496
1372.0,0.13828641242856565
1371.0,0.1384058553561347
1370.0,0.13828641242856565
1369.0,0.13774932540207496
1368.0,0.13661765155921235
1367.0,0.13489602535887202
1366.0,0.13265038281120756
1365.0,0.12994741830645506
1364.0,0.12679569072295926
1363.0,0.12320502379929943
1362.0,0.11941504393502012
1361.0,0.11588463798833115
1360.0,0.112945621949043
1359.0,0.11053021603049262
1358.0,0.10857405715200596
1357.0,0.10695988804288215
1356.0,0.10568393731556158
1355.0,0.10485381062400778
1354.0,0.10446696051592963
1353.0,0.10463271122663809
1352.0,0.10535169620648288
1351.0,0.10679324694015202
1350.0,0.10913206118855912
1349.0,0.11249522576462212
1348.0,0.11719095860756013
1347.0,0.12343578601615435
1346.0,0.13135556160517425
1345.0,0.14128238513970826
1344.0,0.15323004646278116
1343.0,0.1666616110606025
1342.0,0.18104868835982724
1341.0,0.19613336571501572
1340.0,0.21133678687914248
1339.0,0.22475374025976347
1338.0,0.23388471677858602
1337.0,0.23724643506662613
1336.0,0.23507701535011138
1335.0,0.2280452510360509
1334.0,0.21688286250953293
1333.0,0.20266319922465015
1332.0,0.18688624599210146
1331.0,0.17101804599207693
1330.0,0.1562068016740874
1329.0,0.14321071124668383
1328.0,0.132179091954427
1327.0,0.12314735239865637
1326.0,0.11605480496572018
1325.0,0.11058623595729111
1324.0,0.10646015643533868
1323.0,0.10341867249426717
1322.0,0.1012199867101744
1321.0,0.09968750301627338
1320.0,0.09843270997155007
1319.0,0.09745322068600859
1318.0,0.09680145295702158
1317.0,0.09636748391576244
1316.0,0.09620485725896466
1315.0,0.09631326826349751
1314.0,0.09674718310604158
1313.0,0.0975619438013351
1312.0,0.09870518283443275
1311.0,0.10007011727213588
1310.0,0.1017686154869033
1309.0,0.10374943753836186
1308.0,0.10579474085791629
1307.0,0.10779405402422748
1306.0,0.10957898119908571
1305.0,0.11109074073646874
1304.0,0.11260778102815316
1303.0,0.11429961987167014
1302.0,0.11645212073195621
1301.0,0.11930071078129845
1300.0,0.12291674334934943
1299.0,0.12743585690934855
1298.0,0.13259144347720886
1297.0,0.13828641242856565
1296.0,0.14429916916456276
1295.0,0.15051916275601385
1294.0,0.15689185800039307
1293.0,0.16329620091026875
1292.0,0.16960382351653092
1291.0,0.17580905934741686
1290.0,0.18197215814074386
1289.0,0.1878891587969005
1288.0,0.19368433019188647
1287.0,0.19914550849643908
1286.0,0.20432849405397824
1285.0,0.20915209603456808
1284.0,0.2137456042102197
1283.0,0.21817284706757212
1282.0,0.22235572230351508
1281.0,0.22643295107394135
1280.0,0.23054882059796222
1279.0,0.23492779889720805
1278.0,0.2393513804186438
1277.0,0.2440489589958681
1276.0,0.2490290155626811
1275.0,0.254534831329273
1274.0,0.26082336808927
1273.0,0.26825011647273667
1272.0,0.2773660774661879
1271.0,0.2882771081727653
1270.0,0.30076949711659084
1269.0,0.3145269802772408
1268.0,0.32956859063939437
1267.0,0.3458234581220394
1266.0,0.36271045232182564
1265.0,0.380072289708532
1264.0,0.3972890550424426
1263.0,0.41420099098699903
1262.0,0.430041181903406
1261.0,0.4444219272270451
1260.0,0.45729903055188914
1259.0,0.4682656907234497
1258.0,0.47729500726525
1257.0,0.48492132492407736
1256.0,0.492144128304169
1255.0,0.49976352517436107
1254.0,0.5076587467450255
1253.0,0.5168407902830203
1252.0,0.5278288533076367
1251.0,0.5409092103994135
1250.0,0.5557990111358406
1249.0,0.5725138909042145
1248.0,0.5914208745913325
1247.0,0.611721136540361
1246.0,0.6320852612062473
1245.0,0.6518899315197624
1244.0,0.6708055849115488
1243.0,0.6876110506294082
1242.0,0.7011469235902934
1241.0,0.7110803943382735
1240.0,0.7176044952574745
1239.0,0.7205612117129796
1238.0,0.7189666327522723
1237.0,0.7135435302530171
1236.0,0.7053133757205567
1235.0,0.6946486305533763
1234.0,0.6813107300522543
1233.0,0.6669559701765126
1232.0,0.6530605373010094
1231.0,0.6395959452700613
1230.0,0.6261688549261697
1229.0,0.612966298717637
1228.0,0.6003262785189618
1227.0,0.5882119954561311
1226.0,0.5764264802672645
1225.0,0.5652714582202423
1224.0,0.5550188879120554
1223.0,0.5457651042517344
1222.0,0.5365549682295723
1221.0,0.5273898024039554
1220.0,0.5187007266671442
1219.0,0.5103227083363016
1218.0,0.501827339363456
1217.0,0.4934949675951279
1216.0,0.485585079419631
1215.0,0.4778166823813137
1214.0,0.4698003017969179
1213.0,0.46155194828978274
1212.0,0.4535807331648083
1211.0,0.44587441848698717
1210.0,0.43842163169903947
1209.0,0.43132902199010337
1208.0,0.42469666657760086
1207.0,0.41850545770910075
1206.0,0.4122890349810886
1205.0,0.4061603389187287
1204.0,0.4002260608536117
1203.0,0.394479476562531
1202.0,0.38870163770357125
1201.0,0.3828947694976219
1200.0,0.3772680348352808
1199.0,0.3717132689104856
1198.0,0.36612773734166737
1197.0,0.3605135107314139
1196.0,0.3551676711743639
1195.0,0.34988683555642863
1194.0,0.3446694419906591
1193.0,0.3392293564723028
1192.0,0.33395026151948404
1191.0,0.3286419965565084
1190.0,0.3233063903751334
1189.0,0.31803554100531684
1188.0,0.3130957304318227
1187.0,0.30856484785593796
1186.0,0.3040807471686
1185.0,0.29990229538694635
1184.0,0.2960211749916142
1183.0,0.29260016886675144
1182.0,0.28945955206670293
1181.0,0.28692967414436055
1180.0,0.2849163293050727
1179.0,0.28366271211045135
1178.0,0.2827456872374503
1177.0,0.28207997416300645
1176.0,0.28158135817034435
1175.0,0.28100036212128177
1174.0,0.28008893580166117
1173.0,0.2786016244784948
1172.0,0.27646223846794316
1171.0,0.27343578383775524
1170.0,0.2695407399542311
1169.0,0.2648004515776867
1168.0,0.25955835505023406
1167.0,0.2539888922480742
1166.0,0.24856691818065246
1165.0,0.243439956993317
1164.0,0.23882418684426865
1163.0,0.23448045690204733
1162.0,0.2303273359445075
1161.0,0.22635980673997413
1160.0,0.22279074185431513
1159.0,0.2194666746835956
1158.0,0.21645371772965016
1157.0,0.21360353862769577
1156.0,0.2108425080885603
1155.0,0.2083093509798819
1154.0,0.20593041601836748
1153.0,0.20384212309308558
1152.0,0.20204035626280392
1151.0,0.20059052038487324
1150.0,0.1994203784308699
1149.0,0.198596289982645
1148.0,0.1981848314185628
1147.0,0.19832194096410682
1146.0,0.19893947015214453
1145.0,0.20017716900668026
1144.0,0.20197120659592693
1143.0,0.20418947533259169
1142.0,0.20676855294347907
1141.0,0.20978522975602076
1140.0,0.21324857785443885
1139.0,0.21716919479740815
1138.0,0.22148698826107527
1137.0,0.22628667472297836
1136.0,0.2318801058152027
1135.0,0.23829763245858726
1134.0,0.24557521072274135
1133.0,0.2536772349100471
1132.0,0.2626483041962855
1131.0,0.27262143054851107
1130.0,0.2833290244398645
1129.0,0.2948207551263238
1128.0,0.3068888845378588
1127.0,0.31975516295739226
1126.0,0.33310778893346393
1125.0,0.34698054890038676
1124.0,0.36131111330987653
1123.0,0.37613073164969757
1122.0,0.39083262569798016
1121.0,0.4050552633049167
1120.0,0.41839163396794254
1119.0,0.43050904565121684
1118.0,0.44069198909298746
1117.0,0.44830608487277535
1116.0,0.4527176920366969
1115.0,0.4537041648785576
1114.0,0.4516105818670817
1113.0,0.44757515429591455
1112.0,0.44381815334708885
1111.0,0.44177157819667423
1110.0,0.44249279809434205
1109.0,0.44660248987612006
1108.0,0.4546928835341759
1107.0,0.4666092919824487
1106.0,0.4814860601221125
1105.0,0.49852992789958783
1104.0,0.516698047641833
1103.0,0.5350635708782674
1102.0,0.5525318690502443
1101.0,0.5689580546641144
1100.0,0.5845258318907642
1099.0,0.5989442742281561
1098.0,0.6113660306482109
1097.0,0.6216020990518623
1096.0,0.6298571529488979
1095.0,0.6358243672293806
1094.0,0.6388390048049739
1093.0,0.6395959452700613
1092.0,0.6388390048049739
1091.0,0.6367641955163061
1090.0,0.6335770427740273
1089.0,0.6291169832223942
1088.0,0.6239708182718198
1087.0,0.6181632000016566
1086.0,0.611721136540361
1085.0,0.6050232804454356
1084.0,0.5987718325018869
1083.0,0.5931193299508752
1082.0,0.5872035712834567
1081.0,0.5807052782465394
1080.0,0.5738141747554886
1079.0,0.5663901566762817
1078.0,0.5576770442544254
1077.0,0.5480601306348971
1076.0,0.5382014424748907
1075.0,0.528855034839367
1074.0,0.5198492747267196
1073.0,0.5113083016830593
1072.0,0.5033470607490822
1071.0,0.49552913750558103
1070.0,0.4874490070957893
1069.0,0.47951646725920805
1068.0,0.4718549217468935
1067.0,0.4645792819438266
1066.0,0.4576726172260257
1065.0,0.4514877436589646
1064.0,0.445995678988097
1063.0,0.4408118109952246
1062.0,0.43545228824405213
1061.0,0.4299242946783959
1060.0,0.42435038524478075
1059.0,0.4189610512278328
1058.0,0.41397561761302426
1057.0,0.4096040528159872
1056.0,0.40604970473601254
1055.0,0.4028535121663046
1054.0,0.3994627056355311
1053.0,0.3963144503853002
1052.0,0.39394125058968577
1051.0,0.3924377568164117
1050.0,0.39136701050996314
1049.0,0.3904055907747799
1048.0,0.38965928854784315
1047.0,0.389233405226729
1046.0,0.38870163770357125
1045.0,0.38806437495987733
1044.0,0.38753403604685777
1043.0,0.3871102307125154
1042.0,0.38647529714634765
1041.0,0.3855246339096048
1040.0,0.38415511712529793
1039.0,0.38237070224215786
1038.0,0.37986394502624243
1037.0,0.3769575657536184
1036.0,0.3737623148530995
1035.0,0.37048846579954686
1034.0,0.36713795989977016
1033.0,0.36351210364663467
1032.0,0.3595185630295781
1031.0,0.3547742884645839
1030.0,0.34901290561655496
1029.0,0.34256167729703746
1028.0,0.3365817877473203
1027.0,0.33245366048848357
1026.0,0.3314277308154421
1025.0,0.3344190089820469
1024.0,0.34227504579489176
1023.0,0.35536449623184696
1022.0,0.3738650213646113
1021.0,0.39718065756730025
1020.0,0.42458120878564
1019.0,0.4538276316830574
1018.0,0.4812229310732252
1017.0,0.5029320636014951
1016.0,0.5152731957013381
1015.0,0.5169835798558677
1014.0,0.5094796906366512
1013.0,0.496209316942819
1012.0,0.4810914263085857
1011.0,0.4666092919824487
1010.0,0.4537041648785576
1009.0,0.44249279809434205
1008.0,0.4328559548043429
1007.0,0.42469666657760086
1006.0,0.4178229623115912
1005.0,0.411840383616908
1004.0,0.407046428452134
1003.0,0.40274371707485823
1002.0,0.3987006898056624
1001.0,0.39480273261162213
1000.0,0.3912600809312121
999.0,0.3879582553547305
998.0,0.3849973854754116
997.0,0.38226596463598206
996.0,0.37986394502624243
995.0,0.37757872602432974
994.0,0.37509939779550994
993.0,0.3726341434072673
992.0,0.37048846579954686
991.0,0.3687592197644909
990.0,0.3673402867060864
989.0,0.3660268442103265
988.0,0.3648179513437324
987.0,0.3636124141868433
986.0,0.36241021416130015
985.0,0.3614109167072832
984.0,0.36061313098231595
983.0,0.3604139133265736
982.0,0.3605135107314139
981.0,0.36081244006424606
980.0,0.3614109167072832
979.0,0.36221017063777095
978.0,0.36351210364663467
977.0,0.3652205418540484
976.0,0.3672391115205613
975.0,0.36957212497497616
974.0,0.3716110699496884
973.0,0.3732491463166068
972.0,0.3743789185750923
971.0,0.3753054687279187
970.0,0.3757179041643317
969.0,0.3759242688543174
968.0,0.3756147585797349
967.0,0.3749963989851366
966.0,0.3739677521709812
965.0,0.3726341434072673
964.0,0.37130461728597663
963.0,0.3698773571406879
962.0,0.3682519256034307
961.0,0.36653154442041336
960.0,0.36471736200178806
959.0,0.36281057785123805
958.0,0.3607127740897633
957.0,0.3584267468218245
956.0,0.35634996178267087
955.0,0.35457773065090814
954.0,0.35291057128344505
953.0,0.35144484433732925
952.0,0.3499840475281615
951.0,0.3484312611342082
950.0,0.34659450933549873
949.0,0.3447654929657058
948.0,0.34303981725715094
947.0,0.341606973720876
946.0,0.3402739047622083
945.0,0.33875539104066643
944.0,0.3372421683184259
943.0,0.3359224098149254
942.0,0.33488826292494855
941.0,0.3338565727084417
940.0,0.33292079453578327
939.0,0.3318937620672686
938.0,0.3308691526266674
937.0,0.3298469548078198
936.0,0.3289197672611506
935.0,0.32808698755841315
934.0,0.3270713095572775
933.0,0.32569011105852286
932.0,0.32440494361325367
931.0,0.32312356802686293
930.0,0.32202824718926015
929.0,0.32111758532926427
928.0,0.3203904282202441
927.0,0.3195738291418546
926.0,0.3186682940308343
925.0,0.31758413832264143
924.0,0.3163227011813081
923.0,0.31506491735911046
922.0,0.31363189652696377
921.0,0.31220358861870556
920.0,0.3108688027655022
919.0,0.3098039199714864
918.0,0.30891850787703157
917.0,0.3082114755973018
916.0,0.3073293008436311
915.0,0.30609725893393946
914.0,0.30451832350980257
913.0,0.30303235925597694
912.0,0.30172542332563235
911.0,0.30085631260551615
910.0,0.2999889376778877
909.0,0.29929628285498056
908.0,0.2987775157434429
907.0,0.29869111477192467
906.0,0.29886393390747346
905.0,0.2992097786256531
904.0,0.29955589897224844
903.0,0.2998156703778023
902.0,0.29990229538694635
901.0,0.2999889376778877
900.0,0.30024896831048564
899.0,0.3005091547277956
898.0,0.30042240860109093
897.0,0.29990229538694635
896.0,0.29903682184045066
895.0,0.29808678878765615
894.0,0.2967086218813386
893.0,0.29507770877659834
892.0,0.29319690296266177
891.0,0.2912392763096834
890.0,0.2892059000696725
889.0,0.28718199979214987
888.0,0.2852512392749402
887.0,0.28341242232430774
886.0,0.28174749990224934
885.0,0.28050298338941837
884.0,0.28008893580166117
883.0,0.28100036212128177
882.0,0.28341242232430774
881.0,0.2872661409300481
880.0,0.2927705806727059
879.0,0.29990229538694635
878.0,0.3087416418668889
877.0,0.31903028153410284
876.0,0.3308691526266674
875.0,0.3441895055047477
874.0,0.3585258894959005
873.0,0.37242933581945703
872.0,0.383839687152417
871.0,0.39093945006991304
870.0,0.39275949616825745
869.0,0.3901922306712977
868.0,0.38489201255680605
867.0,0.378615971518347
866.0,0.37222462477069707
865.0,0.36653154442041336
864.0,0.3617104645857432
863.0,0.35773338109732644
862.0,0.354381261757305
861.0,0.3515424057174774
860.0,0.3492069603480692
859.0,0.34736693191688994
858.0,0.3458234581220394
857.0,0.3444774037465823
856.0,0.3435184842095014
855.0,0.34265726318537393
854.0,0.3420840631700448
853.0,0.3420840631700448
852.0,0.3428484980990334
851.0,0.3439976793170427
850.0,0.34534224535047553
849.0,0.3468840068344332
848.0,0.348721986001856
847.0,0.3502758140704776
846.0,0.35115229162710637
845.0,0.35095736591382365
844.0,0.35017853677543487
843.0,0.3493040202393891
842.0,0.34852814780095764
841.0,0.34775365899667676
840.0,0.34678748622465627
839.0,0.34543844525825684
838.0,0.344093581819785
837.0,0.3428484980990334
836.0,0.34179774661298534
835.0,0.3406543642538229
834.0,0.3391345219961308
833.0,0.3373365904259624
832.0,0.3358282946380693
831.0,0.334606649720288
830.0,0.3334820194451191
829.0,0.33198702835816785
828.0,0.33003263009149597
827.0,0.3279021420642825
826.0,0.3258740172572918
825.0,0.32403845035783063
824.0,0.3225755622987525
823.0,0.32139058344107396
822.0,0.32048125630421054
821.0,0.31975516295739226
820.0,0.31921138849331765
819.0,0.3185778442789915
818.0,0.31758413832264143
817.0,0.3163227011813081
816.0,0.3147958655289853
815.0,0.31327437892545795
814.0,0.31202537996544444
813.0,0.3113132757158765
812.0,0.31104653736258214
811.0,0.31060233717871766
810.0,0.3097152974873705
809.0,0.3084764778318456
808.0,0.3072411818452758
807.0,0.30618514611058334
806.0,0.3051316720175439
805.0,0.3039058400047767
804.0,0.3025091128289432
803.0,0.30094314545233236
802.0,0.29929628285498056
801.0,0.2974833025618495
800.0,0.29576366269121235
799.0,0.2941362877160807
798.0,0.29319690296266177
797.0,0.2934528973596424
796.0,0.295249095709329
795.0,0.29800052511036323
794.0,0.30085631260551615
793.0,0.30294510772742567
792.0,0.30381841283147626
791.0,0.30364361126666783
790.0,0.3027706572402824
789.0,0.301377570297902
788.0,0.2994693430214084
787.0,0.2967946293045136
786.0,0.29353826236864533
785.0,0.2901366825596008
784.0,0.2870137664056174
783.0,0.28408018256642054
782.0,0.2812492652603349
781.0,0.278684119394101
780.0,0.27629810600873217
779.0,0.27417000967941973
778.0,0.27188981589965944
777.0,0.2695407399542311
776.0,0.2670436304243753
775.0,0.264241462556261
774.0,0.26114019792779986
773.0,0.258060922270801
772.0,0.25500332596143993
771.0,0.25188953250501633
770.0,0.24856691818065246
769.0,0.24511677174783242
768.0,0.2415423113895343
767.0,0.2376215706880358
766.0,0.2330669061627162
765.0,0.2280452510360509
764.0,0.2230809971579535
763.0,0.2181010806488508
762.0,0.21310667473868428
761.0,0.2081690523251638
760.0,0.20328693671910347
759.0,0.19832194096410682
758.0,0.192938760082761
757.0,0.18708664335714453
756.0,0.1811804924524636
755.0,0.17567887514922864
754.0,0.1704389437006073
753.0,0.16507090353942422
752.0,0.15920410115290617
751.0,0.15304467498017615
750.0,0.14684956355215717
749.0,0.1410419452819942
748.0,0.13560759484941132
747.0,0.1306509192409071
746.0,0.126156466776564
745.0,0.12228319913502328
744.0,0.11924355548978971
743.0,0.1170772093974013
742.0,0.11645212073195621
741.0,0.11815903167507247
740.0,0.12297438413275108
739.0,0.13123804178794973
738.0,0.1430899396992138
737.0,0.15882830550046778
736.0,0.17842097208799124
735.0,0.2009352806489919
734.0,0.2251911696892941
733.0,0.2503409679051003
732.0,0.2761340355564963
731.0,0.30294510772742567
730.0,0.3315208970674144
729.0,0.3629107264696696
728.0,0.39772291569980744
727.0,0.4348608480302105
726.0,0.4713403547650101
725.0,0.5023793502187122
724.0,0.5233132570543553
723.0,0.5326879370194479
722.0,0.5326879370194479
721.0,0.5272435506827877
720.0,0.5199930570428495
719.0,0.5135695211455662
718.0,0.5086383061657274
717.0,0.5052889747947373
716.0,0.5023793502187122
715.0,0.49907776080969946
714.0,0.495257363728312
713.0,0.4917396944876655
712.0,0.489454989793388
711.0,0.4878494630779695
710.0,0.485585079419631
709.0,0.4818810528568469
708.0,0.47716468633947007
707.0,0.47249898901887977
706.0,0.4690323184280849
705.0,0.46711828059260285
704.0,0.4666092919824487
703.0,0.4662279416152819
702.0,0.46470587995722945
701.0,0.4620550407085131
700.0,0.4591701858889201
699.0,0.456677099353088
698.0,0.4540746706441572
697.0,0.45075144314594406
696.0,0.44672395386290065
695.0,0.44237251157317337
694.0,0.43830246734600653
693.0,0.4349790716547062
692.0,0.43273830764612553
691.0,0.4308602745275405
690.0,0.4280583649255376
689.0,0.42435038524478075
688.0,0.42044503959900137
687.0,0.41714153777550056
686.0,0.41408828968056577
685.0,0.410944468947656
684.0,0.40837896178668087
683.0,0.40682473652189755
682.0,0.40604970473601254
681.0,0.405165644416682
680.0,0.4032929703185537
679.0,0.4002260608536117
678.0,0.39653084026616114
677.0,0.3937261468300117
676.0,0.3923305633117571
675.0,0.3917949922956738
674.0,0.39115317767358837
673.0,0.38955277855787873
672.0,0.38753403604685777
671.0,0.38647529714634765
670.0,0.38626385873812863
669.0,0.38584129049082483
668.0,0.3853136577179874
667.0,0.38394480502341377
666.0,0.38028073438827303
665.0,0.3769575657536184
664.0,0.37520242103923884
663.0,0.3740705072837054
662.0,0.37212230542002844
661.0,0.369470428573176
660.0,0.36683464631609675
659.0,0.36421476446634826
658.0,0.36161059233466397
657.0,0.35922052265514304
656.0,0.35773338109732644
655.0,0.3576344191550267
654.0,0.3584267468218245
653.0,0.358724242768087
652.0,0.3575354797578787
651.0,0.3551676711743639
650.0,0.3527148549746333
649.0,0.35134730486877697
648.0,0.35144484433732925
647.0,0.3520305416370282
646.0,0.3515424057174774
645.0,0.3494982051216331
644.0,0.3463052046849182
643.0,0.3429441471428962
642.0,0.3408447190593702
641.0,0.3411304077980377
640.0,0.3436142809413123
639.0,0.34727030393075253
638.0,0.35095736591382365
637.0,0.3550692920864127
636.0,0.36021478701317977
635.0,0.3653212478213177
634.0,0.3678465164893674
633.0,0.36653154442041336
632.0,0.36331155204671717
631.0,0.3601152580836957
630.0,0.3574365628956122
629.0,0.3549709352788575
628.0,0.3525192268263242
627.0,0.3500812812645808
626.0,0.34794715175189506
625.0,0.34659450933549873
624.0,0.34649805303706716
623.0,0.34678748622465627
622.0,0.34591976469342933
621.0,0.3439976793170427
620.0,0.34179774661298534
619.0,0.339608901597533
618.0,0.33686468504224587
617.0,0.3335756274812405
616.0,0.3318005158013382
615.0,0.33236029394358924
614.0,0.3341376997968448
613.0,0.33498217458752744
612.0,0.3341376997968448
611.0,0.33245366048848357
610.0,0.3311483519174814
609.0,0.3307761260691944
608.0,0.3311483519174814
607.0,0.331334584545508
606.0,0.3296613588725579
605.0,0.32596599956874517
604.0,0.32202824718926015
603.0,0.3205721033878812
602.0,0.32248429520124255
601.0,0.32670256024036415
600.0,0.3310552655422663
