cm-1,A
4000.0,0.007534852191956709
3999.0,0.007534852191956709
3998.0,0.007534852191956709
3997.0,0.007490664932224611
3996.0,0.007490664932224611
3995.0,0.007490664932224611
3994.0,0.007490664932224611
3993.0,0.0074464821678643656
3992.0,0.0074464821678643656
3991.0,0.0074464821678643656
3990.0,0.007490664932224611
3989.0,0.007534852191956709
3988.0,0.00762324020119709
3987.0,0.00762324020119709
3986.0,0.00762324020119709
3985.0,0.007534852191956709
3984.0,0.007490664932224611
3983.0,0.0074464821678643656
3982.0,0.0074464821678643656
3981.0,0.0074464821678643656
3980.0,0.0074464821678643656
3979.0,0.007402303897961815
3978.0,0.007358130121602358
3977.0,0.007313960837872058
3976.0,0.007269796045857202
3975.0,0.007225635744644521
3974.0,0.007137328610972382
3973.0,0.007137328610972382
3972.0,0.007225635744644521
3971.0,0.007358130121602358
3970.0,0.0074464821678643656
3969.0,0.007490664932224611
3968.0,0.007490664932224611
3967.0,0.0074464821678643656
3966.0,0.007402303897961815
3965.0,0.007402303897961815
3964.0,0.007402303897961815
3963.0,0.007402303897961815
3962.0,0.007358130121602358
3961.0,0.007313960837872058
3960.0,0.007358130121602358
3959.0,0.007402303897961815
3958.0,0.007402303897961815
3957.0,0.007402303897961815
3956.0,0.007358130121602358
3955.0,0.007313960837872058
3954.0,0.007313960837872058
3953.0,0.007358130121602358
3952.0,0.007402303897961815
3951.0,0.007402303897961815
3950.0,0.007358130121602358
3949.0,0.007269796045857202
3948.0,0.007181479933320523
3947.0,0.007049039429553483
3946.0,0.007049039429553483
3945.0,0.007093181776687496
3944.0,0.007269796045857202
3943.0,0.007358130121602358
3942.0,0.007358130121602358
3941.0,0.007313960837872058
3940.0,0.007269796045857202
3939.0,0.007269796045857202
3938.0,0.007313960837872058
3937.0,0.007313960837872058
3936.0,0.007358130121602358
3935.0,0.007402303897961815
3934.0,0.007358130121602358
3933.0,0.007269796045857202
3932.0,0.007181479933320523
3931.0,0.007093181776687496
3930.0,0.007049039429553483
3929.0,0.007049039429553483
3928.0,0.007049039429553483
3927.0,0.007049039429553483
3926.0,0.007093181776687496
3925.0,0.007137328610972382
3924.0,0.007137328610972382
3923.0,0.007137328610972382
3922.0,0.007181479933320523
3921.0,0.007225635744644521
3920.0,0.007181479933320523
3919.0,0.007137328610972382
3918.0,0.007181479933320523
3917.0,0.007225635744644521
3916.0,0.007269796045857202
3915.0,0.007269796045857202
3914.0,0.007313960837872058
3913.0,0.007313960837872058
3912.0,0.007313960837872058
3911.0,0.007269796045857202
3910.0,0.007181479933320523
3909.0,0.007093181776687496
3908.0,0.007004901568658406
3907.0,0.006872514894289861
3906.0,0.006828394969235152
3905.0,0.006740168563263094
3904.0,0.006651960076740071
3903.0,0.00656376950238835
3902.0,0.00656376950238835
3901.0,0.006740168563263094
3900.0,0.007004901568658406
3899.0,0.007181479933320523
3898.0,0.007313960837872058
3897.0,0.007402303897961815
3896.0,0.0074464821678643656
3895.0,0.007358130121602358
3894.0,0.007269796045857202
3893.0,0.007225635744644521
3892.0,0.007269796045857202
3891.0,0.007181479933320523
3890.0,0.007049039429553483
3889.0,0.007049039429553483
3888.0,0.007269796045857202
3887.0,0.007534852191956709
3886.0,0.00762324020119709
3885.0,0.0074464821678643656
3884.0,0.007269796045857202
3883.0,0.007269796045857202
3882.0,0.0074464821678643656
3881.0,0.007490664932224611
3880.0,0.007269796045857202
3879.0,0.00696076819309055
3878.0,0.006872514894289861
3877.0,0.007004901568658406
3876.0,0.007137328610972382
3875.0,0.007093181776687496
3874.0,0.006872514894289861
3873.0,0.006607862550997545
3872.0,0.006651960076740071
3871.0,0.006916639301937977
3870.0,0.007004901568658406
3869.0,0.006784279525863024
3868.0,0.006651960076740071
3867.0,0.006872514894289861
3866.0,0.007137328610972382
3865.0,0.007225635744644521
3864.0,0.007137328610972382
3863.0,0.007049039429553483
3862.0,0.007049039429553483
3861.0,0.007093181776687496
3860.0,0.007093181776687496
3859.0,0.007004901568658406
3858.0,0.006784279525863024
3857.0,0.006519680930003435
3856.0,0.006343371384537999
3855.0,0.00656376950238835
3854.0,0.007049039429553483
3853.0,0.007137328610972382
3852.0,0.00696076819309055
3851.0,0.007137328610972382
3850.0,0.0075790439479759275
3849.0,0.007800070204414977
3848.0,0.007711646202907652
3847.0,0.0075790439479759275
3846.0,0.0074464821678643656
3845.0,0.007225635744644521
3844.0,0.007004901568658406
3843.0,0.006828394969235152
3842.0,0.006740168563263094
3841.0,0.006872514894289861
3840.0,0.007137328610972382
3839.0,0.007358130121602358
3838.0,0.007358130121602358
3837.0,0.007181479933320523
3836.0,0.007093181776687496
3835.0,0.007137328610972382
3834.0,0.007313960837872058
3833.0,0.007402303897961815
3832.0,0.0074464821678643656
3831.0,0.007358130121602358
3830.0,0.007269796045857202
3829.0,0.007269796045857202
3828.0,0.007269796045857202
3827.0,0.007137328610972382
3826.0,0.006872514894289861
3825.0,0.00656376950238835
3824.0,0.006431517210272464
3823.0,0.00656376950238835
3822.0,0.006784279525863024
3821.0,0.006784279525863024
3820.0,0.006519680930003435
3819.0,0.006519680930003435
3818.0,0.007049039429553483
3817.0,0.00762324020119709
3816.0,0.007844288957383316
3815.0,0.007711646202907652
3814.0,0.0075790439479759275
3813.0,0.007711646202907652
3812.0,0.007711646202907652
3811.0,0.007534852191956709
3810.0,0.007313960837872058
3809.0,0.007269796045857202
3808.0,0.007358130121602358
3807.0,0.007358130121602358
3806.0,0.007137328610972382
3805.0,0.006916639301937977
3804.0,0.007004901568658406
3803.0,0.007269796045857202
3802.0,0.007534852191956709
3801.0,0.007402303897961815
3800.0,0.007181479933320523
3799.0,0.007269796045857202
3798.0,0.0075790439479759275
3797.0,0.007755855953228474
3796.0,0.007667440952535687
3795.0,0.007534852191956709
3794.0,0.007534852191956709
3793.0,0.007667440952535687
3792.0,0.007711646202907652
3791.0,0.007711646202907652
3790.0,0.007667440952535687
3789.0,0.0075790439479759275
3788.0,0.007534852191956709
3787.0,0.007490664932224611
3786.0,0.007490664932224611
3785.0,0.0074464821678643656
3784.0,0.007313960837872058
3783.0,0.007225635744644521
3782.0,0.007225635744644521
3781.0,0.007358130121602358
3780.0,0.007534852191956709
3779.0,0.00762324020119709
3778.0,0.00762324020119709
3777.0,0.007667440952535687
3776.0,0.007755855953228474
3775.0,0.007800070204414977
3774.0,0.007711646202907652
3773.0,0.00762324020119709
3772.0,0.007667440952535687
3771.0,0.007711646202907652
3770.0,0.007711646202907652
3769.0,0.0075790439479759275
3768.0,0.0075790439479759275
3767.0,0.007667440952535687
3766.0,0.007711646202907652
3765.0,0.00762324020119709
3764.0,0.0074464821678643656
3763.0,0.007313960837872058
3762.0,0.007269796045857202
3761.0,0.007269796045857202
3760.0,0.007225635744644521
3759.0,0.007181479933320523
3758.0,0.007137328610972382
3757.0,0.007093181776687496
3756.0,0.007049039429553483
3755.0,0.007004901568658406
3754.0,0.006828394969235152
3753.0,0.006651960076740071
3752.0,0.006607862550997545
3751.0,0.006740168563263094
3750.0,0.006828394969235152
3749.0,0.006784279525863024
3748.0,0.006740168563263094
3747.0,0.006872514894289861
3746.0,0.007049039429553483
3745.0,0.007269796045857202
3744.0,0.007181479933320523
3743.0,0.007004901568658406
3742.0,0.007137328610972382
3741.0,0.007402303897961815
3740.0,0.007269796045857202
3739.0,0.007004901568658406
3738.0,0.00696076819309055
3737.0,0.007225635744644521
3736.0,0.007534852191956709
3735.0,0.007534852191956709
3734.0,0.007490664932224611
3733.0,0.0075790439479759275
3732.0,0.007755855953228474
3731.0,0.007932739972333236
3730.0,0.008065450281052211
3729.0,0.008198201155356077
3728.0,0.008286724286910463
3727.0,0.008198201155356077
3726.0,0.007932739972333236
3725.0,0.007667440952535687
3724.0,0.007534852191956709
3723.0,0.0075790439479759275
3722.0,0.00762324020119709
3721.0,0.00762324020119709
3720.0,0.00762324020119709
3719.0,0.007667440952535687
3718.0,0.00762324020119709
3717.0,0.0075790439479759275
3716.0,0.0074464821678643656
3715.0,0.007358130121602358
3714.0,0.007313960837872058
3713.0,0.007358130121602358
3712.0,0.007490664932224611
3711.0,0.00762324020119709
3710.0,0.00762324020119709
3709.0,0.007711646202907652
3708.0,0.007888512213050314
3707.0,0.007976972236149349
3706.0,0.007976972236149349
3705.0,0.007932739972333236
3704.0,0.007888512213050314
3703.0,0.007932739972333236
3702.0,0.008021209005416363
3701.0,0.008065450281052211
3700.0,0.008021209005416363
3699.0,0.008065450281052211
3698.0,0.008065450281052211
3697.0,0.008021209005416363
3696.0,0.007888512213050314
3695.0,0.007711646202907652
3694.0,0.0075790439479759275
3693.0,0.007402303897961815
3692.0,0.007225635744644521
3691.0,0.007181479933320523
3690.0,0.007358130121602358
3689.0,0.007534852191956709
3688.0,0.007667440952535687
3687.0,0.007844288957383316
3686.0,0.008198201155356077
3685.0,0.008419542825660153
3684.0,0.008463824699968647
3683.0,0.008330992620051436
3682.0,0.008153946355103248
3681.0,0.007932739972333236
3680.0,0.007667440952535687
3679.0,0.007358130121602358
3678.0,0.007181479933320523
3677.0,0.0074464821678643656
3676.0,0.007800070204414977
3675.0,0.007711646202907652
3674.0,0.007402303897961815
3673.0,0.007534852191956709
3672.0,0.007932739972333236
3671.0,0.008330992620051436
3670.0,0.00850811108984062
3669.0,0.008375265465994541
3668.0,0.008286724286910463
3667.0,0.008419542825660153
3666.0,0.008640997362049818
3665.0,0.0087296108049002
3664.0,0.0087296108049002
3663.0,0.008773924307505121
3662.0,0.008773924307505121
3661.0,0.008685301823389224
3660.0,0.008552401996197112
3659.0,0.008463824699968647
3658.0,0.00850811108984062
3657.0,0.008640997362049818
3656.0,0.008640997362049818
3655.0,0.008419542825660153
3654.0,0.008198201155356077
3653.0,0.008065450281052211
3652.0,0.008021209005416363
3651.0,0.008065450281052211
3650.0,0.008242460465651913
3649.0,0.008242460465651913
3648.0,0.008153946355103248
3647.0,0.008153946355103248
3646.0,0.008375265465994541
3645.0,0.008685301823389224
3644.0,0.008951223547323472
3643.0,0.00908424549391551
3642.0,0.009128595198514056
3641.0,0.009172949432521227
3640.0,0.009172949432521227
3639.0,0.009172949432521227
3638.0,0.009128595198514056
3637.0,0.009039900317800775
3636.0,0.008995559669244813
3635.0,0.008995559669244813
3634.0,0.008906891951112605
3633.0,0.0087296108049002
3632.0,0.008596697419959609
3631.0,0.008685301823389224
3630.0,0.008995559669244813
3629.0,0.009350411681145587
3628.0,0.009350411681145587
3627.0,0.009306039320248427
3626.0,0.009527946474380489
3625.0,0.009705553871561357
3624.0,0.00966114521239847
3623.0,0.009439170005980158
3622.0,0.009172949432521227
3621.0,0.008951223547323472
3620.0,0.008773924307505121
3619.0,0.008596697419959609
3618.0,0.00850811108984062
3617.0,0.00850811108984062
3616.0,0.008596697419959609
3615.0,0.008685301823389224
3614.0,0.0087296108049002
3613.0,0.0087296108049002
3612.0,0.0087296108049002
3611.0,0.008818242332126802
3610.0,0.008995559669244813
3609.0,0.009217308196862062
3608.0,0.00939478857608056
3607.0,0.009439170005980158
3606.0,0.009439170005980158
3605.0,0.009439170005980158
3604.0,0.009439170005980158
3603.0,0.00939478857608056
3602.0,0.009350411681145587
3601.0,0.009350411681145587
3600.0,0.009306039320248427
3599.0,0.009261671492462709
3598.0,0.009217308196862062
3597.0,0.009172949432521227
3596.0,0.009128595198514056
3595.0,0.009128595198514056
3594.0,0.009128595198514056
3593.0,0.009128595198514056
3592.0,0.009172949432521227
3591.0,0.009128595198514056
3590.0,0.00908424549391551
3589.0,0.00908424549391551
3588.0,0.009172949432521227
3587.0,0.009217308196862062
3586.0,0.009306039320248427
3585.0,0.00939478857608056
3584.0,0.009483555971770974
3583.0,0.009527946474380489
3582.0,0.009483555971770974
3581.0,0.009439170005980158
3580.0,0.009439170005980158
3579.0,0.009483555971770974
3578.0,0.009527946474380489
3577.0,0.009572341514736404
3576.0,0.00966114521239847
3575.0,0.009705553871561357
3574.0,0.00974996707218323
3573.0,0.009705553871561357
3572.0,0.009572341514736404
3571.0,0.009439170005980158
3570.0,0.009350411681145587
3569.0,0.009350411681145587
3568.0,0.009483555971770974
3567.0,0.009572341514736404
3566.0,0.009616741093766423
3565.0,0.00966114521239847
3564.0,0.009794384815193347
3563.0,0.009927665307847056
3562.0,0.01001654169860089
3561.0,0.010060986715464404
3560.0,0.010105436281226954
3559.0,0.010105436281226954
3558.0,0.010149890396819572
3557.0,0.010194349063173958
3556.0,0.010194349063173958
3555.0,0.01023881228122181
3554.0,0.010327752376126709
3553.0,0.01046119667949763
3552.0,0.010550182333308289
3551.0,0.010550182333308289
3550.0,0.010550182333308289
3549.0,0.010505687227290839
3548.0,0.01046119667949763
3547.0,0.01037222925484893
3546.0,0.010283280051895272
3545.0,0.010194349063173958
3544.0,0.010194349063173958
3543.0,0.01023881228122181
3542.0,0.010327752376126709
3541.0,0.01037222925484893
3540.0,0.01046119667949763
3539.0,0.010505687227290839
3538.0,0.010550182333308289
3537.0,0.010505687227290839
3536.0,0.010416710688994968
3535.0,0.010327752376126709
3534.0,0.010283280051895272
3533.0,0.010283280051895272
3532.0,0.010283280051895272
3531.0,0.01023881228122181
3530.0,0.010194349063173958
3529.0,0.010149890396819572
3528.0,0.010105436281226954
3527.0,0.010149890396819572
3526.0,0.01023881228122181
3525.0,0.010327752376126709
3524.0,0.01037222925484893
3523.0,0.010327752376126709
3522.0,0.01023881228122181
3521.0,0.01023881228122181
3520.0,0.010327752376126709
3519.0,0.010416710688994968
3518.0,0.010505687227290839
3517.0,0.010505687227290839
3516.0,0.010505687227290839
3515.0,0.010416710688994968
3514.0,0.010327752376126709
3513.0,0.010194349063173958
3512.0,0.010105436281226954
3511.0,0.010105436281226954
3510.0,0.010194349063173958
3509.0,0.01023881228122181
3508.0,0.010283280051895272
3507.0,0.01023881228122181
3506.0,0.010194349063173958
3505.0,0.010194349063173958
3504.0,0.010194349063173958
3503.0,0.010149890396819572
3502.0,0.01001654169860089
3501.0,0.009972101229705377
3500.0,0.01001654169860089
3499.0,0.010149890396819572
3498.0,0.01023881228122181
3497.0,0.01023881228122181
3496.0,0.010194349063173958
3495.0,0.010105436281226954
3494.0,0.010060986715464404
3493.0,0.010105436281226954
3492.0,0.010149890396819572
3491.0,0.010194349063173958
3490.0,0.010194349063173958
3489.0,0.010149890396819572
3488.0,0.010149890396819572
3487.0,0.010149890396819572
3486.0,0.010194349063173958
3485.0,0.01023881228122181
3484.0,0.010327752376126709
3483.0,0.01037222925484893
3482.0,0.01037222925484893
3481.0,0.010327752376126709
3480.0,0.01023881228122181
3479.0,0.01023881228122181
3478.0,0.01023881228122181
3477.0,0.010283280051895272
3476.0,0.010327752376126709
3475.0,0.01037222925484893
3474.0,0.01037222925484893
3473.0,0.01037222925484893
3472.0,0.010327752376126709
3471.0,0.010283280051895272
3470.0,0.010283280051895272
3469.0,0.01023881228122181
3468.0,0.010283280051895272
3467.0,0.010283280051895272
3466.0,0.010327752376126709
3465.0,0.01037222925484893
3464.0,0.010416710688994968
3463.0,0.01046119667949763
3462.0,0.010505687227290839
3461.0,0.010594681998483901
3460.0,0.010639186223752484
3459.0,0.010683695010048622
3458.0,0.01077272626946324
3457.0,0.010817248744452446
3456.0,0.01086177578421088
3455.0,0.010950843561779777
3454.0,0.011039929609661936
3453.0,0.011084479487313281
3452.0,0.011084479487313281
3451.0,0.010995384301463185
3450.0,0.010950843561779777
3449.0,0.010950843561779777
3448.0,0.011039929609661936
3447.0,0.011129033935354915
3446.0,0.01117359295472431
3445.0,0.01117359295472431
3444.0,0.011218156546359825
3443.0,0.011307297450183107
3442.0,0.011441043121384498
3441.0,0.011574829993696856
3440.0,0.011708658092512314
3439.0,0.011797899741219142
3438.0,0.011842527443247208
3437.0,0.011842527443247208
3436.0,0.011842527443247208
3435.0,0.011887159731648111
3434.0,0.0119764380713403
3433.0,0.012110390002254778
3432.0,0.01215504982870197
3431.0,0.012199714248127602
3430.0,0.01215504982870197
3429.0,0.012110390002254778
3428.0,0.012110390002254778
3427.0,0.012065734767841452
3426.0,0.012065734767841452
3425.0,0.012021084124518078
3424.0,0.011887159731648111
3423.0,0.011753276624621556
3422.0,0.011664044143949504
3421.0,0.011664044143949504
3420.0,0.011619434777991433
3419.0,0.011619434777991433
3418.0,0.011574829993696856
3417.0,0.011485634166333858
3416.0,0.011441043121384498
3415.0,0.011351874764248926
3414.0,0.011262724711199823
3413.0,0.011218156546359825
3412.0,0.01117359295472431
3411.0,0.011218156546359825
3410.0,0.011218156546359825
3409.0,0.01117359295472431
3408.0,0.011039929609661936
3407.0,0.010906307389674463
3406.0,0.010817248744452446
3405.0,0.010817248744452446
3404.0,0.01086177578421088
3403.0,0.010906307389674463
3402.0,0.01086177578421088
3401.0,0.01086177578421088
3400.0,0.010817248744452446
3399.0,0.010817248744452446
3398.0,0.01077272626946324
3397.0,0.010683695010048622
3396.0,0.010594681998483901
3395.0,0.010550182333308289
3394.0,0.010505687227290839
3393.0,0.010416710688994968
3392.0,0.010283280051895272
3391.0,0.010194349063173958
3390.0,0.010149890396819572
3389.0,0.010194349063173958
3388.0,0.010327752376126709
3387.0,0.01046119667949763
3386.0,0.010639186223752484
3385.0,0.010683695010048622
3384.0,0.010683695010048622
3383.0,0.010639186223752484
3382.0,0.010550182333308289
3381.0,0.01046119667949763
3380.0,0.01037222925484893
3379.0,0.01037222925484893
3378.0,0.010327752376126709
3377.0,0.01037222925484893
3376.0,0.01037222925484893
3375.0,0.010416710688994968
3374.0,0.01046119667949763
3373.0,0.010550182333308289
3372.0,0.010505687227290839
3371.0,0.010416710688994968
3370.0,0.01023881228122181
3369.0,0.010060986715464404
3368.0,0.01001654169860089
3367.0,0.010060986715464404
3366.0,0.010149890396819572
3365.0,0.010149890396819572
3364.0,0.010194349063173958
3363.0,0.010194349063173958
3362.0,0.010194349063173958
3361.0,0.01023881228122181
3360.0,0.010327752376126709
3359.0,0.01037222925484893
3358.0,0.010416710688994968
3357.0,0.010416710688994968
3356.0,0.01046119667949763
3355.0,0.010550182333308289
3354.0,0.010594681998483901
3353.0,0.010594681998483901
3352.0,0.01046119667949763
3351.0,0.01037222925484893
3350.0,0.01037222925484893
3349.0,0.010416710688994968
3348.0,0.010505687227290839
3347.0,0.010505687227290839
3346.0,0.01046119667949763
3345.0,0.01037222925484893
3344.0,0.010283280051895272
3343.0,0.010327752376126709
3342.0,0.01037222925484893
3341.0,0.01046119667949763
3340.0,0.010550182333308289
3339.0,0.010594681998483901
3338.0,0.010639186223752484
3337.0,0.010639186223752484
3336.0,0.010594681998483901
3335.0,0.01046119667949763
3334.0,0.01037222925484893
3333.0,0.010327752376126709
3332.0,0.01037222925484893
3331.0,0.01046119667949763
3330.0,0.010505687227290839
3329.0,0.01046119667949763
3328.0,0.010416710688994968
3327.0,0.01037222925484893
3326.0,0.010416710688994968
3325.0,0.010505687227290839
3324.0,0.010594681998483901
3323.0,0.010594681998483901
3322.0,0.010550182333308289
3321.0,0.010505687227290839
3320.0,0.010416710688994968
3319.0,0.010327752376126709
3318.0,0.010283280051895272
3317.0,0.010283280051895272
3316.0,0.010327752376126709
3315.0,0.010416710688994968
3314.0,0.01046119667949763
3313.0,0.01046119667949763
3312.0,0.010416710688994968
3311.0,0.010327752376126709
3310.0,0.01023881228122181
3309.0,0.010149890396819572
3308.0,0.010105436281226954
3307.0,0.010060986715464404
3306.0,0.010060986715464404
3305.0,0.010060986715464404
3304.0,0.010149890396819572
3303.0,0.010194349063173958
3302.0,0.010283280051895272
3301.0,0.010327752376126709
3300.0,0.010327752376126709
3299.0,0.010283280051895272
3298.0,0.01023881228122181
3297.0,0.01023881228122181
3296.0,0.01023881228122181
3295.0,0.01023881228122181
3294.0,0.010194349063173958
3293.0,0.010194349063173958
3292.0,0.010149890396819572
3291.0,0.010105436281226954
3290.0,0.010105436281226954
3289.0,0.010060986715464404
3288.0,0.010060986715464404
3287.0,0.010105436281226954
3286.0,0.010283280051895272
3285.0,0.01046119667949763
3284.0,0.010550182333308289
3283.0,0.010550182333308289
3282.0,0.010505687227290839
3281.0,0.01046119667949763
3280.0,0.010416710688994968
3279.0,0.010416710688994968
3278.0,0.010327752376126709
3277.0,0.01023881228122181
3276.0,0.010149890396819572
3275.0,0.010060986715464404
3274.0,0.010060986715464404
3273.0,0.010060986715464404
3272.0,0.010149890396819572
3271.0,0.010283280051895272
3270.0,0.010327752376126709
3269.0,0.010283280051895272
3268.0,0.01023881228122181
3267.0,0.010149890396819572
3266.0,0.010105436281226954
3265.0,0.010060986715464404
3264.0,0.01001654169860089
3263.0,0.009927665307847056
3262.0,0.009838807101520963
3261.0,0.009883233932095559
3260.0,0.01001654169860089
3259.0,0.010194349063173958
3258.0,0.010327752376126709
3257.0,0.01037222925484893
3256.0,0.010327752376126709
3255.0,0.010327752376126709
3254.0,0.01023881228122181
3253.0,0.010105436281226954
3252.0,0.009972101229705377
3251.0,0.009794384815193347
3250.0,0.00974996707218323
3249.0,0.00974996707218323
3248.0,0.009838807101520963
3247.0,0.009883233932095559
3246.0,0.009883233932095559
3245.0,0.009838807101520963
3244.0,0.009794384815193347
3243.0,0.009794384815193347
3242.0,0.009883233932095559
3241.0,0.009972101229705377
3240.0,0.01001654169860089
3239.0,0.010105436281226954
3238.0,0.010105436281226954
3237.0,0.010060986715464404
3236.0,0.010060986715464404
3235.0,0.010105436281226954
3234.0,0.010194349063173958
3233.0,0.010283280051895272
3232.0,0.010283280051895272
3231.0,0.01023881228122181
3230.0,0.010149890396819572
3229.0,0.010149890396819572
3228.0,0.010194349063173958
3227.0,0.01023881228122181
3226.0,0.010149890396819572
3225.0,0.01001654169860089
3224.0,0.009927665307847056
3223.0,0.009838807101520963
3222.0,0.009794384815193347
3221.0,0.00966114521239847
3220.0,0.009527946474380489
3219.0,0.009439170005980158
3218.0,0.009527946474380489
3217.0,0.009705553871561357
3216.0,0.009927665307847056
3215.0,0.010060986715464404
3214.0,0.010105436281226954
3213.0,0.010060986715464404
3212.0,0.01001654169860089
3211.0,0.009927665307847056
3210.0,0.009838807101520963
3209.0,0.00974996707218323
3208.0,0.009705553871561357
3207.0,0.009705553871561357
3206.0,0.00974996707218323
3205.0,0.009838807101520963
3204.0,0.009972101229705377
3203.0,0.010060986715464404
3202.0,0.010105436281226954
3201.0,0.010105436281226954
3200.0,0.010060986715464404
3199.0,0.009883233932095559
3198.0,0.009705553871561357
3197.0,0.009572341514736404
3196.0,0.009483555971770974
3195.0,0.009439170005980158
3194.0,0.009483555971770974
3193.0,0.009483555971770974
3192.0,0.009527946474380489
3191.0,0.009616741093766423
3190.0,0.009705553871561357
3189.0,0.009794384815193347
3188.0,0.009794384815193347
3187.0,0.009705553871561357
3186.0,0.00966114521239847
3185.0,0.009616741093766423
3184.0,0.009572341514736404
3183.0,0.009527946474380489
3182.0,0.009527946474380489
3181.0,0.009572341514736404
3180.0,0.009616741093766423
3179.0,0.009616741093766423
3178.0,0.009527946474380489
3177.0,0.00939478857608056
3176.0,0.009306039320248427
3175.0,0.009261671492462709
3174.0,0.009306039320248427
3173.0,0.00939478857608056
3172.0,0.009527946474380489
3171.0,0.009705553871561357
3170.0,0.009794384815193347
3169.0,0.009883233932095559
3168.0,0.009838807101520963
3167.0,0.009705553871561357
3166.0,0.009572341514736404
3165.0,0.009572341514736404
3164.0,0.009616741093766423
3163.0,0.009794384815193347
3162.0,0.009883233932095559
3161.0,0.009927665307847056
3160.0,0.009883233932095559
3159.0,0.009794384815193347
3158.0,0.009705553871561357
3157.0,0.009705553871561357
3156.0,0.00974996707218323
3155.0,0.009838807101520963
3154.0,0.009883233932095559
3153.0,0.009927665307847056
3152.0,0.009927665307847056
3151.0,0.009927665307847056
3150.0,0.009883233932095559
3149.0,0.009794384815193347
3148.0,0.00966114521239847
3147.0,0.009616741093766423
3146.0,0.009616741093766423
3145.0,0.009705553871561357
3144.0,0.00974996707218323
3143.0,0.00974996707218323
3142.0,0.009794384815193347
3141.0,0.009838807101520963
3140.0,0.009927665307847056
3139.0,0.009972101229705377
3138.0,0.009927665307847056
3137.0,0.009883233932095559
3136.0,0.009794384815193347
3135.0,0.00974996707218323
3134.0,0.009794384815193347
3133.0,0.009838807101520963
3132.0,0.009927665307847056
3131.0,0.009972101229705377
3130.0,0.01001654169860089
3129.0,0.01001654169860089
3128.0,0.01001654169860089
3127.0,0.01001654169860089
3126.0,0.01001654169860089
3125.0,0.009972101229705377
3124.0,0.009972101229705377
3123.0,0.009972101229705377
3122.0,0.01001654169860089
3121.0,0.010105436281226954
3120.0,0.010194349063173958
3119.0,0.010194349063173958
3118.0,0.01023881228122181
3117.0,0.010283280051895272
3116.0,0.01037222925484893
3115.0,0.010416710688994968
3114.0,0.010416710688994968
3113.0,0.010416710688994968
3112.0,0.01037222925484893
3111.0,0.01046119667949763
3110.0,0.010550182333308289
3109.0,0.010639186223752484
3108.0,0.01077272626946324
3107.0,0.01086177578421088
3106.0,0.010906307389674463
3105.0,0.010950843561779777
3104.0,0.010950843561779777
3103.0,0.010906307389674463
3102.0,0.010817248744452446
3101.0,0.010728208358306901
3100.0,0.010728208358306901
3099.0,0.01077272626946324
3098.0,0.01077272626946324
3097.0,0.01077272626946324
3096.0,0.010728208358306901
3095.0,0.010639186223752484
3094.0,0.010594681998483901
3093.0,0.010594681998483901
3092.0,0.010594681998483901
3091.0,0.010594681998483901
3090.0,0.010639186223752484
3089.0,0.010683695010048622
3088.0,0.010728208358306901
3087.0,0.010817248744452446
3086.0,0.010906307389674463
3085.0,0.010995384301463185
3084.0,0.011039929609661936
3083.0,0.011084479487313281
3082.0,0.011084479487313281
3081.0,0.011084479487313281
3080.0,0.011129033935354915
3079.0,0.011129033935354915
3078.0,0.01117359295472431
3077.0,0.011218156546359825
3076.0,0.011262724711199823
3075.0,0.011307297450183107
3074.0,0.011307297450183107
3073.0,0.011351874764248926
3072.0,0.011396456654336085
3071.0,0.011396456654336085
3070.0,0.011441043121384498
3069.0,0.011441043121384498
3068.0,0.011485634166333858
3067.0,0.011485634166333858
3066.0,0.011485634166333858
3065.0,0.011530229790124524
3064.0,0.011574829993696856
3063.0,0.011530229790124524
3062.0,0.011396456654336085
3061.0,0.011262724711199823
3060.0,0.011262724711199823
3059.0,0.011351874764248926
3058.0,0.011441043121384498
3057.0,0.011530229790124524
3056.0,0.011574829993696856
3055.0,0.011574829993696856
3054.0,0.011574829993696856
3053.0,0.011619434777991433
3052.0,0.011619434777991433
3051.0,0.011574829993696856
3050.0,0.011396456654336085
3049.0,0.011218156546359825
3048.0,0.011039929609661936
3047.0,0.010906307389674463
3046.0,0.010817248744452446
3045.0,0.010728208358306901
3044.0,0.010639186223752484
3043.0,0.010505687227290839
3042.0,0.010416710688994968
3041.0,0.01037222925484893
3040.0,0.010327752376126709
3039.0,0.01037222925484893
3038.0,0.01037222925484893
3037.0,0.01046119667949763
3036.0,0.010505687227290839
3035.0,0.010505687227290839
3034.0,0.01046119667949763
3033.0,0.010327752376126709
3032.0,0.010194349063173958
3031.0,0.010149890396819572
3030.0,0.010149890396819572
3029.0,0.01023881228122181
3028.0,0.010283280051895272
3027.0,0.010327752376126709
3026.0,0.010327752376126709
3025.0,0.010327752376126709
3024.0,0.01037222925484893
3023.0,0.010416710688994968
3022.0,0.01046119667949763
3021.0,0.010550182333308289
3020.0,0.010594681998483901
3019.0,0.010683695010048622
3018.0,0.010728208358306901
3017.0,0.010817248744452446
3016.0,0.01086177578421088
3015.0,0.01086177578421088
3014.0,0.010906307389674463
3013.0,0.010995384301463185
3012.0,0.011129033935354915
3011.0,0.011262724711199823
3010.0,0.011351874764248926
3009.0,0.011441043121384498
3008.0,0.011485634166333858
3007.0,0.011530229790124524
3006.0,0.011574829993696856
3005.0,0.011619434777991433
3004.0,0.011753276624621556
3003.0,0.011887159731648111
3002.0,0.011931796607364653
3001.0,0.0119764380713403
3000.0,0.012021084124518078
2999.0,0.012110390002254778
2998.0,0.012244383261476699
2997.0,0.012423105273012602
2996.0,0.012512493866907004
2995.0,0.01260190086298274
2994.0,0.012691326268817527
2993.0,0.012825498912458322
2992.0,0.013004460275618523
2991.0,0.013273040668781544
2990.0,0.013452186585275916
2989.0,0.013631406429727155
2988.0,0.013676222949234651
2987.0,0.013676222949234651
2986.0,0.01372104409400876
2985.0,0.01385553528947936
2984.0,0.01403492169512921
2983.0,0.014214382227394795
2982.0,0.014438812226654996
2981.0,0.014618439768003144
2980.0,0.014843078722943437
2979.0,0.015067833932588037
2978.0,0.015337693809893471
2977.0,0.015562705203923999
2976.0,0.01578783323856614
2975.0,0.016058141016111804
2974.0,0.01628352608625061
2973.0,0.016554142658660398
2972.0,0.016824927962187042
2971.0,0.017050711425501408
2970.0,0.01727661233145472
2969.0,0.017502630802287644
2968.0,0.01781925440359733
2967.0,0.018226681372252695
2966.0,0.018634490921455527
2965.0,0.01899731005860028
2964.0,0.019360432556262852
2963.0,0.019678413991243593
2962.0,0.01995115493504329
2961.0,0.02013307743509718
2960.0,0.020178569969774962
2959.0,0.020178569969774962
2958.0,0.02013307743509718
2957.0,0.02013307743509718
2956.0,0.020087589665283012
2955.0,0.02004210665933459
2954.0,0.01990568621470623
2953.0,0.019769308608968306
2952.0,0.01958753839310856
2951.0,0.019360432556262852
2950.0,0.019042683770379876
2949.0,0.018679826740892747
2948.0,0.018362575344230914
2947.0,0.01800028587012159
2946.0,0.01759307113620534
2945.0,0.017186237868137555
2944.0,0.01677978535189717
2943.0,0.016418813294209356
2942.0,0.016058141016111804
2941.0,0.015742798294583915
2940.0,0.015427684378367834
2939.0,0.015157768594724175
2938.0,0.014888020460646079
2937.0,0.014708281407112
2936.0,0.014573525916998342
2935.0,0.014393916947563534
2934.0,0.014214382227394795
2933.0,0.014079779876432497
2932.0,0.013990068146738865
2931.0,0.013900374944870508
2930.0,0.01385553528947936
2929.0,0.01381070026317599
2928.0,0.013765869865004277
2927.0,0.01372104409400876
2926.0,0.013676222949234651
2925.0,0.013586594534531482
2924.0,0.013452186585275916
2923.0,0.013317820220494436
2922.0,0.01322826573375524
2921.0,0.01318349541446362
2920.0,0.013138729709955221
2919.0,0.013138729709955221
2918.0,0.013138729709955221
2917.0,0.013138729709955221
2916.0,0.01322826573375524
2915.0,0.013317820220494436
2914.0,0.013407393177789162
2913.0,0.013407393177789162
2912.0,0.013407393177789162
2911.0,0.013407393177789162
2910.0,0.013407393177789162
2909.0,0.013452186585275916
2908.0,0.013452186585275916
2907.0,0.013407393177789162
2906.0,0.013407393177789162
2905.0,0.013452186585275916
2904.0,0.013496984613259544
2903.0,0.013496984613259544
2902.0,0.013496984613259544
2901.0,0.013496984613259544
2900.0,0.013496984613259544
2899.0,0.013586594534531482
2898.0,0.013676222949234651
2897.0,0.01372104409400876
2896.0,0.01372104409400876
2895.0,0.01372104409400876
2894.0,0.013765869865004277
2893.0,0.01385553528947936
2892.0,0.013945219230304673
2891.0,0.013945219230304673
2890.0,0.013945219230304673
2889.0,0.013945219230304673
2888.0,0.013945219230304673
2887.0,0.013990068146738865
2886.0,0.014079779876432497
2885.0,0.014124642691606404
2884.0,0.014124642691606404
2883.0,0.01403492169512921
2882.0,0.01385553528947936
2881.0,0.01372104409400876
2880.0,0.013631406429727155
2879.0,0.013541787262693505
2878.0,0.013496984613259544
2877.0,0.013407393177789162
2876.0,0.013362604389846044
2875.0,0.013317820220494436
2874.0,0.013317820220494436
2873.0,0.013317820220494436
2872.0,0.01322826573375524
2871.0,0.013138729709955221
2870.0,0.013049212141483357
2869.0,0.012959713020733288
2868.0,0.012959713020733288
2867.0,0.012959713020733288
2866.0,0.013004460275618523
2865.0,0.013004460275618523
2864.0,0.013004460275618523
2863.0,0.012959713020733288
2862.0,0.012870232340102872
2861.0,0.012870232340102872
2860.0,0.012870232340102872
2859.0,0.012870232340102872
2858.0,0.012870232340102872
2857.0,0.012914970375878188
2856.0,0.012959713020733288
2855.0,0.012959713020733288
2854.0,0.012914970375878188
2853.0,0.012825498912458322
2852.0,0.012691326268817527
2851.0,0.012512493866907004
2850.0,0.012378417874516323
2849.0,0.012244383261476699
2848.0,0.01215504982870197
2847.0,0.012065734767841452
2846.0,0.012021084124518078
2845.0,0.0119764380713403
2844.0,0.011931796607364653
2843.0,0.011842527443247208
2842.0,0.011753276624621556
2841.0,0.011708658092512314
2840.0,0.011574829993696856
2839.0,0.011530229790124524
2838.0,0.011485634166333858
2837.0,0.011485634166333858
2836.0,0.011441043121384498
2835.0,0.011396456654336085
2834.0,0.011351874764248926
2833.0,0.011262724711199823
2832.0,0.011262724711199823
2831.0,0.011262724711199823
2830.0,0.011218156546359825
2829.0,0.01117359295472431
2828.0,0.011084479487313281
2827.0,0.011039929609661936
2826.0,0.011039929609661936
2825.0,0.011039929609661936
2824.0,0.011039929609661936
2823.0,0.010995384301463185
2822.0,0.010950843561779777
2821.0,0.010950843561779777
2820.0,0.010906307389674463
2819.0,0.010906307389674463
2818.0,0.010906307389674463
2817.0,0.010906307389674463
2816.0,0.010906307389674463
2815.0,0.010906307389674463
2814.0,0.010906307389674463
2813.0,0.010906307389674463
2812.0,0.010950843561779777
2811.0,0.010950843561779777
2810.0,0.010950843561779777
2809.0,0.010950843561779777
2808.0,0.010950843561779777
2807.0,0.010950843561779777
2806.0,0.010950843561779777
2805.0,0.010995384301463185
2804.0,0.010995384301463185
2803.0,0.010950843561779777
2802.0,0.01086177578421088
2801.0,0.010728208358306901
2800.0,0.010639186223752484
2799.0,0.010594681998483901
2798.0,0.010594681998483901
2797.0,0.010550182333308289
2796.0,0.010505687227290839
2795.0,0.010550182333308289
2794.0,0.010594681998483901
2793.0,0.010683695010048622
2792.0,0.010728208358306901
2791.0,0.010728208358306901
2790.0,0.01077272626946324
2789.0,0.010728208358306901
2788.0,0.010639186223752484
2787.0,0.010550182333308289
2786.0,0.010550182333308289
2785.0,0.010550182333308289
2784.0,0.010594681998483901
2783.0,0.010594681998483901
2782.0,0.010505687227290839
2781.0,0.010416710688994968
2780.0,0.01037222925484893
2779.0,0.010327752376126709
2778.0,0.010327752376126709
2777.0,0.01037222925484893
2776.0,0.01046119667949763
2775.0,0.010550182333308289
2774.0,0.010594681998483901
2773.0,0.010639186223752484
2772.0,0.010594681998483901
2771.0,0.010550182333308289
2770.0,0.01046119667949763
2769.0,0.01037222925484893
2768.0,0.01037222925484893
2767.0,0.010416710688994968
2766.0,0.010416710688994968
2765.0,0.010416710688994968
2764.0,0.01037222925484893
2763.0,0.01037222925484893
2762.0,0.010416710688994968
2761.0,0.01046119667949763
2760.0,0.01046119667949763
2759.0,0.01046119667949763
2758.0,0.010416710688994968
2757.0,0.010327752376126709
2756.0,0.010283280051895272
2755.0,0.01023881228122181
2754.0,0.010283280051895272
2753.0,0.010283280051895272
2752.0,0.010283280051895272
2751.0,0.01023881228122181
2750.0,0.010149890396819572
2749.0,0.010105436281226954
2748.0,0.010105436281226954
2747.0,0.010105436281226954
2746.0,0.010149890396819572
2745.0,0.010149890396819572
2744.0,0.010194349063173958
2743.0,0.010194349063173958
2742.0,0.010194349063173958
2741.0,0.01023881228122181
2740.0,0.01023881228122181
2739.0,0.01023881228122181
2738.0,0.010194349063173958
2737.0,0.010149890396819572
2736.0,0.010149890396819572
2735.0,0.010105436281226954
2734.0,0.010105436281226954
2733.0,0.010060986715464404
2732.0,0.010060986715464404
2731.0,0.010060986715464404
2730.0,0.010060986715464404
2729.0,0.010060986715464404
2728.0,0.01001654169860089
2727.0,0.01001654169860089
2726.0,0.01001654169860089
2725.0,0.01001654169860089
2724.0,0.01001654169860089
2723.0,0.01001654169860089
2722.0,0.01001654169860089
2721.0,0.009972101229705377
2720.0,0.009972101229705377
2719.0,0.009927665307847056
2718.0,0.009838807101520963
2717.0,0.009794384815193347
2716.0,0.009794384815193347
2715.0,0.009838807101520963
2714.0,0.009883233932095559
2713.0,0.009883233932095559
2712.0,0.009883233932095559
2711.0,0.009927665307847056
2710.0,0.009972101229705377
2709.0,0.009972101229705377
2708.0,0.009972101229705377
2707.0,0.009927665307847056
2706.0,0.009883233932095559
2705.0,0.009927665307847056
2704.0,0.009927665307847056
2703.0,0.009927665307847056
2702.0,0.009883233932095559
2701.0,0.009838807101520963
2700.0,0.00974996707218323
2699.0,0.009705553871561357
2698.0,0.009705553871561357
2697.0,0.009705553871561357
2696.0,0.00974996707218323
2695.0,0.009838807101520963
2694.0,0.009883233932095559
2693.0,0.009927665307847056
2692.0,0.009883233932095559
2691.0,0.009794384815193347
2690.0,0.00974996707218323
2689.0,0.00966114521239847
2688.0,0.00966114521239847
2687.0,0.00966114521239847
2686.0,0.009705553871561357
2685.0,0.00974996707218323
2684.0,0.009794384815193347
2683.0,0.00974996707218323
2682.0,0.00966114521239847
2681.0,0.009572341514736404
2680.0,0.009572341514736404
2679.0,0.009572341514736404
2678.0,0.009572341514736404
2677.0,0.009616741093766423
2676.0,0.009616741093766423
2675.0,0.00966114521239847
2674.0,0.009705553871561357
2673.0,0.00966114521239847
2672.0,0.009616741093766423
2671.0,0.009572341514736404
2670.0,0.009527946474380489
2669.0,0.009527946474380489
2668.0,0.009527946474380489
2667.0,0.009527946474380489
2666.0,0.009483555971770974
2665.0,0.009483555971770974
2664.0,0.009483555971770974
2663.0,0.009483555971770974
2662.0,0.00939478857608056
2661.0,0.009350411681145587
2660.0,0.009306039320248427
2659.0,0.009306039320248427
2658.0,0.009306039320248427
2657.0,0.009350411681145587
2656.0,0.00939478857608056
2655.0,0.00939478857608056
2654.0,0.009439170005980158
2653.0,0.009439170005980158
2652.0,0.009483555971770974
2651.0,0.009439170005980158
2650.0,0.009439170005980158
2649.0,0.009439170005980158
2648.0,0.009527946474380489
2647.0,0.009572341514736404
2646.0,0.009616741093766423
2645.0,0.009616741093766423
2644.0,0.009616741093766423
2643.0,0.009572341514736404
2642.0,0.009572341514736404
2641.0,0.009572341514736404
2640.0,0.009572341514736404
2639.0,0.009572341514736404
2638.0,0.009616741093766423
2637.0,0.009616741093766423
2636.0,0.009616741093766423
2635.0,0.00966114521239847
2634.0,0.009705553871561357
2633.0,0.009705553871561357
2632.0,0.009705553871561357
2631.0,0.009705553871561357
2630.0,0.009705553871561357
2629.0,0.009705553871561357
2628.0,0.009705553871561357
2627.0,0.009616741093766423
2626.0,0.009527946474380489
2625.0,0.009483555971770974
2624.0,0.009439170005980158
2623.0,0.009483555971770974
2622.0,0.009572341514736404
2621.0,0.009572341514736404
2620.0,0.009572341514736404
2619.0,0.009572341514736404
2618.0,0.009527946474380489
2617.0,0.009483555971770974
2616.0,0.009483555971770974
2615.0,0.009483555971770974
2614.0,0.009483555971770974
2613.0,0.009527946474380489
2612.0,0.009572341514736404
2611.0,0.009572341514736404
2610.0,0.009527946474380489
2609.0,0.009439170005980158
2608.0,0.00939478857608056
2607.0,0.00939478857608056
2606.0,0.009439170005980158
2605.0,0.009439170005980158
2604.0,0.009483555971770974
2603.0,0.009439170005980158
2602.0,0.00939478857608056
2601.0,0.009350411681145587
2600.0,0.009350411681145587
2599.0,0.00939478857608056
2598.0,0.00939478857608056
2597.0,0.00939478857608056
2596.0,0.00939478857608056
2595.0,0.00939478857608056
2594.0,0.009439170005980158
2593.0,0.009439170005980158
2592.0,0.009483555971770974
2591.0,0.009527946474380489
2590.0,0.009572341514736404
2589.0,0.009572341514736404
2588.0,0.009572341514736404
2587.0,0.009572341514736404
2586.0,0.009616741093766423
2585.0,0.009616741093766423
2584.0,0.00966114521239847
2583.0,0.009705553871561357
2582.0,0.009705553871561357
2581.0,0.00966114521239847
2580.0,0.00966114521239847
2579.0,0.009616741093766423
2578.0,0.009616741093766423
2577.0,0.009616741093766423
2576.0,0.009572341514736404
2575.0,0.009483555971770974
2574.0,0.009439170005980158
2573.0,0.009439170005980158
2572.0,0.009439170005980158
2571.0,0.009483555971770974
2570.0,0.009483555971770974
2569.0,0.009527946474380489
2568.0,0.009572341514736404
2567.0,0.009572341514736404
2566.0,0.009616741093766423
2565.0,0.009572341514736404
2564.0,0.009483555971770974
2563.0,0.009439170005980158
2562.0,0.00939478857608056
2561.0,0.009439170005980158
2560.0,0.009483555971770974
2559.0,0.009527946474380489
2558.0,0.009572341514736404
2557.0,0.009572341514736404
2556.0,0.009616741093766423
2555.0,0.009616741093766423
2554.0,0.00966114521239847
2553.0,0.009616741093766423
2552.0,0.009572341514736404
2551.0,0.009527946474380489
2550.0,0.009439170005980158
2549.0,0.009350411681145587
2548.0,0.00939478857608056
2547.0,0.009439170005980158
2546.0,0.009572341514736404
2545.0,0.009616741093766423
2544.0,0.009572341514736404
2543.0,0.009527946474380489
2542.0,0.009439170005980158
2541.0,0.009439170005980158
2540.0,0.009439170005980158
2539.0,0.009483555971770974
2538.0,0.009527946474380489
2537.0,0.009616741093766423
2536.0,0.00966114521239847
2535.0,0.00974996707218323
2534.0,0.00974996707218323
2533.0,0.00966114521239847
2532.0,0.009572341514736404
2531.0,0.009527946474380489
2530.0,0.009483555971770974
2529.0,0.009439170005980158
2528.0,0.009439170005980158
2527.0,0.00939478857608056
2526.0,0.009350411681145587
2525.0,0.009306039320248427
2524.0,0.009306039320248427
2523.0,0.009306039320248427
2522.0,0.009306039320248427
2521.0,0.009306039320248427
2520.0,0.009306039320248427
2519.0,0.009306039320248427
2518.0,0.009306039320248427
2517.0,0.009261671492462709
2516.0,0.009261671492462709
2515.0,0.009261671492462709
2514.0,0.009350411681145587
2513.0,0.00939478857608056
2512.0,0.00939478857608056
2511.0,0.009350411681145587
2510.0,0.009306039320248427
2509.0,0.009306039320248427
2508.0,0.009306039320248427
2507.0,0.009306039320248427
2506.0,0.009306039320248427
2505.0,0.009261671492462709
2504.0,0.009261671492462709
2503.0,0.009261671492462709
2502.0,0.009217308196862062
2501.0,0.009172949432521227
2500.0,0.009172949432521227
2499.0,0.009172949432521227
2498.0,0.009217308196862062
2497.0,0.009261671492462709
2496.0,0.009306039320248427
2495.0,0.009261671492462709
2494.0,0.009172949432521227
2493.0,0.009128595198514056
2492.0,0.00908424549391551
2491.0,0.009128595198514056
2490.0,0.009172949432521227
2489.0,0.009217308196862062
2488.0,0.009172949432521227
2487.0,0.009128595198514056
2486.0,0.00908424549391551
2485.0,0.009039900317800775
2484.0,0.008995559669244813
2483.0,0.008951223547323472
2482.0,0.008906891951112605
2481.0,0.008906891951112605
2480.0,0.008906891951112605
2479.0,0.008951223547323472
2478.0,0.008906891951112605
2477.0,0.008862564879688284
2476.0,0.008773924307505121
2475.0,0.0087296108049002
2474.0,0.008640997362049818
2473.0,0.008596697419959609
2472.0,0.008640997362049818
2471.0,0.008640997362049818
2470.0,0.008596697419959609
2469.0,0.00850811108984062
2468.0,0.008419542825660153
2467.0,0.008419542825660153
2466.0,0.008463824699968647
2465.0,0.00850811108984062
2464.0,0.008552401996197112
2463.0,0.00850811108984062
2462.0,0.008463824699968647
2461.0,0.008463824699968647
2460.0,0.008463824699968647
2459.0,0.00850811108984062
2458.0,0.008596697419959609
2457.0,0.008640997362049818
2456.0,0.008640997362049818
2455.0,0.008640997362049818
2454.0,0.008596697419959609
2453.0,0.008596697419959609
2452.0,0.008596697419959609
2451.0,0.008640997362049818
2450.0,0.008640997362049818
2449.0,0.008596697419959609
2448.0,0.008552401996197112
2447.0,0.00850811108984062
2446.0,0.008463824699968647
2445.0,0.008419542825660153
2444.0,0.008419542825660153
2443.0,0.008375265465994541
2442.0,0.008375265465994541
2441.0,0.008419542825660153
2440.0,0.008463824699968647
2439.0,0.00850811108984062
2438.0,0.008552401996197112
2437.0,0.008552401996197112
2436.0,0.00850811108984062
2435.0,0.008419542825660153
2434.0,0.008330992620051436
2433.0,0.008242460465651913
2432.0,0.008242460465651913
2431.0,0.008286724286910463
2430.0,0.008375265465994541
2429.0,0.008419542825660153
2428.0,0.008419542825660153
2427.0,0.008419542825660153
2426.0,0.008419542825660153
2425.0,0.008463824699968647
2424.0,0.008463824699968647
2423.0,0.008419542825660153
2422.0,0.008419542825660153
2421.0,0.008419542825660153
2420.0,0.008463824699968647
2419.0,0.008552401996197112
2418.0,0.008596697419959609
2417.0,0.008685301823389224
2416.0,0.0087296108049002
2415.0,0.008773924307505121
2414.0,0.008773924307505121
2413.0,0.008773924307505121
2412.0,0.008773924307505121
2411.0,0.0087296108049002
2410.0,0.0087296108049002
2409.0,0.0087296108049002
2408.0,0.0087296108049002
2407.0,0.008685301823389224
2406.0,0.008640997362049818
2405.0,0.008596697419959609
2404.0,0.008596697419959609
2403.0,0.008640997362049818
2402.0,0.008685301823389224
2401.0,0.008773924307505121
2400.0,0.008862564879688284
2399.0,0.008906891951112605
2398.0,0.008906891951112605
2397.0,0.008906891951112605
2396.0,0.008906891951112605
2395.0,0.008906891951112605
2394.0,0.008906891951112605
2393.0,0.008906891951112605
2392.0,0.008951223547323472
2391.0,0.008995559669244813
2390.0,0.008995559669244813
2389.0,0.008951223547323472
2388.0,0.008995559669244813
2387.0,0.009039900317800775
2386.0,0.00908424549391551
2385.0,0.00908424549391551
2384.0,0.009128595198514056
2383.0,0.009128595198514056
2382.0,0.009128595198514056
2381.0,0.009128595198514056
2380.0,0.009172949432521227
2379.0,0.009217308196862062
2378.0,0.009217308196862062
2377.0,0.009172949432521227
2376.0,0.00908424549391551
2375.0,0.008995559669244813
2374.0,0.008995559669244813
2373.0,0.009039900317800775
2372.0,0.009172949432521227
2371.0,0.009350411681145587
2370.0,0.009483555971770974
2369.0,0.009483555971770974
2368.0,0.009350411681145587
2367.0,0.009261671492462709
2366.0,0.009350411681145587
2365.0,0.00966114521239847
2364.0,0.010105436281226954
2363.0,0.010327752376126709
2362.0,0.010105436281226954
2361.0,0.009350411681145587
2360.0,0.008330992620051436
2359.0,0.007667440952535687
2358.0,0.007755855953228474
2357.0,0.008552401996197112
2356.0,0.00939478857608056
2355.0,0.00974996707218323
2354.0,0.009572341514736404
2353.0,0.009306039320248427
2352.0,0.009172949432521227
2351.0,0.009172949432521227
2350.0,0.009128595198514056
2349.0,0.009128595198514056
2348.0,0.009217308196862062
2347.0,0.009439170005980158
2346.0,0.009838807101520963
2345.0,0.009972101229705377
2344.0,0.009616741093766423
2343.0,0.008862564879688284
2342.0,0.008286724286910463
2341.0,0.008286724286910463
2340.0,0.0087296108049002
2339.0,0.009350411681145587
2338.0,0.009616741093766423
2337.0,0.00939478857608056
2336.0,0.008862564879688284
2335.0,0.008419542825660153
2334.0,0.008242460465651913
2333.0,0.008463824699968647
2332.0,0.008773924307505121
2331.0,0.008995559669244813
2330.0,0.008906891951112605
2329.0,0.008773924307505121
2328.0,0.008685301823389224
2327.0,0.008685301823389224
2326.0,0.008596697419959609
2325.0,0.008419542825660153
2324.0,0.008242460465651913
2323.0,0.008065450281052211
2322.0,0.007976972236149349
2321.0,0.007844288957383316
2320.0,0.007800070204414977
2319.0,0.007888512213050314
2318.0,0.008021209005416363
2317.0,0.008153946355103248
2316.0,0.008242460465651913
2315.0,0.008242460465651913
2314.0,0.008242460465651913
2313.0,0.008330992620051436
2312.0,0.008419542825660153
2311.0,0.00850811108984062
2310.0,0.00850811108984062
2309.0,0.008419542825660153
2308.0,0.008330992620051436
2307.0,0.008330992620051436
2306.0,0.008375265465994541
2305.0,0.008419542825660153
2304.0,0.008419542825660153
2303.0,0.008286724286910463
2302.0,0.008153946355103248
2301.0,0.008021209005416363
2300.0,0.007932739972333236
2299.0,0.007888512213050314
2298.0,0.007888512213050314
2297.0,0.007932739972333236
2296.0,0.008021209005416363
2295.0,0.008065450281052211
2294.0,0.008153946355103248
2293.0,0.008242460465651913
2292.0,0.008286724286910463
2291.0,0.008330992620051436
2290.0,0.008286724286910463
2289.0,0.008242460465651913
2288.0,0.008198201155356077
2287.0,0.008153946355103248
2286.0,0.008153946355103248
2285.0,0.008109696063975047
2284.0,0.008065450281052211
2283.0,0.008065450281052211
2282.0,0.008021209005416363
2281.0,0.008021209005416363
2280.0,0.007976972236149349
2279.0,0.007976972236149349
2278.0,0.007932739972333236
2277.0,0.007888512213050314
2276.0,0.007800070204414977
2275.0,0.007711646202907652
2274.0,0.007667440952535687
2273.0,0.007667440952535687
2272.0,0.007711646202907652
2271.0,0.007711646202907652
2270.0,0.007711646202907652
2269.0,0.007667440952535687
2268.0,0.007667440952535687
2267.0,0.007667440952535687
2266.0,0.007711646202907652
2265.0,0.007711646202907652
2264.0,0.007755855953228474
2263.0,0.007711646202907652
2262.0,0.007711646202907652
2261.0,0.00762324020119709
2260.0,0.0075790439479759275
2259.0,0.007490664932224611
2258.0,0.007490664932224611
2257.0,0.007490664932224611
2256.0,0.007490664932224611
2255.0,0.007490664932224611
2254.0,0.0074464821678643656
2253.0,0.007402303897961815
2252.0,0.0074464821678643656
2251.0,0.0074464821678643656
2250.0,0.007490664932224611
2249.0,0.007490664932224611
2248.0,0.007402303897961815
2247.0,0.007358130121602358
2246.0,0.007313960837872058
2245.0,0.007313960837872058
2244.0,0.007358130121602358
2243.0,0.007402303897961815
2242.0,0.007358130121602358
2241.0,0.007313960837872058
2240.0,0.007269796045857202
2239.0,0.007269796045857202
2238.0,0.007225635744644521
2237.0,0.007181479933320523
2236.0,0.007137328610972382
2235.0,0.007137328610972382
2234.0,0.007181479933320523
2233.0,0.007225635744644521
2232.0,0.007225635744644521
2231.0,0.007225635744644521
2230.0,0.007181479933320523
2229.0,0.007093181776687496
2228.0,0.007004901568658406
2227.0,0.007004901568658406
2226.0,0.007004901568658406
2225.0,0.007049039429553483
2224.0,0.007093181776687496
2223.0,0.007093181776687496
2222.0,0.007137328610972382
2221.0,0.007137328610972382
2220.0,0.007137328610972382
2219.0,0.007137328610972382
2218.0,0.007137328610972382
2217.0,0.007137328610972382
2216.0,0.007093181776687496
2215.0,0.007049039429553483
2214.0,0.007049039429553483
2213.0,0.007049039429553483
2212.0,0.007049039429553483
2211.0,0.007049039429553483
2210.0,0.007093181776687496
2209.0,0.007049039429553483
2208.0,0.007049039429553483
2207.0,0.00696076819309055
2206.0,0.00696076819309055
2205.0,0.006916639301937977
2204.0,0.006916639301937977
2203.0,0.006916639301937977
2202.0,0.006872514894289861
2201.0,0.006872514894289861
2200.0,0.006828394969235152
2199.0,0.006784279525863024
2198.0,0.006740168563263094
2197.0,0.006696062080525422
2196.0,0.006696062080525422
2195.0,0.006651960076740071
2194.0,0.006651960076740071
2193.0,0.006651960076740071
2192.0,0.006696062080525422
2191.0,0.006740168563263094
2190.0,0.006740168563263094
2189.0,0.006784279525863024
2188.0,0.006784279525863024
2187.0,0.006740168563263094
2186.0,0.006696062080525422
2185.0,0.006651960076740071
2184.0,0.006607862550997545
2183.0,0.006607862550997545
2182.0,0.006607862550997545
2181.0,0.006607862550997545
2180.0,0.006607862550997545
2179.0,0.006607862550997545
2178.0,0.006651960076740071
2177.0,0.006651960076740071
2176.0,0.006651960076740071
2175.0,0.006651960076740071
2174.0,0.006607862550997545
2173.0,0.006607862550997545
2172.0,0.006651960076740071
2171.0,0.006740168563263094
2170.0,0.006784279525863024
2169.0,0.006828394969235152
2168.0,0.006784279525863024
2167.0,0.006784279525863024
2166.0,0.006740168563263094
2165.0,0.006740168563263094
2164.0,0.006784279525863024
2163.0,0.006872514894289861
2162.0,0.00696076819309055
2161.0,0.007049039429553483
2160.0,0.007093181776687496
2159.0,0.007093181776687496
2158.0,0.007093181776687496
2157.0,0.007049039429553483
2156.0,0.00696076819309055
2155.0,0.006872514894289861
2154.0,0.006828394969235152
2153.0,0.006784279525863024
2152.0,0.006828394969235152
2151.0,0.006872514894289861
2150.0,0.006872514894289861
2149.0,0.006872514894289861
2148.0,0.006828394969235152
2147.0,0.006872514894289861
2146.0,0.006916639301937977
2145.0,0.00696076819309055
2144.0,0.007049039429553483
2143.0,0.007049039429553483
2142.0,0.007093181776687496
2141.0,0.007049039429553483
2140.0,0.00696076819309055
2139.0,0.006872514894289861
2138.0,0.006828394969235152
2137.0,0.006828394969235152
2136.0,0.006872514894289861
2135.0,0.006872514894289861
2134.0,0.006828394969235152
2133.0,0.006740168563263094
2132.0,0.006696062080525422
2131.0,0.006696062080525422
2130.0,0.006740168563263094
2129.0,0.006828394969235152
2128.0,0.006872514894289861
2127.0,0.006916639301937977
2126.0,0.006872514894289861
2125.0,0.006784279525863024
2124.0,0.006740168563263094
2123.0,0.006696062080525422
2122.0,0.006740168563263094
2121.0,0.006740168563263094
2120.0,0.006784279525863024
2119.0,0.006784279525863024
2118.0,0.006784279525863024
2117.0,0.006784279525863024
2116.0,0.006740168563263094
2115.0,0.006784279525863024
2114.0,0.006784279525863024
2113.0,0.006784279525863024
2112.0,0.006740168563263094
2111.0,0.006696062080525422
2110.0,0.006696062080525422
2109.0,0.006696062080525422
2108.0,0.006740168563263094
2107.0,0.006784279525863024
2106.0,0.006784279525863024
2105.0,0.006740168563263094
2104.0,0.006696062080525422
2103.0,0.006696062080525422
2102.0,0.006651960076740071
2101.0,0.006607862550997545
2100.0,0.00656376950238835
2099.0,0.006607862550997545
2098.0,0.006651960076740071
2097.0,0.006651960076740071
2096.0,0.006651960076740071
2095.0,0.006651960076740071
2094.0,0.006607862550997545
2093.0,0.006607862550997545
2092.0,0.00656376950238835
2091.0,0.006519680930003435
2090.0,0.006475596832934416
2089.0,0.006475596832934416
2088.0,0.006475596832934416
2087.0,0.006475596832934416
2086.0,0.006475596832934416
2085.0,0.006475596832934416
2084.0,0.006431517210272464
2083.0,0.006343371384537999
2082.0,0.006299305179649828
2081.0,0.00625524344553785
2080.0,0.006167133386013823
2079.0,0.00612308505878878
2078.0,0.00612308505878878
2077.0,0.006079041198713275
2076.0,0.005990966876386672
2075.0,0.005946936412324799
2074.0,0.00590291041179003
2073.0,0.005858888873877532
2072.0,0.005814871797682919
2071.0,0.005814871797682919
2070.0,0.00577085918230158
2069.0,0.005726851026829571
2068.0,0.005682847330363394
2067.0,0.005682847330363394
2066.0,0.005726851026829571
2065.0,0.005726851026829571
2064.0,0.005682847330363394
2063.0,0.005594853310833647
2062.0,0.005462895701502157
2061.0,0.00537494623139545
2060.0,0.005330978174470591
2059.0,0.0052870145684298375
2058.0,0.005243055412371911
2057.0,0.005243055412371911
2056.0,0.005243055412371911
2055.0,0.0052870145684298375
2054.0,0.0052870145684298375
2053.0,0.0052870145684298375
2052.0,0.005243055412371911
2051.0,0.005155150446602086
2050.0,0.005067263269958211
2049.0,0.004979393875242044
2048.0,0.00489154225525934
2047.0,0.00489154225525934
2046.0,0.00489154225525934
2045.0,0.004979393875242044
2044.0,0.005023326350308999
2043.0,0.005067263269958211
2042.0,0.005067263269958211
2041.0,0.005111204635089406
2040.0,0.005111204635089406
2039.0,0.005111204635089406
2038.0,0.005067263269958211
2037.0,0.005023326350308999
2036.0,0.004979393875242044
2035.0,0.004935465843858511
2034.0,0.00489154225525934
2033.0,0.00484762310854614
2032.0,0.004759798137184523
2031.0,0.004759798137184523
2030.0,0.004759798137184523
2029.0,0.004803708402820517
2028.0,0.00489154225525934
2027.0,0.00489154225525934
2026.0,0.00489154225525934
2025.0,0.00489154225525934
2024.0,0.004803708402820517
2023.0,0.004715892310740433
2022.0,0.004628093971837721
2021.0,0.004540313378935901
2020.0,0.004540313378935901
2019.0,0.004628093971837721
2018.0,0.004715892310740433
2017.0,0.004803708402820517
2016.0,0.00484762310854614
2015.0,0.00489154225525934
2014.0,0.004935465843858511
2013.0,0.00484762310854614
2012.0,0.004803708402820517
2011.0,0.004759798137184523
2010.0,0.004715892310740433
2009.0,0.004715892310740433
2008.0,0.004759798137184523
2007.0,0.004803708402820517
2006.0,0.004803708402820517
2005.0,0.004715892310740433
2004.0,0.004628093971837721
2003.0,0.00458420145758498
2002.0,0.00458420145758498
2001.0,0.004628093971837721
2000.0,0.004671990922590297
1999.0,0.004715892310740433
1998.0,0.004759798137184523
1997.0,0.00484762310854614
1996.0,0.00489154225525934
1995.0,0.004935465843858511
1994.0,0.004979393875242044
1993.0,0.005023326350308999
1992.0,0.005111204635089406
1991.0,0.005199100705396198
1990.0,0.005330978174470591
1989.0,0.00541891874010525
1988.0,0.005462895701502157
1987.0,0.00541891874010525
1986.0,0.00537494623139545
1985.0,0.005330978174470591
1984.0,0.005330978174470591
1983.0,0.0052870145684298375
1982.0,0.0052870145684298375
1981.0,0.0052870145684298375
1980.0,0.0052870145684298375
1979.0,0.0052870145684298375
1978.0,0.00537494623139545
1977.0,0.00541891874010525
1976.0,0.005462895701502157
1975.0,0.005462895701502157
1974.0,0.00541891874010525
1973.0,0.00541891874010525
1972.0,0.005462895701502157
1971.0,0.005550862985963967
1970.0,0.005638848091999105
1969.0,0.005638848091999105
1968.0,0.005726851026829571
1967.0,0.00577085918230158
1966.0,0.005858888873877532
1965.0,0.005858888873877532
1964.0,0.005858888873877532
1963.0,0.00590291041179003
1962.0,0.005946936412324799
1961.0,0.006035001804881146
1960.0,0.006079041198713275
1959.0,0.00612308505878878
1958.0,0.00612308505878878
1957.0,0.006167133386013823
1956.0,0.00621118618129457
1955.0,0.006299305179649828
1954.0,0.006387442061109638
1953.0,0.006431517210272464
1952.0,0.006475596832934416
1951.0,0.006519680930003435
1950.0,0.006475596832934416
1949.0,0.006475596832934416
1948.0,0.006475596832934416
1947.0,0.006431517210272464
1946.0,0.006431517210272464
1945.0,0.006387442061109638
1944.0,0.006387442061109638
1943.0,0.006299305179649828
1942.0,0.006167133386013823
1941.0,0.005990966876386672
1940.0,0.005858888873877532
1939.0,0.005726851026829571
1938.0,0.005594853310833647
1937.0,0.00541891874010525
1936.0,0.0052870145684298375
1935.0,0.005155150446602086
1934.0,0.005067263269958211
1933.0,0.004935465843858511
1932.0,0.00484762310854614
1931.0,0.004803708402820517
1930.0,0.004715892310740433
1929.0,0.00458420145758498
1928.0,0.004452550524862486
1927.0,0.0043648054024501
1926.0,0.004320939488377862
1925.0,0.004320939488377862
1924.0,0.004277078004534696
1923.0,0.004233220950025984
1922.0,0.004145520125434121
1921.0,0.004101676353562844
1920.0,0.0040578370074493275
1919.0,0.003970171588923321
1918.0,0.0037510854308679953
1917.0,0.0035758960449088217
1916.0,0.0034445503666347133
1915.0,0.0034007772998332353
1914.0,0.0033570086445275926
1913.0,0.0032694845648473247
1912.0,0.0032257291386954545
1911.0,0.0031819781204844855
1910.0,0.0030944893043338695
1909.0,0.0029632891174733444
1908.0,0.0028758443407954637
1907.0,0.0027884171674950053
1906.0,0.002701007590486082
1905.0,0.002613615602686581
1904.0,0.002482560585275184
1903.0,0.002395212539545666
1902.0,0.002351545103793873
1901.0,0.0023078820582733695
1900.0,0.0022642234021015284
1899.0,0.0022642234021015284
1898.0,0.0022205691343961664
1897.0,0.0021769192542746563
1896.0,0.0021332737608552588
1895.0,0.0020459959305969555
1894.0,0.0020023635919956817
1893.0,0.0019587356365717845
1892.0,0.001915112063444413
1891.0,0.0018278780605593958
1890.0,0.0017406615763013722
1889.0,0.001609869681952425
1888.0,0.0015226969634936083
1887.0,0.0014791171649619628
1886.0,0.0014355417390583547
1885.0,0.001348404001626502
1884.0,0.0012177301682640973
1883.0,0.0011741809597138886
1882.0,0.0011306361176557367
1881.0,0.0011306361176557367
1880.0,0.0011306361176557367
1879.0,0.0010870956412141197
1878.0,0.0010435595295137379
1877.0,0.0009565003968372565
1876.0,0.000869458712629001
1875.0,0.0007824344698965646
1874.0,0.0007389288868995258
1873.0,0.0007824344698965646
1872.0,0.0009129773741116676
1871.0,0.0010435595295137379
1870.0,0.0010435595295137379
1869.0,0.0009565003968372565
1868.0,0.0008259444115150671
1867.0,0.0007389288868995258
1866.0,0.0006954276616513155
1865.0,0.0006519307932786322
1864.0,0.0005649501236701937
1863.0,0.000521466320689834
1862.0,0.0004779868710962365
1861.0,0.0004779868710962365
1860.0,0.0004779868710962365
1859.0,0.00043451177401765406
1858.0,0.0003910410285830057
1857.0,0.00030411258916074324
1856.0,0.00026065489343207737
1855.0,0.00026065489343207737
1854.0,0.00030411258916074324
1853.0,0.0003475746339209884
1852.0,0.0003910410285830057
1851.0,0.0004779868710962365
1850.0,0.0005649501236701937
1849.0,0.0006084382809090627
1848.0,0.0006954276616513155
1847.0,0.000869458712629001
1846.0,0.0010435595295137379
1845.0,0.0010000277816797354
1844.0,0.0008259444115150671
1843.0,0.0006954276616513155
1842.0,0.0007824344698965646
1841.0,0.0009565003968372565
1840.0,0.0010435595295137379
1839.0,0.0010870956412141197
1838.0,0.0010435595295137379
1837.0,0.0010435595295137379
1836.0,0.0010000277816797354
1835.0,0.0010000277816797354
1834.0,0.0010870956412141197
1833.0,0.0012177301682640973
1832.0,0.001304841688344327
1831.0,0.001304841688344327
1830.0,0.0012177301682640973
1829.0,0.0010870956412141197
1828.0,0.0011741809597138886
1827.0,0.0013919706849057079
1826.0,0.0015662811355310335
1825.0,0.0015226969634936083
1824.0,0.0014355417390583547
1823.0,0.0013919706849057079
1822.0,0.0013919706849057079
1821.0,0.001304841688344327
1820.0,0.0011741809597138886
1819.0,0.0010435595295137379
1818.0,0.0010000277816797354
1817.0,0.0009129773741116676
1816.0,0.000869458712629001
1815.0,0.000869458712629001
1814.0,0.000869458712629001
1813.0,0.0008259444115150671
1812.0,0.0007389288868995258
1811.0,0.0006084382809090627
1810.0,0.0004779868710962365
1809.0,0.00030411258916074324
1808.0,0.00021720154586435392
1807.0,0.00017375254558760211
1806.0,0.0001303078917322953
1805.0,8.686758342868472e-05
1804.0,8.686758342868472e-05
1803.0,0.0001303078917322953
1802.0,0.0001303078917322953
1801.0,0.0
1800.0,-0.00017368305846510168
1799.0,-0.0002604985473904087
1798.0,-0.0002604985473904087
1797.0,-0.00021709297223004853
1796.0,-8.685021164911433e-05
1795.0,4.343161980746579e-05
1794.0,8.686758342868472e-05
1793.0,-4.3427276862573194e-05
1792.0,-0.0002604985473904087
1791.0,-0.0003472966853634851
1790.0,-0.0003472966853634851
1789.0,-0.0003472966853634851
1788.0,-0.00043407747931878404
1787.0,-0.0004774613744551459
1786.0,-0.0004774613744551459
1785.0,-0.0004774613744551459
1784.0,-0.0005208409361854294
1783.0,-0.00043407747931878404
1782.0,-0.00043407747931878404
1781.0,-0.0004774613744551459
1780.0,-0.0005642161653756084
1779.0,-0.0005208409361854294
1778.0,-0.0003906892499099257
1777.0,-0.00030389978481260016
1776.0,-0.00021709297223004853
1775.0,-4.3427276862573194e-05
1774.0,4.343161980746579e-05
1773.0,-0.00017368305846510168
1772.0,-0.0003906892499099257
1771.0,-0.0002604985473904087
1770.0,0.00026065489343207737
1769.0,0.0007389288868995258
1768.0,0.0009565003968372565
1767.0,0.0010435595295137379
1766.0,0.0011306361176557367
1765.0,0.0012177301682640973
1764.0,0.0013919706849057079
1763.0,0.001609869681952425
1762.0,0.0018714928717336043
1761.0,0.0021332737608552588
1760.0,0.002613615602686581
1759.0,0.0033132443998284966
1758.0,0.0040578370074493275
1757.0,0.004628093971837721
1756.0,0.005111204635089406
1755.0,0.005858888873877532
1754.0,0.006872514894289861
1753.0,0.007932739972333236
1752.0,0.009217308196862062
1751.0,0.010950843561779777
1750.0,0.013049212141483357
1749.0,0.015292705517326866
1748.0,0.017774008325325275
1747.0,0.020633757603838898
1746.0,0.023879381700184332
1745.0,0.027658283674251827
1744.0,0.032311649546687526
1743.0,0.037488606492403154
1742.0,0.04291974034210022
1741.0,0.04919717703534143
1740.0,0.05690137699451481
1739.0,0.06479513257341862
1738.0,0.07093887591523451
1737.0,0.07546228222451012
1736.0,0.08066036321258663
1735.0,0.09039048950983108
1734.0,0.10430127304069425
1733.0,0.11554450392951199
1732.0,0.12280148472821018
1731.0,0.12936203678919433
1730.0,0.1369151746796402
1729.0,0.1447838052666366
1728.0,0.15187248943212528
1727.0,0.15832774992636556
1726.0,0.16488040957545036
1725.0,0.17204947169736973
1724.0,0.17999569319168218
1723.0,0.18748771571001743
1722.0,0.1928710444075783
1721.0,0.19572423287090612
1720.0,0.19777376230892996
1719.0,0.20252471246266568
1718.0,0.2122562283535332
1717.0,0.222500680409635
1716.0,0.2278984307229881
1715.0,0.2296635589048508
1714.0,0.22936887222219338
1713.0,0.2267256516625462
1712.0,0.221921138062545
1711.0,0.2160964207272651
1710.0,0.20971483596675822
1709.0,0.20259395032361804
1708.0,0.19436323369406505
1707.0,0.1854860476317619
1706.0,0.17665620917935154
1705.0,0.16819419132560887
1704.0,0.1600822243213189
1703.0,0.15193410459600853
1702.0,0.14357322752975565
1701.0,0.13513308567147386
1700.0,0.12790202572577325
1699.0,0.12234075588839133
1698.0,0.11764625361128611
1697.0,0.1128329791052256
1696.0,0.10779405402422748
1695.0,0.10314322726279568
1694.0,0.09914149529800831
1693.0,0.09560907998763835
1692.0,0.0919977988274463
1691.0,0.0884695376928375
1690.0,0.08549817717268593
1689.0,0.0830725338870073
1688.0,0.08081727095749947
1687.0,0.07841755960658348
1686.0,0.0760310351245288
1685.0,0.07463633264589853
1684.0,0.07432700607875953
1683.0,0.07334892291111106
1682.0,0.0718090519612431
1681.0,0.07001940948448526
1680.0,0.06803388527182741
1679.0,0.06600683616875758
1678.0,0.06398920428479049
1677.0,0.06203099704854709
1676.0,0.06033101647767336
1675.0,0.0588862729628985
1674.0,0.05744631966579017
1673.0,0.05606053552778367
1672.0,0.05458065739693696
1671.0,0.05310580489767336
1670.0,0.05197846685889629
1669.0,0.05095170768433621
1668.0,0.04978123335813667
1667.0,0.048565334467987054
1666.0,0.04730440041308315
1665.0,0.04595055323640551
1664.0,0.04469717723830824
1663.0,0.04359142880416744
1662.0,0.04263219156847242
1661.0,0.04167506835594681
1660.0,0.040672354027829094
1659.0,0.03957679292217042
1658.0,0.03848398855105106
1657.0,0.037488606492403154
1656.0,0.036542739883292485
1655.0,0.035693217696063595
1654.0,0.03541041251009669
1653.0,0.03559892883726867
1652.0,0.03503362516890207
1651.0,0.03465716443937783
1650.0,0.03423403581731388
1649.0,0.033482823553208085
1648.0,0.03273290844021437
1647.0,0.03226486821611996
1646.0,0.03184406285002961
1645.0,0.03142366482450232
1644.0,0.030957032694186815
1643.0,0.030444315779156517
1642.0,0.029885677714903025
1641.0,0.02932775731028059
1640.0,0.02872415126189476
1639.0,0.028167720075074953
1638.0,0.027797161620935595
1637.0,0.027658283674251827
1636.0,0.027797161620935595
1635.0,0.027565723042634938
1634.0,0.027149444152769986
1633.0,0.02682594731702781
1632.0,0.026456531467510258
1631.0,0.025949097207122573
1630.0,0.02544225514642018
1629.0,0.025028005701930978
1628.0,0.024706084643793647
1627.0,0.024430342106337877
1626.0,0.024154774532432866
1625.0,0.023925268380126097
1624.0,0.023741750742954926
1623.0,0.02365002099672653
1622.0,0.02365002099672653
1621.0,0.023695883447997224
1620.0,0.023741750742954926
1619.0,0.023879381700184332
1618.0,0.024476287039668643
1617.0,0.02558042614771394
1616.0,0.02654885597506529
1615.0,0.02691835039863255
1614.0,0.02691835039863255
1613.0,0.026687379547098322
1612.0,0.026225806029419818
1611.0,0.025672564576383117
1610.0,0.02512002699306959
1609.0,0.024568191490736968
1608.0,0.023925268380126097
1607.0,0.023237476732539397
1606.0,0.02255077261765881
1605.0,0.021865152601710403
1604.0,0.02122621566987748
1603.0,0.02058821736556471
1602.0,0.02004210665933459
1601.0,0.01954210772389997
1600.0,0.019042683770379876
1599.0,0.01858915983411169
1598.0,0.018181392829336396
1597.0,0.017864505196230507
1596.0,0.01759307113620534
1595.0,0.017367005605150476
1594.0,0.017186237868137555
1593.0,0.017095882207371904
1592.0,0.017005545341335804
1591.0,0.016960383953898095
1590.0,0.017005545341335804
1589.0,0.017141057687924732
1588.0,0.017412209298337533
1587.0,0.01781925440359733
1586.0,0.01858915983411169
1585.0,0.019723858922159776
1584.0,0.02122621566987748
1583.0,0.023191662661933732
1582.0,0.025304128090317013
1581.0,0.027334407733889066
1580.0,0.028956208163971375
1579.0,0.030071810571884017
1578.0,0.030537492025363155
1577.0,0.030164906924202484
1576.0,0.028863370523193765
1575.0,0.027149444152769986
1574.0,0.02562649291857677
1573.0,0.024292536462819925
1572.0,0.02291687968414724
1571.0,0.021499930688540836
1570.0,0.02013307743509718
1569.0,0.019042683770379876
1568.0,0.018362575344230914
1567.0,0.017955020928509757
1566.0,0.017502630802287644
1565.0,0.016870075265299933
1564.0,0.01628352608625061
1563.0,0.015922966097169144
1562.0,0.015697768020096703
1561.0,0.015247721884586563
1560.0,0.014753209197138295
1559.0,0.014753209197138295
1558.0,0.014573525916998342
1557.0,0.01452861671041239
1556.0,0.014663358264387139
1555.0,0.01452861671041239
1554.0,0.014214382227394795
1553.0,0.01381070026317599
1552.0,0.013631406429727155
1551.0,0.013452186585275916
1550.0,0.013273040668781544
1549.0,0.013004460275618523
1548.0,0.012736045877764557
1547.0,0.012467797270160563
1546.0,0.012289056869694281
1545.0,0.01215504982870197
1544.0,0.012065734767841452
1543.0,0.0119764380713403
1542.0,0.011842527443247208
1541.0,0.011797899741219142
1540.0,0.011753276624621556
1539.0,0.011574829993696856
1538.0,0.011530229790124524
1537.0,0.011753276624621556
1536.0,0.011887159731648111
1535.0,0.011887159731648111
1534.0,0.011931796607364653
1533.0,0.012021084124518078
1532.0,0.012110390002254778
1531.0,0.012199714248127602
1530.0,0.012199714248127602
1529.0,0.012199714248127602
1528.0,0.01215504982870197
1527.0,0.01215504982870197
1526.0,0.01215504982870197
1525.0,0.012021084124518078
1524.0,0.011797899741219142
1523.0,0.011619434777991433
1522.0,0.011485634166333858
1521.0,0.011351874764248926
1520.0,0.01117359295472431
1519.0,0.011129033935354915
1518.0,0.011084479487313281
1517.0,0.011039929609661936
1516.0,0.011039929609661936
1515.0,0.011129033935354915
1514.0,0.011396456654336085
1513.0,0.011753276624621556
1512.0,0.012289056869694281
1511.0,0.013049212141483357
1510.0,0.014214382227394795
1509.0,0.016103208673694303
1508.0,0.020087589665283012
1507.0,0.02664120011360227
1506.0,0.031096969696171817
1505.0,0.03151705144606498
1504.0,0.030071810571884017
1503.0,0.027612000892527133
1502.0,0.024522236834125355
1501.0,0.0211806132671577
1500.0,0.018045555530026514
1499.0,0.015337693809893471
1498.0,0.01322826573375524
1497.0,0.011619434777991433
1496.0,0.01037222925484893
1495.0,0.009350411681145587
1494.0,0.008685301823389224
1493.0,0.008286724286910463
1492.0,0.008021209005416363
1491.0,0.007800070204414977
1490.0,0.007755855953228474
1489.0,0.007844288957383316
1488.0,0.007932739972333236
1487.0,0.007844288957383316
1486.0,0.007755855953228474
1485.0,0.007844288957383316
1484.0,0.008021209005416363
1483.0,0.008198201155356077
1482.0,0.008419542825660153
1481.0,0.0087296108049002
1480.0,0.00908424549391551
1479.0,0.00939478857608056
1478.0,0.00966114521239847
1477.0,0.01001654169860089
1476.0,0.010416710688994968
1475.0,0.01077272626946324
1474.0,0.011129033935354915
1473.0,0.011708658092512314
1472.0,0.012244383261476699
1471.0,0.012512493866907004
1470.0,0.012780770091995297
1469.0,0.013138729709955221
1468.0,0.013676222949234651
1467.0,0.0144837121472845
1466.0,0.015742798294583915
1465.0,0.017547848615010242
1464.0,0.019451260640229506
1463.0,0.021089422824428272
1462.0,0.02245929405346514
1461.0,0.023787622882622816
1460.0,0.02512002699306959
1459.0,0.02677975314776626
1458.0,0.029374223311705583
1457.0,0.03249882527715853
1456.0,0.03442204208947208
1455.0,0.03498654972775217
1454.0,0.03503362516890207
1453.0,0.03484535401307465
1452.0,0.034516075754861264
1451.0,0.03409308450480819
1450.0,0.03371743783253667
1449.0,0.033482823553208085
1448.0,0.03334211579824231
1447.0,0.033201453616638954
1446.0,0.033060836978886954
1445.0,0.032920265855503006
1444.0,0.03282657704446046
1443.0,0.032592443402527316
1442.0,0.03235843591698884
1441.0,0.031984286006358165
1440.0,0.031563752288295444
1439.0,0.030957032694186815
1438.0,0.03002526987828502
1437.0,0.02872415126189476
1436.0,0.027056991894431892
1435.0,0.025350165561278004
1434.0,0.023695883447997224
1433.0,0.021865152601710403
1432.0,0.01990568621470623
1431.0,0.017955020928509757
1430.0,0.016148281008528276
1429.0,0.014618439768003144
1428.0,0.013496984613259544
1427.0,0.012691326268817527
1426.0,0.012199714248127602
1425.0,0.011797899741219142
1424.0,0.011708658092512314
1423.0,0.011842527443247208
1422.0,0.012199714248127602
1421.0,0.013004460275618523
1420.0,0.014708281407112
1419.0,0.017547848615010242
1418.0,0.021135015652343103
1417.0,0.02512002699306959
1416.0,0.029885677714903025
1415.0,0.03578752703018084
1414.0,0.0431115453499229
1413.0,0.05197846685889629
1412.0,0.06173051653708872
1411.0,0.07078549626260622
1410.0,0.07743023101428781
1409.0,0.08086958613938555
1408.0,0.08102656950704579
1407.0,0.07820951434181311
1406.0,0.07314329105030759
1405.0,0.06722192993944942
1404.0,0.061580354206806964
1403.0,0.05665390164340933
1402.0,0.05256627811294923
1401.0,0.048954051864180226
1400.0,0.045612749855485024
1399.0,0.04268010314465909
1398.0,0.040243327009005014
1397.0,0.03824678581321739
1396.0,0.03630659476198117
1395.0,0.03423403581731388
1394.0,0.03226486821611996
1393.0,0.030490901403433135
1392.0,0.029002634427514717
1391.0,0.027612000892527133
1390.0,0.02636422658259252
1389.0,0.025350165561278004
1388.0,0.024522236834125355
1387.0,0.023925268380126097
1386.0,0.02351246269481
1385.0,0.023283295636617574
1384.0,0.023283295636617574
1383.0,0.02351246269481
1382.0,0.024108863598207186
1381.0,0.025028005701930978
1380.0,0.026271941311972746
1379.0,0.0277045713888604
1378.0,0.029234840219232394
1377.0,0.030910397045078586
1376.0,0.03273290844021437
1375.0,0.03484535401307465
1374.0,0.0369681249461018
1373.0,0.03857890593355173
1372.0,0.03957679292217042
1371.0,0.03995754427315856
1370.0,0.03981472339538916
1369.0,0.03905380426616856
1368.0,0.03753595394209874
1367.0,0.03526907894637077
1366.0,0.032545631817259224
1365.0,0.029560137048236124
1364.0,0.026318081496016443
1363.0,0.02300845469384938
1362.0,0.019996628416253603
1361.0,0.017547848615010242
1360.0,0.015697768020096703
1359.0,0.014259258949925524
1358.0,0.01322826573375524
1357.0,0.012557195064198723
1356.0,0.012110390002254778
1355.0,0.011797899741219142
1354.0,0.011664044143949504
1353.0,0.011708658092512314
1352.0,0.0119764380713403
1351.0,0.012423105273012602
1350.0,0.013138729709955221
1349.0,0.014124642691606404
1348.0,0.015337693809893471
1347.0,0.016734647433454652
1346.0,0.018362575344230914
1345.0,0.020087589665283012
1344.0,0.021773818325474092
1343.0,0.023329119375188556
1342.0,0.024706084643793647
1341.0,0.025764722556973707
1340.0,0.02636422658259252
1339.0,0.02613355016462182
1338.0,0.025074013910237447
1337.0,0.023329119375188556
1336.0,0.02122621566987748
1335.0,0.01899731005860028
1334.0,0.016960383953898095
1333.0,0.015337693809893471
1332.0,0.014169510141607944
1331.0,0.013452186585275916
1330.0,0.01322826573375524
1329.0,0.013407393177789162
1328.0,0.01385553528947936
1327.0,0.01452861671041239
1326.0,0.015427684378367834
1325.0,0.01646391839700767
1324.0,0.01759307113620534
1323.0,0.018861217359339655
1322.0,0.020178569969774962
1321.0,0.021545566634771474
1320.0,0.02300845469384938
1319.0,0.024522236834125355
1318.0,0.025995203102585407
1317.0,0.02738066094037661
1316.0,0.028770552723758724
1315.0,0.030211462585061133
1314.0,0.03179733185715028
1313.0,0.03352973627071565
1312.0,0.035363296211498474
1311.0,0.037251946641359446
1310.0,0.03919637508823026
1309.0,0.041197296600497646
1308.0,0.04325545471730896
1307.0,0.04527520902093718
1306.0,0.04720755695590784
1305.0,0.04909991063361274
1304.0,0.05114709380028648
1303.0,0.0534986094304124
1302.0,0.05635711724787096
1301.0,0.05973260855398799
1300.0,0.06373765809652254
1299.0,0.06813548650796819
1298.0,0.07283502570063005
1297.0,0.07784567476894111
1296.0,0.0830725338870073
1295.0,0.08825662214406838
1294.0,0.09339562827501968
1293.0,0.09848719087006019
1292.0,0.10352889952072264
1291.0,0.10823959854332843
1290.0,0.11272036546997688
1289.0,0.11702034596270106
1288.0,0.12113366304327466
1287.0,0.1249387366082999
1286.0,0.1283103343144847
1285.0,0.13135556160517425
1284.0,0.1341264717921853
1283.0,0.13649869935854997
1282.0,0.13846558914096208
1281.0,0.1402014525194344
1280.0,0.14176366457048695
1279.0,0.1430899396992138
1278.0,0.14423862766005224
1277.0,0.14551177495556966
1276.0,0.14703230897118158
1275.0,0.1489251947711132
1274.0,0.15131834597604965
1273.0,0.15452986701832638
1272.0,0.15882830550046778
1271.0,0.16399254087446846
1270.0,0.16979640107429583
1269.0,0.17626501160126873
1268.0,0.1831623690979649
1267.0,0.19010375339756092
1266.0,0.1969527895088714
1265.0,0.2036338450224786
1264.0,0.2100669190682496
1263.0,0.21573941743391623
1262.0,0.22069217241641415
1261.0,0.22497239990115525
1260.0,0.22848601002033342
1259.0,0.23091821288178105
1258.0,0.23232477597203993
1257.0,0.23328979273774086
1256.0,0.2341080235699846
1255.0,0.23492779889720805
1254.0,0.23597339230796277
1253.0,0.23754651763645307
1252.0,0.2397283394579368
1251.0,0.242376254091611
1250.0,0.24526953097624649
1249.0,0.24856691818065246
1248.0,0.2522775379644915
1247.0,0.25617677839624964
1246.0,0.26003230324049054
1245.0,0.2640021159082062
1244.0,0.2679280590001334
1243.0,0.2715650490257453
1242.0,0.2744967311406845
1241.0,0.27703719105751046
1240.0,0.2789316982028409
1239.0,0.27992342723185937
1238.0,0.27967528258255836
1237.0,0.2785191452299507
1236.0,0.27629810600873217
1235.0,0.27294698864614264
1234.0,0.26841123481326123
1233.0,0.2629664686661224
1232.0,0.2566470485904444
1231.0,0.24964591123729196
1230.0,0.24199699070020086
1229.0,0.23425695857895557
1228.0,0.22650610772902935
1227.0,0.2186036948032093
1226.0,0.21063084640851826
1225.0,0.20266319922465015
1224.0,0.1948390984005659
1223.0,0.18701983396051958
1222.0,0.17927323717616583
1221.0,0.1718558926962137
1220.0,0.16481693015095633
1219.0,0.15807768832054925
1218.0,0.15162611615539823
1217.0,0.14551177495556966
1216.0,0.13984173868172167
1215.0,0.13442229258007088
1214.0,0.12924505510985984
1213.0,0.1244757360506914
1212.0,0.12004441487725082
1211.0,0.11588463798833115
1210.0,0.11187669270209155
1209.0,0.1081838804751396
1208.0,0.1047432468551055
1207.0,0.1014393550602879
1206.0,0.09832376867362447
1205.0,0.09533854208447545
1204.0,0.09248115389337075
1203.0,0.08974922769985194
1202.0,0.08708744882390307
1201.0,0.08454739831152125
1200.0,0.08207457793525874
1199.0,0.07966792846041071
1198.0,0.0772226580712021
1197.0,0.07489427319033615
1196.0,0.07262963696097646
1195.0,0.07042782092345012
1194.0,0.06828793294324442
1193.0,0.06620911585658007
1192.0,0.06424089625468832
1191.0,0.062331685600995
1190.0,0.06063052992534024
1189.0,0.05908526241971446
1188.0,0.05784307153250956
1187.0,0.05685187064143715
1186.0,0.05620880107069848
1185.0,0.05581353871631256
1184.0,0.05586292684190197
1183.0,0.05620880107069848
1182.0,0.05685187064143715
1181.0,0.05784307153250956
1180.0,0.059035506507200575
1179.0,0.06028111764589528
1178.0,0.06143024377893891
1177.0,0.06243196139961715
1176.0,0.06318476880236723
1175.0,0.06348625752110681
1174.0,0.06328524178879635
1173.0,0.06253226035662252
1172.0,0.0611301784870133
1171.0,0.05908526241971446
1170.0,0.05650548409389744
1169.0,0.05374429280060267
1168.0,0.05095170768433621
1167.0,0.04837110616336182
1166.0,0.046047116768076934
1165.0,0.04402377775167454
1164.0,0.042392712939904875
1163.0,0.041006334969674096
1162.0,0.03995754427315856
1161.0,0.03914884628031379
1160.0,0.03857890593355173
1159.0,0.03824678581321739
1158.0,0.038151940981675736
1157.0,0.038436537637930535
1156.0,0.03905380426616856
1155.0,0.0400527842915015
1154.0,0.04138834223512067
1153.0,0.04315950984076644
1152.0,0.04527520902093718
1151.0,0.04774046340917959
1150.0,0.050463626623857394
1149.0,0.05354773498692689
1148.0,0.05690137699451481
1147.0,0.06063052992534024
1146.0,0.06454311928839007
1145.0,0.06864384953207203
1144.0,0.07288638806623937
1143.0,0.07706704344478843
1142.0,0.08118360963962057
1141.0,0.08523386307414738
1140.0,0.08910891135547172
1139.0,0.09269615116603047
1138.0,0.09593394808549704
1137.0,0.0989778267519208
1136.0,0.10187842445889239
1135.0,0.10452220372428545
1134.0,0.10695988804288215
1133.0,0.10946720807225518
1132.0,0.11210151190312767
1131.0,0.114865033936566
1130.0,0.11787408022996826
1129.0,0.1213058996038916
1128.0,0.12517042212027807
1127.0,0.12953756841108
1126.0,0.13436311230037123
1125.0,0.13978181533124334
1124.0,0.14551177495556966
1123.0,0.1513798825658661
1122.0,0.15701652987778258
1121.0,0.16234844215360744
1120.0,0.16710805524020933
1119.0,0.17082492608291244
1118.0,0.173212761183708
1117.0,0.17431429197824166
1116.0,0.17418455501479646
1115.0,0.17282465170130723
1114.0,0.1706318920111798
1113.0,0.16819419132560887
1112.0,0.16627930955536674
1111.0,0.16538857927731287
1110.0,0.16583371605737995
1109.0,0.16806626953325465
1108.0,0.17204947169736973
1107.0,0.17750501472124913
1106.0,0.1840903491132253
1105.0,0.1917214904172322
1104.0,0.20003947259401644
1103.0,0.2087305190897315
1102.0,0.21759904750347014
1101.0,0.22650610772902935
1100.0,0.23515164280658918
1099.0,0.24321180123188202
1098.0,0.25026368443093894
1097.0,0.25641184984009624
1096.0,0.261774551857495
1095.0,0.2659205927194057
1094.0,0.2688142923659995
1093.0,0.27083521030723
1092.0,0.2720522904552032
1091.0,0.27213355053251087
1090.0,0.2712405248321257
1089.0,0.26970233790285025
1088.0,0.26768667252875744
1087.0,0.26512019720737245
1086.0,0.26217149410421525
1085.0,0.2589272276266785
1084.0,0.2553159367231137
1083.0,0.2511145599904834
1082.0,0.24618721643529784
1081.0,0.24078556876575608
1080.0,0.23492779889720805
1079.0,0.22841251911874472
1078.0,0.22119779598676126
1077.0,0.2135325232597176
1076.0,0.20565139610391725
1075.0,0.19756837356927637
1074.0,0.1894986522334703
1073.0,0.18170810920000413
1072.0,0.1742494186519723
1071.0,0.16710805524020933
1070.0,0.16039627052916305
1069.0,0.15415809257824264
1068.0,0.14837479684669086
1067.0,0.14296920172737604
1066.0,0.13786862068696282
1065.0,0.13324021650489182
1064.0,0.1290696416513042
1063.0,0.1252863112422209
1062.0,0.12176553132495593
1061.0,0.11872949607064243
1060.0,0.11622503864474187
1059.0,0.11424311893073247
1058.0,0.11272036546997688
1057.0,0.11182050608167504
1056.0,0.11159583226295333
1055.0,0.11187669270209155
1054.0,0.11272036546997688
1053.0,0.11407366019856902
1052.0,0.11582793047608719
1051.0,0.11793105556385153
1050.0,0.1202162199095842
1049.0,0.12262865413022594
1048.0,0.12517042212027807
1047.0,0.12761061158217912
1046.0,0.12983027886355947
1045.0,0.13176713157753506
1044.0,0.13341732293645103
1043.0,0.134659094375416
1042.0,0.13537027545448765
1041.0,0.13572630319562085
1040.0,0.13566694496660703
1039.0,0.1350738084609946
1038.0,0.13406733180681396
1037.0,0.13282724882135022
1036.0,0.1314731132317961
1035.0,0.12994741830645506
1034.0,0.12836869546244634
1033.0,0.12685384867174432
1032.0,0.12551818230053358
1031.0,0.12407101507707297
1030.0,0.12251347193039863
1029.0,0.12090412049992727
1028.0,0.11930071078129845
1027.0,0.11793105556385153
1026.0,0.11713408027837091
1025.0,0.1174754620451195
1024.0,0.11970100857424737
1023.0,0.1244757360506914
1022.0,0.13247358880025661
1021.0,0.14375459920994582
1020.0,0.15782777061438424
1019.0,0.17295398299526576
1018.0,0.18688624599210146
1017.0,0.19715788726092565
1016.0,0.2014874669686484
1015.0,0.19887081242029603
1014.0,0.1902383348928749
1013.0,0.17815907279954568
1012.0,0.16519794595130088
1011.0,0.1531682471767426
1010.0,0.1427881576831076
1009.0,0.1341264717921853
1008.0,0.12679569072295926
1007.0,0.12050271275057156
1006.0,0.11503480179926728
1005.0,0.11036219959333216
1004.0,0.10646015643533868
1003.0,0.10319830233507843
1002.0,0.10039834085387778
1001.0,0.09794268919153337
1000.0,0.09566320779750503
999.0,0.0935572061829677
998.0,0.0916222275676053
997.0,0.08996287644694911
996.0,0.0885227828938977
995.0,0.08719360733870762
994.0,0.08602728844902896
993.0,0.08502252755566908
992.0,0.08423093401631587
991.0,0.08359869639612438
990.0,0.08301995267961781
989.0,0.08249449044745338
988.0,0.08207457793525874
987.0,0.08165507103772507
986.0,0.0812883346176787
985.0,0.08102656950704579
984.0,0.08086958613938555
983.0,0.08081727095749947
982.0,0.08081727095749947
981.0,0.08092190762392604
980.0,0.08102656950704579
979.0,0.08118360963962057
978.0,0.08134070657817682
977.0,0.08144546944972642
976.0,0.08149786036382611
975.0,0.08144546944972642
974.0,0.0812883346176787
973.0,0.08092190762392604
972.0,0.08045124103115198
971.0,0.07977228854307139
970.0,0.07899019850296574
969.0,0.07805354577058976
968.0,0.07706704344478843
967.0,0.07587584681417514
966.0,0.07458476291575367
965.0,0.0732460948102629
964.0,0.07206531825882068
963.0,0.07088774334533943
962.0,0.06976434723371505
961.0,0.06859298644342648
960.0,0.06742477650170953
959.0,0.06625970050306473
958.0,0.06514819703433927
957.0,0.06424089625468832
956.0,0.06348625752110681
955.0,0.06278310913729457
954.0,0.06208109735221967
953.0,0.061380218497318895
952.0,0.06068046892176193
951.0,0.06003170944866376
950.0,0.05943371350990989
949.0,0.0588862729628985
948.0,0.0583891978463662
947.0,0.05794231615860479
946.0,0.0575950591438934
945.0,0.05729763111133224
944.0,0.057049929922901255
943.0,0.0567528748621382
942.0,0.056456022846545606
941.0,0.05620880107069848
940.0,0.05601112492622806
939.0,0.055764156206519866
938.0,0.05546797900801881
937.0,0.055172003656783764
936.0,0.0549747987575373
935.0,0.05482695382609992
934.0,0.054728418492290265
933.0,0.05453141486818014
932.0,0.05428528594013993
931.0,0.05399011523423525
930.0,0.05374429280060267
929.0,0.053449489430144714
928.0,0.053203972728539606
927.0,0.05286048235717078
926.0,0.05256627811294923
925.0,0.05232126006306337
924.0,0.05212534510230182
923.0,0.05192951848105887
922.0,0.051684859310652254
921.0,0.05139145012356372
920.0,0.05114709380028648
919.0,0.05095170768433621
918.0,0.05085404758005607
917.0,0.05085404758005607
916.0,0.051049389754451946
915.0,0.05139145012356372
914.0,0.0518316382728683
913.0,0.052468254304406825
912.0,0.053351266093323746
911.0,0.05448217792216048
910.0,0.055912320584565744
909.0,0.0575950591438934
908.0,0.05943371350990989
907.0,0.06153031163235467
906.0,0.06383825908884244
905.0,0.06636088747507496
904.0,0.06884736147670667
903.0,0.07124579782334672
902.0,0.07334892291111106
901.0,0.07530729697981409
900.0,0.07691148455760066
899.0,0.0781575185941421
898.0,0.079094395835976
897.0,0.07972010536705154
896.0,0.08003329851661278
895.0,0.08013774644446192
894.0,0.07998108397108505
893.0,0.07987667370927598
892.0,0.07977228854307139
891.0,0.07977228854307139
890.0,0.07982447798997727
889.0,0.08013774644446192
888.0,0.08076496207674921
887.0,0.08165507103772507
886.0,0.08270459905431071
885.0,0.08402008585977572
884.0,0.0856568428805593
883.0,0.0877779434675845
882.0,0.0905509530187334
881.0,0.09388054245443844
880.0,0.0978882765519955
879.0,0.10231793820358015
878.0,0.1071265931112344
877.0,0.11215773489264302
876.0,0.11719095860756013
875.0,0.12170805075020397
874.0,0.12522836281570182
873.0,0.12737762097471172
872.0,0.12784372725170723
871.0,0.12638880300353272
870.0,0.12314735239865637
869.0,0.11861534322942724
868.0,0.11345287660889425
867.0,0.10807246577932506
866.0,0.1028679566179056
865.0,0.09810596802617932
864.0,0.09398837472858723
863.0,0.09049745859458458
862.0,0.08772478950118767
861.0,0.08555105930144569
860.0,0.08396738981143059
859.0,0.08286224724355584
858.0,0.08212704480115218
857.0,0.08165507103772507
856.0,0.08144546944972642
855.0,0.08134070657817682
854.0,0.0812883346176787
853.0,0.08134070657817682
852.0,0.08139308485501817
851.0,0.08144546944972642
850.0,0.08149786036382611
849.0,0.08155025759884227
848.0,0.08155025759884227
847.0,0.08155025759884227
846.0,0.08149786036382611
845.0,0.08149786036382611
844.0,0.08155025759884227
843.0,0.08144546944972642
842.0,0.0812883346176787
841.0,0.08118360963962057
840.0,0.08107890990866418
839.0,0.08076496207674921
838.0,0.08018997982980403
837.0,0.0794071379151915
836.0,0.07846958649875768
835.0,0.07743023101428781
834.0,0.07649693305789551
833.0,0.07556563645676939
832.0,0.07463633264589853
831.0,0.07360609973031784
830.0,0.0725783049495814
829.0,0.07155293679081787
828.0,0.07063217075990047
827.0,0.06966236426227002
826.0,0.06869471857832687
825.0,0.06793230779927839
824.0,0.06742477650170953
823.0,0.06701917807680191
822.0,0.06661395809694559
821.0,0.06620911585658007
820.0,0.06575411897692884
819.0,0.06529959828457499
818.0,0.06499684854634524
817.0,0.06484555278383164
816.0,0.06494641076893504
815.0,0.06509774167768612
814.0,0.06524912533642091
813.0,0.0653500770992892
812.0,0.06545105233385295
811.0,0.06550154875643233
810.0,0.06545105233385295
809.0,0.06529959828457499
808.0,0.06519865825346338
807.0,0.06509774167768612
806.0,0.06504729218214189
805.0,0.06504729218214189
804.0,0.06499684854634524
803.0,0.06474471821595262
802.0,0.06419054619006714
801.0,0.0636873663378068
800.0,0.06358680028852026
799.0,0.06434161389936577
798.0,0.0663102910421054
797.0,0.06956040523329987
796.0,0.07365755337434488
795.0,0.07743023101428781
794.0,0.07998108397108505
793.0,0.08081727095749947
792.0,0.08003329851661278
791.0,0.07800156869172903
790.0,0.07504911108438939
789.0,0.07175781684269089
788.0,0.0685421293109949
787.0,0.0653500770992892
786.0,0.062281556382736136
785.0,0.05933412752417122
784.0,0.05670338543334519
783.0,0.05443294655761144
782.0,0.052419250695677544
781.0,0.0506099933550872
780.0,0.048905443158337114
779.0,0.04740126547022694
778.0,0.046143701775014145
777.0,0.04513062893352182
776.0,0.04421607108308856
775.0,0.04320747962950522
774.0,0.04215336629184985
773.0,0.041149548320321694
772.0,0.04019568349166214
771.0,0.03924390909822728
770.0,0.03824678581321739
769.0,0.03720463014276687
768.0,0.036117771071222604
767.0,0.03503362516890207
766.0,0.034046110897937076
765.0,0.03310770413286357
764.0,0.03226486821611996
763.0,0.03142366482450232
762.0,0.03067729388779794
761.0,0.03002526987828502
760.0,0.029467170231675777
759.0,0.028863370523193765
758.0,0.028167720075074953
757.0,0.027288159452933503
756.0,0.02636422658259252
755.0,0.02558042614771394
754.0,0.025028005701930978
753.0,0.024706084643793647
752.0,0.024476287039668643
751.0,0.024246610963712723
750.0,0.02406295751688936
749.0,0.024017056287453542
748.0,0.024200690320592466
747.0,0.024706084643793647
746.0,0.025764722556973707
745.0,0.027658283674251827
744.0,0.03058408764601861
743.0,0.03479829897408804
742.0,0.04062466342415694
741.0,0.04866248120408234
740.0,0.05908526241971446
739.0,0.07170658776779781
738.0,0.0861331881037608
737.0,0.10193333935836524
736.0,0.11855827805860697
735.0,0.13531096586314884
734.0,0.1517492853229574
733.0,0.16838614469090118
732.0,0.18555262147751228
731.0,0.2036338450224786
730.0,0.2228632874958274
729.0,0.24366823267894233
728.0,0.2659205927194057
727.0,0.2881084501194211
726.0,0.3078583906332164
725.0,0.32275815405334596
724.0,0.33003263009149597
723.0,0.328271911760442
722.0,0.3177646430974359
721.0,0.30076949711659084
720.0,0.2800061736323962
719.0,0.25798225285986165
718.0,0.23687162320086297
717.0,0.21795758337944582
716.0,0.2016256233184388
715.0,0.1879561020697733
714.0,0.17672144304832926
713.0,0.16774662980299215
712.0,0.16077342598656452
711.0,0.15533647175976073
710.0,0.15088783381542248
709.0,0.14691047014813452
708.0,0.14302956651750764
707.0,0.1390633792999063
706.0,0.13513308567147386
705.0,0.13141433344123432
704.0,0.12796033202671375
703.0,0.12441789567211425
702.0,0.1207320431753871
701.0,0.1169634899723202
700.0,0.11317099532301778
699.0,0.10913206118855912
698.0,0.10507502264045665
697.0,0.10127481841050656
696.0,0.09810596802617932
695.0,0.09533854208447545
694.0,0.09274991711867164
693.0,0.09039048950983108
692.0,0.08836306687055773
691.0,0.0867691288864394
690.0,0.08570974433405087
689.0,0.08512818245994969
688.0,0.08486409337798806
687.0,0.08465293767580806
686.0,0.08454739831152125
685.0,0.08475850269380558
684.0,0.08533956941077814
683.0,0.08576265223225898
682.0,0.0856568428805593
681.0,0.08496970974083906
680.0,0.0838620168928248
679.0,0.08265206237222844
678.0,0.08149786036382611
677.0,0.08055578953476306
676.0,0.07987667370927598
675.0,0.07914650387874067
674.0,0.07820951434181311
673.0,0.07696333132921396
672.0,0.07541061433058172
671.0,0.07334892291111106
670.0,0.07078549626260622
669.0,0.06823711151882228
668.0,0.06671522765130522
667.0,0.06600683616875758
666.0,0.06550154875643233
665.0,0.06499684854634524
664.0,0.06444235490698613
663.0,0.06388856832514578
662.0,0.06328524178879635
661.0,0.06258241852286206
660.0,0.06198090252378963
659.0,0.06153031163235467
658.0,0.0611301784870133
657.0,0.060730413661268745
656.0,0.060430831344098435
655.0,0.06003170944866376
654.0,0.05938391766259232
653.0,0.058538260652670315
652.0,0.05764465029232335
651.0,0.0571489934456626
650.0,0.0571489934456626
649.0,0.05744631966579017
648.0,0.057743849580535134
647.0,0.05779345772290467
646.0,0.05749589383191922
645.0,0.05690137699451481
644.0,0.05601112492622806
643.0,0.0549747987575373
642.0,0.05423607688882637
641.0,0.05428528594013993
640.0,0.05507339001378431
639.0,0.056159373598738904
638.0,0.057396751157843484
637.0,0.05908526241971446
636.0,0.06163040254819374
635.0,0.06474471821595262
634.0,0.0676277178520861
633.0,0.06971335275448043
632.0,0.07047889936889606
631.0,0.06950943469373039
630.0,0.0671712330991534
629.0,0.06454311928839007
628.0,0.06258241852286206
627.0,0.06148027482350815
626.0,0.06108018775522828
625.0,0.06118017497378969
624.0,0.06143024377893891
623.0,0.06153031163235467
622.0,0.061380218497318895
621.0,0.06133019897732073
620.0,0.06153031163235467
619.0,0.06143024377893891
618.0,0.06028111764589528
617.0,0.05843887976392925
616.0,0.05680236993107379
615.0,0.05586292684190197
614.0,0.05546797900801881
613.0,0.05531996611868961
612.0,0.05541863577307371
611.0,0.05566540802921782
610.0,0.05571477931124735
609.0,0.05546797900801881
608.0,0.055122694036304765
607.0,0.05458065739693696
606.0,0.05379344615721715
605.0,0.0525172634430815
604.0,0.050902874887084115
603.0,0.04934311749548925
602.0,0.04817696468408794
601.0,0.04754660357696672
600.0,0.04744970610179822
