cm-1,A
4000.0,0.006651960076740071
3999.0,0.006696062080525422
3998.0,0.006740168563263094
3997.0,0.006740168563263094
3996.0,0.006696062080525422
3995.0,0.006696062080525422
3994.0,0.006696062080525422
3993.0,0.006740168563263094
3992.0,0.006740168563263094
3991.0,0.006740168563263094
3990.0,0.006740168563263094
3989.0,0.006696062080525422
3988.0,0.006651960076740071
3987.0,0.006607862550997545
3986.0,0.006607862550997545
3985.0,0.00656376950238835
3984.0,0.00656376950238835
3983.0,0.006607862550997545
3982.0,0.006651960076740071
3981.0,0.006696062080525422
3980.0,0.006696062080525422
3979.0,0.006740168563263094
3978.0,0.006740168563263094
3977.0,0.006740168563263094
3976.0,0.006740168563263094
3975.0,0.006696062080525422
3974.0,0.006651960076740071
3973.0,0.006607862550997545
3972.0,0.006607862550997545
3971.0,0.006651960076740071
3970.0,0.006651960076740071
3969.0,0.006696062080525422
3968.0,0.006740168563263094
3967.0,0.006784279525863024
3966.0,0.006784279525863024
3965.0,0.006828394969235152
3964.0,0.006828394969235152
3963.0,0.006872514894289861
3962.0,0.006872514894289861
3961.0,0.006872514894289861
3960.0,0.006872514894289861
3959.0,0.006872514894289861
3958.0,0.006828394969235152
3957.0,0.006828394969235152
3956.0,0.006828394969235152
3955.0,0.006828394969235152
3954.0,0.006784279525863024
3953.0,0.006740168563263094
3952.0,0.006696062080525422
3951.0,0.006740168563263094
3950.0,0.006784279525863024
3949.0,0.006872514894289861
3948.0,0.006916639301937977
3947.0,0.006916639301937977
3946.0,0.006916639301937977
3945.0,0.006916639301937977
3944.0,0.006916639301937977
3943.0,0.00696076819309055
3942.0,0.007004901568658406
3941.0,0.007137328610972382
3940.0,0.007225635744644521
3939.0,0.007269796045857202
3938.0,0.007225635744644521
3937.0,0.007181479933320523
3936.0,0.007137328610972382
3935.0,0.007049039429553483
3934.0,0.007004901568658406
3933.0,0.00696076819309055
3932.0,0.006916639301937977
3931.0,0.00696076819309055
3930.0,0.007004901568658406
3929.0,0.007093181776687496
3928.0,0.007137328610972382
3927.0,0.007137328610972382
3926.0,0.007093181776687496
3925.0,0.007049039429553483
3924.0,0.00696076819309055
3923.0,0.006916639301937977
3922.0,0.00696076819309055
3921.0,0.007004901568658406
3920.0,0.007093181776687496
3919.0,0.007137328610972382
3918.0,0.007181479933320523
3917.0,0.007181479933320523
3916.0,0.007137328610972382
3915.0,0.007093181776687496
3914.0,0.007093181776687496
3913.0,0.007049039429553483
3912.0,0.007049039429553483
3911.0,0.007049039429553483
3910.0,0.007093181776687496
3909.0,0.007137328610972382
3908.0,0.007225635744644521
3907.0,0.007269796045857202
3906.0,0.007313960837872058
3905.0,0.007402303897961815
3904.0,0.007402303897961815
3903.0,0.007402303897961815
3902.0,0.007358130121602358
3901.0,0.007313960837872058
3900.0,0.007269796045857202
3899.0,0.007269796045857202
3898.0,0.007225635744644521
3897.0,0.007225635744644521
3896.0,0.007225635744644521
3895.0,0.007225635744644521
3894.0,0.007225635744644521
3893.0,0.007225635744644521
3892.0,0.007225635744644521
3891.0,0.007225635744644521
3890.0,0.007225635744644521
3889.0,0.007269796045857202
3888.0,0.007313960837872058
3887.0,0.007358130121602358
3886.0,0.007358130121602358
3885.0,0.007402303897961815
3884.0,0.007402303897961815
3883.0,0.007358130121602358
3882.0,0.007269796045857202
3881.0,0.007225635744644521
3880.0,0.007225635744644521
3879.0,0.007269796045857202
3878.0,0.007269796045857202
3877.0,0.007225635744644521
3876.0,0.007181479933320523
3875.0,0.007181479933320523
3874.0,0.007313960837872058
3873.0,0.007402303897961815
3872.0,0.0074464821678643656
3871.0,0.007402303897961815
3870.0,0.007358130121602358
3869.0,0.007402303897961815
3868.0,0.0074464821678643656
3867.0,0.007490664932224611
3866.0,0.0075790439479759275
3865.0,0.00762324020119709
3864.0,0.00762324020119709
3863.0,0.0075790439479759275
3862.0,0.007534852191956709
3861.0,0.007534852191956709
3860.0,0.007490664932224611
3859.0,0.0074464821678643656
3858.0,0.007358130121602358
3857.0,0.007358130121602358
3856.0,0.007402303897961815
3855.0,0.0074464821678643656
3854.0,0.007490664932224611
3853.0,0.007534852191956709
3852.0,0.0075790439479759275
3851.0,0.007667440952535687
3850.0,0.007711646202907652
3849.0,0.007711646202907652
3848.0,0.007711646202907652
3847.0,0.007711646202907652
3846.0,0.007667440952535687
3845.0,0.00762324020119709
3844.0,0.00762324020119709
3843.0,0.00762324020119709
3842.0,0.0075790439479759275
3841.0,0.007534852191956709
3840.0,0.007490664932224611
3839.0,0.007402303897961815
3838.0,0.007313960837872058
3837.0,0.007313960837872058
3836.0,0.007358130121602358
3835.0,0.0074464821678643656
3834.0,0.007534852191956709
3833.0,0.0075790439479759275
3832.0,0.0075790439479759275
3831.0,0.0075790439479759275
3830.0,0.0075790439479759275
3829.0,0.0075790439479759275
3828.0,0.007534852191956709
3827.0,0.0075790439479759275
3826.0,0.00762324020119709
3825.0,0.007667440952535687
3824.0,0.007711646202907652
3823.0,0.007711646202907652
3822.0,0.007755855953228474
3821.0,0.007844288957383316
3820.0,0.007888512213050314
3819.0,0.007800070204414977
3818.0,0.007667440952535687
3817.0,0.007490664932224611
3816.0,0.0074464821678643656
3815.0,0.007534852191956709
3814.0,0.007711646202907652
3813.0,0.007800070204414977
3812.0,0.007844288957383316
3811.0,0.007844288957383316
3810.0,0.007844288957383316
3809.0,0.007755855953228474
3808.0,0.007667440952535687
3807.0,0.007667440952535687
3806.0,0.007667440952535687
3805.0,0.007711646202907652
3804.0,0.007755855953228474
3803.0,0.007755855953228474
3802.0,0.007711646202907652
3801.0,0.00762324020119709
3800.0,0.0075790439479759275
3799.0,0.007490664932224611
3798.0,0.007490664932224611
3797.0,0.007534852191956709
3796.0,0.00762324020119709
3795.0,0.007711646202907652
3794.0,0.007755855953228474
3793.0,0.007800070204414977
3792.0,0.007800070204414977
3791.0,0.007844288957383316
3790.0,0.007844288957383316
3789.0,0.007844288957383316
3788.0,0.007800070204414977
3787.0,0.007800070204414977
3786.0,0.007800070204414977
3785.0,0.007800070204414977
3784.0,0.007755855953228474
3783.0,0.007711646202907652
3782.0,0.007667440952535687
3781.0,0.00762324020119709
3780.0,0.007667440952535687
3779.0,0.007755855953228474
3778.0,0.007844288957383316
3777.0,0.007932739972333236
3776.0,0.007976972236149349
3775.0,0.007976972236149349
3774.0,0.007932739972333236
3773.0,0.007888512213050314
3772.0,0.007800070204414977
3771.0,0.007800070204414977
3770.0,0.007844288957383316
3769.0,0.007932739972333236
3768.0,0.008021209005416363
3767.0,0.008065450281052211
3766.0,0.008065450281052211
3765.0,0.008021209005416363
3764.0,0.007976972236149349
3763.0,0.007932739972333236
3762.0,0.007888512213050314
3761.0,0.007844288957383316
3760.0,0.007755855953228474
3759.0,0.007711646202907652
3758.0,0.007711646202907652
3757.0,0.007711646202907652
3756.0,0.007755855953228474
3755.0,0.007800070204414977
3754.0,0.007844288957383316
3753.0,0.007976972236149349
3752.0,0.008109696063975047
3751.0,0.008198201155356077
3750.0,0.008198201155356077
3749.0,0.008242460465651913
3748.0,0.008286724286910463
3747.0,0.008286724286910463
3746.0,0.008286724286910463
3745.0,0.008242460465651913
3744.0,0.008153946355103248
3743.0,0.008109696063975047
3742.0,0.008109696063975047
3741.0,0.008109696063975047
3740.0,0.008198201155356077
3739.0,0.008242460465651913
3738.0,0.008286724286910463
3737.0,0.008286724286910463
3736.0,0.008153946355103248
3735.0,0.007932739972333236
3734.0,0.007711646202907652
3733.0,0.007534852191956709
3732.0,0.007490664932224611
3731.0,0.007490664932224611
3730.0,0.0074464821678643656
3729.0,0.0074464821678643656
3728.0,0.0074464821678643656
3727.0,0.007490664932224611
3726.0,0.00762324020119709
3725.0,0.007755855953228474
3724.0,0.007888512213050314
3723.0,0.007932739972333236
3722.0,0.008021209005416363
3721.0,0.008065450281052211
3720.0,0.008065450281052211
3719.0,0.008065450281052211
3718.0,0.008021209005416363
3717.0,0.007976972236149349
3716.0,0.007932739972333236
3715.0,0.007888512213050314
3714.0,0.007888512213050314
3713.0,0.008021209005416363
3712.0,0.008198201155356077
3711.0,0.008330992620051436
3710.0,0.008286724286910463
3709.0,0.008198201155356077
3708.0,0.008109696063975047
3707.0,0.008065450281052211
3706.0,0.008021209005416363
3705.0,0.007932739972333236
3704.0,0.007844288957383316
3703.0,0.007755855953228474
3702.0,0.007711646202907652
3701.0,0.007755855953228474
3700.0,0.007844288957383316
3699.0,0.007888512213050314
3698.0,0.007888512213050314
3697.0,0.007844288957383316
3696.0,0.007800070204414977
3695.0,0.007755855953228474
3694.0,0.007755855953228474
3693.0,0.007755855953228474
3692.0,0.007755855953228474
3691.0,0.007711646202907652
3690.0,0.007667440952535687
3689.0,0.007711646202907652
3688.0,0.007800070204414977
3687.0,0.007932739972333236
3686.0,0.008021209005416363
3685.0,0.008065450281052211
3684.0,0.008065450281052211
3683.0,0.008109696063975047
3682.0,0.008198201155356077
3681.0,0.008242460465651913
3680.0,0.008242460465651913
3679.0,0.008242460465651913
3678.0,0.008153946355103248
3677.0,0.008065450281052211
3676.0,0.008021209005416363
3675.0,0.008065450281052211
3674.0,0.008198201155356077
3673.0,0.008242460465651913
3672.0,0.008286724286910463
3671.0,0.008286724286910463
3670.0,0.008286724286910463
3669.0,0.008375265465994541
3668.0,0.008419542825660153
3667.0,0.008419542825660153
3666.0,0.008330992620051436
3665.0,0.008242460465651913
3664.0,0.008198201155356077
3663.0,0.008242460465651913
3662.0,0.008286724286910463
3661.0,0.008375265465994541
3660.0,0.008463824699968647
3659.0,0.008552401996197112
3658.0,0.008640997362049818
3657.0,0.0087296108049002
3656.0,0.008818242332126802
3655.0,0.008906891951112605
3654.0,0.008951223547323472
3653.0,0.008906891951112605
3652.0,0.008906891951112605
3651.0,0.008951223547323472
3650.0,0.009039900317800775
3649.0,0.008995559669244813
3648.0,0.008995559669244813
3647.0,0.009039900317800775
3646.0,0.00908424549391551
3645.0,0.009128595198514056
3644.0,0.00908424549391551
3643.0,0.008995559669244813
3642.0,0.008951223547323472
3641.0,0.008951223547323472
3640.0,0.008951223547323472
3639.0,0.008951223547323472
3638.0,0.008951223547323472
3637.0,0.008951223547323472
3636.0,0.008906891951112605
3635.0,0.008906891951112605
3634.0,0.008951223547323472
3633.0,0.00908424549391551
3632.0,0.009172949432521227
3631.0,0.009306039320248427
3630.0,0.009350411681145587
3629.0,0.009350411681145587
3628.0,0.009306039320248427
3627.0,0.009306039320248427
3626.0,0.009306039320248427
3625.0,0.009350411681145587
3624.0,0.00939478857608056
3623.0,0.009439170005980158
3622.0,0.009483555971770974
3621.0,0.009439170005980158
3620.0,0.00939478857608056
3619.0,0.009439170005980158
3618.0,0.009572341514736404
3617.0,0.009705553871561357
3616.0,0.009838807101520963
3615.0,0.009927665307847056
3614.0,0.01001654169860089
3613.0,0.010105436281226954
3612.0,0.010194349063173958
3611.0,0.010283280051895272
3610.0,0.010283280051895272
3609.0,0.01023881228122181
3608.0,0.010194349063173958
3607.0,0.010149890396819572
3606.0,0.010194349063173958
3605.0,0.010194349063173958
3604.0,0.010149890396819572
3603.0,0.010105436281226954
3602.0,0.01001654169860089
3601.0,0.010060986715464404
3600.0,0.010194349063173958
3599.0,0.010416710688994968
3598.0,0.010639186223752484
3597.0,0.010728208358306901
3596.0,0.010683695010048622
3595.0,0.010639186223752484
3594.0,0.010594681998483901
3593.0,0.010639186223752484
3592.0,0.010728208358306901
3591.0,0.01077272626946324
3590.0,0.010817248744452446
3589.0,0.010817248744452446
3588.0,0.01086177578421088
3587.0,0.010906307389674463
3586.0,0.010995384301463185
3585.0,0.011084479487313281
3584.0,0.011129033935354915
3583.0,0.011129033935354915
3582.0,0.01117359295472431
3581.0,0.011218156546359825
3580.0,0.011218156546359825
3579.0,0.011262724711199823
3578.0,0.011262724711199823
3577.0,0.011262724711199823
3576.0,0.011307297450183107
3575.0,0.011351874764248926
3574.0,0.011396456654336085
3573.0,0.011485634166333858
3572.0,0.011530229790124524
3571.0,0.011619434777991433
3570.0,0.011664044143949504
3569.0,0.011797899741219142
3568.0,0.011931796607364653
3567.0,0.012065734767841452
3566.0,0.012110390002254778
3565.0,0.012065734767841452
3564.0,0.0119764380713403
3563.0,0.011887159731648111
3562.0,0.011887159731648111
3561.0,0.011887159731648111
3560.0,0.0119764380713403
3559.0,0.012065734767841452
3558.0,0.012110390002254778
3557.0,0.01215504982870197
3556.0,0.012199714248127602
3555.0,0.012244383261476699
3554.0,0.012378417874516323
3553.0,0.012467797270160563
3552.0,0.01260190086298274
3551.0,0.01264661126420652
3550.0,0.01264661126420652
3549.0,0.01264661126420652
3548.0,0.01264661126420652
3547.0,0.01264661126420652
3546.0,0.01260190086298274
3545.0,0.01260190086298274
3544.0,0.01264661126420652
3543.0,0.012691326268817527
3542.0,0.012736045877764557
3541.0,0.012780770091995297
3540.0,0.012825498912458322
3539.0,0.012780770091995297
3538.0,0.012736045877764557
3537.0,0.012691326268817527
3536.0,0.012736045877764557
3535.0,0.012780770091995297
3534.0,0.012870232340102872
3533.0,0.012959713020733288
3532.0,0.013004460275618523
3531.0,0.013093968619278806
3530.0,0.01318349541446362
3529.0,0.013273040668781544
3528.0,0.013317820220494436
3527.0,0.013362604389846044
3526.0,0.013362604389846044
3525.0,0.013362604389846044
3524.0,0.013362604389846044
3523.0,0.013362604389846044
3522.0,0.013362604389846044
3521.0,0.013362604389846044
3520.0,0.013362604389846044
3519.0,0.013362604389846044
3518.0,0.013317820220494436
3517.0,0.013317820220494436
3516.0,0.013317820220494436
3515.0,0.013407393177789162
3514.0,0.013496984613259544
3513.0,0.013631406429727155
3512.0,0.013765869865004277
3511.0,0.01385553528947936
3510.0,0.013945219230304673
3509.0,0.013990068146738865
3508.0,0.013990068146738865
3507.0,0.013990068146738865
3506.0,0.013990068146738865
3505.0,0.013990068146738865
3504.0,0.013990068146738865
3503.0,0.013990068146738865
3502.0,0.013990068146738865
3501.0,0.014079779876432497
3500.0,0.014169510141607944
3499.0,0.014214382227394795
3498.0,0.014259258949925524
3497.0,0.014214382227394795
3496.0,0.014169510141607944
3495.0,0.014169510141607944
3494.0,0.014124642691606404
3493.0,0.014124642691606404
3492.0,0.014169510141607944
3491.0,0.014169510141607944
3490.0,0.014214382227394795
3489.0,0.014214382227394795
3488.0,0.014259258949925524
3487.0,0.014304140310157809
3486.0,0.014393916947563534
3485.0,0.0144837121472845
3484.0,0.0144837121472845
3483.0,0.0144837121472845
3482.0,0.0144837121472845
3481.0,0.0144837121472845
3480.0,0.01452861671041239
3479.0,0.01452861671041239
3478.0,0.01452861671041239
3477.0,0.014573525916998342
3476.0,0.014663358264387139
3475.0,0.014708281407112
3474.0,0.014753209197138295
3473.0,0.014753209197138295
3472.0,0.014708281407112
3471.0,0.014708281407112
3470.0,0.014753209197138295
3469.0,0.014843078722943437
3468.0,0.014888020460646079
3467.0,0.014932966849499074
3466.0,0.014932966849499074
3465.0,0.014932966849499074
3464.0,0.014888020460646079
3463.0,0.014888020460646079
3462.0,0.014888020460646079
3461.0,0.014888020460646079
3460.0,0.014932966849499074
3459.0,0.014977917890464765
3458.0,0.015067833932588037
3457.0,0.015112798935672522
3456.0,0.015112798935672522
3455.0,0.015067833932588037
3454.0,0.015022873584506602
3453.0,0.015022873584506602
3452.0,0.015112798935672522
3451.0,0.015202742910707112
3450.0,0.015337693809893471
3449.0,0.015427684378367834
3448.0,0.015427684378367834
3447.0,0.01538268676325183
3446.0,0.015337693809893471
3445.0,0.015337693809893471
3444.0,0.015427684378367834
3443.0,0.015517693597737248
3442.0,0.015607721475734415
3441.0,0.015652742414136167
3440.0,0.015652742414136167
3439.0,0.015562705203923999
3438.0,0.015517693597737248
3437.0,0.015517693597737248
3436.0,0.015517693597737248
3435.0,0.015517693597737248
3434.0,0.015517693597737248
3433.0,0.015517693597737248
3432.0,0.015562705203923999
3431.0,0.015652742414136167
3430.0,0.015742798294583915
3429.0,0.015832872853011715
3428.0,0.015877917138889863
3427.0,0.015832872853011715
3426.0,0.01578783323856614
3425.0,0.015697768020096703
3424.0,0.015697768020096703
3423.0,0.01578783323856614
3422.0,0.015922966097169144
3421.0,0.016058141016111804
3420.0,0.016103208673694303
3419.0,0.016058141016111804
3418.0,0.016013078034810446
3417.0,0.01596801972881945
3416.0,0.015922966097169144
3415.0,0.01596801972881945
3414.0,0.01596801972881945
3413.0,0.01596801972881945
3412.0,0.016013078034810446
3411.0,0.016058141016111804
3410.0,0.016103208673694303
3409.0,0.016148281008528276
3408.0,0.016193358021584725
3407.0,0.016193358021584725
3406.0,0.016148281008528276
3405.0,0.016103208673694303
3404.0,0.016013078034810446
3403.0,0.01596801972881945
3402.0,0.01596801972881945
3401.0,0.01596801972881945
3400.0,0.01596801972881945
3399.0,0.01596801972881945
3398.0,0.016013078034810446
3397.0,0.016103208673694303
3396.0,0.016238439713835096
3395.0,0.016373712875465518
3394.0,0.016509028184833463
3393.0,0.016509028184833463
3392.0,0.016509028184833463
3391.0,0.016509028184833463
3390.0,0.016509028184833463
3389.0,0.016509028184833463
3388.0,0.016509028184833463
3387.0,0.016509028184833463
3386.0,0.016554142658660398
3385.0,0.016554142658660398
3384.0,0.016554142658660398
3383.0,0.016509028184833463
3382.0,0.016509028184833463
3381.0,0.016554142658660398
3380.0,0.016599261819461697
3379.0,0.016644385668211692
3378.0,0.016644385668211692
3377.0,0.016599261819461697
3376.0,0.016509028184833463
3375.0,0.01646391839700767
3374.0,0.016418813294209356
3373.0,0.016418813294209356
3372.0,0.016418813294209356
3371.0,0.01646391839700767
3370.0,0.016509028184833463
3369.0,0.016509028184833463
3368.0,0.016509028184833463
3367.0,0.016509028184833463
3366.0,0.016554142658660398
3365.0,0.016599261819461697
3364.0,0.016644385668211692
3363.0,0.016644385668211692
3362.0,0.016599261819461697
3361.0,0.016554142658660398
3360.0,0.016509028184833463
3359.0,0.016554142658660398
3358.0,0.016554142658660398
3357.0,0.016599261819461697
3356.0,0.016599261819461697
3355.0,0.016554142658660398
3354.0,0.016509028184833463
3353.0,0.016509028184833463
3352.0,0.016509028184833463
3351.0,0.016599261819461697
3350.0,0.016689514205884493
3349.0,0.01677978535189717
3348.0,0.01677978535189717
3347.0,0.016734647433454652
3346.0,0.016734647433454652
3345.0,0.016734647433454652
3344.0,0.01677978535189717
3343.0,0.016824927962187042
3342.0,0.01677978535189717
3341.0,0.016734647433454652
3340.0,0.016689514205884493
3339.0,0.016689514205884493
3338.0,0.016689514205884493
3337.0,0.016689514205884493
3336.0,0.016644385668211692
3335.0,0.016644385668211692
3334.0,0.016689514205884493
3333.0,0.016689514205884493
3332.0,0.016689514205884493
3331.0,0.016689514205884493
3330.0,0.016689514205884493
3329.0,0.016734647433454652
3328.0,0.01677978535189717
3327.0,0.01677978535189717
3326.0,0.016824927962187042
3325.0,0.016824927962187042
3324.0,0.016824927962187042
3323.0,0.01677978535189717
3322.0,0.016644385668211692
3321.0,0.016509028184833463
3320.0,0.01646391839700767
3319.0,0.01646391839700767
3318.0,0.016509028184833463
3317.0,0.016509028184833463
3316.0,0.01646391839700767
3315.0,0.016418813294209356
3314.0,0.016418813294209356
3313.0,0.016509028184833463
3312.0,0.016644385668211692
3311.0,0.016734647433454652
3310.0,0.01677978535189717
3309.0,0.01677978535189717
3308.0,0.01677978535189717
3307.0,0.016824927962187042
3306.0,0.016870075265299933
3305.0,0.016870075265299933
3304.0,0.016870075265299933
3303.0,0.01677978535189717
3302.0,0.016689514205884493
3301.0,0.016689514205884493
3300.0,0.016689514205884493
3299.0,0.016689514205884493
3298.0,0.016644385668211692
3297.0,0.016599261819461697
3296.0,0.016554142658660398
3295.0,0.016554142658660398
3294.0,0.016599261819461697
3293.0,0.016599261819461697
3292.0,0.016599261819461697
3291.0,0.016599261819461697
3290.0,0.016599261819461697
3289.0,0.016599261819461697
3288.0,0.016644385668211692
3287.0,0.016644385668211692
3286.0,0.016599261819461697
3285.0,0.016599261819461697
3284.0,0.016599261819461697
3283.0,0.016599261819461697
3282.0,0.016599261819461697
3281.0,0.016644385668211692
3280.0,0.016689514205884493
3279.0,0.01677978535189717
3278.0,0.016870075265299933
3277.0,0.016915227262211507
3276.0,0.016915227262211507
3275.0,0.016870075265299933
3274.0,0.01677978535189717
3273.0,0.016734647433454652
3272.0,0.016689514205884493
3271.0,0.016644385668211692
3270.0,0.016599261819461697
3269.0,0.016554142658660398
3268.0,0.016509028184833463
3267.0,0.016509028184833463
3266.0,0.016509028184833463
3265.0,0.016554142658660398
3264.0,0.016554142658660398
3263.0,0.016599261819461697
3262.0,0.016689514205884493
3261.0,0.016734647433454652
3260.0,0.016734647433454652
3259.0,0.016734647433454652
3258.0,0.016689514205884493
3257.0,0.016689514205884493
3256.0,0.016689514205884493
3255.0,0.016689514205884493
3254.0,0.016689514205884493
3253.0,0.016689514205884493
3252.0,0.016644385668211692
3251.0,0.016644385668211692
3250.0,0.016644385668211692
3249.0,0.016734647433454652
3248.0,0.01677978535189717
3247.0,0.01677978535189717
3246.0,0.016689514205884493
3245.0,0.016554142658660398
3244.0,0.016509028184833463
3243.0,0.016554142658660398
3242.0,0.016644385668211692
3241.0,0.016734647433454652
3240.0,0.016734647433454652
3239.0,0.016734647433454652
3238.0,0.01677978535189717
3237.0,0.016870075265299933
3236.0,0.016915227262211507
3235.0,0.016870075265299933
3234.0,0.016734647433454652
3233.0,0.016644385668211692
3232.0,0.016554142658660398
3231.0,0.016599261819461697
3230.0,0.016644385668211692
3229.0,0.016689514205884493
3228.0,0.016734647433454652
3227.0,0.016734647433454652
3226.0,0.016734647433454652
3225.0,0.016689514205884493
3224.0,0.016689514205884493
3223.0,0.016689514205884493
3222.0,0.016689514205884493
3221.0,0.016599261819461697
3220.0,0.01646391839700767
3219.0,0.01632861713980338
3218.0,0.01628352608625061
3217.0,0.01628352608625061
3216.0,0.016373712875465518
3215.0,0.016418813294209356
3214.0,0.01646391839700767
3213.0,0.01646391839700767
3212.0,0.016418813294209356
3211.0,0.016373712875465518
3210.0,0.01628352608625061
3209.0,0.016238439713835096
3208.0,0.016238439713835096
3207.0,0.016238439713835096
3206.0,0.01632861713980338
3205.0,0.01646391839700767
3204.0,0.016554142658660398
3203.0,0.016554142658660398
3202.0,0.016418813294209356
3201.0,0.016238439713835096
3200.0,0.016013078034810446
3199.0,0.015877917138889863
3198.0,0.01578783323856614
3197.0,0.01578783323856614
3196.0,0.015832872853011715
3195.0,0.015832872853011715
3194.0,0.015832872853011715
3193.0,0.015832872853011715
3192.0,0.015832872853011715
3191.0,0.015832872853011715
3190.0,0.015832872853011715
3189.0,0.015832872853011715
3188.0,0.01578783323856614
3187.0,0.01578783323856614
3186.0,0.01578783323856614
3185.0,0.015697768020096703
3184.0,0.015607721475734415
3183.0,0.015562705203923999
3182.0,0.015562705203923999
3181.0,0.015607721475734415
3180.0,0.015652742414136167
3179.0,0.015607721475734415
3178.0,0.015562705203923999
3177.0,0.015517693597737248
3176.0,0.01547268665620738
3175.0,0.01547268665620738
3174.0,0.015517693597737248
3173.0,0.015562705203923999
3172.0,0.015562705203923999
3171.0,0.01547268665620738
3170.0,0.015427684378367834
3169.0,0.015337693809893471
3168.0,0.015292705517326866
3167.0,0.015292705517326866
3166.0,0.015292705517326866
3165.0,0.015247721884586563
3164.0,0.015202742910707112
3163.0,0.015157768594724175
3162.0,0.015157768594724175
3161.0,0.015157768594724175
3160.0,0.015157768594724175
3159.0,0.015157768594724175
3158.0,0.015202742910707112
3157.0,0.015202742910707112
3156.0,0.015157768594724175
3155.0,0.015112798935672522
3154.0,0.015022873584506602
3153.0,0.014977917890464765
3152.0,0.014977917890464765
3151.0,0.014977917890464765
3150.0,0.014977917890464765
3149.0,0.014977917890464765
3148.0,0.014977917890464765
3147.0,0.014977917890464765
3146.0,0.014932966849499074
3145.0,0.014888020460646079
3144.0,0.014843078722943437
3143.0,0.014798141635428141
3142.0,0.014753209197138295
3141.0,0.014708281407112
3140.0,0.014663358264387139
3139.0,0.014663358264387139
3138.0,0.014618439768003144
3137.0,0.014573525916998342
3136.0,0.01452861671041239
3135.0,0.0144837121472845
3134.0,0.014438812226654996
3133.0,0.014438812226654996
3132.0,0.0144837121472845
3131.0,0.014438812226654996
3130.0,0.014393916947563534
3129.0,0.014304140310157809
3128.0,0.014214382227394795
3127.0,0.014169510141607944
3126.0,0.014124642691606404
3125.0,0.014079779876432497
3124.0,0.014079779876432497
3123.0,0.01403492169512921
3122.0,0.013990068146738865
3121.0,0.01403492169512921
3120.0,0.01403492169512921
3119.0,0.014124642691606404
3118.0,0.014169510141607944
3117.0,0.014169510141607944
3116.0,0.014124642691606404
3115.0,0.014079779876432497
3114.0,0.01403492169512921
3113.0,0.013990068146738865
3112.0,0.014079779876432497
3111.0,0.014214382227394795
3110.0,0.014393916947563534
3109.0,0.014618439768003144
3108.0,0.014843078722943437
3107.0,0.015022873584506602
3106.0,0.015202742910707112
3105.0,0.01538268676325183
3104.0,0.015427684378367834
3103.0,0.015337693809893471
3102.0,0.015202742910707112
3101.0,0.014977917890464765
3100.0,0.014798141635428141
3099.0,0.014663358264387139
3098.0,0.014573525916998342
3097.0,0.0144837121472845
3096.0,0.0144837121472845
3095.0,0.014573525916998342
3094.0,0.014753209197138295
3093.0,0.014977917890464765
3092.0,0.015247721884586563
3091.0,0.015562705203923999
3090.0,0.015877917138889863
3089.0,0.01628352608625061
3088.0,0.016689514205884493
3087.0,0.017186237868137555
3086.0,0.017728766960431575
3085.0,0.018271974638383703
3084.0,0.018634490921455527
3083.0,0.018815862601645694
3082.0,0.018770512579999288
3081.0,0.018634490921455527
3080.0,0.018362575344230914
3079.0,0.01809082990920774
3078.0,0.017728766960431575
3077.0,0.017457417697056554
3076.0,0.017186237868137555
3075.0,0.017005545341335804
3074.0,0.016915227262211507
3073.0,0.016870075265299933
3072.0,0.016960383953898095
3071.0,0.017095882207371904
3070.0,0.017321806616515723
3069.0,0.017638298366853045
3068.0,0.01800028587012159
3067.0,0.01845319495476394
3066.0,0.019042683770379876
3065.0,0.019632973815224997
3064.0,0.02026956933771462
3063.0,0.020770406977844713
3062.0,0.021135015652343103
3061.0,0.02140867317992523
3060.0,0.021545566634771474
3059.0,0.021499930688540836
3058.0,0.021271822861508305
3057.0,0.020952673052035298
3056.0,0.02045162529590483
3055.0,0.01995115493504329
3054.0,0.019360432556262852
3053.0,0.018815862601645694
3052.0,0.018271974638383703
3051.0,0.01781925440359733
3050.0,0.017412209298337533
3049.0,0.017095882207371904
3048.0,0.016870075265299933
3047.0,0.016689514205884493
3046.0,0.016554142658660398
3045.0,0.01646391839700767
3044.0,0.016373712875465518
3043.0,0.016373712875465518
3042.0,0.016509028184833463
3041.0,0.016644385668211692
3040.0,0.016915227262211507
3039.0,0.017231422748988034
3038.0,0.01768353030793479
3037.0,0.018226681372252695
3036.0,0.018906576854070378
3035.0,0.019678413991243593
3034.0,0.02067930261797568
3033.0,0.021819483062586187
3032.0,0.02314585342378117
3031.0,0.024568191490736968
3030.0,0.026087429580295085
3029.0,0.02751945012352408
3028.0,0.028770552723758724
3027.0,0.02969962459782227
3026.0,0.030211462585061133
3025.0,0.03025802323714588
3024.0,0.029792641193145286
3023.0,0.028863370523193765
3022.0,0.027658283674251827
3021.0,0.026318081496016443
3020.0,0.024890010313838973
3019.0,0.02351246269481
3018.0,0.02227639471115217
3017.0,0.0211806132671577
3016.0,0.02022406727031445
3015.0,0.019451260640229506
3014.0,0.018815862601645694
3013.0,0.01831727262871463
3012.0,0.017864505196230507
3011.0,0.017502630802287644
3010.0,0.017186237868137555
3009.0,0.016960383953898095
3008.0,0.016870075265299933
3007.0,0.016915227262211507
3006.0,0.017005545341335804
3005.0,0.017141057687924732
3004.0,0.01727661233145472
3003.0,0.017321806616515723
3002.0,0.017321806616515723
3001.0,0.017231422748988034
3000.0,0.017005545341335804
2999.0,0.016644385668211692
2998.0,0.01628352608625061
2997.0,0.015877917138889863
2996.0,0.015517693597737248
2995.0,0.015202742910707112
2994.0,0.014888020460646079
2993.0,0.014573525916998342
2992.0,0.014304140310157809
2991.0,0.014124642691606404
2990.0,0.013990068146738865
2989.0,0.013900374944870508
2988.0,0.01381070026317599
2987.0,0.01381070026317599
2986.0,0.013765869865004277
2985.0,0.01372104409400876
2984.0,0.013631406429727155
2983.0,0.013541787262693505
2982.0,0.013496984613259544
2981.0,0.013496984613259544
2980.0,0.013541787262693505
2979.0,0.013586594534531482
2978.0,0.013631406429727155
2977.0,0.013631406429727155
2976.0,0.013631406429727155
2975.0,0.013631406429727155
2974.0,0.013586594534531482
2973.0,0.013586594534531482
2972.0,0.013631406429727155
2971.0,0.013765869865004277
2970.0,0.013945219230304673
2969.0,0.014079779876432497
2968.0,0.014259258949925524
2967.0,0.014393916947563534
2966.0,0.01452861671041239
2965.0,0.014663358264387139
2964.0,0.014798141635428141
2963.0,0.014888020460646079
2962.0,0.014977917890464765
2961.0,0.015202742910707112
2960.0,0.015427684378367834
2959.0,0.015742798294583915
2958.0,0.01596801972881945
2957.0,0.016148281008528276
2956.0,0.01628352608625061
2955.0,0.016418813294209356
2954.0,0.016599261819461697
2953.0,0.01677978535189717
2952.0,0.017050711425501408
2951.0,0.01727661233145472
2950.0,0.017547848615010242
2949.0,0.017864505196230507
2948.0,0.018181392829336396
2947.0,0.018543833477873584
2946.0,0.01899731005860028
2945.0,0.01949668180660491
2944.0,0.02004210665933459
2943.0,0.02058821736556471
2942.0,0.021135015652343103
2941.0,0.021773818325474092
2940.0,0.022505030926963654
2939.0,0.023283295636617574
2938.0,0.024108863598207186
2937.0,0.024936003904763915
2936.0,0.025810808881832736
2935.0,0.026733563891471412
2934.0,0.0277045713888604
2933.0,0.02872415126189476
2932.0,0.02969962459782227
2931.0,0.03063068826647264
2930.0,0.03147035562516054
2929.0,0.032311649546687526
2928.0,0.033060836978886954
2927.0,0.03376437590141812
2926.0,0.03442204208947208
2925.0,0.03503362516890207
2924.0,0.03545753392086315
2923.0,0.03578752703018084
2922.0,0.03592902944204468
2921.0,0.03597620715996652
2920.0,0.03592902944204468
2919.0,0.03583468937826462
2918.0,0.035693217696063595
2917.0,0.03545753392086315
2916.0,0.03517488211661135
2915.0,0.03484535401307465
2914.0,0.034469056377139484
2913.0,0.03409308450480819
2912.0,0.03367050483612166
2911.0,0.033201453616638954
2910.0,0.03273290844021437
2909.0,0.032218091924200776
2908.0,0.03170388495374454
2907.0,0.031190286087141805
2906.0,0.03067729388779794
2905.0,0.030164906924202484
2904.0,0.02960662792039992
2903.0,0.029002634427514717
2902.0,0.028445846553939003
2901.0,0.027936083991977778
2900.0,0.027426919073445077
2899.0,0.02696455931306696
2898.0,0.026456531467510258
2897.0,0.025949097207122573
2896.0,0.025488307262671706
2895.0,0.025074013910237447
2894.0,0.024660115394541604
2893.0,0.024338466818941473
2892.0,0.02406295751688936
2891.0,0.023787622882622816
2890.0,0.02351246269481
2889.0,0.023191662661933732
2888.0,0.022871099419317753
2887.0,0.02259651912656535
2886.0,0.022322112326006227
2885.0,0.022139270735302752
2884.0,0.02200219004126036
2883.0,0.021819483062586187
2882.0,0.02159120737696063
2881.0,0.021363051615525652
2880.0,0.02122621566987748
2879.0,0.021089422824428272
2878.0,0.0209982515252789
2877.0,0.020907099361673565
2876.0,0.020770406977844713
2875.0,0.02067930261797568
2874.0,0.02058821736556471
2873.0,0.020497151212598652
2872.0,0.020406104151069693
2871.0,0.020315076172974234
2870.0,0.02026956933771462
2869.0,0.02022406727031445
2868.0,0.02022406727031445
2867.0,0.02026956933771462
2866.0,0.02036058777709271
2865.0,0.020497151212598652
2864.0,0.02067930261797568
2863.0,0.020907099361673565
2862.0,0.021135015652343103
2861.0,0.0214542995372613
2860.0,0.021773818325474092
2859.0,0.022139270735302752
2858.0,0.02259651912656535
2857.0,0.023100049017062307
2856.0,0.023604163388120325
2855.0,0.02406295751688936
2854.0,0.024476287039668643
2853.0,0.02475205875931885
2852.0,0.02498200236711723
2851.0,0.02516604495145991
2850.0,0.025258095499050004
2849.0,0.025304128090317013
2848.0,0.02521206778644225
2847.0,0.025028005701930978
2846.0,0.02475205875931885
2845.0,0.02438440203310499
2844.0,0.023925268380126097
2843.0,0.02342078135989012
2842.0,0.02291687968414724
2841.0,0.022367834754000393
2840.0,0.021819483062586187
2839.0,0.02122621566987748
2838.0,0.020633757603838898
2837.0,0.020087589665283012
2836.0,0.01954210772389997
2835.0,0.019133445417920836
2834.0,0.018815862601645694
2833.0,0.018543833477873584
2832.0,0.018271974638383703
2831.0,0.018045555530026514
2830.0,0.01781925440359733
2829.0,0.017547848615010242
2828.0,0.017321806616515723
2827.0,0.017141057687924732
2826.0,0.017005545341335804
2825.0,0.016915227262211507
2824.0,0.01677978535189717
2823.0,0.016689514205884493
2822.0,0.016644385668211692
2821.0,0.016599261819461697
2820.0,0.016599261819461697
2819.0,0.016554142658660398
2818.0,0.016554142658660398
2817.0,0.016509028184833463
2816.0,0.016418813294209356
2815.0,0.01632861713980338
2814.0,0.016238439713835096
2813.0,0.016103208673694303
2812.0,0.016058141016111804
2811.0,0.016013078034810446
2810.0,0.016013078034810446
2809.0,0.016013078034810446
2808.0,0.016013078034810446
2807.0,0.016013078034810446
2806.0,0.01596801972881945
2805.0,0.015877917138889863
2804.0,0.015832872853011715
2803.0,0.015832872853011715
2802.0,0.015832872853011715
2801.0,0.015832872853011715
2800.0,0.01578783323856614
2799.0,0.015697768020096703
2798.0,0.015562705203923999
2797.0,0.01547268665620738
2796.0,0.01538268676325183
2795.0,0.015337693809893471
2794.0,0.015337693809893471
2793.0,0.01538268676325183
2792.0,0.01538268676325183
2791.0,0.01538268676325183
2790.0,0.015337693809893471
2789.0,0.015292705517326866
2788.0,0.015247721884586563
2787.0,0.015247721884586563
2786.0,0.015247721884586563
2785.0,0.015247721884586563
2784.0,0.015247721884586563
2783.0,0.015202742910707112
2782.0,0.015202742910707112
2781.0,0.015157768594724175
2780.0,0.015157768594724175
2779.0,0.015157768594724175
2778.0,0.015157768594724175
2777.0,0.015112798935672522
2776.0,0.015112798935672522
2775.0,0.015067833932588037
2774.0,0.015022873584506602
2773.0,0.015022873584506602
2772.0,0.014977917890464765
2771.0,0.014932966849499074
2770.0,0.014932966849499074
2769.0,0.014888020460646079
2768.0,0.014843078722943437
2767.0,0.014753209197138295
2766.0,0.014753209197138295
2765.0,0.014708281407112
2764.0,0.014753209197138295
2763.0,0.014753209197138295
2762.0,0.014708281407112
2761.0,0.014663358264387139
2760.0,0.014663358264387139
2759.0,0.014663358264387139
2758.0,0.014708281407112
2757.0,0.014753209197138295
2756.0,0.014798141635428141
2755.0,0.014843078722943437
2754.0,0.014798141635428141
2753.0,0.014798141635428141
2752.0,0.014753209197138295
2751.0,0.014708281407112
2750.0,0.014708281407112
2749.0,0.014663358264387139
2748.0,0.014618439768003144
2747.0,0.014618439768003144
2746.0,0.014573525916998342
2745.0,0.01452861671041239
2744.0,0.01452861671041239
2743.0,0.0144837121472845
2742.0,0.0144837121472845
2741.0,0.014438812226654996
2740.0,0.014438812226654996
2739.0,0.014438812226654996
2738.0,0.0144837121472845
2737.0,0.01452861671041239
2736.0,0.014573525916998342
2735.0,0.014573525916998342
2734.0,0.014573525916998342
2733.0,0.01452861671041239
2732.0,0.01452861671041239
2731.0,0.0144837121472845
2730.0,0.0144837121472845
2729.0,0.014438812226654996
2728.0,0.014393916947563534
2727.0,0.014393916947563534
2726.0,0.014393916947563534
2725.0,0.014438812226654996
2724.0,0.014438812226654996
2723.0,0.014438812226654996
2722.0,0.0144837121472845
2721.0,0.0144837121472845
2720.0,0.0144837121472845
2719.0,0.0144837121472845
2718.0,0.0144837121472845
2717.0,0.0144837121472845
2716.0,0.0144837121472845
2715.0,0.014393916947563534
2714.0,0.014349026309051105
2713.0,0.014304140310157809
2712.0,0.014259258949925524
2711.0,0.014259258949925524
2710.0,0.014214382227394795
2709.0,0.014259258949925524
2708.0,0.014259258949925524
2707.0,0.014259258949925524
2706.0,0.014259258949925524
2705.0,0.014304140310157809
2704.0,0.014304140310157809
2703.0,0.014259258949925524
2702.0,0.014259258949925524
2701.0,0.014259258949925524
2700.0,0.014259258949925524
2699.0,0.014304140310157809
2698.0,0.014304140310157809
2697.0,0.014304140310157809
2696.0,0.014259258949925524
2695.0,0.014259258949925524
2694.0,0.014214382227394795
2693.0,0.014169510141607944
2692.0,0.014169510141607944
2691.0,0.014214382227394795
2690.0,0.014259258949925524
2689.0,0.014304140310157809
2688.0,0.014349026309051105
2687.0,0.014304140310157809
2686.0,0.014304140310157809
2685.0,0.014304140310157809
2684.0,0.014304140310157809
2683.0,0.014259258949925524
2682.0,0.014214382227394795
2681.0,0.014169510141607944
2680.0,0.014124642691606404
2679.0,0.014079779876432497
2678.0,0.014079779876432497
2677.0,0.014079779876432497
2676.0,0.014079779876432497
2675.0,0.014124642691606404
2674.0,0.014124642691606404
2673.0,0.014124642691606404
2672.0,0.014124642691606404
2671.0,0.014124642691606404
2670.0,0.014169510141607944
2669.0,0.014214382227394795
2668.0,0.014169510141607944
2667.0,0.014124642691606404
2666.0,0.014079779876432497
2665.0,0.014079779876432497
2664.0,0.014079779876432497
2663.0,0.014079779876432497
2662.0,0.014079779876432497
2661.0,0.014079779876432497
2660.0,0.014079779876432497
2659.0,0.01403492169512921
2658.0,0.01403492169512921
2657.0,0.01403492169512921
2656.0,0.01403492169512921
2655.0,0.013990068146738865
2654.0,0.01403492169512921
2653.0,0.01403492169512921
2652.0,0.01403492169512921
2651.0,0.01403492169512921
2650.0,0.013990068146738865
2649.0,0.013945219230304673
2648.0,0.013945219230304673
2647.0,0.013945219230304673
2646.0,0.013945219230304673
2645.0,0.013945219230304673
2644.0,0.013900374944870508
2643.0,0.01385553528947936
2642.0,0.01381070026317599
2641.0,0.01381070026317599
2640.0,0.01381070026317599
2639.0,0.013900374944870508
2638.0,0.013990068146738865
2637.0,0.01403492169512921
2636.0,0.01403492169512921
2635.0,0.01403492169512921
2634.0,0.013990068146738865
2633.0,0.013990068146738865
2632.0,0.013990068146738865
2631.0,0.01403492169512921
2630.0,0.01403492169512921
2629.0,0.01403492169512921
2628.0,0.01403492169512921
2627.0,0.013990068146738865
2626.0,0.013990068146738865
2625.0,0.013990068146738865
2624.0,0.013990068146738865
2623.0,0.013945219230304673
2622.0,0.013900374944870508
2621.0,0.013900374944870508
2620.0,0.013900374944870508
2619.0,0.013945219230304673
2618.0,0.013945219230304673
2617.0,0.013990068146738865
2616.0,0.013990068146738865
2615.0,0.013990068146738865
2614.0,0.013945219230304673
2613.0,0.013945219230304673
2612.0,0.013945219230304673
2611.0,0.013900374944870508
2610.0,0.013900374944870508
2609.0,0.01385553528947936
2608.0,0.013765869865004277
2607.0,0.013765869865004277
2606.0,0.013765869865004277
2605.0,0.013765869865004277
2604.0,0.01381070026317599
2603.0,0.01381070026317599
2602.0,0.01385553528947936
2601.0,0.013900374944870508
2600.0,0.013945219230304673
2599.0,0.013945219230304673
2598.0,0.013900374944870508
2597.0,0.01385553528947936
2596.0,0.01385553528947936
2595.0,0.01381070026317599
2594.0,0.01381070026317599
2593.0,0.01381070026317599
2592.0,0.01385553528947936
2591.0,0.01385553528947936
2590.0,0.01381070026317599
2589.0,0.01381070026317599
2588.0,0.013765869865004277
2587.0,0.01372104409400876
2586.0,0.013676222949234651
2585.0,0.013631406429727155
2584.0,0.013586594534531482
2583.0,0.013676222949234651
2582.0,0.013765869865004277
2581.0,0.01385553528947936
2580.0,0.013945219230304673
2579.0,0.013990068146738865
2578.0,0.013945219230304673
2577.0,0.013900374944870508
2576.0,0.01385553528947936
2575.0,0.01385553528947936
2574.0,0.01385553528947936
2573.0,0.01385553528947936
2572.0,0.01381070026317599
2571.0,0.013765869865004277
2570.0,0.013765869865004277
2569.0,0.01372104409400876
2568.0,0.01372104409400876
2567.0,0.01372104409400876
2566.0,0.013676222949234651
2565.0,0.013631406429727155
2564.0,0.013631406429727155
2563.0,0.013586594534531482
2562.0,0.013631406429727155
2561.0,0.013676222949234651
2560.0,0.013676222949234651
2559.0,0.01372104409400876
2558.0,0.013676222949234651
2557.0,0.013676222949234651
2556.0,0.013676222949234651
2555.0,0.01372104409400876
2554.0,0.01381070026317599
2553.0,0.01381070026317599
2552.0,0.01381070026317599
2551.0,0.013765869865004277
2550.0,0.01372104409400876
2549.0,0.013676222949234651
2548.0,0.013631406429727155
2547.0,0.013586594534531482
2546.0,0.013541787262693505
2545.0,0.013541787262693505
2544.0,0.013541787262693505
2543.0,0.013586594534531482
2542.0,0.013676222949234651
2541.0,0.013676222949234651
2540.0,0.01372104409400876
2539.0,0.01372104409400876
2538.0,0.01372104409400876
2537.0,0.01372104409400876
2536.0,0.01372104409400876
2535.0,0.01372104409400876
2534.0,0.01372104409400876
2533.0,0.013631406429727155
2532.0,0.013586594534531482
2531.0,0.013586594534531482
2530.0,0.013541787262693505
2529.0,0.013541787262693505
2528.0,0.013496984613259544
2527.0,0.013496984613259544
2526.0,0.013541787262693505
2525.0,0.013586594534531482
2524.0,0.013631406429727155
2523.0,0.013631406429727155
2522.0,0.013631406429727155
2521.0,0.013631406429727155
2520.0,0.013631406429727155
2519.0,0.013586594534531482
2518.0,0.013586594534531482
2517.0,0.013586594534531482
2516.0,0.013586594534531482
2515.0,0.013586594534531482
2514.0,0.013586594534531482
2513.0,0.013586594534531482
2512.0,0.013586594534531482
2511.0,0.013631406429727155
2510.0,0.013631406429727155
2509.0,0.01372104409400876
2508.0,0.01372104409400876
2507.0,0.013765869865004277
2506.0,0.01372104409400876
2505.0,0.013676222949234651
2504.0,0.013676222949234651
2503.0,0.013631406429727155
2502.0,0.013631406429727155
2501.0,0.013676222949234651
2500.0,0.013676222949234651
2499.0,0.013631406429727155
2498.0,0.013586594534531482
2497.0,0.013541787262693505
2496.0,0.013541787262693505
2495.0,0.013586594534531482
2494.0,0.013586594534531482
2493.0,0.013631406429727155
2492.0,0.013631406429727155
2491.0,0.013631406429727155
2490.0,0.013676222949234651
2489.0,0.01372104409400876
2488.0,0.01372104409400876
2487.0,0.013676222949234651
2486.0,0.013631406429727155
2485.0,0.013631406429727155
2484.0,0.013631406429727155
2483.0,0.013586594534531482
2482.0,0.013541787262693505
2481.0,0.013496984613259544
2480.0,0.013496984613259544
2479.0,0.013496984613259544
2478.0,0.013541787262693505
2477.0,0.013541787262693505
2476.0,0.013586594534531482
2475.0,0.013586594534531482
2474.0,0.013586594534531482
2473.0,0.013541787262693505
2472.0,0.013496984613259544
2471.0,0.013496984613259544
2470.0,0.013496984613259544
2469.0,0.013541787262693505
2468.0,0.013541787262693505
2467.0,0.013541787262693505
2466.0,0.013541787262693505
2465.0,0.013496984613259544
2464.0,0.013496984613259544
2463.0,0.013496984613259544
2462.0,0.013496984613259544
2461.0,0.013452186585275916
2460.0,0.013452186585275916
2459.0,0.013452186585275916
2458.0,0.013496984613259544
2457.0,0.013496984613259544
2456.0,0.013541787262693505
2455.0,0.013586594534531482
2454.0,0.013631406429727155
2453.0,0.013676222949234651
2452.0,0.013676222949234651
2451.0,0.013631406429727155
2450.0,0.013586594534531482
2449.0,0.013541787262693505
2448.0,0.013496984613259544
2447.0,0.013496984613259544
2446.0,0.013496984613259544
2445.0,0.013541787262693505
2444.0,0.013586594534531482
2443.0,0.013586594534531482
2442.0,0.013586594534531482
2441.0,0.013541787262693505
2440.0,0.013496984613259544
2439.0,0.013496984613259544
2438.0,0.013496984613259544
2437.0,0.013496984613259544
2436.0,0.013496984613259544
2435.0,0.013541787262693505
2434.0,0.013541787262693505
2433.0,0.013541787262693505
2432.0,0.013541787262693505
2431.0,0.013541787262693505
2430.0,0.013541787262693505
2429.0,0.013496984613259544
2428.0,0.013452186585275916
2427.0,0.013407393177789162
2426.0,0.013407393177789162
2425.0,0.013407393177789162
2424.0,0.013407393177789162
2423.0,0.013407393177789162
2422.0,0.013452186585275916
2421.0,0.013452186585275916
2420.0,0.013496984613259544
2419.0,0.013541787262693505
2418.0,0.013541787262693505
2417.0,0.013541787262693505
2416.0,0.013496984613259544
2415.0,0.013452186585275916
2414.0,0.013452186585275916
2413.0,0.013496984613259544
2412.0,0.013496984613259544
2411.0,0.013496984613259544
2410.0,0.013452186585275916
2409.0,0.013407393177789162
2408.0,0.013362604389846044
2407.0,0.013407393177789162
2406.0,0.013452186585275916
2405.0,0.013541787262693505
2404.0,0.013631406429727155
2403.0,0.013676222949234651
2402.0,0.01372104409400876
2401.0,0.013676222949234651
2400.0,0.013676222949234651
2399.0,0.013631406429727155
2398.0,0.013541787262693505
2397.0,0.013496984613259544
2396.0,0.013452186585275916
2395.0,0.013452186585275916
2394.0,0.013452186585275916
2393.0,0.013452186585275916
2392.0,0.013452186585275916
2391.0,0.013496984613259544
2390.0,0.013496984613259544
2389.0,0.013496984613259544
2388.0,0.013496984613259544
2387.0,0.013496984613259544
2386.0,0.013452186585275916
2385.0,0.013362604389846044
2384.0,0.013138729709955221
2383.0,0.012870232340102872
2382.0,0.012467797270160563
2381.0,0.012065734767841452
2380.0,0.011708658092512314
2379.0,0.011485634166333858
2378.0,0.011351874764248926
2377.0,0.011351874764248926
2376.0,0.011351874764248926
2375.0,0.011441043121384498
2374.0,0.011574829993696856
2373.0,0.011842527443247208
2372.0,0.01215504982870197
2371.0,0.012378417874516323
2370.0,0.012199714248127602
2369.0,0.011664044143949504
2368.0,0.010950843561779777
2367.0,0.010505687227290839
2366.0,0.01046119667949763
2365.0,0.010728208358306901
2364.0,0.010995384301463185
2363.0,0.011084479487313281
2362.0,0.011218156546359825
2361.0,0.011574829993696856
2360.0,0.012110390002254778
2359.0,0.012423105273012602
2358.0,0.012021084124518078
2357.0,0.011084479487313281
2356.0,0.01023881228122181
2355.0,0.009838807101520963
2354.0,0.009794384815193347
2353.0,0.00974996707218323
2352.0,0.009705553871561357
2351.0,0.009838807101520963
2350.0,0.010060986715464404
2349.0,0.01037222925484893
2348.0,0.010550182333308289
2347.0,0.010505687227290839
2346.0,0.010327752376126709
2345.0,0.01023881228122181
2344.0,0.010194349063173958
2343.0,0.010194349063173958
2342.0,0.010060986715464404
2341.0,0.009838807101520963
2340.0,0.009616741093766423
2339.0,0.009483555971770974
2338.0,0.009350411681145587
2337.0,0.009217308196862062
2336.0,0.009217308196862062
2335.0,0.00939478857608056
2334.0,0.009572341514736404
2333.0,0.009705553871561357
2332.0,0.009705553871561357
2331.0,0.00966114521239847
2330.0,0.00974996707218323
2329.0,0.009927665307847056
2328.0,0.010283280051895272
2327.0,0.010594681998483901
2326.0,0.01077272626946324
2325.0,0.01077272626946324
2324.0,0.01077272626946324
2323.0,0.010728208358306901
2322.0,0.010817248744452446
2321.0,0.011039929609661936
2320.0,0.011351874764248926
2319.0,0.011664044143949504
2318.0,0.011887159731648111
2317.0,0.012021084124518078
2316.0,0.012065734767841452
2315.0,0.0119764380713403
2314.0,0.011842527443247208
2313.0,0.011797899741219142
2312.0,0.011797899741219142
2311.0,0.011842527443247208
2310.0,0.011931796607364653
2309.0,0.012021084124518078
2308.0,0.012110390002254778
2307.0,0.012199714248127602
2306.0,0.012333735073725371
2305.0,0.012512493866907004
2304.0,0.01264661126420652
2303.0,0.012736045877764557
2302.0,0.012825498912458322
2301.0,0.012870232340102872
2300.0,0.012959713020733288
2299.0,0.013093968619278806
2298.0,0.01318349541446362
2297.0,0.01322826573375524
2296.0,0.01322826573375524
2295.0,0.013273040668781544
2294.0,0.013273040668781544
2293.0,0.013273040668781544
2292.0,0.013317820220494436
2291.0,0.013407393177789162
2290.0,0.013496984613259544
2289.0,0.013586594534531482
2288.0,0.013676222949234651
2287.0,0.01372104409400876
2286.0,0.013765869865004277
2285.0,0.013765869865004277
2284.0,0.013765869865004277
2283.0,0.013765869865004277
2282.0,0.013765869865004277
2281.0,0.013765869865004277
2280.0,0.01381070026317599
2279.0,0.01381070026317599
2278.0,0.01381070026317599
2277.0,0.013765869865004277
2276.0,0.013676222949234651
2275.0,0.013631406429727155
2274.0,0.013631406429727155
2273.0,0.013676222949234651
2272.0,0.013676222949234651
2271.0,0.013676222949234651
2270.0,0.013676222949234651
2269.0,0.013676222949234651
2268.0,0.013631406429727155
2267.0,0.013631406429727155
2266.0,0.013631406429727155
2265.0,0.013586594534531482
2264.0,0.013631406429727155
2263.0,0.013631406429727155
2262.0,0.013631406429727155
2261.0,0.013676222949234651
2260.0,0.01372104409400876
2259.0,0.013765869865004277
2258.0,0.01381070026317599
2257.0,0.01381070026317599
2256.0,0.01385553528947936
2255.0,0.01385553528947936
2254.0,0.01385553528947936
2253.0,0.013900374944870508
2252.0,0.013900374944870508
2251.0,0.013945219230304673
2250.0,0.013990068146738865
2249.0,0.013990068146738865
2248.0,0.013990068146738865
2247.0,0.013945219230304673
2246.0,0.013900374944870508
2245.0,0.01381070026317599
2244.0,0.013765869865004277
2243.0,0.013765869865004277
2242.0,0.013765869865004277
2241.0,0.01381070026317599
2240.0,0.013900374944870508
2239.0,0.013990068146738865
2238.0,0.013990068146738865
2237.0,0.01403492169512921
2236.0,0.013990068146738865
2235.0,0.013990068146738865
2234.0,0.013945219230304673
2233.0,0.013900374944870508
2232.0,0.01385553528947936
2231.0,0.01385553528947936
2230.0,0.01385553528947936
2229.0,0.013900374944870508
2228.0,0.013900374944870508
2227.0,0.013900374944870508
2226.0,0.013900374944870508
2225.0,0.01385553528947936
2224.0,0.013900374944870508
2223.0,0.013900374944870508
2222.0,0.013945219230304673
2221.0,0.013945219230304673
2220.0,0.013945219230304673
2219.0,0.013900374944870508
2218.0,0.013945219230304673
2217.0,0.013990068146738865
2216.0,0.01403492169512921
2215.0,0.014124642691606404
2214.0,0.014169510141607944
2213.0,0.014169510141607944
2212.0,0.014169510141607944
2211.0,0.014124642691606404
2210.0,0.014079779876432497
2209.0,0.014079779876432497
2208.0,0.01403492169512921
2207.0,0.01403492169512921
2206.0,0.01403492169512921
2205.0,0.01403492169512921
2204.0,0.01403492169512921
2203.0,0.01403492169512921
2202.0,0.01403492169512921
2201.0,0.01403492169512921
2200.0,0.01403492169512921
2199.0,0.013990068146738865
2198.0,0.013990068146738865
2197.0,0.013990068146738865
2196.0,0.013990068146738865
2195.0,0.013990068146738865
2194.0,0.013990068146738865
2193.0,0.01403492169512921
2192.0,0.01403492169512921
2191.0,0.01403492169512921
2190.0,0.013990068146738865
2189.0,0.013990068146738865
2188.0,0.013990068146738865
2187.0,0.01403492169512921
2186.0,0.01403492169512921
2185.0,0.014079779876432497
2184.0,0.01403492169512921
2183.0,0.01403492169512921
2182.0,0.014079779876432497
2181.0,0.014079779876432497
2180.0,0.014079779876432497
2179.0,0.01403492169512921
2178.0,0.01403492169512921
2177.0,0.013990068146738865
2176.0,0.013990068146738865
2175.0,0.01403492169512921
2174.0,0.013990068146738865
2173.0,0.013990068146738865
2172.0,0.013990068146738865
2171.0,0.013990068146738865
2170.0,0.013990068146738865
2169.0,0.013990068146738865
2168.0,0.013990068146738865
2167.0,0.01403492169512921
2166.0,0.01403492169512921
2165.0,0.01403492169512921
2164.0,0.014079779876432497
2163.0,0.014079779876432497
2162.0,0.014079779876432497
2161.0,0.01403492169512921
2160.0,0.013990068146738865
2159.0,0.013945219230304673
2158.0,0.013900374944870508
2157.0,0.013945219230304673
2156.0,0.013945219230304673
2155.0,0.013990068146738865
2154.0,0.01403492169512921
2153.0,0.014079779876432497
2152.0,0.014079779876432497
2151.0,0.014124642691606404
2150.0,0.014124642691606404
2149.0,0.014124642691606404
2148.0,0.014124642691606404
2147.0,0.014124642691606404
2146.0,0.014079779876432497
2145.0,0.014079779876432497
2144.0,0.014079779876432497
2143.0,0.014124642691606404
2142.0,0.014124642691606404
2141.0,0.014124642691606404
2140.0,0.014124642691606404
2139.0,0.014079779876432497
2138.0,0.01403492169512921
2137.0,0.01403492169512921
2136.0,0.01403492169512921
2135.0,0.01403492169512921
2134.0,0.01403492169512921
2133.0,0.014079779876432497
2132.0,0.014079779876432497
2131.0,0.014124642691606404
2130.0,0.014079779876432497
2129.0,0.014079779876432497
2128.0,0.014079779876432497
2127.0,0.014079779876432497
2126.0,0.014079779876432497
2125.0,0.014079779876432497
2124.0,0.014079779876432497
2123.0,0.014079779876432497
2122.0,0.014079779876432497
2121.0,0.014079779876432497
2120.0,0.014079779876432497
2119.0,0.014124642691606404
2118.0,0.014124642691606404
2117.0,0.014124642691606404
2116.0,0.014124642691606404
2115.0,0.014124642691606404
2114.0,0.014124642691606404
2113.0,0.014124642691606404
2112.0,0.014124642691606404
2111.0,0.014124642691606404
2110.0,0.014079779876432497
2109.0,0.014079779876432497
2108.0,0.014079779876432497
2107.0,0.014079779876432497
2106.0,0.014124642691606404
2105.0,0.014124642691606404
2104.0,0.014169510141607944
2103.0,0.014124642691606404
2102.0,0.014124642691606404
2101.0,0.014079779876432497
2100.0,0.014079779876432497
2099.0,0.014079779876432497
2098.0,0.014124642691606404
2097.0,0.014169510141607944
2096.0,0.014259258949925524
2095.0,0.014304140310157809
2094.0,0.014304140310157809
2093.0,0.014259258949925524
2092.0,0.014259258949925524
2091.0,0.014214382227394795
2090.0,0.014169510141607944
2089.0,0.014124642691606404
2088.0,0.014124642691606404
2087.0,0.014079779876432497
2086.0,0.014079779876432497
2085.0,0.014079779876432497
2084.0,0.014079779876432497
2083.0,0.014079779876432497
2082.0,0.014079779876432497
2081.0,0.014079779876432497
2080.0,0.014124642691606404
2079.0,0.014169510141607944
2078.0,0.014169510141607944
2077.0,0.014169510141607944
2076.0,0.014169510141607944
2075.0,0.014214382227394795
2074.0,0.014214382227394795
2073.0,0.014259258949925524
2072.0,0.014214382227394795
2071.0,0.014169510141607944
2070.0,0.014169510141607944
2069.0,0.014169510141607944
2068.0,0.014214382227394795
2067.0,0.014214382227394795
2066.0,0.014214382227394795
2065.0,0.014214382227394795
2064.0,0.014214382227394795
2063.0,0.014214382227394795
2062.0,0.014214382227394795
2061.0,0.014214382227394795
2060.0,0.014214382227394795
2059.0,0.014214382227394795
2058.0,0.014169510141607944
2057.0,0.014169510141607944
2056.0,0.014214382227394795
2055.0,0.014214382227394795
2054.0,0.014214382227394795
2053.0,0.014214382227394795
2052.0,0.014169510141607944
2051.0,0.014169510141607944
2050.0,0.014169510141607944
2049.0,0.014124642691606404
2048.0,0.014124642691606404
2047.0,0.014079779876432497
2046.0,0.014079779876432497
2045.0,0.014079779876432497
2044.0,0.014079779876432497
2043.0,0.014079779876432497
2042.0,0.014124642691606404
2041.0,0.014169510141607944
2040.0,0.014214382227394795
2039.0,0.014259258949925524
2038.0,0.014214382227394795
2037.0,0.014214382227394795
2036.0,0.014169510141607944
2035.0,0.014214382227394795
2034.0,0.014259258949925524
2033.0,0.014259258949925524
2032.0,0.014259258949925524
2031.0,0.014214382227394795
2030.0,0.014169510141607944
2029.0,0.014169510141607944
2028.0,0.014169510141607944
2027.0,0.014169510141607944
2026.0,0.014124642691606404
2025.0,0.014124642691606404
2024.0,0.014124642691606404
2023.0,0.014079779876432497
2022.0,0.01403492169512921
2021.0,0.01403492169512921
2020.0,0.01403492169512921
2019.0,0.014124642691606404
2018.0,0.014169510141607944
2017.0,0.014214382227394795
2016.0,0.014214382227394795
2015.0,0.014214382227394795
2014.0,0.014169510141607944
2013.0,0.014214382227394795
2012.0,0.014214382227394795
2011.0,0.014304140310157809
2010.0,0.014304140310157809
2009.0,0.014304140310157809
2008.0,0.014304140310157809
2007.0,0.014259258949925524
2006.0,0.014259258949925524
2005.0,0.014259258949925524
2004.0,0.014214382227394795
2003.0,0.014214382227394795
2002.0,0.014214382227394795
2001.0,0.014214382227394795
2000.0,0.014214382227394795
1999.0,0.014169510141607944
1998.0,0.014169510141607944
1997.0,0.014169510141607944
1996.0,0.014214382227394795
1995.0,0.014259258949925524
1994.0,0.014259258949925524
1993.0,0.014304140310157809
1992.0,0.014304140310157809
1991.0,0.014304140310157809
1990.0,0.014349026309051105
1989.0,0.014349026309051105
1988.0,0.014393916947563534
1987.0,0.014438812226654996
1986.0,0.014438812226654996
1985.0,0.014393916947563534
1984.0,0.014349026309051105
1983.0,0.014349026309051105
1982.0,0.014393916947563534
1981.0,0.014393916947563534
1980.0,0.014393916947563534
1979.0,0.014393916947563534
1978.0,0.014349026309051105
1977.0,0.014349026309051105
1976.0,0.014393916947563534
1975.0,0.014393916947563534
1974.0,0.014438812226654996
1973.0,0.0144837121472845
1972.0,0.0144837121472845
1971.0,0.0144837121472845
1970.0,0.01452861671041239
1969.0,0.014618439768003144
1968.0,0.014708281407112
1967.0,0.014798141635428141
1966.0,0.014932966849499074
1965.0,0.015067833932588037
1964.0,0.015202742910707112
1963.0,0.015292705517326866
1962.0,0.01538268676325183
1961.0,0.015427684378367834
1960.0,0.015517693597737248
1959.0,0.015562705203923999
1958.0,0.015562705203923999
1957.0,0.015607721475734415
1956.0,0.015652742414136167
1955.0,0.015742798294583915
1954.0,0.015832872853011715
1953.0,0.015922966097169144
1952.0,0.016058141016111804
1951.0,0.016148281008528276
1950.0,0.016238439713835096
1949.0,0.016373712875465518
1948.0,0.016509028184833463
1947.0,0.016644385668211692
1946.0,0.016734647433454652
1945.0,0.016824927962187042
1944.0,0.016915227262211507
1943.0,0.016960383953898095
1942.0,0.017005545341335804
1941.0,0.017050711425501408
1940.0,0.017050711425501408
1939.0,0.017005545341335804
1938.0,0.016915227262211507
1937.0,0.016824927962187042
1936.0,0.016644385668211692
1935.0,0.016509028184833463
1934.0,0.016373712875465518
1933.0,0.016238439713835096
1932.0,0.016103208673694303
1931.0,0.01596801972881945
1930.0,0.015832872853011715
1929.0,0.015742798294583915
1928.0,0.015652742414136167
1927.0,0.015562705203923999
1926.0,0.015517693597737248
1925.0,0.015427684378367834
1924.0,0.01538268676325183
1923.0,0.015292705517326866
1922.0,0.015247721884586563
1921.0,0.015202742910707112
1920.0,0.015157768594724175
1919.0,0.015112798935672522
1918.0,0.015067833932588037
1917.0,0.015022873584506602
1916.0,0.015022873584506602
1915.0,0.014977917890464765
1914.0,0.014977917890464765
1913.0,0.014977917890464765
1912.0,0.014977917890464765
1911.0,0.014977917890464765
1910.0,0.014977917890464765
1909.0,0.014977917890464765
1908.0,0.014932966849499074
1907.0,0.014932966849499074
1906.0,0.014888020460646079
1905.0,0.014888020460646079
1904.0,0.014888020460646079
1903.0,0.014888020460646079
1902.0,0.014932966849499074
1901.0,0.014977917890464765
1900.0,0.014977917890464765
1899.0,0.015022873584506602
1898.0,0.015022873584506602
1897.0,0.015067833932588037
1896.0,0.015112798935672522
1895.0,0.015157768594724175
1894.0,0.015202742910707112
1893.0,0.015292705517326866
1892.0,0.015337693809893471
1891.0,0.015427684378367834
1890.0,0.015517693597737248
1889.0,0.015697768020096703
1888.0,0.01578783323856614
1887.0,0.015877917138889863
1886.0,0.01596801972881945
1885.0,0.016013078034810446
1884.0,0.016058141016111804
1883.0,0.016148281008528276
1882.0,0.016193358021584725
1881.0,0.016238439713835096
1880.0,0.016238439713835096
1879.0,0.01628352608625061
1878.0,0.016373712875465518
1877.0,0.01646391839700767
1876.0,0.016509028184833463
1875.0,0.016554142658660398
1874.0,0.016599261819461697
1873.0,0.016689514205884493
1872.0,0.016734647433454652
1871.0,0.016734647433454652
1870.0,0.01677978535189717
1869.0,0.016824927962187042
1868.0,0.016870075265299933
1867.0,0.016870075265299933
1866.0,0.016870075265299933
1865.0,0.01677978535189717
1864.0,0.016734647433454652
1863.0,0.016644385668211692
1862.0,0.016509028184833463
1861.0,0.016373712875465518
1860.0,0.01628352608625061
1859.0,0.016148281008528276
1858.0,0.016058141016111804
1857.0,0.01596801972881945
1856.0,0.015877917138889863
1855.0,0.015697768020096703
1854.0,0.015562705203923999
1853.0,0.015427684378367834
1852.0,0.015337693809893471
1851.0,0.015292705517326866
1850.0,0.015292705517326866
1849.0,0.015292705517326866
1848.0,0.015247721884586563
1847.0,0.015247721884586563
1846.0,0.015202742910707112
1845.0,0.015202742910707112
1844.0,0.015202742910707112
1843.0,0.015157768594724175
1842.0,0.015112798935672522
1841.0,0.015112798935672522
1840.0,0.015112798935672522
1839.0,0.015157768594724175
1838.0,0.015202742910707112
1837.0,0.015202742910707112
1836.0,0.015247721884586563
1835.0,0.015247721884586563
1834.0,0.015292705517326866
1833.0,0.015247721884586563
1832.0,0.015247721884586563
1831.0,0.015157768594724175
1830.0,0.015112798935672522
1829.0,0.015112798935672522
1828.0,0.015157768594724175
1827.0,0.015247721884586563
1826.0,0.015337693809893471
1825.0,0.015427684378367834
1824.0,0.015517693597737248
1823.0,0.015607721475734415
1822.0,0.015697768020096703
1821.0,0.015742798294583915
1820.0,0.015832872853011715
1819.0,0.015877917138889863
1818.0,0.015922966097169144
1817.0,0.016013078034810446
1816.0,0.016058141016111804
1815.0,0.016148281008528276
1814.0,0.016193358021584725
1813.0,0.01628352608625061
1812.0,0.016373712875465518
1811.0,0.016509028184833463
1810.0,0.016599261819461697
1809.0,0.016734647433454652
1808.0,0.01677978535189717
1807.0,0.016870075265299933
1806.0,0.016915227262211507
1805.0,0.017005545341335804
1804.0,0.017050711425501408
1803.0,0.017095882207371904
1802.0,0.017141057687924732
1801.0,0.017186237868137555
1800.0,0.017186237868137555
1799.0,0.017186237868137555
1798.0,0.017141057687924732
1797.0,0.017005545341335804
1796.0,0.016870075265299933
1795.0,0.016734647433454652
1794.0,0.016599261819461697
1793.0,0.01646391839700767
1792.0,0.01632861713980338
1791.0,0.016193358021584725
1790.0,0.016103208673694303
1789.0,0.016058141016111804
1788.0,0.016013078034810446
1787.0,0.015922966097169144
1786.0,0.015832872853011715
1785.0,0.01578783323856614
1784.0,0.015742798294583915
1783.0,0.015697768020096703
1782.0,0.015652742414136167
1781.0,0.015652742414136167
1780.0,0.015652742414136167
1779.0,0.015697768020096703
1778.0,0.015697768020096703
1777.0,0.015697768020096703
1776.0,0.015697768020096703
1775.0,0.015697768020096703
1774.0,0.015697768020096703
1773.0,0.015652742414136167
1772.0,0.015652742414136167
1771.0,0.015697768020096703
1770.0,0.015697768020096703
1769.0,0.01578783323856614
1768.0,0.01578783323856614
1767.0,0.015832872853011715
1766.0,0.015832872853011715
1765.0,0.01578783323856614
1764.0,0.01578783323856614
1763.0,0.01578783323856614
1762.0,0.015832872853011715
1761.0,0.015922966097169144
1760.0,0.016013078034810446
1759.0,0.016058141016111804
1758.0,0.016148281008528276
1757.0,0.01628352608625061
1756.0,0.016418813294209356
1755.0,0.016554142658660398
1754.0,0.016644385668211692
1753.0,0.016734647433454652
1752.0,0.016824927962187042
1751.0,0.016915227262211507
1750.0,0.017005545341335804
1749.0,0.017141057687924732
1748.0,0.017231422748988034
1747.0,0.017321806616515723
1746.0,0.017367005605150476
1745.0,0.017457417697056554
1744.0,0.017502630802287644
1743.0,0.017502630802287644
1742.0,0.017547848615010242
1741.0,0.017547848615010242
1740.0,0.01759307113620534
1739.0,0.01759307113620534
1738.0,0.01759307113620534
1737.0,0.01759307113620534
1736.0,0.01759307113620534
1735.0,0.01759307113620534
1734.0,0.01759307113620534
1733.0,0.017547848615010242
1732.0,0.017457417697056554
1731.0,0.017367005605150476
1730.0,0.017321806616515723
1729.0,0.01727661233145472
1728.0,0.017231422748988034
1727.0,0.017186237868137555
1726.0,0.017141057687924732
1725.0,0.017141057687924732
1724.0,0.017141057687924732
1723.0,0.017095882207371904
1722.0,0.017050711425501408
1721.0,0.017005545341335804
1720.0,0.016870075265299933
1719.0,0.016824927962187042
1718.0,0.016824927962187042
1717.0,0.016870075265299933
1716.0,0.016870075265299933
1715.0,0.016824927962187042
1714.0,0.016824927962187042
1713.0,0.016870075265299933
1712.0,0.016870075265299933
1711.0,0.016915227262211507
1710.0,0.016960383953898095
1709.0,0.017005545341335804
1708.0,0.017050711425501408
1707.0,0.017050711425501408
1706.0,0.017005545341335804
1705.0,0.017005545341335804
1704.0,0.017050711425501408
1703.0,0.017095882207371904
1702.0,0.017186237868137555
1701.0,0.017321806616515723
1700.0,0.017547848615010242
1699.0,0.017638298366853045
1698.0,0.017638298366853045
1697.0,0.017638298366853045
1696.0,0.017638298366853045
1695.0,0.01768353030793479
1694.0,0.01781925440359733
1693.0,0.017864505196230507
1692.0,0.017955020928509757
1691.0,0.01800028587012159
1690.0,0.01809082990920774
1689.0,0.018226681372252695
1688.0,0.01840788278591865
1687.0,0.01858915983411169
1686.0,0.018725167293411005
1685.0,0.018951941086827073
1684.0,0.019042683770379876
1683.0,0.019042683770379876
1682.0,0.019042683770379876
1681.0,0.019133445417920836
1680.0,0.0192242260373785
1679.0,0.019360432556262852
1678.0,0.019451260640229506
1677.0,0.01949668180660491
1676.0,0.01958753839310856
1675.0,0.019723858922159776
1674.0,0.019814763052665052
1673.0,0.019860222254245663
1672.0,0.01995115493504329
1671.0,0.02004210665933459
1670.0,0.02013307743509718
1669.0,0.020178569969774962
1668.0,0.02022406727031445
1667.0,0.02026956933771462
1666.0,0.020315076172974234
1665.0,0.020315076172974234
1664.0,0.02036058777709271
1663.0,0.02045162529590483
1662.0,0.02058821736556471
1661.0,0.020633757603838898
1660.0,0.020724852408976924
1659.0,0.020770406977844713
1658.0,0.020770406977844713
1657.0,0.020724852408976924
1656.0,0.02067930261797568
1655.0,0.020633757603838898
1654.0,0.020542681902151694
1653.0,0.020497151212598652
1652.0,0.020497151212598652
1651.0,0.02045162529590483
1650.0,0.020315076172974234
1649.0,0.02022406727031445
1648.0,0.02026956933771462
1647.0,0.02036058777709271
1646.0,0.02045162529590483
1645.0,0.02045162529590483
1644.0,0.02045162529590483
1643.0,0.02036058777709271
1642.0,0.02026956933771462
1641.0,0.020178569969774962
1640.0,0.020087589665283012
1639.0,0.019996628416253603
1638.0,0.019860222254245663
1637.0,0.019723858922159776
1636.0,0.019678413991243593
1635.0,0.019632973815224997
1634.0,0.019632973815224997
1633.0,0.019632973815224997
1632.0,0.01958753839310856
1631.0,0.01954210772389997
1630.0,0.019451260640229506
1629.0,0.01940584422377989
1628.0,0.01940584422377989
1627.0,0.01940584422377989
1626.0,0.01940584422377989
1625.0,0.019315025636685412
1624.0,0.019269623464054586
1623.0,0.0192242260373785
1622.0,0.019178833355664393
1621.0,0.019133445417920836
1620.0,0.019133445417920836
1619.0,0.0190880622231564
1618.0,0.0190880622231564
1617.0,0.019042683770379876
1616.0,0.019042683770379876
1615.0,0.019042683770379876
1614.0,0.0190880622231564
1613.0,0.019133445417920836
1612.0,0.019315025636685412
1611.0,0.019632973815224997
1610.0,0.02022406727031445
1609.0,0.02122621566987748
1608.0,0.022733787572707387
1607.0,0.024660115394541604
1606.0,0.02682594731702781
1605.0,0.029141943003497595
1604.0,0.03147035562516054
1603.0,0.03352973627071565
1602.0,0.03489241415094413
1601.0,0.03531618502395939
1600.0,0.03484535401307465
1599.0,0.03367050483612166
1598.0,0.031984286006358165
1597.0,0.030211462585061133
1596.0,0.028538594975413334
1595.0,0.027149444152769986
1594.0,0.026041313893296225
1593.0,0.02516604495145991
1592.0,0.024476287039668643
1591.0,0.023879381700184332
1590.0,0.02342078135989012
1589.0,0.023191662661933732
1588.0,0.023237476732539397
1587.0,0.02355831062115543
1586.0,0.024200690320592466
1585.0,0.024890010313838973
1584.0,0.02544225514642018
1583.0,0.02553436426275746
1582.0,0.02516604495145991
1581.0,0.02438440203310499
1580.0,0.02351246269481
1579.0,0.022733787572707387
1578.0,0.02204787879853809
1577.0,0.0214542995372613
1576.0,0.021043834782408455
1575.0,0.020770406977844713
1574.0,0.02058821736556471
1573.0,0.020406104151069693
1572.0,0.020178569969774962
1571.0,0.01990568621470623
1570.0,0.019632973815224997
1569.0,0.01949668180660491
1568.0,0.019451260640229506
1567.0,0.019360432556262852
1566.0,0.019269623464054586
1565.0,0.019178833355664393
1564.0,0.0190880622231564
1563.0,0.019042683770379876
1562.0,0.01899731005860028
1561.0,0.019042683770379876
1560.0,0.0192242260373785
1559.0,0.01940584422377989
1558.0,0.0192242260373785
1557.0,0.0190880622231564
1556.0,0.0190880622231564
1555.0,0.0190880622231564
1554.0,0.019133445417920836
1553.0,0.019133445417920836
1552.0,0.019178833355664393
1551.0,0.019178833355664393
1550.0,0.0192242260373785
1549.0,0.019315025636685412
1548.0,0.01940584422377989
1547.0,0.01949668180660491
1546.0,0.01954210772389997
1545.0,0.01958753839310856
1544.0,0.019678413991243593
1543.0,0.019814763052665052
1542.0,0.019860222254245663
1541.0,0.019860222254245663
1540.0,0.019678413991243593
1539.0,0.01949668180660491
1538.0,0.019360432556262852
1537.0,0.0192242260373785
1536.0,0.019042683770379876
1535.0,0.018861217359339655
1534.0,0.018634490921455527
1533.0,0.018543833477873584
1532.0,0.01845319495476394
1531.0,0.01840788278591865
1530.0,0.018271974638383703
1529.0,0.01809082990920774
1528.0,0.01800028587012159
1527.0,0.017955020928509757
1526.0,0.017909760704207134
1525.0,0.01781925440359733
1524.0,0.017728766960431575
1523.0,0.017638298366853045
1522.0,0.017502630802287644
1521.0,0.017321806616515723
1520.0,0.017231422748988034
1519.0,0.017186237868137555
1518.0,0.017050711425501408
1517.0,0.016915227262211507
1516.0,0.016734647433454652
1515.0,0.016644385668211692
1514.0,0.016509028184833463
1513.0,0.016373712875465518
1512.0,0.016238439713835096
1511.0,0.016193358021584725
1510.0,0.016058141016111804
1509.0,0.01596801972881945
1508.0,0.01596801972881945
1507.0,0.015922966097169144
1506.0,0.015742798294583915
1505.0,0.01578783323856614
1504.0,0.015922966097169144
1503.0,0.016148281008528276
1502.0,0.016509028184833463
1501.0,0.017231422748988034
1500.0,0.018543833477873584
1499.0,0.021043834782408455
1498.0,0.025764722556973707
1497.0,0.03376437590141812
1496.0,0.04368746915880539
1495.0,0.05256627811294923
1494.0,0.058786812414678646
1493.0,0.06198090252378963
1492.0,0.061780582187257016
1491.0,0.05734718830678798
1490.0,0.04982994019179987
1489.0,0.042584285277331047
1488.0,0.037583306554248797
1487.0,0.034187046963396917
1486.0,0.031657169041054534
1485.0,0.02969962459782227
1484.0,0.028075050815808744
1483.0,0.026595025589939425
1482.0,0.025258095499050004
1481.0,0.024154774532432866
1480.0,0.02342078135989012
1479.0,0.02282532397981263
1478.0,0.02227639471115217
1477.0,0.021819483062586187
1476.0,0.0214542995372613
1475.0,0.0211806132671577
1474.0,0.020907099361673565
1473.0,0.020770406977844713
1472.0,0.020770406977844713
1471.0,0.020724852408976924
1470.0,0.020724852408976924
1469.0,0.020724852408976924
1468.0,0.020770406977844713
1467.0,0.020724852408976924
1466.0,0.02067930261797568
1465.0,0.02067930261797568
1464.0,0.020724852408976924
1463.0,0.02081596632558158
1462.0,0.020907099361673565
1461.0,0.021043834782408455
1460.0,0.021545566634771474
1459.0,0.02282532397981263
1458.0,0.02710321556345563
1457.0,0.03555179208333925
1456.0,0.04455278942230456
1455.0,0.05153812993871654
1454.0,0.05709945885970602
1453.0,0.06128018521761747
1452.0,0.06338573802478864
1451.0,0.06298389253518577
1450.0,0.060880282351513104
1449.0,0.05779345772290467
1448.0,0.05448217792216048
1447.0,0.0515870342213991
1446.0,0.049294465226138895
1445.0,0.047352830241056854
1444.0,0.045323413081356456
1443.0,0.043303435105349175
1442.0,0.041483896576958834
1441.0,0.039909932095080425
1440.0,0.03848398855105106
1439.0,0.0371573187987575
1438.0,0.035693217696063595
1437.0,0.034046110897937076
1436.0,0.03245202378113787
1435.0,0.03128362253321426
1434.0,0.030397735151460825
1433.0,0.029513651152349718
1432.0,0.02858497661500481
1431.0,0.0277045713888604
1430.0,0.02691835039863255
1429.0,0.026318081496016443
1428.0,0.025856900097785074
1427.0,0.025488307262671706
1426.0,0.02516604495145991
1425.0,0.02484402159331056
1424.0,0.024522236834125355
1423.0,0.024292536462819925
1422.0,0.024108863598207186
1421.0,0.023925268380126097
1420.0,0.02365002099672653
1419.0,0.02342078135989012
1418.0,0.023283295636617574
1417.0,0.023191662661933732
1416.0,0.023054249440757957
1415.0,0.02291687968414724
1414.0,0.02277955336461468
1413.0,0.022642270454698687
1412.0,0.022505030926963654
1411.0,0.022367834754000393
1410.0,0.022230681908425698
1409.0,0.022139270735302752
1408.0,0.02204787879853809
1407.0,0.02200219004126036
1406.0,0.021910826943857264
1405.0,0.021819483062586187
1404.0,0.021773818325474092
1403.0,0.021728158389364705
1402.0,0.021728158389364705
1401.0,0.02168250325324883
1400.0,0.021636852916117055
1399.0,0.02159120737696063
1398.0,0.021636852916117055
1397.0,0.02168250325324883
1396.0,0.021636852916117055
1395.0,0.021636852916117055
1394.0,0.021728158389364705
1393.0,0.021865152601710403
1392.0,0.022093572362881675
1391.0,0.022322112326006227
1390.0,0.02255077261765881
1389.0,0.02277955336461468
1388.0,0.023054249440757957
1387.0,0.023374947949272418
1386.0,0.023695883447997224
1385.0,0.024017056287453542
1384.0,0.024292536462819925
1383.0,0.02461415101053266
1382.0,0.024936003904763915
1381.0,0.025304128090317013
1380.0,0.025718641122169483
1379.0,0.026087429580295085
1378.0,0.026456531467510258
1377.0,0.026733563891471412
1376.0,0.02691835039863255
1375.0,0.027149444152769986
1374.0,0.027334407733889066
1373.0,0.02747318213414429
1372.0,0.027565723042634938
1371.0,0.027612000892527133
1370.0,0.027565723042634938
1369.0,0.02747318213414429
1368.0,0.02738066094037661
1367.0,0.027334407733889066
1366.0,0.027288159452933503
1365.0,0.027149444152769986
1364.0,0.027010773144651168
1363.0,0.026872146400301444
1362.0,0.026733563891471412
1361.0,0.026687379547098322
1360.0,0.02664120011360227
1359.0,0.02654885597506529
1358.0,0.026456531467510258
1357.0,0.026318081496016443
1356.0,0.02617967564731627
1355.0,0.026087429580295085
1354.0,0.026041313893296225
1353.0,0.026041313893296225
1352.0,0.026041313893296225
1351.0,0.026087429580295085
1350.0,0.02613355016462182
1349.0,0.02613355016462182
1348.0,0.02613355016462182
1347.0,0.026087429580295085
1346.0,0.025995203102585407
1345.0,0.025856900097785074
1344.0,0.025718641122169483
1343.0,0.02558042614771394
1342.0,0.02539620791296726
1341.0,0.025258095499050004
1340.0,0.02512002699306959
1339.0,0.025028005701930978
1338.0,0.024936003904763915
1337.0,0.024890010313838973
1336.0,0.024936003904763915
1335.0,0.025028005701930978
1334.0,0.02516604495145991
1333.0,0.025350165561278004
1332.0,0.02558042614771394
1331.0,0.025810808881832736
1330.0,0.025949097207122573
1329.0,0.026087429580295085
1328.0,0.026087429580295085
1327.0,0.026087429580295085
1326.0,0.025995203102585407
1325.0,0.025902996205869
1324.0,0.025810808881832736
1323.0,0.025718641122169483
1322.0,0.025672564576383117
1321.0,0.02562649291857677
1320.0,0.02558042614771394
1319.0,0.02553436426275746
1318.0,0.02558042614771394
1317.0,0.02562649291857677
1316.0,0.025718641122169483
1315.0,0.025810808881832736
1314.0,0.025949097207122573
1313.0,0.025995203102585407
1312.0,0.026041313893296225
1311.0,0.025995203102585407
1310.0,0.025949097207122573
1309.0,0.025902996205869
1308.0,0.025856900097785074
1307.0,0.025764722556973707
1306.0,0.025672564576383117
1305.0,0.02558042614771394
1304.0,0.025488307262671706
1303.0,0.02539620791296726
1302.0,0.025304128090317013
1301.0,0.02521206778644225
1300.0,0.025074013910237447
1299.0,0.024936003904763915
1298.0,0.024798037742147727
1297.0,0.02475205875931885
1296.0,0.024706084643793647
1295.0,0.024660115394541604
1294.0,0.02461415101053266
1293.0,0.02461415101053266
1292.0,0.02461415101053266
1291.0,0.024568191490736968
1290.0,0.024522236834125355
1289.0,0.024476287039668643
1288.0,0.024430342106337877
1287.0,0.024338466818941473
1286.0,0.024338466818941473
1285.0,0.024338466818941473
1284.0,0.024338466818941473
1283.0,0.02438440203310499
1282.0,0.024430342106337877
1281.0,0.024430342106337877
1280.0,0.024430342106337877
1279.0,0.02438440203310499
1278.0,0.024246610963712723
1277.0,0.024154774532432866
1276.0,0.02406295751688936
1275.0,0.023971159908874107
1274.0,0.023833499868024743
1273.0,0.023741750742954926
1272.0,0.023604163388120325
1271.0,0.02355831062115543
1270.0,0.02351246269481
1269.0,0.023466619608062178
1268.0,0.023466619608062178
1267.0,0.02342078135989012
1266.0,0.02342078135989012
1265.0,0.023374947949272418
1264.0,0.023329119375188556
1263.0,0.023329119375188556
1262.0,0.023329119375188556
1261.0,0.023283295636617574
1260.0,0.023237476732539397
1259.0,0.023191662661933732
1258.0,0.02314585342378117
1257.0,0.023100049017062307
1256.0,0.023100049017062307
1255.0,0.02314585342378117
1254.0,0.02314585342378117
1253.0,0.023191662661933732
1252.0,0.023191662661933732
1251.0,0.023191662661933732
1250.0,0.023237476732539397
1249.0,0.023283295636617574
1248.0,0.023283295636617574
1247.0,0.023283295636617574
1246.0,0.023329119375188556
1245.0,0.023329119375188556
1244.0,0.023329119375188556
1243.0,0.023283295636617574
1242.0,0.023237476732539397
1241.0,0.023237476732539397
1240.0,0.023237476732539397
1239.0,0.023283295636617574
1238.0,0.023283295636617574
1237.0,0.023283295636617574
1236.0,0.023237476732539397
1235.0,0.023191662661933732
1234.0,0.02314585342378117
1233.0,0.02314585342378117
1232.0,0.02314585342378117
1231.0,0.02314585342378117
1230.0,0.023191662661933732
1229.0,0.023237476732539397
1228.0,0.023329119375188556
1227.0,0.023329119375188556
1226.0,0.023374947949272418
1225.0,0.023374947949272418
1224.0,0.023374947949272418
1223.0,0.023374947949272418
1222.0,0.023329119375188556
1221.0,0.023329119375188556
1220.0,0.023374947949272418
1219.0,0.02342078135989012
1218.0,0.02351246269481
1217.0,0.02355831062115543
1216.0,0.023604163388120325
1215.0,0.02365002099672653
1214.0,0.023741750742954926
1213.0,0.023787622882622816
1212.0,0.023833499868024743
1211.0,0.023879381700184332
1210.0,0.023925268380126097
1209.0,0.02406295751688936
1208.0,0.024200690320592466
1207.0,0.02438440203310499
1206.0,0.02461415101053266
1205.0,0.02484402159331056
1204.0,0.025074013910237447
1203.0,0.025304128090317013
1202.0,0.025488307262671706
1201.0,0.025718641122169483
1200.0,0.025902996205869
1199.0,0.026087429580295085
1198.0,0.026271941311972746
1197.0,0.026410376572743033
1196.0,0.02654885597506529
1195.0,0.026687379547098322
1194.0,0.02677975314776626
1193.0,0.02691835039863255
1192.0,0.027056991894431892
1191.0,0.02724191609646076
1190.0,0.027426919073445077
1189.0,0.027612000892527133
1188.0,0.027843464140506313
1187.0,0.028167720075074953
1186.0,0.02858497661500481
1185.0,0.029141943003497595
1184.0,0.029792641193145286
1183.0,0.030444315779156517
1182.0,0.030910397045078586
1181.0,0.031236951802751545
1180.0,0.03128362253321426
1179.0,0.031096969696171817
1178.0,0.0307239045110681
1177.0,0.030211462585061133
1176.0,0.029746130405213123
1175.0,0.029374223311705583
1174.0,0.029095501846216454
1173.0,0.028956208163971375
1172.0,0.028816959143838528
1171.0,0.028770552723758724
1170.0,0.02872415126189476
1169.0,0.028770552723758724
1168.0,0.028816959143838528
1167.0,0.02890978686288448
1166.0,0.029002634427514717
1165.0,0.02904906565457588
1164.0,0.029095501846216454
1163.0,0.029234840219232394
1162.0,0.029467170231675777
1161.0,0.029839156962686353
1160.0,0.03030458888152676
1159.0,0.030957032694186815
1158.0,0.03175060589208267
1157.0,0.032545631817259224
1156.0,0.033201453616638954
1155.0,0.03367050483612166
1154.0,0.0338113190438627
1153.0,0.03371743783253667
1152.0,0.033295223342125535
1151.0,0.03273290844021437
1150.0,0.03207779326948268
1149.0,0.03147035562516054
1148.0,0.031003673351687855
1147.0,0.03063068826647264
1146.0,0.030397735151460825
1145.0,0.030211462585061133
1144.0,0.03002526987828502
1143.0,0.029839156962686353
1142.0,0.029653123769906697
1141.0,0.029513651152349718
1140.0,0.02942069428514915
1139.0,0.029374223311705583
1138.0,0.02932775731028059
1137.0,0.029281296279810798
1136.0,0.029234840219232394
1135.0,0.029141943003497595
1134.0,0.02904906565457588
1133.0,0.028956208163971375
1132.0,0.028863370523193765
1131.0,0.028816959143838528
1130.0,0.028770552723758724
1129.0,0.02872415126189476
1128.0,0.028677754757187035
1127.0,0.028677754757187035
1126.0,0.02872415126189476
1125.0,0.028770552723758724
1124.0,0.028816959143838528
1123.0,0.028816959143838528
1122.0,0.028863370523193765
1121.0,0.029002634427514717
1120.0,0.029141943003497595
1119.0,0.029281296279810798
1118.0,0.02942069428514915
1117.0,0.029560137048236124
1116.0,0.02960662792039992
1115.0,0.02969962459782227
1114.0,0.029792641193145286
1113.0,0.029932203450862893
1112.0,0.029978734171634214
1111.0,0.029932203450862893
1110.0,0.029839156962686353
1109.0,0.029746130405213123
1108.0,0.02969962459782227
1107.0,0.029653123769906697
1106.0,0.02960662792039992
1105.0,0.029653123769906697
1104.0,0.02969962459782227
1103.0,0.029792641193145286
1102.0,0.029839156962686353
1101.0,0.029932203450862893
1100.0,0.029932203450862893
1099.0,0.029978734171634214
1098.0,0.029932203450862893
1097.0,0.029978734171634214
1096.0,0.029978734171634214
1095.0,0.030071810571884017
1094.0,0.030118356253500123
1093.0,0.030164906924202484
1092.0,0.030164906924202484
1091.0,0.030118356253500123
1090.0,0.030118356253500123
1089.0,0.030164906924202484
1088.0,0.030211462585061133
1087.0,0.03030458888152676
1086.0,0.030444315779156517
1085.0,0.03058408764601861
1084.0,0.0307239045110681
1083.0,0.030910397045078586
1082.0,0.031143625385307683
1081.0,0.03137697904301118
1080.0,0.031657169041054534
1079.0,0.03189079887180224
1078.0,0.032124554451966825
1077.0,0.03240522732811035
1076.0,0.032686081712916426
1075.0,0.03310770413286357
1074.0,0.03367050483612166
1073.0,0.03432802877989327
1072.0,0.0349394793888016
1071.0,0.03541041251009669
1070.0,0.035693217696063595
1069.0,0.03583468937826462
1068.0,0.03583468937826462
1067.0,0.035646070707806565
1066.0,0.035363296211498474
1065.0,0.03503362516890207
1064.0,0.03465716443937783
1063.0,0.03428102975577918
1062.0,0.0338113190438627
1061.0,0.03334211579824231
1060.0,0.03282657704446046
1059.0,0.03235843591698884
1058.0,0.03193753992355086
1057.0,0.03161045815293173
1056.0,0.03133029827960798
1055.0,0.03105031901865729
1054.0,0.03081714076773867
1053.0,0.03058408764601861
1052.0,0.030351159519274695
1051.0,0.030164906924202484
1050.0,0.03002526987828502
1049.0,0.029839156962686353
1048.0,0.02969962459782227
1047.0,0.029467170231675777
1046.0,0.029281296279810798
1045.0,0.029141943003497595
1044.0,0.029002634427514717
1043.0,0.028863370523193765
1042.0,0.02872415126189476
1041.0,0.02872415126189476
1040.0,0.028816959143838528
1039.0,0.029095501846216454
1038.0,0.02960662792039992
1037.0,0.030397735151460825
1036.0,0.03161045815293173
1035.0,0.033201453616638954
1034.0,0.03522197797762394
1033.0,0.03753595394209874
1032.0,0.03995754427315856
1031.0,0.042344833056508824
1030.0,0.044312249686494276
1029.0,0.04575749056067524
1028.0,0.046481918555007384
1027.0,0.04633693625290869
1026.0,0.045564513671517703
1025.0,0.044360346976747955
1024.0,0.04301563225723992
1023.0,0.04167506835594681
1022.0,0.040529297924893015
1021.0,0.03957679292217042
1020.0,0.03876880295533702
1019.0,0.03800971255993524
1018.0,0.037346595106788616
1017.0,0.036779013477011624
1016.0,0.03625938114211591
1015.0,0.03583468937826462
1014.0,0.03541041251009669
1013.0,0.03503362516890207
1012.0,0.03470420418834386
1011.0,0.03437503289075727
1010.0,0.034046110897937076
1009.0,0.03385826726096752
1008.0,0.0338113190438627
1007.0,0.03385826726096752
1006.0,0.03409308450480819
1005.0,0.03437503289075727
1004.0,0.03461012978487776
1003.0,0.03461012978487776
1002.0,0.03442204208947208
1001.0,0.033952178923546183
1000.0,0.03334211579824231
999.0,0.03273290844021437
998.0,0.03226486821611996
997.0,0.03193753992355086
996.0,0.031657169041054534
995.0,0.03147035562516054
994.0,0.03128362253321426
993.0,0.031190286087141805
992.0,0.031096969696171817
991.0,0.031096969696171817
990.0,0.031143625385307683
989.0,0.03128362253321426
988.0,0.03142366482450232
987.0,0.03161045815293173
986.0,0.03189079887180224
985.0,0.03217132066984485
984.0,0.03240522732811035
983.0,0.03263926003405038
982.0,0.03282657704446046
981.0,0.03301397488206215
980.0,0.03310770413286357
979.0,0.033154576345083564
978.0,0.03310770413286357
977.0,0.0329671178412978
976.0,0.03273290844021437
975.0,0.032545631817259224
974.0,0.03235843591698884
973.0,0.032311649546687526
972.0,0.03235843591698884
971.0,0.03240522732811035
970.0,0.032592443402527316
969.0,0.032873418923587305
968.0,0.0332483359486222
967.0,0.03362357691107709
966.0,0.033952178923546183
965.0,0.034187046963396917
964.0,0.03437503289075727
963.0,0.03442204208947208
962.0,0.03432802877989327
961.0,0.03414006319292828
960.0,0.03385826726096752
959.0,0.033482823553208085
958.0,0.033060836978886954
957.0,0.03273290844021437
956.0,0.03245202378113787
955.0,0.032218091924200776
954.0,0.03207779326948268
953.0,0.031984286006358165
952.0,0.031984286006358165
951.0,0.031984286006358165
950.0,0.032031037121307726
949.0,0.03217132066984485
948.0,0.032311649546687526
947.0,0.03249882527715853
946.0,0.032686081712916426
945.0,0.032873418923587305
944.0,0.03301397488206215
943.0,0.033060836978886954
942.0,0.03310770413286357
941.0,0.03310770413286357
940.0,0.033060836978886954
939.0,0.0329671178412978
938.0,0.03277974021703267
937.0,0.032592443402527316
936.0,0.03235843591698884
935.0,0.032124554451966825
934.0,0.03193753992355086
933.0,0.03179733185715028
932.0,0.031657169041054534
931.0,0.03147035562516054
930.0,0.03128362253321426
929.0,0.031190286087141805
928.0,0.031143625385307683
927.0,0.031143625385307683
926.0,0.031190286087141805
925.0,0.031236951802751545
924.0,0.03128362253321426
923.0,0.03137697904301118
922.0,0.03147035562516054
921.0,0.031563752288295444
920.0,0.031657169041054534
919.0,0.03179733185715028
918.0,0.032031037121307726
917.0,0.03240522732811035
916.0,0.0329671178412978
915.0,0.03367050483612166
914.0,0.03456310022373987
913.0,0.035646070707806565
912.0,0.03682628362474838
911.0,0.038057116858612794
910.0,0.03929144831144349
909.0,0.04043395336207234
908.0,0.04138834223512067
907.0,0.042057664554595586
906.0,0.042392712939904875
905.0,0.042392712939904875
904.0,0.04210551278710151
903.0,0.04153168163305643
902.0,0.040672354027829094
901.0,0.03967194946985697
900.0,0.038673844065289176
899.0,0.03767802727041558
898.0,0.036873558918095295
897.0,0.036117771071222604
896.0,0.03555179208333925
895.0,0.03498654972775217
894.0,0.034516075754861264
893.0,0.03409308450480819
892.0,0.03376437590141812
891.0,0.03352973627071565
890.0,0.03338901331806565
889.0,0.033295223342125535
888.0,0.033154576345083564
887.0,0.033060836978886954
886.0,0.0329671178412978
885.0,0.03277974021703267
884.0,0.032592443402527316
883.0,0.03240522732811035
882.0,0.03226486821611996
881.0,0.032218091924200776
880.0,0.03217132066984485
879.0,0.03217132066984485
878.0,0.03217132066984485
877.0,0.032124554451966825
876.0,0.032031037121307726
875.0,0.03189079887180224
874.0,0.03175060589208267
873.0,0.031657169041054534
872.0,0.031657169041054534
871.0,0.03161045815293173
870.0,0.03161045815293173
869.0,0.031563752288295444
868.0,0.03147035562516054
867.0,0.03128362253321426
866.0,0.031096969696171817
865.0,0.030910397045078586
864.0,0.030770520137356927
863.0,0.030770520137356927
862.0,0.03081714076773867
861.0,0.03081714076773867
860.0,0.03081714076773867
859.0,0.030770520137356927
858.0,0.03067729388779794
857.0,0.03058408764601861
856.0,0.03058408764601861
855.0,0.03063068826647264
854.0,0.03067729388779794
853.0,0.030863766403287585
852.0,0.031143625385307683
851.0,0.03151705144606498
850.0,0.03193753992355086
849.0,0.03235843591698884
848.0,0.03277974021703267
847.0,0.033201453616638954
846.0,0.03362357691107709
845.0,0.03399914237121604
844.0,0.03428102975577918
843.0,0.03456310022373987
842.0,0.03479829897408804
841.0,0.0349394793888016
840.0,0.03508070571335731
839.0,0.03498654972775217
838.0,0.03475124903287918
837.0,0.03428102975577918
836.0,0.03371743783253667
835.0,0.033201453616638954
834.0,0.032686081712916426
833.0,0.032218091924200776
832.0,0.03179733185715028
831.0,0.03142366482450232
830.0,0.031143625385307683
829.0,0.030863766403287585
828.0,0.03063068826647264
827.0,0.030397735151460825
826.0,0.03025802323714588
825.0,0.030164906924202484
824.0,0.030071810571884017
823.0,0.029885677714903025
822.0,0.02969962459782227
821.0,0.029513651152349718
820.0,0.029374223311705583
819.0,0.029374223311705583
818.0,0.029374223311705583
817.0,0.029374223311705583
816.0,0.02932775731028059
815.0,0.029188389127482228
814.0,0.02904906565457588
813.0,0.02890978686288448
812.0,0.02872415126189476
811.0,0.028538594975413334
810.0,0.028445846553939003
809.0,0.02839947976994095
808.0,0.02839947976994095
807.0,0.028445846553939003
806.0,0.02849221828874393
805.0,0.02849221828874393
804.0,0.02839947976994095
803.0,0.028167720075074953
802.0,0.028028723600243666
801.0,0.027889771597169544
800.0,0.027843464140506313
799.0,0.027797161620935595
798.0,0.027658283674251827
797.0,0.027612000892527133
796.0,0.027612000892527133
795.0,0.027658283674251827
794.0,0.027750864037404455
793.0,0.027889771597169544
792.0,0.02812138297373412
791.0,0.02839947976994095
790.0,0.02863136320857662
789.0,0.028863370523193765
788.0,0.029141943003497595
787.0,0.02942069428514915
786.0,0.029746130405213123
785.0,0.030118356253500123
784.0,0.030444315779156517
783.0,0.030863766403287585
782.0,0.03137697904301118
781.0,0.032031037121307726
780.0,0.03282657704446046
779.0,0.0338113190438627
778.0,0.03503362516890207
777.0,0.03649550058570927
776.0,0.038199360808321536
775.0,0.04010041213405646
774.0,0.042201225070002124
773.0,0.04450467081587295
772.0,0.04715914332429838
771.0,0.050073556332087765
770.0,0.05325306496641513
769.0,0.05660442349104544
768.0,0.060081579630943294
767.0,0.06348625752110681
766.0,0.06686717627326577
765.0,0.0702746216219956
764.0,0.07376047895413773
763.0,0.07737832847680104
762.0,0.08107890990866418
761.0,0.08481129482684358
760.0,0.0885227828938977
759.0,0.09210516458371698
758.0,0.09528445472131919
757.0,0.09783387072894878
756.0,0.09968750301627338
755.0,0.10078158214862709
754.0,0.10127481841050656
753.0,0.10149421446564144
752.0,0.10160395406999112
751.0,0.10165883427249067
750.0,0.1017686154869033
749.0,0.10182351650232357
748.0,0.10160395406999112
747.0,0.10078158214862709
746.0,0.0990869322623309
745.0,0.09642170633694569
744.0,0.09296504751658308
743.0,0.08894897967187343
742.0,0.08470571697731355
741.0,0.0805035121369384
740.0,0.07654873036034848
739.0,0.07288638806623937
738.0,0.06945847013556561
737.0,0.06610796423578891
736.0,0.06278310913729457
735.0,0.05948351506743288
734.0,0.05625823416868636
733.0,0.0531548860393769
732.0,0.05021979163799939
731.0,0.04749815213697639
730.0,0.04508244626504121
729.0,0.04301563225723992
728.0,0.04124505013091051
727.0,0.039719535563357944
726.0,0.038341651362284734
725.0,0.0371100126082089
724.0,0.03588185684851508
723.0,0.03465716443937783
722.0,0.03343591590268957
721.0,0.03226486821611996
720.0,0.031190286087141805
719.0,0.030118356253500123
718.0,0.028956208163971375
717.0,0.0277045713888604
716.0,0.02654885597506529
715.0,0.02558042614771394
714.0,0.025074013910237447
713.0,0.02516604495145991
712.0,0.02613355016462182
711.0,0.028445846553939003
710.0,0.032545631817259224
709.0,0.03886378261277468
708.0,0.04744970610179822
707.0,0.0583891978463662
706.0,0.07170658776779781
705.0,0.08740600224789441
704.0,0.10551778498990938
703.0,0.1260984021355387
702.0,0.1491088158640761
701.0,0.17431429197824166
700.0,0.20121128604875071
699.0,0.22855951336008817
698.0,0.25422278211024096
697.0,0.2745784499257413
696.0,0.2850000325879576
695.0,0.28166442109149337
694.0,0.264880365918128
693.0,0.23927602785804836
692.0,0.21098367320662526
691.0,0.18482086986058133
690.0,0.1627904721987936
689.0,0.14520830594601453
688.0,0.13170831198214428
687.0,0.12136332697348307
686.0,0.11356568037106163
685.0,0.10757145305477
684.0,0.10281292341984649
683.0,0.09848719087006019
682.0,0.09425807260839858
681.0,0.09033701484598189
680.0,0.08692825969074924
679.0,0.08423093401631587
678.0,0.08207457793525874
677.0,0.08034671768963575
676.0,0.0788860261633193
675.0,0.07753405470158659
674.0,0.07634157820669385
673.0,0.07520400420208784
672.0,0.07401789967289685
671.0,0.0725783049495814
670.0,0.07068327324650436
669.0,0.06823711151882228
668.0,0.06696850489759454
667.0,0.06793230779927839
666.0,0.06813548650796819
665.0,0.06737405597821788
664.0,0.06646209802829528
663.0,0.06560255921901192
662.0,0.06459351024765114
661.0,0.06338573802478864
660.0,0.06208109735221967
659.0,0.06078036414518184
658.0,0.05968277842578207
657.0,0.05898575629443026
656.0,0.05843887976392925
655.0,0.05779345772290467
654.0,0.05709945885970602
653.0,0.05660442349104544
652.0,0.056406567231630955
651.0,0.05620880107069848
650.0,0.05586292684190197
649.0,0.05531996611868961
648.0,0.0549255115212699
647.0,0.05482695382609992
646.0,0.05477768336465916
645.0,0.05453141486818014
644.0,0.05394093961487645
643.0,0.053351266093323746
642.0,0.05300765925162776
641.0,0.0531548860393769
640.0,0.053596866100945384
639.0,0.05423607688882637
638.0,0.0549747987575373
637.0,0.05601112492622806
636.0,0.05734718830678798
635.0,0.058538260652670315
634.0,0.058737090681050264
633.0,0.057743849580535134
632.0,0.05630767289398331
631.0,0.05536929814372171
630.0,0.05522131887649295
629.0,0.05561604235915585
628.0,0.05586292684190197
627.0,0.05566540802921782
626.0,0.0549747987575373
625.0,0.05433450056786593
624.0,0.054186873412661596
623.0,0.05458065739693696
622.0,0.05531996611868961
621.0,0.05586292684190197
620.0,0.05601112492622806
619.0,0.055764156206519866
618.0,0.05551732784983132
617.0,0.05541863577307371
616.0,0.05546797900801881
615.0,0.055566682299785564
614.0,0.05571477931124735
613.0,0.05601112492622806
612.0,0.056406567231630955
611.0,0.05670338543334519
610.0,0.05665390164340933
609.0,0.056159373598738904
608.0,0.055270639696704205
607.0,0.05453141486818014
606.0,0.05423607688882637
605.0,0.05453141486818014
604.0,0.05507339001378431
603.0,0.055566682299785564
602.0,0.05625823416868636
601.0,0.05729763111133224
600.0,0.05843887976392925
599.0,0.059035506507200575
598.0,0.05868737463933793
597.0,0.05784307153250956
596.0,0.05734718830678798
595.0,0.057743849580535134
594.0,0.059035506507200575
593.0,0.06078036414518184
592.0,0.062131203436140536
591.0,0.0627329277885873
590.0,0.06288348923294618
589.0,0.06328524178879635
588.0,0.06398920428479049
587.0,0.06434161389936577
586.0,0.06388856832514578
585.0,0.06318476880236723
584.0,0.06328524178879635
583.0,0.06479513257341862
582.0,0.06798309356579857
581.0,0.07273231918911849
580.0,0.07841755960658348
579.0,0.08349341288484435
578.0,0.0872466963286771
577.0,0.09076499663169257
576.0,0.0955549589230904
575.0,0.10182351650232357
574.0,0.10857405715200596
573.0,0.1149782051377024
572.0,0.1207320431753871
571.0,0.126156466776564
570.0,0.13318119707395182
569.0,0.14218522202899342
568.0,0.1493537648169334
567.0,0.14990540561329913
566.0,0.14423862766005224
565.0,0.136142038116027
564.0,0.1281352979118051
563.0,0.12228319913502328
562.0,0.12113366304327466
561.0,0.12453358413361437
560.0,0.1282519810081284
559.0,0.1284854412916181
558.0,0.12546020292898974
557.0,0.12234075588839133
556.0,0.12165057778222454
555.0,0.12337808396572703
554.0,0.12546020292898974
553.0,0.12563416426995122
552.0,0.12389767862220635
551.0,0.12193801870998744
550.0,0.12136332697348307
549.0,0.12147820449879343
548.0,0.11987267778337518
547.0,0.11520463605101905
546.0,0.10874138309586101
545.0,0.10424605792627206
544.0,0.10457745396059215
543.0,0.1082953237608173
542.0,0.11114683301706374
541.0,0.1106422631110684
540.0,0.10902040301031102
539.0,0.10991447328367476
538.0,0.11429961987167014
537.0,0.11975822410451964
536.0,0.12326270285933538
535.0,0.12337808396572703
534.0,0.12113366304327466
533.0,0.11861534322942724
532.0,0.11684980031672243
531.0,0.11401718864502697
530.0,0.10784972209863586
529.0,0.10023419805561384
528.0,0.09663866374468144
527.0,0.09925064193892053
526.0,0.10391491457671487
525.0,0.10596099919539115
524.0,0.1063491830140364
523.0,0.10946720807225518
522.0,0.11611154211151953
521.0,0.12211057462851604
520.0,0.12360893818081231
519.0,0.12136332697348307
518.0,0.11793105556385153
517.0,0.11509140583739286
516.0,0.11311464101399138
515.0,0.1117081546434846
514.0,0.10957898119908571
513.0,0.1062937069352865
512.0,0.10319830233507843
511.0,0.10215306842042837
510.0,0.10363915453068362
509.0,0.10684878687013422
508.0,0.11058623595729111
507.0,0.11305829401658474
506.0,0.11193288659256306
505.0,0.10707101764479421
504.0,0.10149421446564144
503.0,0.09826930827078129
502.0,0.09653017149282994
501.0,0.09436599867304518
500.0,0.09258863922541383
499.0,0.09323411045927221
498.0,0.09566320779750503
497.0,0.09712721455392082
496.0,0.09680145295702158
495.0,0.09691001300805646
494.0,0.09810596802617932
493.0,0.09870518283443275
492.0,0.09799710864927058
491.0,0.09767069414168117
490.0,0.09875969792669093
489.0,0.09935981601739963
488.0,0.0975619438013351
487.0,0.09463593123310776
486.0,0.09366495819490939
485.0,0.09642170633694569
484.0,0.10231793820358015
483.0,0.10924374808178183
482.0,0.11441264381034388
481.0,0.11548784080960606
480.0,0.11266406960083297
479.0,0.10879717273970457
478.0,0.1063491830140364
477.0,0.10557316203581202
476.0,0.10507502264045665
475.0,0.10408045468998406
474.0,0.10237290870955862
473.0,0.10045306890913297
472.0,0.09914149529800831
471.0,0.09886874864462802
470.0,0.09919606518963042
469.0,0.09946901754724413
468.0,0.10001543745060903
467.0,0.10127481841050656
466.0,0.10242788617426934
465.0,0.10248287059947447
464.0,0.10209812573177213
463.0,0.10308815917397474
462.0,0.10535169620648288
461.0,0.10668218838388821
460.0,0.10529634739076998
459.0,0.10248287059947447
458.0,0.10100072911021085
457.0,0.10242788617426934
456.0,0.10529634739076998
455.0,0.10668218838388821
454.0,0.10413564875270076
453.0,0.09837823590664274
452.0,0.09274991711867164
451.0,0.09065796163869155
450.0,0.09226626300234453
