cm-1,A
4000.0,0.012557195064198723
3999.0,0.012557195064198723
3998.0,0.012557195064198723
3997.0,0.012557195064198723
3996.0,0.012467797270160563
3995.0,0.012378417874516323
3994.0,0.012244383261476699
3993.0,0.012244383261476699
3992.0,0.012289056869694281
3991.0,0.012378417874516323
3990.0,0.012467797270160563
3989.0,0.012512493866907004
3988.0,0.012512493866907004
3987.0,0.012467797270160563
3986.0,0.012423105273012602
3985.0,0.012333735073725371
3984.0,0.012289056869694281
3983.0,0.012244383261476699
3982.0,0.012289056869694281
3981.0,0.012333735073725371
3980.0,0.012378417874516323
3979.0,0.012467797270160563
3978.0,0.01260190086298274
3977.0,0.01264661126420652
3976.0,0.01264661126420652
3975.0,0.01264661126420652
3974.0,0.01260190086298274
3973.0,0.012512493866907004
3972.0,0.012467797270160563
3971.0,0.012423105273012602
3970.0,0.012378417874516323
3969.0,0.012333735073725371
3968.0,0.012289056869694281
3967.0,0.012244383261476699
3966.0,0.01215504982870197
3965.0,0.012110390002254778
3964.0,0.012065734767841452
3963.0,0.01215504982870197
3962.0,0.012244383261476699
3961.0,0.012289056869694281
3960.0,0.012333735073725371
3959.0,0.012289056869694281
3958.0,0.012289056869694281
3957.0,0.012333735073725371
3956.0,0.012378417874516323
3955.0,0.012467797270160563
3954.0,0.012467797270160563
3953.0,0.012333735073725371
3952.0,0.012199714248127602
3951.0,0.012110390002254778
3950.0,0.012110390002254778
3949.0,0.012199714248127602
3948.0,0.012244383261476699
3947.0,0.012199714248127602
3946.0,0.01215504982870197
3945.0,0.012199714248127602
3944.0,0.012289056869694281
3943.0,0.012378417874516323
3942.0,0.012378417874516323
3941.0,0.012333735073725371
3940.0,0.012378417874516323
3939.0,0.012512493866907004
3938.0,0.012557195064198723
3937.0,0.012557195064198723
3936.0,0.012512493866907004
3935.0,0.012467797270160563
3934.0,0.012467797270160563
3933.0,0.01260190086298274
3932.0,0.012736045877764557
3931.0,0.012870232340102872
3930.0,0.012870232340102872
3929.0,0.012780770091995297
3928.0,0.01264661126420652
3927.0,0.012512493866907004
3926.0,0.012423105273012602
3925.0,0.012289056869694281
3924.0,0.01215504982870197
3923.0,0.012065734767841452
3922.0,0.012065734767841452
3921.0,0.012110390002254778
3920.0,0.012244383261476699
3919.0,0.012378417874516323
3918.0,0.012557195064198723
3917.0,0.01264661126420652
3916.0,0.012557195064198723
3915.0,0.012467797270160563
3914.0,0.012467797270160563
3913.0,0.012512493866907004
3912.0,0.012512493866907004
3911.0,0.012423105273012602
3910.0,0.012333735073725371
3909.0,0.012199714248127602
3908.0,0.012110390002254778
3907.0,0.012065734767841452
3906.0,0.012065734767841452
3905.0,0.012021084124518078
3904.0,0.011887159731648111
3903.0,0.011753276624621556
3902.0,0.011797899741219142
3901.0,0.012110390002254778
3900.0,0.012333735073725371
3899.0,0.012423105273012602
3898.0,0.012378417874516323
3897.0,0.012333735073725371
3896.0,0.012333735073725371
3895.0,0.012289056869694281
3894.0,0.012244383261476699
3893.0,0.012289056869694281
3892.0,0.012289056869694281
3891.0,0.012021084124518078
3890.0,0.011619434777991433
3889.0,0.011574829993696856
3888.0,0.011931796607364653
3887.0,0.012244383261476699
3886.0,0.012199714248127602
3885.0,0.011797899741219142
3884.0,0.011485634166333858
3883.0,0.011619434777991433
3882.0,0.011931796607364653
3881.0,0.012199714248127602
3880.0,0.012110390002254778
3879.0,0.011931796607364653
3878.0,0.011931796607364653
3877.0,0.012199714248127602
3876.0,0.012423105273012602
3875.0,0.012333735073725371
3874.0,0.011931796607364653
3873.0,0.011574829993696856
3872.0,0.011619434777991433
3871.0,0.011887159731648111
3870.0,0.012021084124518078
3869.0,0.011797899741219142
3868.0,0.011753276624621556
3867.0,0.012065734767841452
3866.0,0.012333735073725371
3865.0,0.012333735073725371
3864.0,0.012244383261476699
3863.0,0.012244383261476699
3862.0,0.012289056869694281
3861.0,0.012289056869694281
3860.0,0.012199714248127602
3859.0,0.012021084124518078
3858.0,0.011797899741219142
3857.0,0.011530229790124524
3856.0,0.011351874764248926
3855.0,0.011530229790124524
3854.0,0.011931796607364653
3853.0,0.011797899741219142
3852.0,0.011351874764248926
3851.0,0.011574829993696856
3850.0,0.01215504982870197
3849.0,0.012423105273012602
3848.0,0.012333735073725371
3847.0,0.01215504982870197
3846.0,0.012021084124518078
3845.0,0.011887159731648111
3844.0,0.011708658092512314
3843.0,0.011485634166333858
3842.0,0.011262724711199823
3841.0,0.01117359295472431
3840.0,0.011262724711199823
3839.0,0.011396456654336085
3838.0,0.011485634166333858
3837.0,0.011530229790124524
3836.0,0.011619434777991433
3835.0,0.011842527443247208
3834.0,0.012021084124518078
3833.0,0.01215504982870197
3832.0,0.012110390002254778
3831.0,0.011931796607364653
3830.0,0.011842527443247208
3829.0,0.011842527443247208
3828.0,0.011887159731648111
3827.0,0.011797899741219142
3826.0,0.011530229790124524
3825.0,0.011307297450183107
3824.0,0.011351874764248926
3823.0,0.011619434777991433
3822.0,0.011931796607364653
3821.0,0.011797899741219142
3820.0,0.011307297450183107
3819.0,0.011262724711199823
3818.0,0.011797899741219142
3817.0,0.012333735073725371
3816.0,0.012423105273012602
3815.0,0.012244383261476699
3814.0,0.012199714248127602
3813.0,0.012467797270160563
3812.0,0.012557195064198723
3811.0,0.012378417874516323
3810.0,0.012199714248127602
3809.0,0.012244383261476699
3808.0,0.012423105273012602
3807.0,0.012289056869694281
3806.0,0.011753276624621556
3805.0,0.011396456654336085
3804.0,0.011530229790124524
3803.0,0.011797899741219142
3802.0,0.012021084124518078
3801.0,0.011887159731648111
3800.0,0.011664044143949504
3799.0,0.0119764380713403
3798.0,0.012423105273012602
3797.0,0.012557195064198723
3796.0,0.012378417874516323
3795.0,0.012244383261476699
3794.0,0.012289056869694281
3793.0,0.012512493866907004
3792.0,0.01264661126420652
3791.0,0.01264661126420652
3790.0,0.012557195064198723
3789.0,0.012557195064198723
3788.0,0.01260190086298274
3787.0,0.012691326268817527
3786.0,0.012736045877764557
3785.0,0.01264661126420652
3784.0,0.012467797270160563
3783.0,0.012333735073725371
3782.0,0.012423105273012602
3781.0,0.01260190086298274
3780.0,0.012736045877764557
3779.0,0.012736045877764557
3778.0,0.01264661126420652
3777.0,0.01264661126420652
3776.0,0.01264661126420652
3775.0,0.012467797270160563
3774.0,0.01215504982870197
3773.0,0.011931796607364653
3772.0,0.011931796607364653
3771.0,0.012021084124518078
3770.0,0.012065734767841452
3769.0,0.0119764380713403
3768.0,0.012021084124518078
3767.0,0.012289056869694281
3766.0,0.012512493866907004
3765.0,0.012512493866907004
3764.0,0.012333735073725371
3763.0,0.012289056869694281
3762.0,0.012333735073725371
3761.0,0.012333735073725371
3760.0,0.012333735073725371
3759.0,0.012333735073725371
3758.0,0.012333735073725371
3757.0,0.012244383261476699
3756.0,0.01215504982870197
3755.0,0.012065734767841452
3754.0,0.011931796607364653
3753.0,0.011753276624621556
3752.0,0.011887159731648111
3751.0,0.01215504982870197
3750.0,0.012110390002254778
3749.0,0.011753276624621556
3748.0,0.011619434777991433
3747.0,0.011931796607364653
3746.0,0.012423105273012602
3745.0,0.01260190086298274
3744.0,0.012065734767841452
3743.0,0.011441043121384498
3742.0,0.011619434777991433
3741.0,0.01215504982870197
3740.0,0.012199714248127602
3739.0,0.011931796607364653
3738.0,0.011753276624621556
3737.0,0.011797899741219142
3736.0,0.011931796607364653
3735.0,0.012065734767841452
3734.0,0.012244383261476699
3733.0,0.012467797270160563
3732.0,0.012512493866907004
3731.0,0.012512493866907004
3730.0,0.01260190086298274
3729.0,0.012780770091995297
3728.0,0.012914970375878188
3727.0,0.012870232340102872
3726.0,0.012691326268817527
3725.0,0.01260190086298274
3724.0,0.01264661126420652
3723.0,0.01264661126420652
3722.0,0.01264661126420652
3721.0,0.01260190086298274
3720.0,0.01264661126420652
3719.0,0.012691326268817527
3718.0,0.012691326268817527
3717.0,0.012512493866907004
3716.0,0.012378417874516323
3715.0,0.012289056869694281
3714.0,0.012199714248127602
3713.0,0.012110390002254778
3712.0,0.01215504982870197
3711.0,0.012244383261476699
3710.0,0.012333735073725371
3709.0,0.012467797270160563
3708.0,0.01260190086298274
3707.0,0.012691326268817527
3706.0,0.012691326268817527
3705.0,0.012691326268817527
3704.0,0.012736045877764557
3703.0,0.012870232340102872
3702.0,0.012914970375878188
3701.0,0.012870232340102872
3700.0,0.012780770091995297
3699.0,0.012870232340102872
3698.0,0.012959713020733288
3697.0,0.013004460275618523
3696.0,0.012870232340102872
3695.0,0.012691326268817527
3694.0,0.012512493866907004
3693.0,0.012289056869694281
3692.0,0.012110390002254778
3691.0,0.012244383261476699
3690.0,0.01260190086298274
3689.0,0.012825498912458322
3688.0,0.01264661126420652
3687.0,0.012467797270160563
3686.0,0.01264661126420652
3685.0,0.012959713020733288
3684.0,0.013049212141483357
3683.0,0.013004460275618523
3682.0,0.012870232340102872
3681.0,0.012736045877764557
3680.0,0.012467797270160563
3679.0,0.012199714248127602
3678.0,0.012110390002254778
3677.0,0.012289056869694281
3676.0,0.012512493866907004
3675.0,0.01215504982870197
3674.0,0.011753276624621556
3673.0,0.011931796607364653
3672.0,0.012423105273012602
3671.0,0.012691326268817527
3670.0,0.012780770091995297
3669.0,0.012736045877764557
3668.0,0.012825498912458322
3667.0,0.01318349541446362
3666.0,0.013496984613259544
3665.0,0.013586594534531482
3664.0,0.013631406429727155
3663.0,0.013586594534531482
3662.0,0.013541787262693505
3661.0,0.013407393177789162
3660.0,0.01322826573375524
3659.0,0.01318349541446362
3658.0,0.013273040668781544
3657.0,0.013317820220494436
3656.0,0.013138729709955221
3655.0,0.012870232340102872
3654.0,0.012780770091995297
3653.0,0.012780770091995297
3652.0,0.012691326268817527
3651.0,0.01260190086298274
3650.0,0.012825498912458322
3649.0,0.01318349541446362
3648.0,0.013362604389846044
3647.0,0.013496984613259544
3646.0,0.01372104409400876
3645.0,0.013990068146738865
3644.0,0.014304140310157809
3643.0,0.0144837121472845
3642.0,0.014573525916998342
3641.0,0.014618439768003144
3640.0,0.014663358264387139
3639.0,0.014663358264387139
3638.0,0.014663358264387139
3637.0,0.014618439768003144
3636.0,0.014618439768003144
3635.0,0.014618439768003144
3634.0,0.014393916947563534
3633.0,0.014124642691606404
3632.0,0.013900374944870508
3631.0,0.013900374944870508
3630.0,0.014124642691606404
3629.0,0.014259258949925524
3628.0,0.014124642691606404
3627.0,0.014124642691606404
3626.0,0.01452861671041239
3625.0,0.014843078722943437
3624.0,0.014798141635428141
3623.0,0.0144837121472845
3622.0,0.014214382227394795
3621.0,0.014124642691606404
3620.0,0.014259258949925524
3619.0,0.014304140310157809
3618.0,0.014259258949925524
3617.0,0.014214382227394795
3616.0,0.014259258949925524
3615.0,0.014349026309051105
3614.0,0.014349026309051105
3613.0,0.014214382227394795
3612.0,0.014169510141607944
3611.0,0.014259258949925524
3610.0,0.01452861671041239
3609.0,0.014798141635428141
3608.0,0.014932966849499074
3607.0,0.014888020460646079
3606.0,0.014798141635428141
3605.0,0.014708281407112
3604.0,0.014663358264387139
3603.0,0.014663358264387139
3602.0,0.014708281407112
3601.0,0.014798141635428141
3600.0,0.014843078722943437
3599.0,0.014753209197138295
3598.0,0.014753209197138295
3597.0,0.014798141635428141
3596.0,0.014888020460646079
3595.0,0.014932966849499074
3594.0,0.014932966849499074
3593.0,0.014843078722943437
3592.0,0.014753209197138295
3591.0,0.014663358264387139
3590.0,0.014618439768003144
3589.0,0.014753209197138295
3588.0,0.015022873584506602
3587.0,0.015292705517326866
3586.0,0.01538268676325183
3585.0,0.01547268665620738
3584.0,0.015517693597737248
3583.0,0.015562705203923999
3582.0,0.015562705203923999
3581.0,0.015562705203923999
3580.0,0.015562705203923999
3579.0,0.015562705203923999
3578.0,0.015562705203923999
3577.0,0.015607721475734415
3576.0,0.015697768020096703
3575.0,0.015832872853011715
3574.0,0.015922966097169144
3573.0,0.015922966097169144
3572.0,0.015742798294583915
3571.0,0.01547268665620738
3570.0,0.015157768594724175
3569.0,0.015067833932588037
3568.0,0.015292705517326866
3567.0,0.015652742414136167
3566.0,0.016013078034810446
3565.0,0.016148281008528276
3564.0,0.016238439713835096
3563.0,0.016193358021584725
3562.0,0.016103208673694303
3561.0,0.016013078034810446
3560.0,0.016013078034810446
3559.0,0.016103208673694303
3558.0,0.01628352608625061
3557.0,0.01646391839700767
3556.0,0.016644385668211692
3555.0,0.01677978535189717
3554.0,0.016824927962187042
3553.0,0.016824927962187042
3552.0,0.016689514205884493
3551.0,0.016509028184833463
3550.0,0.016418813294209356
3549.0,0.016418813294209356
3548.0,0.016599261819461697
3547.0,0.016870075265299933
3546.0,0.017141057687924732
3545.0,0.01727661233145472
3544.0,0.01727661233145472
3543.0,0.017141057687924732
3542.0,0.017005545341335804
3541.0,0.016870075265299933
3540.0,0.016734647433454652
3539.0,0.016599261819461697
3538.0,0.016509028184833463
3537.0,0.016509028184833463
3536.0,0.016644385668211692
3535.0,0.01677978535189717
3534.0,0.016870075265299933
3533.0,0.016915227262211507
3532.0,0.016824927962187042
3531.0,0.016689514205884493
3530.0,0.016554142658660398
3529.0,0.016418813294209356
3528.0,0.016373712875465518
3527.0,0.01632861713980338
3526.0,0.01632861713980338
3525.0,0.016418813294209356
3524.0,0.016509028184833463
3523.0,0.016644385668211692
3522.0,0.016644385668211692
3521.0,0.016644385668211692
3520.0,0.016599261819461697
3519.0,0.016644385668211692
3518.0,0.016644385668211692
3517.0,0.016689514205884493
3516.0,0.016644385668211692
3515.0,0.016599261819461697
3514.0,0.016554142658660398
3513.0,0.016509028184833463
3512.0,0.016599261819461697
3511.0,0.016734647433454652
3510.0,0.01677978535189717
3509.0,0.016689514205884493
3508.0,0.01646391839700767
3507.0,0.01628352608625061
3506.0,0.016238439713835096
3505.0,0.01632861713980338
3504.0,0.016418813294209356
3503.0,0.01646391839700767
3502.0,0.016373712875465518
3501.0,0.016238439713835096
3500.0,0.016103208673694303
3499.0,0.01596801972881945
3498.0,0.015877917138889863
3497.0,0.015877917138889863
3496.0,0.016013078034810446
3495.0,0.016238439713835096
3494.0,0.016373712875465518
3493.0,0.01646391839700767
3492.0,0.016373712875465518
3491.0,0.01628352608625061
3490.0,0.016148281008528276
3489.0,0.016103208673694303
3488.0,0.016103208673694303
3487.0,0.016148281008528276
3486.0,0.016193358021584725
3485.0,0.016238439713835096
3484.0,0.01632861713980338
3483.0,0.016373712875465518
3482.0,0.016418813294209356
3481.0,0.016418813294209356
3480.0,0.01646391839700767
3479.0,0.01646391839700767
3478.0,0.016418813294209356
3477.0,0.01632861713980338
3476.0,0.01628352608625061
3475.0,0.016373712875465518
3474.0,0.016509028184833463
3473.0,0.016689514205884493
3472.0,0.016824927962187042
3471.0,0.016870075265299933
3470.0,0.016824927962187042
3469.0,0.016689514205884493
3468.0,0.016599261819461697
3467.0,0.016554142658660398
3466.0,0.016509028184833463
3465.0,0.016554142658660398
3464.0,0.016599261819461697
3463.0,0.016689514205884493
3462.0,0.01677978535189717
3461.0,0.016870075265299933
3460.0,0.016960383953898095
3459.0,0.017050711425501408
3458.0,0.017141057687924732
3457.0,0.017231422748988034
3456.0,0.01727661233145472
3455.0,0.017367005605150476
3454.0,0.017457417697056554
3453.0,0.017547848615010242
3452.0,0.01768353030793479
3451.0,0.01781925440359733
3450.0,0.017864505196230507
3449.0,0.017909760704207134
3448.0,0.017955020928509757
3447.0,0.01809082990920774
3446.0,0.018271974638383703
3445.0,0.01845319495476394
3444.0,0.018634490921455527
3443.0,0.018815862601645694
3442.0,0.018951941086827073
3441.0,0.01899731005860028
3440.0,0.0190880622231564
3439.0,0.0192242260373785
3438.0,0.019315025636685412
3437.0,0.01940584422377989
3436.0,0.01949668180660491
3435.0,0.01949668180660491
3434.0,0.01949668180660491
3433.0,0.01954210772389997
3432.0,0.019678413991243593
3431.0,0.019769308608968306
3430.0,0.019814763052665052
3429.0,0.019814763052665052
3428.0,0.019769308608968306
3427.0,0.019723858922159776
3426.0,0.019632973815224997
3425.0,0.019451260640229506
3424.0,0.0192242260373785
3423.0,0.019042683770379876
3422.0,0.01899731005860028
3421.0,0.0190880622231564
3420.0,0.0190880622231564
3419.0,0.01899731005860028
3418.0,0.018770512579999288
3417.0,0.018543833477873584
3416.0,0.018362575344230914
3415.0,0.018226681372252695
3414.0,0.01809082990920774
3413.0,0.017955020928509757
3412.0,0.017864505196230507
3411.0,0.017774008325325275
3410.0,0.01768353030793479
3409.0,0.01759307113620534
3408.0,0.017502630802287644
3407.0,0.017412209298337533
3406.0,0.017321806616515723
3405.0,0.017186237868137555
3404.0,0.017095882207371904
3403.0,0.016960383953898095
3402.0,0.016870075265299933
3401.0,0.01677978535189717
3400.0,0.016689514205884493
3399.0,0.016689514205884493
3398.0,0.016644385668211692
3397.0,0.016644385668211692
3396.0,0.016599261819461697
3395.0,0.016554142658660398
3394.0,0.016554142658660398
3393.0,0.016599261819461697
3392.0,0.016689514205884493
3391.0,0.016734647433454652
3390.0,0.016734647433454652
3389.0,0.016599261819461697
3388.0,0.01646391839700767
3387.0,0.01628352608625061
3386.0,0.016148281008528276
3385.0,0.016103208673694303
3384.0,0.016103208673694303
3383.0,0.016103208673694303
3382.0,0.016148281008528276
3381.0,0.016148281008528276
3380.0,0.016193358021584725
3379.0,0.016148281008528276
3378.0,0.016103208673694303
3377.0,0.016058141016111804
3376.0,0.016103208673694303
3375.0,0.016238439713835096
3374.0,0.01632861713980338
3373.0,0.01628352608625061
3372.0,0.016193358021584725
3371.0,0.01596801972881945
3370.0,0.01578783323856614
3369.0,0.015607721475734415
3368.0,0.015517693597737248
3367.0,0.015562705203923999
3366.0,0.015607721475734415
3365.0,0.015742798294583915
3364.0,0.015832872853011715
3363.0,0.015922966097169144
3362.0,0.01596801972881945
3361.0,0.01596801972881945
3360.0,0.01596801972881945
3359.0,0.016013078034810446
3358.0,0.016058141016111804
3357.0,0.016058141016111804
3356.0,0.016103208673694303
3355.0,0.016193358021584725
3354.0,0.01628352608625061
3353.0,0.016373712875465518
3352.0,0.016418813294209356
3351.0,0.01646391839700767
3350.0,0.01646391839700767
3349.0,0.016509028184833463
3348.0,0.016509028184833463
3347.0,0.01646391839700767
3346.0,0.01632861713980338
3345.0,0.016193358021584725
3344.0,0.016148281008528276
3343.0,0.016193358021584725
3342.0,0.01632861713980338
3341.0,0.016418813294209356
3340.0,0.016418813294209356
3339.0,0.01632861713980338
3338.0,0.01628352608625061
3337.0,0.01628352608625061
3336.0,0.01632861713980338
3335.0,0.01632861713980338
3334.0,0.01632861713980338
3333.0,0.01632861713980338
3332.0,0.01632861713980338
3331.0,0.01632861713980338
3330.0,0.01628352608625061
3329.0,0.01628352608625061
3328.0,0.01628352608625061
3327.0,0.016373712875465518
3326.0,0.016373712875465518
3325.0,0.01632861713980338
3324.0,0.01628352608625061
3323.0,0.016238439713835096
3322.0,0.01632861713980338
3321.0,0.016418813294209356
3320.0,0.016418813294209356
3319.0,0.01628352608625061
3318.0,0.016058141016111804
3317.0,0.015922966097169144
3316.0,0.015877917138889863
3315.0,0.015922966097169144
3314.0,0.01596801972881945
3313.0,0.016058141016111804
3312.0,0.016148281008528276
3311.0,0.016238439713835096
3310.0,0.01628352608625061
3309.0,0.016238439713835096
3308.0,0.016148281008528276
3307.0,0.016103208673694303
3306.0,0.016058141016111804
3305.0,0.01596801972881945
3304.0,0.015877917138889863
3303.0,0.015697768020096703
3302.0,0.015607721475734415
3301.0,0.015562705203923999
3300.0,0.015607721475734415
3299.0,0.015607721475734415
3298.0,0.015697768020096703
3297.0,0.015832872853011715
3296.0,0.01596801972881945
3295.0,0.016058141016111804
3294.0,0.016013078034810446
3293.0,0.015877917138889863
3292.0,0.015742798294583915
3291.0,0.015607721475734415
3290.0,0.015607721475734415
3289.0,0.015697768020096703
3288.0,0.015832872853011715
3287.0,0.015877917138889863
3286.0,0.015922966097169144
3285.0,0.015832872853011715
3284.0,0.015697768020096703
3283.0,0.015562705203923999
3282.0,0.01538268676325183
3281.0,0.015247721884586563
3280.0,0.015292705517326866
3279.0,0.01538268676325183
3278.0,0.015427684378367834
3277.0,0.015427684378367834
3276.0,0.01538268676325183
3275.0,0.01538268676325183
3274.0,0.01538268676325183
3273.0,0.015427684378367834
3272.0,0.015562705203923999
3271.0,0.015607721475734415
3270.0,0.015652742414136167
3269.0,0.015652742414136167
3268.0,0.015697768020096703
3267.0,0.015742798294583915
3266.0,0.01578783323856614
3265.0,0.01578783323856614
3264.0,0.01578783323856614
3263.0,0.01578783323856614
3262.0,0.01578783323856614
3261.0,0.01578783323856614
3260.0,0.015697768020096703
3259.0,0.015652742414136167
3258.0,0.015652742414136167
3257.0,0.015697768020096703
3256.0,0.015742798294583915
3255.0,0.015742798294583915
3254.0,0.015697768020096703
3253.0,0.015697768020096703
3252.0,0.015742798294583915
3251.0,0.015832872853011715
3250.0,0.015922966097169144
3249.0,0.015922966097169144
3248.0,0.015832872853011715
3247.0,0.015742798294583915
3246.0,0.015652742414136167
3245.0,0.015607721475734415
3244.0,0.015562705203923999
3243.0,0.015517693597737248
3242.0,0.01547268665620738
3241.0,0.01547268665620738
3240.0,0.01547268665620738
3239.0,0.01547268665620738
3238.0,0.015562705203923999
3237.0,0.015697768020096703
3236.0,0.015832872853011715
3235.0,0.015832872853011715
3234.0,0.015697768020096703
3233.0,0.015517693597737248
3232.0,0.015292705517326866
3231.0,0.015022873584506602
3230.0,0.014843078722943437
3229.0,0.014798141635428141
3228.0,0.014888020460646079
3227.0,0.015067833932588037
3226.0,0.015292705517326866
3225.0,0.01538268676325183
3224.0,0.015337693809893471
3223.0,0.015247721884586563
3222.0,0.015202742910707112
3221.0,0.015202742910707112
3220.0,0.015337693809893471
3219.0,0.015427684378367834
3218.0,0.01547268665620738
3217.0,0.01547268665620738
3216.0,0.01538268676325183
3215.0,0.015247721884586563
3214.0,0.015112798935672522
3213.0,0.015022873584506602
3212.0,0.015022873584506602
3211.0,0.015067833932588037
3210.0,0.015202742910707112
3209.0,0.015292705517326866
3208.0,0.015337693809893471
3207.0,0.015292705517326866
3206.0,0.015247721884586563
3205.0,0.015157768594724175
3204.0,0.015112798935672522
3203.0,0.015112798935672522
3202.0,0.015157768594724175
3201.0,0.015337693809893471
3200.0,0.01547268665620738
3199.0,0.01547268665620738
3198.0,0.015427684378367834
3197.0,0.015292705517326866
3196.0,0.015247721884586563
3195.0,0.015247721884586563
3194.0,0.015247721884586563
3193.0,0.015202742910707112
3192.0,0.015157768594724175
3191.0,0.015202742910707112
3190.0,0.015337693809893471
3189.0,0.015427684378367834
3188.0,0.01547268665620738
3187.0,0.015427684378367834
3186.0,0.015337693809893471
3185.0,0.015292705517326866
3184.0,0.015247721884586563
3183.0,0.015157768594724175
3182.0,0.015112798935672522
3181.0,0.015067833932588037
3180.0,0.015067833932588037
3179.0,0.015112798935672522
3178.0,0.015157768594724175
3177.0,0.015157768594724175
3176.0,0.015112798935672522
3175.0,0.015067833932588037
3174.0,0.015067833932588037
3173.0,0.015022873584506602
3172.0,0.015022873584506602
3171.0,0.015067833932588037
3170.0,0.015157768594724175
3169.0,0.015202742910707112
3168.0,0.015247721884586563
3167.0,0.015292705517326866
3166.0,0.01538268676325183
3165.0,0.015427684378367834
3164.0,0.01547268665620738
3163.0,0.015427684378367834
3162.0,0.01538268676325183
3161.0,0.015247721884586563
3160.0,0.015157768594724175
3159.0,0.015067833932588037
3158.0,0.015067833932588037
3157.0,0.015112798935672522
3156.0,0.015202742910707112
3155.0,0.015292705517326866
3154.0,0.01538268676325183
3153.0,0.015427684378367834
3152.0,0.01547268665620738
3151.0,0.015517693597737248
3150.0,0.015562705203923999
3149.0,0.015562705203923999
3148.0,0.015562705203923999
3147.0,0.015562705203923999
3146.0,0.015562705203923999
3145.0,0.015562705203923999
3144.0,0.015652742414136167
3143.0,0.015742798294583915
3142.0,0.015832872853011715
3141.0,0.015832872853011715
3140.0,0.01578783323856614
3139.0,0.015652742414136167
3138.0,0.015517693597737248
3137.0,0.01538268676325183
3136.0,0.015427684378367834
3135.0,0.015562705203923999
3134.0,0.01578783323856614
3133.0,0.016013078034810446
3132.0,0.016148281008528276
3131.0,0.016193358021584725
3130.0,0.016193358021584725
3129.0,0.016193358021584725
3128.0,0.016193358021584725
3127.0,0.016193358021584725
3126.0,0.016148281008528276
3125.0,0.016058141016111804
3124.0,0.01596801972881945
3123.0,0.015922966097169144
3122.0,0.015922966097169144
3121.0,0.01596801972881945
3120.0,0.016013078034810446
3119.0,0.016103208673694303
3118.0,0.016193358021584725
3117.0,0.01632861713980338
3116.0,0.016418813294209356
3115.0,0.016509028184833463
3114.0,0.016689514205884493
3113.0,0.016915227262211507
3112.0,0.017050711425501408
3111.0,0.017141057687924732
3110.0,0.017231422748988034
3109.0,0.01727661233145472
3108.0,0.017367005605150476
3107.0,0.017457417697056554
3106.0,0.017547848615010242
3105.0,0.01759307113620534
3104.0,0.01768353030793479
3103.0,0.01768353030793479
3102.0,0.01759307113620534
3101.0,0.017457417697056554
3100.0,0.017321806616515723
3099.0,0.017231422748988034
3098.0,0.017141057687924732
3097.0,0.017050711425501408
3096.0,0.017050711425501408
3095.0,0.017141057687924732
3094.0,0.01727661233145472
3093.0,0.017412209298337533
3092.0,0.017502630802287644
3091.0,0.017547848615010242
3090.0,0.017638298366853045
3089.0,0.01768353030793479
3088.0,0.017728766960431575
3087.0,0.017774008325325275
3086.0,0.01781925440359733
3085.0,0.017909760704207134
3084.0,0.01800028587012159
3083.0,0.018136109008649592
3082.0,0.018271974638383703
3081.0,0.01840788278591865
3080.0,0.018498511851753108
3079.0,0.01858915983411169
3078.0,0.018634490921455527
3077.0,0.018679826740892747
3076.0,0.018679826740892747
3075.0,0.018679826740892747
3074.0,0.018725167293411005
3073.0,0.018770512579999288
3072.0,0.018815862601645694
3071.0,0.018815862601645694
3070.0,0.018725167293411005
3069.0,0.01858915983411169
3068.0,0.018498511851753108
3067.0,0.01845319495476394
3066.0,0.01845319495476394
3065.0,0.018498511851753108
3064.0,0.018498511851753108
3063.0,0.01845319495476394
3062.0,0.018498511851753108
3061.0,0.01858915983411169
3060.0,0.018634490921455527
3059.0,0.018725167293411005
3058.0,0.018815862601645694
3057.0,0.018951941086827073
3056.0,0.0190880622231564
3055.0,0.019133445417920836
3054.0,0.0190880622231564
3053.0,0.018906576854070378
3052.0,0.018679826740892747
3051.0,0.01840788278591865
3050.0,0.01809082990920774
3049.0,0.01781925440359733
3048.0,0.017547848615010242
3047.0,0.017321806616515723
3046.0,0.017141057687924732
3045.0,0.016915227262211507
3044.0,0.016689514205884493
3043.0,0.016509028184833463
3042.0,0.01632861713980338
3041.0,0.016148281008528276
3040.0,0.01596801972881945
3039.0,0.015832872853011715
3038.0,0.015697768020096703
3037.0,0.015652742414136167
3036.0,0.015652742414136167
3035.0,0.015652742414136167
3034.0,0.015652742414136167
3033.0,0.015652742414136167
3032.0,0.015697768020096703
3031.0,0.015742798294583915
3030.0,0.015742798294583915
3029.0,0.015742798294583915
3028.0,0.015742798294583915
3027.0,0.015832872853011715
3026.0,0.015922966097169144
3025.0,0.016058141016111804
3024.0,0.016148281008528276
3023.0,0.016238439713835096
3022.0,0.01632861713980338
3021.0,0.01646391839700767
3020.0,0.016644385668211692
3019.0,0.016734647433454652
3018.0,0.016870075265299933
3017.0,0.016960383953898095
3016.0,0.017095882207371904
3015.0,0.017231422748988034
3014.0,0.017412209298337533
3013.0,0.017638298366853045
3012.0,0.017909760704207134
3011.0,0.018136109008649592
3010.0,0.018271974638383703
3009.0,0.01831727262871463
3008.0,0.018362575344230914
3007.0,0.018498511851753108
3006.0,0.018679826740892747
3005.0,0.018861217359339655
3004.0,0.0190880622231564
3003.0,0.0192242260373785
3002.0,0.019315025636685412
3001.0,0.01940584422377989
3000.0,0.01949668180660491
2999.0,0.019632973815224997
2998.0,0.019814763052665052
2997.0,0.019996628416253603
2996.0,0.020178569969774962
2995.0,0.020406104151069693
2994.0,0.020633757603838898
2993.0,0.020770406977844713
2992.0,0.020861530453190058
2991.0,0.020952673052035298
2990.0,0.021089422824428272
2989.0,0.021271822861508305
2988.0,0.021499930688540836
2987.0,0.021728158389364705
2986.0,0.02200219004126036
2985.0,0.022367834754000393
2984.0,0.022733787572707387
2983.0,0.023100049017062307
2982.0,0.023466619608062178
2981.0,0.023833499868024743
2980.0,0.024200690320592466
2979.0,0.024660115394541604
2978.0,0.02516604495145991
2977.0,0.025672564576383117
2976.0,0.02613355016462182
2975.0,0.02654885597506529
2974.0,0.027056991894431892
2973.0,0.027612000892527133
2972.0,0.028167720075074953
2971.0,0.02872415126189476
2970.0,0.029234840219232394
2969.0,0.029746130405213123
2968.0,0.03030458888152676
2967.0,0.030957032694186815
2966.0,0.03151705144606498
2965.0,0.03207779326948268
2964.0,0.03249882527715853
2963.0,0.032920265855503006
2962.0,0.0332483359486222
2961.0,0.03352973627071565
2960.0,0.03376437590141812
2959.0,0.03385826726096752
2958.0,0.03385826726096752
2957.0,0.03367050483612166
2956.0,0.03338901331806565
2955.0,0.033060836978886954
2954.0,0.03263926003405038
2953.0,0.03217132066984485
2952.0,0.03161045815293173
2951.0,0.031003673351687855
2950.0,0.030351159519274695
2949.0,0.029653123769906697
2948.0,0.028956208163971375
2947.0,0.028214062120885508
2946.0,0.02747318213414429
2945.0,0.02677975314776626
2944.0,0.02613355016462182
2943.0,0.02539620791296726
2942.0,0.024660115394541604
2941.0,0.023925268380126097
2940.0,0.023283295636617574
2939.0,0.02277955336461468
2938.0,0.022322112326006227
2937.0,0.02200219004126036
2936.0,0.02168250325324883
2935.0,0.021363051615525652
2934.0,0.021089422824428272
2933.0,0.02081596632558158
2932.0,0.020542681902151694
2931.0,0.020315076172974234
2930.0,0.02022406727031445
2929.0,0.02013307743509718
2928.0,0.02004210665933459
2927.0,0.01990568621470623
2926.0,0.019723858922159776
2925.0,0.01958753839310856
2924.0,0.01949668180660491
2923.0,0.019360432556262852
2922.0,0.019178833355664393
2921.0,0.019042683770379876
2920.0,0.018951941086827073
2919.0,0.018906576854070378
2918.0,0.01899731005860028
2917.0,0.0190880622231564
2916.0,0.0192242260373785
2915.0,0.019269623464054586
2914.0,0.019315025636685412
2913.0,0.019315025636685412
2912.0,0.019360432556262852
2911.0,0.019451260640229506
2910.0,0.01954210772389997
2909.0,0.01958753839310856
2908.0,0.019678413991243593
2907.0,0.019723858922159776
2906.0,0.019769308608968306
2905.0,0.019814763052665052
2904.0,0.019860222254245663
2903.0,0.019860222254245663
2902.0,0.01990568621470623
2901.0,0.019996628416253603
2900.0,0.020087589665283012
2899.0,0.02022406727031445
2898.0,0.02036058777709271
2897.0,0.020542681902151694
2896.0,0.02067930261797568
2895.0,0.02081596632558158
2894.0,0.020907099361673565
2893.0,0.0209982515252789
2892.0,0.021043834782408455
2891.0,0.021089422824428272
2890.0,0.021089422824428272
2889.0,0.021089422824428272
2888.0,0.021043834782408455
2887.0,0.020952673052035298
2886.0,0.020861530453190058
2885.0,0.020770406977844713
2884.0,0.020542681902151694
2883.0,0.020315076172974234
2882.0,0.02013307743509718
2881.0,0.019996628416253603
2880.0,0.019996628416253603
2879.0,0.019996628416253603
2878.0,0.01995115493504329
2877.0,0.019860222254245663
2876.0,0.019723858922159776
2875.0,0.019632973815224997
2874.0,0.01954210772389997
2873.0,0.019451260640229506
2872.0,0.019360432556262852
2871.0,0.0192242260373785
2870.0,0.0190880622231564
2869.0,0.019042683770379876
2868.0,0.019042683770379876
2867.0,0.019042683770379876
2866.0,0.019042683770379876
2865.0,0.01899731005860028
2864.0,0.018906576854070378
2863.0,0.018815862601645694
2862.0,0.018770512579999288
2861.0,0.018770512579999288
2860.0,0.018815862601645694
2859.0,0.018861217359339655
2858.0,0.018770512579999288
2857.0,0.018634490921455527
2856.0,0.018543833477873584
2855.0,0.018498511851753108
2854.0,0.01845319495476394
2853.0,0.018362575344230914
2852.0,0.01831727262871463
2851.0,0.018226681372252695
2850.0,0.018136109008649592
2849.0,0.017955020928509757
2848.0,0.017774008325325275
2847.0,0.017547848615010242
2846.0,0.017321806616515723
2845.0,0.017141057687924732
2844.0,0.017005545341335804
2843.0,0.016915227262211507
2842.0,0.01677978535189717
2841.0,0.016644385668211692
2840.0,0.016554142658660398
2839.0,0.016509028184833463
2838.0,0.01646391839700767
2837.0,0.016418813294209356
2836.0,0.016373712875465518
2835.0,0.01632861713980338
2834.0,0.016238439713835096
2833.0,0.016148281008528276
2832.0,0.016058141016111804
2831.0,0.01596801972881945
2830.0,0.015922966097169144
2829.0,0.015922966097169144
2828.0,0.015877917138889863
2827.0,0.015877917138889863
2826.0,0.015832872853011715
2825.0,0.01578783323856614
2824.0,0.015697768020096703
2823.0,0.015652742414136167
2822.0,0.015652742414136167
2821.0,0.015652742414136167
2820.0,0.015652742414136167
2819.0,0.015652742414136167
2818.0,0.015652742414136167
2817.0,0.015607721475734415
2816.0,0.015562705203923999
2815.0,0.015517693597737248
2814.0,0.015517693597737248
2813.0,0.01547268665620738
2812.0,0.015427684378367834
2811.0,0.01547268665620738
2810.0,0.015517693597737248
2809.0,0.015607721475734415
2808.0,0.015607721475734415
2807.0,0.015517693597737248
2806.0,0.01538268676325183
2805.0,0.015292705517326866
2804.0,0.015292705517326866
2803.0,0.01538268676325183
2802.0,0.01538268676325183
2801.0,0.015292705517326866
2800.0,0.015157768594724175
2799.0,0.015112798935672522
2798.0,0.015112798935672522
2797.0,0.015112798935672522
2796.0,0.015112798935672522
2795.0,0.015067833932588037
2794.0,0.014977917890464765
2793.0,0.014932966849499074
2792.0,0.014932966849499074
2791.0,0.014977917890464765
2790.0,0.014977917890464765
2789.0,0.014977917890464765
2788.0,0.014932966849499074
2787.0,0.014888020460646079
2786.0,0.014888020460646079
2785.0,0.014932966849499074
2784.0,0.014932966849499074
2783.0,0.014888020460646079
2782.0,0.014843078722943437
2781.0,0.014753209197138295
2780.0,0.014708281407112
2779.0,0.014663358264387139
2778.0,0.014663358264387139
2777.0,0.014708281407112
2776.0,0.014753209197138295
2775.0,0.014753209197138295
2774.0,0.014708281407112
2773.0,0.014618439768003144
2772.0,0.014573525916998342
2771.0,0.014573525916998342
2770.0,0.014573525916998342
2769.0,0.014618439768003144
2768.0,0.014663358264387139
2767.0,0.014618439768003144
2766.0,0.014573525916998342
2765.0,0.01452861671041239
2764.0,0.01452861671041239
2763.0,0.01452861671041239
2762.0,0.014573525916998342
2761.0,0.014618439768003144
2760.0,0.014618439768003144
2759.0,0.014573525916998342
2758.0,0.0144837121472845
2757.0,0.014393916947563534
2756.0,0.014259258949925524
2755.0,0.014259258949925524
2754.0,0.014304140310157809
2753.0,0.014349026309051105
2752.0,0.014393916947563534
2751.0,0.014393916947563534
2750.0,0.014349026309051105
2749.0,0.014349026309051105
2748.0,0.014349026309051105
2747.0,0.014304140310157809
2746.0,0.014214382227394795
2745.0,0.014079779876432497
2744.0,0.013990068146738865
2743.0,0.013990068146738865
2742.0,0.014079779876432497
2741.0,0.014124642691606404
2740.0,0.014079779876432497
2739.0,0.01403492169512921
2738.0,0.01403492169512921
2737.0,0.01403492169512921
2736.0,0.01403492169512921
2735.0,0.013990068146738865
2734.0,0.013945219230304673
2733.0,0.013945219230304673
2732.0,0.013990068146738865
2731.0,0.01403492169512921
2730.0,0.014079779876432497
2729.0,0.01403492169512921
2728.0,0.013990068146738865
2727.0,0.013900374944870508
2726.0,0.013900374944870508
2725.0,0.013945219230304673
2724.0,0.013900374944870508
2723.0,0.01385553528947936
2722.0,0.01372104409400876
2721.0,0.013586594534531482
2720.0,0.013541787262693505
2719.0,0.013541787262693505
2718.0,0.013541787262693505
2717.0,0.013496984613259544
2716.0,0.013452186585275916
2715.0,0.013452186585275916
2714.0,0.013452186585275916
2713.0,0.013496984613259544
2712.0,0.013541787262693505
2711.0,0.013586594534531482
2710.0,0.013586594534531482
2709.0,0.013541787262693505
2708.0,0.013541787262693505
2707.0,0.013541787262693505
2706.0,0.013541787262693505
2705.0,0.013496984613259544
2704.0,0.013452186585275916
2703.0,0.013407393177789162
2702.0,0.013362604389846044
2701.0,0.013362604389846044
2700.0,0.013317820220494436
2699.0,0.013273040668781544
2698.0,0.013273040668781544
2697.0,0.01322826573375524
2696.0,0.01318349541446362
2695.0,0.01322826573375524
2694.0,0.01322826573375524
2693.0,0.01318349541446362
2692.0,0.013049212141483357
2691.0,0.012914970375878188
2690.0,0.012825498912458322
2689.0,0.012825498912458322
2688.0,0.012870232340102872
2687.0,0.012959713020733288
2686.0,0.013004460275618523
2685.0,0.013004460275618523
2684.0,0.013004460275618523
2683.0,0.012959713020733288
2682.0,0.013004460275618523
2681.0,0.013049212141483357
2680.0,0.013093968619278806
2679.0,0.013138729709955221
2678.0,0.01318349541446362
2677.0,0.013138729709955221
2676.0,0.013138729709955221
2675.0,0.013138729709955221
2674.0,0.013138729709955221
2673.0,0.013138729709955221
2672.0,0.013138729709955221
2671.0,0.013049212141483357
2670.0,0.012914970375878188
2669.0,0.012825498912458322
2668.0,0.012736045877764557
2667.0,0.012780770091995297
2666.0,0.012825498912458322
2665.0,0.012870232340102872
2664.0,0.012914970375878188
2663.0,0.012870232340102872
2662.0,0.012780770091995297
2661.0,0.012691326268817527
2660.0,0.01264661126420652
2659.0,0.01264661126420652
2658.0,0.012691326268817527
2657.0,0.012736045877764557
2656.0,0.012691326268817527
2655.0,0.012691326268817527
2654.0,0.01264661126420652
2653.0,0.012691326268817527
2652.0,0.012736045877764557
2651.0,0.012780770091995297
2650.0,0.012825498912458322
2649.0,0.012825498912458322
2648.0,0.012825498912458322
2647.0,0.012870232340102872
2646.0,0.012870232340102872
2645.0,0.012870232340102872
2644.0,0.012825498912458322
2643.0,0.012780770091995297
2642.0,0.01264661126420652
2641.0,0.01260190086298274
2640.0,0.01260190086298274
2639.0,0.01260190086298274
2638.0,0.012691326268817527
2637.0,0.012736045877764557
2636.0,0.012825498912458322
2635.0,0.012870232340102872
2634.0,0.012914970375878188
2633.0,0.012959713020733288
2632.0,0.013004460275618523
2631.0,0.013004460275618523
2630.0,0.013004460275618523
2629.0,0.013049212141483357
2628.0,0.013093968619278806
2627.0,0.013093968619278806
2626.0,0.013093968619278806
2625.0,0.013049212141483357
2624.0,0.013004460275618523
2623.0,0.012959713020733288
2622.0,0.012914970375878188
2621.0,0.012825498912458322
2620.0,0.012736045877764557
2619.0,0.01264661126420652
2618.0,0.012691326268817527
2617.0,0.012736045877764557
2616.0,0.012825498912458322
2615.0,0.012870232340102872
2614.0,0.012825498912458322
2613.0,0.012736045877764557
2612.0,0.012691326268817527
2611.0,0.012691326268817527
2610.0,0.012691326268817527
2609.0,0.012736045877764557
2608.0,0.012691326268817527
2607.0,0.01264661126420652
2606.0,0.01264661126420652
2605.0,0.01264661126420652
2604.0,0.012691326268817527
2603.0,0.012691326268817527
2602.0,0.012736045877764557
2601.0,0.012736045877764557
2600.0,0.012736045877764557
2599.0,0.012736045877764557
2598.0,0.012780770091995297
2597.0,0.012825498912458322
2596.0,0.012870232340102872
2595.0,0.012914970375878188
2594.0,0.012914970375878188
2593.0,0.012870232340102872
2592.0,0.012825498912458322
2591.0,0.012780770091995297
2590.0,0.012825498912458322
2589.0,0.012914970375878188
2588.0,0.012959713020733288
2587.0,0.012959713020733288
2586.0,0.012914970375878188
2585.0,0.012870232340102872
2584.0,0.012870232340102872
2583.0,0.012959713020733288
2582.0,0.013049212141483357
2581.0,0.01318349541446362
2580.0,0.01322826573375524
2579.0,0.013273040668781544
2578.0,0.01322826573375524
2577.0,0.013093968619278806
2576.0,0.012959713020733288
2575.0,0.012825498912458322
2574.0,0.012780770091995297
2573.0,0.012825498912458322
2572.0,0.012870232340102872
2571.0,0.012959713020733288
2570.0,0.013004460275618523
2569.0,0.013049212141483357
2568.0,0.013093968619278806
2567.0,0.013138729709955221
2566.0,0.013093968619278806
2565.0,0.013049212141483357
2564.0,0.013004460275618523
2563.0,0.012959713020733288
2562.0,0.012914970375878188
2561.0,0.012870232340102872
2560.0,0.012780770091995297
2559.0,0.012736045877764557
2558.0,0.012691326268817527
2557.0,0.012736045877764557
2556.0,0.012780770091995297
2555.0,0.012825498912458322
2554.0,0.012870232340102872
2553.0,0.012914970375878188
2552.0,0.012959713020733288
2551.0,0.012959713020733288
2550.0,0.012914970375878188
2549.0,0.012870232340102872
2548.0,0.012870232340102872
2547.0,0.012870232340102872
2546.0,0.012914970375878188
2545.0,0.012914970375878188
2544.0,0.012870232340102872
2543.0,0.012780770091995297
2542.0,0.012691326268817527
2541.0,0.012736045877764557
2540.0,0.012825498912458322
2539.0,0.012914970375878188
2538.0,0.012959713020733288
2537.0,0.012914970375878188
2536.0,0.012825498912458322
2535.0,0.012780770091995297
2534.0,0.012780770091995297
2533.0,0.012780770091995297
2532.0,0.012825498912458322
2531.0,0.012825498912458322
2530.0,0.012825498912458322
2529.0,0.012780770091995297
2528.0,0.012780770091995297
2527.0,0.012780770091995297
2526.0,0.012736045877764557
2525.0,0.012736045877764557
2524.0,0.012736045877764557
2523.0,0.012780770091995297
2522.0,0.012780770091995297
2521.0,0.012780770091995297
2520.0,0.012780770091995297
2519.0,0.012780770091995297
2518.0,0.012736045877764557
2517.0,0.012691326268817527
2516.0,0.012557195064198723
2515.0,0.012423105273012602
2514.0,0.012378417874516323
2513.0,0.012378417874516323
2512.0,0.012423105273012602
2511.0,0.012467797270160563
2510.0,0.012512493866907004
2509.0,0.012467797270160563
2508.0,0.012423105273012602
2507.0,0.012333735073725371
2506.0,0.012289056869694281
2505.0,0.012244383261476699
2504.0,0.012289056869694281
2503.0,0.012289056869694281
2502.0,0.012289056869694281
2501.0,0.012289056869694281
2500.0,0.012244383261476699
2499.0,0.01215504982870197
2498.0,0.012021084124518078
2497.0,0.011931796607364653
2496.0,0.011931796607364653
2495.0,0.011931796607364653
2494.0,0.011931796607364653
2493.0,0.011887159731648111
2492.0,0.011797899741219142
2491.0,0.011753276624621556
2490.0,0.011708658092512314
2489.0,0.011664044143949504
2488.0,0.011619434777991433
2487.0,0.011574829993696856
2486.0,0.011530229790124524
2485.0,0.011485634166333858
2484.0,0.011441043121384498
2483.0,0.011485634166333858
2482.0,0.011485634166333858
2481.0,0.011485634166333858
2480.0,0.011396456654336085
2479.0,0.011351874764248926
2478.0,0.011351874764248926
2477.0,0.011396456654336085
2476.0,0.011441043121384498
2475.0,0.011441043121384498
2474.0,0.011396456654336085
2473.0,0.011351874764248926
2472.0,0.011351874764248926
2471.0,0.011351874764248926
2470.0,0.011307297450183107
2469.0,0.011218156546359825
2468.0,0.01117359295472431
2467.0,0.01117359295472431
2466.0,0.01117359295472431
2465.0,0.011129033935354915
2464.0,0.011129033935354915
2463.0,0.011084479487313281
2462.0,0.011039929609661936
2461.0,0.011039929609661936
2460.0,0.010995384301463185
2459.0,0.010995384301463185
2458.0,0.010950843561779777
2457.0,0.010906307389674463
2456.0,0.010906307389674463
2455.0,0.010906307389674463
2454.0,0.010950843561779777
2453.0,0.010950843561779777
2452.0,0.010906307389674463
2451.0,0.01086177578421088
2450.0,0.01086177578421088
2449.0,0.01086177578421088
2448.0,0.010906307389674463
2447.0,0.010950843561779777
2446.0,0.010950843561779777
2445.0,0.010950843561779777
2444.0,0.010950843561779777
2443.0,0.010995384301463185
2442.0,0.011039929609661936
2441.0,0.011039929609661936
2440.0,0.010995384301463185
2439.0,0.010995384301463185
2438.0,0.010950843561779777
2437.0,0.010950843561779777
2436.0,0.010906307389674463
2435.0,0.01086177578421088
2434.0,0.01086177578421088
2433.0,0.010906307389674463
2432.0,0.010995384301463185
2431.0,0.011084479487313281
2430.0,0.01117359295472431
2429.0,0.011218156546359825
2428.0,0.011218156546359825
2427.0,0.011218156546359825
2426.0,0.01117359295472431
2425.0,0.011129033935354915
2424.0,0.011084479487313281
2423.0,0.011084479487313281
2422.0,0.011129033935354915
2421.0,0.011218156546359825
2420.0,0.011262724711199823
2419.0,0.011262724711199823
2418.0,0.011218156546359825
2417.0,0.011218156546359825
2416.0,0.011262724711199823
2415.0,0.011262724711199823
2414.0,0.011218156546359825
2413.0,0.011262724711199823
2412.0,0.011307297450183107
2411.0,0.011396456654336085
2410.0,0.011485634166333858
2409.0,0.011485634166333858
2408.0,0.011441043121384498
2407.0,0.011351874764248926
2406.0,0.011307297450183107
2405.0,0.011307297450183107
2404.0,0.011307297450183107
2403.0,0.011396456654336085
2402.0,0.011441043121384498
2401.0,0.011530229790124524
2400.0,0.011574829993696856
2399.0,0.011619434777991433
2398.0,0.011619434777991433
2397.0,0.011664044143949504
2396.0,0.011664044143949504
2395.0,0.011664044143949504
2394.0,0.011664044143949504
2393.0,0.011664044143949504
2392.0,0.011664044143949504
2391.0,0.011708658092512314
2390.0,0.011708658092512314
2389.0,0.011708658092512314
2388.0,0.011664044143949504
2387.0,0.011664044143949504
2386.0,0.011574829993696856
2385.0,0.011485634166333858
2384.0,0.011396456654336085
2383.0,0.011307297450183107
2382.0,0.011262724711199823
2381.0,0.011218156546359825
2380.0,0.010995384301463185
2379.0,0.010728208358306901
2378.0,0.01037222925484893
2377.0,0.010105436281226954
2376.0,0.009883233932095559
2375.0,0.009616741093766423
2374.0,0.009261671492462709
2373.0,0.008862564879688284
2372.0,0.00850811108984062
2371.0,0.008198201155356077
2370.0,0.008065450281052211
2369.0,0.008242460465651913
2368.0,0.008773924307505121
2367.0,0.009572341514736404
2366.0,0.010149890396819572
2365.0,0.010505687227290839
2364.0,0.010594681998483901
2363.0,0.010416710688994968
2362.0,0.009883233932095559
2361.0,0.00939478857608056
2360.0,0.009217308196862062
2359.0,0.009172949432521227
2358.0,0.008862564879688284
2357.0,0.008198201155356077
2356.0,0.007490664932224611
2355.0,0.00696076819309055
2354.0,0.006872514894289861
2353.0,0.0074464821678643656
2352.0,0.008419542825660153
2351.0,0.009172949432521227
2350.0,0.009306039320248427
2349.0,0.008818242332126802
2348.0,0.008065450281052211
2347.0,0.007490664932224611
2346.0,0.007402303897961815
2345.0,0.0075790439479759275
2344.0,0.007755855953228474
2343.0,0.007844288957383316
2342.0,0.007667440952535687
2341.0,0.007269796045857202
2340.0,0.00656376950238835
2339.0,0.005858888873877532
2338.0,0.00541891874010525
2337.0,0.005330978174470591
2336.0,0.00537494623139545
2335.0,0.005199100705396198
2334.0,0.00484762310854614
2333.0,0.00458420145758498
2332.0,0.004759798137184523
2331.0,0.00537494623139545
2330.0,0.00612308505878878
2329.0,0.006607862550997545
2328.0,0.006784279525863024
2327.0,0.006828394969235152
2326.0,0.006828394969235152
2325.0,0.006872514894289861
2324.0,0.006916639301937977
2323.0,0.007004901568658406
2322.0,0.007137328610972382
2321.0,0.007225635744644521
2320.0,0.007313960837872058
2319.0,0.007402303897961815
2318.0,0.007402303897961815
2317.0,0.007358130121602358
2316.0,0.007313960837872058
2315.0,0.007313960837872058
2314.0,0.007402303897961815
2313.0,0.007534852191956709
2312.0,0.00762324020119709
2311.0,0.007711646202907652
2310.0,0.007888512213050314
2309.0,0.008065450281052211
2308.0,0.008286724286910463
2307.0,0.008463824699968647
2306.0,0.008640997362049818
2305.0,0.008773924307505121
2304.0,0.008862564879688284
2303.0,0.008906891951112605
2302.0,0.008995559669244813
2301.0,0.009039900317800775
2300.0,0.009172949432521227
2299.0,0.009306039320248427
2298.0,0.009439170005980158
2297.0,0.009527946474380489
2296.0,0.00966114521239847
2295.0,0.009794384815193347
2294.0,0.009972101229705377
2293.0,0.010105436281226954
2292.0,0.010149890396819572
2291.0,0.010105436281226954
2290.0,0.010060986715464404
2289.0,0.009972101229705377
2288.0,0.009972101229705377
2287.0,0.01001654169860089
2286.0,0.009972101229705377
2285.0,0.009927665307847056
2284.0,0.009794384815193347
2283.0,0.009705553871561357
2282.0,0.009705553871561357
2281.0,0.00974996707218323
2280.0,0.009883233932095559
2279.0,0.01001654169860089
2278.0,0.010060986715464404
2277.0,0.009972101229705377
2276.0,0.00974996707218323
2275.0,0.009527946474380489
2274.0,0.009350411681145587
2273.0,0.009261671492462709
2272.0,0.009217308196862062
2271.0,0.009217308196862062
2270.0,0.009261671492462709
2269.0,0.009350411681145587
2268.0,0.009439170005980158
2267.0,0.009527946474380489
2266.0,0.009616741093766423
2265.0,0.009572341514736404
2264.0,0.009483555971770974
2263.0,0.00939478857608056
2262.0,0.009261671492462709
2261.0,0.009217308196862062
2260.0,0.009217308196862062
2259.0,0.009217308196862062
2258.0,0.009172949432521227
2257.0,0.00908424549391551
2256.0,0.009039900317800775
2255.0,0.008995559669244813
2254.0,0.00908424549391551
2253.0,0.009172949432521227
2252.0,0.009261671492462709
2251.0,0.009306039320248427
2250.0,0.009261671492462709
2249.0,0.009172949432521227
2248.0,0.009039900317800775
2247.0,0.008951223547323472
2246.0,0.008906891951112605
2245.0,0.008862564879688284
2244.0,0.008818242332126802
2243.0,0.008862564879688284
2242.0,0.008862564879688284
2241.0,0.008906891951112605
2240.0,0.008951223547323472
2239.0,0.008951223547323472
2238.0,0.008862564879688284
2237.0,0.008818242332126802
2236.0,0.008773924307505121
2235.0,0.008773924307505121
2234.0,0.008818242332126802
2233.0,0.008818242332126802
2232.0,0.008862564879688284
2231.0,0.008862564879688284
2230.0,0.008862564879688284
2229.0,0.008818242332126802
2228.0,0.008773924307505121
2227.0,0.008685301823389224
2226.0,0.008596697419959609
2225.0,0.00850811108984062
2224.0,0.008463824699968647
2223.0,0.008463824699968647
2222.0,0.00850811108984062
2221.0,0.008552401996197112
2220.0,0.008640997362049818
2219.0,0.008685301823389224
2218.0,0.008685301823389224
2217.0,0.008640997362049818
2216.0,0.008552401996197112
2215.0,0.00850811108984062
2214.0,0.008419542825660153
2213.0,0.008375265465994541
2212.0,0.008330992620051436
2211.0,0.008242460465651913
2210.0,0.008198201155356077
2209.0,0.008153946355103248
2208.0,0.008198201155356077
2207.0,0.008242460465651913
2206.0,0.008286724286910463
2205.0,0.008286724286910463
2204.0,0.008242460465651913
2203.0,0.008198201155356077
2202.0,0.008153946355103248
2201.0,0.008198201155356077
2200.0,0.008198201155356077
2199.0,0.008242460465651913
2198.0,0.008198201155356077
2197.0,0.008065450281052211
2196.0,0.007932739972333236
2195.0,0.007755855953228474
2194.0,0.007667440952535687
2193.0,0.00762324020119709
2192.0,0.007667440952535687
2191.0,0.007711646202907652
2190.0,0.007755855953228474
2189.0,0.007800070204414977
2188.0,0.007800070204414977
2187.0,0.007800070204414977
2186.0,0.007800070204414977
2185.0,0.007844288957383316
2184.0,0.007932739972333236
2183.0,0.007976972236149349
2182.0,0.007976972236149349
2181.0,0.007932739972333236
2180.0,0.007888512213050314
2179.0,0.007844288957383316
2178.0,0.007844288957383316
2177.0,0.007800070204414977
2176.0,0.007755855953228474
2175.0,0.007755855953228474
2174.0,0.007755855953228474
2173.0,0.007800070204414977
2172.0,0.007844288957383316
2171.0,0.007932739972333236
2170.0,0.007976972236149349
2169.0,0.007976972236149349
2168.0,0.008021209005416363
2167.0,0.007976972236149349
2166.0,0.007932739972333236
2165.0,0.007932739972333236
2164.0,0.007976972236149349
2163.0,0.008065450281052211
2162.0,0.008065450281052211
2161.0,0.008065450281052211
2160.0,0.008021209005416363
2159.0,0.008021209005416363
2158.0,0.008109696063975047
2157.0,0.008242460465651913
2156.0,0.008330992620051436
2155.0,0.008375265465994541
2154.0,0.008375265465994541
2153.0,0.008286724286910463
2152.0,0.008242460465651913
2151.0,0.008242460465651913
2150.0,0.008198201155356077
2149.0,0.008153946355103248
2148.0,0.008109696063975047
2147.0,0.008065450281052211
2146.0,0.008065450281052211
2145.0,0.008109696063975047
2144.0,0.008153946355103248
2143.0,0.008198201155356077
2142.0,0.008198201155356077
2141.0,0.008198201155356077
2140.0,0.008153946355103248
2139.0,0.008153946355103248
2138.0,0.008109696063975047
2137.0,0.008153946355103248
2136.0,0.008153946355103248
2135.0,0.008198201155356077
2134.0,0.008242460465651913
2133.0,0.008286724286910463
2132.0,0.008286724286910463
2131.0,0.008286724286910463
2130.0,0.008242460465651913
2129.0,0.008153946355103248
2128.0,0.008109696063975047
2127.0,0.008021209005416363
2126.0,0.007976972236149349
2125.0,0.007976972236149349
2124.0,0.007976972236149349
2123.0,0.008065450281052211
2122.0,0.008153946355103248
2121.0,0.008198201155356077
2120.0,0.008242460465651913
2119.0,0.008242460465651913
2118.0,0.008242460465651913
2117.0,0.008198201155356077
2116.0,0.008109696063975047
2115.0,0.008065450281052211
2114.0,0.008065450281052211
2113.0,0.008065450281052211
2112.0,0.008065450281052211
2111.0,0.008021209005416363
2110.0,0.007932739972333236
2109.0,0.007888512213050314
2108.0,0.007844288957383316
2107.0,0.007800070204414977
2106.0,0.007800070204414977
2105.0,0.007844288957383316
2104.0,0.007844288957383316
2103.0,0.007844288957383316
2102.0,0.007844288957383316
2101.0,0.007844288957383316
2100.0,0.007800070204414977
2099.0,0.007755855953228474
2098.0,0.007667440952535687
2097.0,0.0075790439479759275
2096.0,0.0075790439479759275
2095.0,0.007534852191956709
2094.0,0.007534852191956709
2093.0,0.007490664932224611
2092.0,0.007490664932224611
2091.0,0.007490664932224611
2090.0,0.0074464821678643656
2089.0,0.007313960837872058
2088.0,0.007225635744644521
2087.0,0.007181479933320523
2086.0,0.007137328610972382
2085.0,0.007093181776687496
2084.0,0.007093181776687496
2083.0,0.007093181776687496
2082.0,0.007049039429553483
2081.0,0.007004901568658406
2080.0,0.006916639301937977
2079.0,0.006828394969235152
2078.0,0.006696062080525422
2077.0,0.006607862550997545
2076.0,0.006519680930003435
2075.0,0.006475596832934416
2074.0,0.006431517210272464
2073.0,0.006343371384537999
2072.0,0.006299305179649828
2071.0,0.00625524344553785
2070.0,0.00625524344553785
2069.0,0.006167133386013823
2068.0,0.00612308505878878
2067.0,0.00612308505878878
2066.0,0.006079041198713275
2065.0,0.006035001804881146
2064.0,0.005990966876386672
2063.0,0.00590291041179003
2062.0,0.005858888873877532
2061.0,0.005814871797682919
2060.0,0.00577085918230158
2059.0,0.005726851026829571
2058.0,0.005682847330363394
2057.0,0.005594853310833647
2056.0,0.005550862985963967
2055.0,0.005462895701502157
2054.0,0.005462895701502157
2053.0,0.005462895701502157
2052.0,0.005506877116487674
2051.0,0.005550862985963967
2050.0,0.005506877116487674
2049.0,0.00541891874010525
2048.0,0.00537494623139545
2047.0,0.005330978174470591
2046.0,0.0052870145684298375
2045.0,0.005199100705396198
2044.0,0.005111204635089406
2043.0,0.005067263269958211
2042.0,0.005111204635089406
2041.0,0.005111204635089406
2040.0,0.005155150446602086
2039.0,0.005199100705396198
2038.0,0.005199100705396198
2037.0,0.005199100705396198
2036.0,0.005199100705396198
2035.0,0.005199100705396198
2034.0,0.005155150446602086
2033.0,0.005067263269958211
2032.0,0.005023326350308999
2031.0,0.004935465843858511
2030.0,0.00489154225525934
2029.0,0.00484762310854614
2028.0,0.004803708402820517
2027.0,0.004759798137184523
2026.0,0.004759798137184523
2025.0,0.004759798137184523
2024.0,0.004759798137184523
2023.0,0.004803708402820517
2022.0,0.004803708402820517
2021.0,0.00484762310854614
2020.0,0.00484762310854614
2019.0,0.00489154225525934
2018.0,0.004935465843858511
2017.0,0.004935465843858511
2016.0,0.004935465843858511
2015.0,0.004979393875242044
2014.0,0.004979393875242044
2013.0,0.005023326350308999
2012.0,0.005023326350308999
2011.0,0.005067263269958211
2010.0,0.005023326350308999
2009.0,0.004979393875242044
2008.0,0.004935465843858511
2007.0,0.00489154225525934
2006.0,0.004935465843858511
2005.0,0.005023326350308999
2004.0,0.005111204635089406
2003.0,0.005243055412371911
2002.0,0.005330978174470591
2001.0,0.005330978174470591
2000.0,0.005330978174470591
1999.0,0.005330978174470591
1998.0,0.005330978174470591
1997.0,0.005330978174470591
1996.0,0.00537494623139545
1995.0,0.00541891874010525
1994.0,0.005506877116487674
1993.0,0.005550862985963967
1992.0,0.005594853310833647
1991.0,0.005726851026829571
1990.0,0.005814871797682919
1989.0,0.005814871797682919
1988.0,0.005814871797682919
1987.0,0.00577085918230158
1986.0,0.00577085918230158
1985.0,0.00577085918230158
1984.0,0.00577085918230158
1983.0,0.005814871797682919
1982.0,0.00590291041179003
1981.0,0.006035001804881146
1980.0,0.00612308505878878
1979.0,0.006167133386013823
1978.0,0.00621118618129457
1977.0,0.006167133386013823
1976.0,0.00621118618129457
1975.0,0.00621118618129457
1974.0,0.00621118618129457
1973.0,0.006167133386013823
1972.0,0.00621118618129457
1971.0,0.006299305179649828
1970.0,0.006431517210272464
1969.0,0.006607862550997545
1968.0,0.006740168563263094
1967.0,0.006784279525863024
1966.0,0.006872514894289861
1965.0,0.006916639301937977
1964.0,0.007004901568658406
1963.0,0.007093181776687496
1962.0,0.007137328610972382
1961.0,0.007181479933320523
1960.0,0.007269796045857202
1959.0,0.007402303897961815
1958.0,0.007534852191956709
1957.0,0.007667440952535687
1956.0,0.007755855953228474
1955.0,0.007800070204414977
1954.0,0.007844288957383316
1953.0,0.007844288957383316
1952.0,0.007932739972333236
1951.0,0.008021209005416363
1950.0,0.008065450281052211
1949.0,0.008021209005416363
1948.0,0.007932739972333236
1947.0,0.007844288957383316
1946.0,0.007711646202907652
1945.0,0.007667440952535687
1944.0,0.00762324020119709
1943.0,0.0075790439479759275
1942.0,0.0074464821678643656
1941.0,0.007225635744644521
1940.0,0.007004901568658406
1939.0,0.006828394969235152
1938.0,0.006607862550997545
1937.0,0.006387442061109638
1936.0,0.00621118618129457
1935.0,0.006079041198713275
1934.0,0.005858888873877532
1933.0,0.005682847330363394
1932.0,0.005462895701502157
1931.0,0.0052870145684298375
1930.0,0.005155150446602086
1929.0,0.005023326350308999
1928.0,0.00489154225525934
1927.0,0.004759798137184523
1926.0,0.00458420145758498
1925.0,0.0044964297349936455
1924.0,0.004452550524862486
1923.0,0.0043648054024501
1922.0,0.004277078004534696
1921.0,0.004145520125434121
1920.0,0.0040578370074493275
1919.0,0.003926345514724705
1918.0,0.003794893821675638
1917.0,0.003619686766589858
1916.0,0.0035758960449088217
1915.0,0.0035321097382827737
1914.0,0.0034445503666347133
1913.0,0.0032694845648473247
1912.0,0.0030944893043338695
1911.0,0.0029632891174733444
1910.0,0.0028758443407954637
1909.0,0.0027447101798967477
1908.0,0.002701007590486082
1907.0,0.0026573093983774942
1906.0,0.002569926202528716
1905.0,0.002395212539545666
1904.0,0.0022642234021015284
1903.0,0.0021769192542746563
1902.0,0.002089632653256679
1901.0,0.0020023635919956817
1900.0,0.0018714928717336043
1899.0,0.0017406615763013722
1898.0,0.001609869681952425
1897.0,0.0015226969634936083
1896.0,0.0014791171649619628
1895.0,0.001348404001626502
1894.0,0.0012177301682640973
1893.0,0.0010870956412141197
1892.0,0.0010435595295137379
1891.0,0.0010000277816797354
1890.0,0.0009129773741116676
1889.0,0.0008259444115150671
1888.0,0.0007389288868995258
1887.0,0.0007389288868995258
1886.0,0.0006954276616513155
1885.0,0.0006084382809090627
1884.0,0.0004779868710962365
1883.0,0.00030411258916074324
1882.0,0.00021720154586435392
1881.0,0.0001303078917322953
1880.0,4.343161980746579e-05
1879.0,4.343161980746579e-05
1878.0,0.0
1877.0,-4.3427276862573194e-05
1876.0,-8.685021164911433e-05
1875.0,-8.685021164911433e-05
1874.0,-8.685021164911433e-05
1873.0,-8.685021164911433e-05
1872.0,-8.685021164911433e-05
1871.0,-4.3427276862573194e-05
1870.0,-8.685021164911433e-05
1869.0,-0.00021709297223004853
1868.0,-0.00030389978481260016
1867.0,-0.0003472966853634851
1866.0,-0.0003472966853634851
1865.0,-0.0003472966853634851
1864.0,-0.00043407747931878404
1863.0,-0.00043407747931878404
1862.0,-0.0004774613744551459
1861.0,-0.0004774613744551459
1860.0,-0.0004774613744551459
1859.0,-0.00043407747931878404
1858.0,-0.0003906892499099257
1857.0,-0.0003906892499099257
1856.0,-0.00043407747931878404
1855.0,-0.0003906892499099257
1854.0,-0.0003472966853634851
1853.0,-0.00030389978481260016
1852.0,-0.00021709297223004853
1851.0,-4.3427276862573194e-05
1850.0,8.686758342868472e-05
1849.0,0.00021720154586435392
1848.0,0.00030411258916074324
1847.0,0.000521466320689834
1846.0,0.0006954276616513155
1845.0,0.0007824344698965646
1844.0,0.0007389288868995258
1843.0,0.0007389288868995258
1842.0,0.000869458712629001
1841.0,0.0010000277816797354
1840.0,0.0010435595295137379
1839.0,0.0010435595295137379
1838.0,0.0010435595295137379
1837.0,0.0010870956412141197
1836.0,0.0011306361176557367
1835.0,0.0011306361176557367
1834.0,0.0011741809597138886
1833.0,0.001304841688344327
1832.0,0.0014355417390583547
1831.0,0.0015662811355310335
1830.0,0.0015662811355310335
1829.0,0.0015662811355310335
1828.0,0.0016970599014589638
1827.0,0.0019587356365717845
1826.0,0.002089632653256679
1825.0,0.0020023635919956817
1824.0,0.0018714928717336043
1823.0,0.0017842676290416026
1822.0,0.0017406615763013722
1821.0,0.001609869681952425
1820.0,0.0015662811355310335
1819.0,0.0015662811355310335
1818.0,0.0015662811355310335
1817.0,0.0014355417390583547
1816.0,0.001304841688344327
1815.0,0.0011741809597138886
1814.0,0.0010870956412141197
1813.0,0.0010000277816797354
1812.0,0.0009129773741116676
1811.0,0.0008259444115150671
1810.0,0.0006954276616513155
1809.0,0.0006084382809090627
1808.0,0.000521466320689834
1807.0,0.0004779868710962365
1806.0,0.00043451177401765406
1805.0,0.0003910410285830057
1804.0,0.0003910410285830057
1803.0,0.000521466320689834
1802.0,0.0006084382809090627
1801.0,0.0006084382809090627
1800.0,0.0005649501236701937
1799.0,0.000521466320689834
1798.0,0.00043451177401765406
1797.0,0.0003910410285830057
1796.0,0.0003475746339209884
1795.0,0.0004779868710962365
1794.0,0.0005649501236701937
1793.0,0.0005649501236701937
1792.0,0.00043451177401765406
1791.0,0.00043451177401765406
1790.0,0.000521466320689834
1789.0,0.0006084382809090627
1788.0,0.0006084382809090627
1787.0,0.0005649501236701937
1786.0,0.0005649501236701937
1785.0,0.000521466320689834
1784.0,0.000521466320689834
1783.0,0.0006519307932786322
1782.0,0.0008259444115150671
1781.0,0.0008259444115150671
1780.0,0.0008259444115150671
1779.0,0.000869458712629001
1778.0,0.0010435595295137379
1777.0,0.0010870956412141197
1776.0,0.0012177301682640973
1775.0,0.0014791171649619628
1774.0,0.0016970599014589638
1773.0,0.0016534626036355249
1772.0,0.0015662811355310335
1771.0,0.0017842676290416026
1770.0,0.0023078820582733695
1769.0,0.0028321285541661467
1768.0,0.0031382315093266833
1767.0,0.0033570086445275926
1766.0,0.003619686766589858
1765.0,0.003970171588923321
1764.0,0.004452550524862486
1763.0,0.005111204635089406
1762.0,0.005726851026829571
1761.0,0.00625524344553785
1760.0,0.006916639301937977
1759.0,0.007888512213050314
1758.0,0.008951223547323472
1757.0,0.01001654169860089
1756.0,0.011084479487313281
1755.0,0.012333735073725371
1754.0,0.01372104409400876
1753.0,0.015292705517326866
1752.0,0.017412209298337533
1751.0,0.020497151212598652
1750.0,0.024246610963712723
1749.0,0.02826040911222183
1748.0,0.03249882527715853
1747.0,0.0371100126082089
1746.0,0.04210551278710151
1745.0,0.04778894189133087
1744.0,0.05458065739693696
1743.0,0.06208109735221967
1742.0,0.06996838504902692
1741.0,0.07893810920972144
1740.0,0.08990945440593179
1739.0,0.10105553313349058
1738.0,0.10952309103982927
1737.0,0.11548784080960606
1736.0,0.12234075588839133
1735.0,0.13560759484941132
1734.0,0.15546069787099204
1733.0,0.17192040944325404
1732.0,0.18223636771963214
1731.0,0.1912490276504053
1730.0,0.20197120659592693
1729.0,0.2134615195021976
1728.0,0.22417118553538762
1727.0,0.23395913961861092
1726.0,0.2439727870265589
1725.0,0.25500332596143993
1724.0,0.26728465965000714
1723.0,0.2789316982028409
1722.0,0.2874344721266917
1721.0,0.29191918953176854
1720.0,0.29507770877659834
1719.0,0.3025962767995123
1718.0,0.3182162335321186
1717.0,0.3347943715653994
1716.0,0.3435184842095014
1715.0,0.34611244192902246
1714.0,0.3455346664798542
1713.0,0.3411304077980377
1712.0,0.3332948638801012
1711.0,0.3239468753481285
1710.0,0.3140792078054646
1709.0,0.3027706572402824
1708.0,0.28945955206670293
1707.0,0.2749872746588431
1706.0,0.2607441967314894
1705.0,0.24695343837347083
1704.0,0.23336411368973242
1703.0,0.21989880853208832
1702.0,0.20627944318647673
1701.0,0.1930742231162681
1700.0,0.18170810920000413
1699.0,0.17263072694617465
1698.0,0.16481693015095633
1697.0,0.15701652987778258
1696.0,0.1493537648169334
1695.0,0.1423660148499919
1694.0,0.13643923547375736
1693.0,0.13106182166708868
1692.0,0.12575017722159698
1691.0,0.12061736282565727
1690.0,0.11628179803604044
1689.0,0.1128329791052256
1688.0,0.10963487855187593
1687.0,0.10612732120491852
1686.0,0.10253786198693682
1685.0,0.10028890542885538
1684.0,0.09963287134352972
1683.0,0.09848719087006019
1682.0,0.09625905937846135
1681.0,0.09339562827501968
1680.0,0.09023008526723086
1679.0,0.0870343792958963
1678.0,0.08396738981143059
1677.0,0.08113125661901543
1676.0,0.07857365898473456
1675.0,0.0763933569825408
1674.0,0.07432700607875953
1673.0,0.07211658966929302
1672.0,0.06981534770138009
1671.0,0.0676277178520861
1670.0,0.0659562809644747
1669.0,0.06449273417528723
1668.0,0.06283329628496737
1667.0,0.06093025007657582
1666.0,0.0588862729628985
1665.0,0.05670338543334519
1664.0,0.054728418492290265
1663.0,0.0531548860393769
1662.0,0.05197846685889629
1661.0,0.05075640943173498
1660.0,0.04934311749548925
1659.0,0.04778894189133087
1658.0,0.046192002334692894
1657.0,0.04469717723830824
1656.0,0.0433514207947967
1655.0,0.04215336629184985
1654.0,0.04186632432376469
1653.0,0.04224908912272074
1652.0,0.04153168163305643
1651.0,0.04072004986906119
1650.0,0.040005161671583744
1649.0,0.03905380426616856
1648.0,0.03810452633214956
1647.0,0.037583306554248797
1646.0,0.037299268295658994
1645.0,0.036779013477011624
1644.0,0.03602339000339416
1643.0,0.03517488211661135
1642.0,0.03437503289075727
1641.0,0.03357665405630694
1640.0,0.03282657704446046
1639.0,0.032124554451966825
1638.0,0.031563752288295444
1637.0,0.03133029827960798
1636.0,0.03142366482450232
1635.0,0.03142366482450232
1634.0,0.031190286087141805
1633.0,0.03081714076773867
1632.0,0.03025802323714588
1631.0,0.029513651152349718
1630.0,0.028816959143838528
1629.0,0.028306761050139073
1628.0,0.027936083991977778
1627.0,0.027612000892527133
1626.0,0.027288159452933503
1625.0,0.027010773144651168
1624.0,0.02691835039863255
1623.0,0.027056991894431892
1622.0,0.02738066094037661
1621.0,0.027658283674251827
1620.0,0.02798240132598462
1619.0,0.02839947976994095
1618.0,0.02942069428514915
1617.0,0.031096969696171817
1616.0,0.032545631817259224
1615.0,0.033154576345083564
1614.0,0.03310770413286357
1613.0,0.032592443402527316
1612.0,0.03170388495374454
1611.0,0.03067729388779794
1610.0,0.029653123769906697
1609.0,0.028677754757187035
1608.0,0.027658283674251827
1607.0,0.02664120011360227
1606.0,0.025672564576383117
1605.0,0.024706084643793647
1604.0,0.023879381700184332
1603.0,0.023054249440757957
1602.0,0.022322112326006227
1601.0,0.02168250325324883
1600.0,0.021043834782408455
1599.0,0.020406104151069693
1598.0,0.01990568621470623
1597.0,0.01949668180660491
1596.0,0.0192242260373785
1595.0,0.0190880622231564
1594.0,0.01899731005860028
1593.0,0.019042683770379876
1592.0,0.0190880622231564
1591.0,0.0192242260373785
1590.0,0.019451260640229506
1589.0,0.019860222254245663
1588.0,0.020497151212598652
1587.0,0.02140867317992523
1586.0,0.02282532397981263
1585.0,0.024890010313838973
1584.0,0.027612000892527133
1583.0,0.03081714076773867
1582.0,0.034187046963396917
1581.0,0.03701541568300293
1580.0,0.03910132267333921
1579.0,0.04019568349166214
1578.0,0.04010041213405646
1577.0,0.03862637240519895
1576.0,0.03616496929785207
1575.0,0.033482823553208085
1574.0,0.03128362253321426
1573.0,0.029374223311705583
1572.0,0.02747318213414429
1571.0,0.02544225514642018
1570.0,0.02365002099672653
1569.0,0.02227639471115217
1568.0,0.021317434843055594
1567.0,0.020542681902151694
1566.0,0.019723858922159776
1565.0,0.018815862601645694
1564.0,0.018045555530026514
1563.0,0.01759307113620534
1562.0,0.017321806616515723
1561.0,0.016870075265299933
1560.0,0.01646391839700767
1559.0,0.016509028184833463
1558.0,0.01628352608625061
1557.0,0.016148281008528276
1556.0,0.016013078034810446
1555.0,0.015652742414136167
1554.0,0.015022873584506602
1553.0,0.0144837121472845
1552.0,0.014169510141607944
1551.0,0.013990068146738865
1550.0,0.01372104409400876
1549.0,0.013407393177789162
1548.0,0.013138729709955221
1547.0,0.012870232340102872
1546.0,0.012736045877764557
1545.0,0.01260190086298274
1544.0,0.012512493866907004
1543.0,0.012378417874516323
1542.0,0.012199714248127602
1541.0,0.01215504982870197
1540.0,0.012199714248127602
1539.0,0.0119764380713403
1538.0,0.011842527443247208
1537.0,0.012021084124518078
1536.0,0.01215504982870197
1535.0,0.01215504982870197
1534.0,0.012244383261476699
1533.0,0.012557195064198723
1532.0,0.012870232340102872
1531.0,0.013093968619278806
1530.0,0.013138729709955221
1529.0,0.013138729709955221
1528.0,0.01318349541446362
1527.0,0.013317820220494436
1526.0,0.013362604389846044
1525.0,0.013317820220494436
1524.0,0.01318349541446362
1523.0,0.013049212141483357
1522.0,0.012914970375878188
1521.0,0.012736045877764557
1520.0,0.012557195064198723
1519.0,0.012467797270160563
1518.0,0.012467797270160563
1517.0,0.012467797270160563
1516.0,0.012557195064198723
1515.0,0.012736045877764557
1514.0,0.01318349541446362
1513.0,0.013990068146738865
1512.0,0.015202742910707112
1511.0,0.016960383953898095
1510.0,0.0192242260373785
1509.0,0.02245929405346514
1508.0,0.02826040911222183
1507.0,0.03701541568300293
1506.0,0.04291974034210022
1505.0,0.043303435105349175
1504.0,0.04062466342415694
1503.0,0.03649550058570927
1502.0,0.03161045815293173
1501.0,0.026595025589939425
1500.0,0.02200219004126036
1499.0,0.018181392829336396
1498.0,0.015067833932588037
1497.0,0.01264661126420652
1496.0,0.010817248744452446
1495.0,0.009483555971770974
1494.0,0.008596697419959609
1493.0,0.008109696063975047
1492.0,0.007844288957383316
1491.0,0.00762324020119709
1490.0,0.0075790439479759275
1489.0,0.007755855953228474
1488.0,0.007932739972333236
1487.0,0.007976972236149349
1486.0,0.008021209005416363
1485.0,0.008198201155356077
1484.0,0.008463824699968647
1483.0,0.0087296108049002
1482.0,0.009128595198514056
1481.0,0.00966114521239847
1480.0,0.01023881228122181
1479.0,0.01077272626946324
1478.0,0.011307297450183107
1477.0,0.011887159731648111
1476.0,0.012512493866907004
1475.0,0.013138729709955221
1474.0,0.01372104409400876
1473.0,0.014618439768003144
1472.0,0.015607721475734415
1471.0,0.01632861713980338
1470.0,0.016960383953898095
1469.0,0.017728766960431575
1468.0,0.018679826740892747
1467.0,0.019996628416253603
1466.0,0.02200219004126036
1465.0,0.02475205875931885
1464.0,0.027658283674251827
1463.0,0.03002526987828502
1462.0,0.03193753992355086
1461.0,0.0338113190438627
1460.0,0.035740369803151095
1459.0,0.038057116858612794
1458.0,0.041579471947481794
1457.0,0.045902279520810385
1456.0,0.04885683989244738
1455.0,0.04982994019179987
1454.0,0.05002482217034632
1453.0,0.04987865248862655
1452.0,0.04953778109440221
1451.0,0.04905128560059957
1450.0,0.0486139051197072
1449.0,0.04841965509660828
1448.0,0.04832256265669943
1447.0,0.048128442871635535
1446.0,0.0478374257855374
1445.0,0.04754660357696672
1444.0,0.04725597598510167
1443.0,0.04686877481655505
1442.0,0.04643358574299339
1441.0,0.04585401117045196
1440.0,0.04508244626504121
1439.0,0.04402377775167454
1438.0,0.04253638427006878
1437.0,0.040529297924893015
1436.0,0.03810452633214956
1435.0,0.03550466044490741
1434.0,0.03282657704446046
1433.0,0.03002526987828502
1432.0,0.02710321556345563
1431.0,0.024246610963712723
1430.0,0.021636852916117055
1429.0,0.019360432556262852
1428.0,0.017638298366853045
1427.0,0.01646391839700767
1426.0,0.015742798294583915
1425.0,0.015337693809893471
1424.0,0.015427684378367834
1423.0,0.015922966097169144
1422.0,0.016734647433454652
1421.0,0.018136109008649592
1420.0,0.020861530453190058
1419.0,0.02558042614771394
1418.0,0.03151705144606498
1417.0,0.038199360808321536
1416.0,0.04599883231842972
1415.0,0.05531996611868961
1414.0,0.0665127121512945
1413.0,0.0794592834975203
1412.0,0.09307265269104414
1411.0,0.10507502264045665
1410.0,0.11322735694556196
1409.0,0.11662251025166115
1408.0,0.11543118508166672
1407.0,0.11025022473596224
1406.0,0.10237290870955862
1405.0,0.09361107884716913
1404.0,0.0854453014823664
1403.0,0.07852161962430992
1402.0,0.07273231918911849
1401.0,0.06767846801070698
1400.0,0.0630843190547461
1399.0,0.058936011780097886
1398.0,0.05546797900801881
1397.0,0.05261529831525902
1396.0,0.04987865248862655
1395.0,0.04715914332429838
1394.0,0.04455278942230456
1393.0,0.04224908912272074
1392.0,0.04019568349166214
1391.0,0.03824678581321739
1390.0,0.036542739883292485
1389.0,0.03508070571335731
1388.0,0.03399914237121604
1387.0,0.033201453616638954
1386.0,0.03273290844021437
1385.0,0.03249882527715853
1384.0,0.032592443402527316
1383.0,0.033060836978886954
1382.0,0.03399914237121604
1381.0,0.035363296211498474
1380.0,0.0371100126082089
1379.0,0.03914884628031379
1378.0,0.04138834223512067
1377.0,0.04368746915880539
1376.0,0.04624030826677128
1375.0,0.04919717703534143
1374.0,0.05227227303668425
1373.0,0.05462990550969615
1372.0,0.055912320584565744
1371.0,0.05625823416868636
1370.0,0.05571477931124735
1369.0,0.05428528594013993
1368.0,0.05178270644002936
1367.0,0.04841965509660828
1366.0,0.044456557540257124
1365.0,0.0400527842915015
1364.0,0.03541041251009669
1363.0,0.030770520137356927
1362.0,0.02664120011360227
1361.0,0.02342078135989012
1360.0,0.020907099361673565
1359.0,0.018951941086827073
1358.0,0.017412209298337533
1357.0,0.016373712875465518
1356.0,0.01578783323856614
1355.0,0.015517693597737248
1354.0,0.015562705203923999
1353.0,0.015877917138889863
1352.0,0.016373712875465518
1351.0,0.017186237868137555
1350.0,0.018362575344230914
1349.0,0.019860222254245663
1348.0,0.021728158389364705
1347.0,0.023787622882622816
1346.0,0.026087429580295085
1345.0,0.02849221828874393
1344.0,0.03081714076773867
1343.0,0.032873418923587305
1342.0,0.034516075754861264
1341.0,0.035740369803151095
1340.0,0.03625938114211591
1339.0,0.035740369803151095
1338.0,0.03414006319292828
1337.0,0.03179733185715028
1336.0,0.029002634427514717
1335.0,0.026225806029419818
1334.0,0.023787622882622816
1333.0,0.021956506090037076
1332.0,0.020724852408976924
1331.0,0.020087589665283012
1330.0,0.01995115493504329
1329.0,0.02036058777709271
1328.0,0.021135015652343103
1327.0,0.022230681908425698
1326.0,0.023604163388120325
1325.0,0.025258095499050004
1324.0,0.027056991894431892
1323.0,0.028956208163971375
1322.0,0.030957032694186815
1321.0,0.0329671178412978
1320.0,0.03498654972775217
1319.0,0.037062711569998186
1318.0,0.03905380426616856
1317.0,0.041006334969674096
1316.0,0.042967683653061695
1315.0,0.04508244626504121
1314.0,0.047352830241056854
1313.0,0.04987865248862655
1312.0,0.0525172634430815
1311.0,0.055172003656783764
1310.0,0.05794231615860479
1309.0,0.06083032037482261
1308.0,0.06383825908884244
1307.0,0.06671522765130522
1306.0,0.06950943469373039
1305.0,0.07232173586200852
1304.0,0.07530729697981409
1303.0,0.07872981449018734
1302.0,0.08265206237222844
1301.0,0.0872466963286771
1300.0,0.09258863922541383
1299.0,0.09854167860388774
1298.0,0.10490910306560064
1297.0,0.11165198982195101
1296.0,0.11850122038501709
1295.0,0.1252863112422209
1294.0,0.1318847946727828
1293.0,0.13834612978608907
1292.0,0.14472319616990825
1291.0,0.15088783381542248
1290.0,0.15676722190199066
1289.0,0.16247469055039865
1288.0,0.16793838540927308
1287.0,0.17295398299526576
1286.0,0.17730898922394545
1285.0,0.1812464095022832
1284.0,0.1848873418101875
1283.0,0.188023055663046
1282.0,0.19064232978889417
1281.0,0.1930742231162681
1280.0,0.19524739784953948
1279.0,0.19708951058096025
1278.0,0.19866490432545336
1277.0,0.20038379551850105
1276.0,0.20245548563827365
1275.0,0.20488501436963658
1274.0,0.20795868928791772
1273.0,0.2121146490590755
1272.0,0.21759904750347014
1271.0,0.22409842110832567
1270.0,0.23143589048642665
1269.0,0.2395021247734732
1268.0,0.24795155218056153
1267.0,0.2566470485904444
1266.0,0.26520017041115307
1265.0,0.2735988378970775
1264.0,0.2818305946086932
1263.0,0.2892904342756628
1262.0,0.29584948316020077
1261.0,0.3015514619846711
1260.0,0.30636097383845184
1259.0,0.3099812192113047
1258.0,0.3123818704282302
1257.0,0.3141687253739365
1256.0,0.3158730743869247
1255.0,0.3174939140609889
1254.0,0.31921138849331765
1253.0,0.32139058344107396
1252.0,0.32403845035783063
1251.0,0.3270713095572775
1250.0,0.3304042189756866
1249.0,0.33432521900610657
1248.0,0.33875539104066643
1247.0,0.34313550845108276
1246.0,0.3471736974389954
1245.0,0.35124978730198064
1244.0,0.3551676711743639
1243.0,0.3584267468218245
1242.0,0.3609121289162627
1241.0,0.3625102704874894
1240.0,0.3634118162701576
1239.0,0.3632113109656252
1238.0,0.36161059233466397
1237.0,0.358724242768087
1236.0,0.3546759984377066
1235.0,0.3492069603480692
1234.0,0.34217954398430295
1233.0,0.3340439705460432
1232.0,0.3250470519514348
1231.0,0.31524437789137605
1230.0,0.3046934775681973
1229.0,0.2939653392856494
1228.0,0.283078926833239
1227.0,0.27213355053251087
1226.0,0.26098175411651914
1225.0,0.2499546879882324
1224.0,0.2391253619478111
1223.0,0.22841251911874472
1222.0,0.21788585252092885
1221.0,0.20781850385032108
1220.0,0.19832194096410682
1219.0,0.18943147078358713
1218.0,0.18091692425629735
1217.0,0.17288931253398876
1216.0,0.16538857927731287
1215.0,0.15832774992636556
1214.0,0.1517492853229574
1213.0,0.1455724942121388
1212.0,0.13990167030148193
1211.0,0.1345998818206986
1210.0,0.1295960947209729
1209.0,0.1249387366082999
1208.0,0.12061736282565727
1207.0,0.1165089098110701
1206.0,0.11249522576462212
1205.0,0.10868560061785693
1204.0,0.10507502264045665
1203.0,0.10160395406999112
1202.0,0.09826930827078129
1201.0,0.09506817260434741
1200.0,0.0919441259012328
1199.0,0.08884239126002336
1198.0,0.08586848736910624
1197.0,0.08296737783760655
1196.0,0.08018997982980403
1195.0,0.07748213975538865
1194.0,0.07489427319033615
1193.0,0.07247565912497134
1192.0,0.07032568205141221
1191.0,0.06833876031551878
1190.0,0.06656333217371957
1189.0,0.06504729218214189
1188.0,0.06388856832514578
1187.0,0.06318476880236723
1186.0,0.06288348923294618
1185.0,0.0630843190547461
1184.0,0.06383825908884244
1183.0,0.06504729218214189
1182.0,0.0666645899223488
1181.0,0.06859298644342648
1180.0,0.07068327324650436
1179.0,0.07283502570063005
1178.0,0.0748426728241014
1177.0,0.07660053384128362
1176.0,0.07789763319239285
1175.0,0.07846958649875768
1174.0,0.07820951434181311
1173.0,0.07706704344478843
1172.0,0.07499749231902242
1171.0,0.07206531825882068
1170.0,0.0685421293109949
1169.0,0.06469430971007495
1168.0,0.060880282351513104
1167.0,0.05744631966579017
1166.0,0.05448217792216048
1165.0,0.05212534510230182
1164.0,0.05026854768429301
1163.0,0.048905443158337114
1162.0,0.047934409814949674
1161.0,0.047352830241056854
1160.0,0.04711073508906982
1159.0,0.04720755695590784
1158.0,0.04774046340917959
1157.0,0.04866248120408234
1156.0,0.05012229596312534
1155.0,0.05197846685889629
1154.0,0.05433450056786593
1153.0,0.057198533682059516
1152.0,0.06058059667068294
1151.0,0.06449273417528723
1150.0,0.06884736147670667
1149.0,0.07360609973031784
1148.0,0.07878187880504961
1147.0,0.08428366205400617
1146.0,0.08996287644694911
1145.0,0.09582563171583658
1144.0,0.10171372141087698
1143.0,0.10757145305477
1142.0,0.11317099532301778
1141.0,0.11855827805860697
1140.0,0.12372441132212098
1139.0,0.12854382597704617
1138.0,0.13288622016802298
1137.0,0.1369151746796402
1136.0,0.14056146454494378
1135.0,0.143996546002779
1134.0,0.1472151313194523
1133.0,0.15058058620310066
1132.0,0.1540961611012175
1131.0,0.15789023655938994
1130.0,0.16196991701467978
1129.0,0.16659787076814148
1128.0,0.17198493577602325
1127.0,0.17802818235795725
1126.0,0.18468795647564096
1125.0,0.19185657423850877
1124.0,0.19935164463601196
1123.0,0.20683847075444928
1122.0,0.21395878975744576
1121.0,0.2204035087421754
1120.0,0.22592119924748122
1119.0,0.2301059641878309
1118.0,0.2326214758858196
1117.0,0.23358715288760057
1116.0,0.23314118897858238
1115.0,0.23143589048642665
1114.0,0.22892721677880523
1113.0,0.22635980673997413
1112.0,0.2243895519936392
1111.0,0.2235167441663184
1110.0,0.2243895519936392
1109.0,0.22731164531785852
1108.0,0.23247310059161808
1107.0,0.23927602785804836
1106.0,0.24749059921115713
1105.0,0.2568039185512987
1104.0,0.2669633170664205
1103.0,0.27753061411596924
1102.0,0.2881084501194211
1101.0,0.29869111477192467
1100.0,0.30883006586839623
1099.0,0.3182162335321186
1098.0,0.32651830292665274
1097.0,0.3337629041041956
1096.0,0.339608901597533
1095.0,0.34380593782081426
1094.0,0.3464016181567102
1093.0,0.3478503945983471
1092.0,0.3483343960770644
1091.0,0.34756025241057986
1090.0,0.3455346664798542
1089.0,0.34275287011628364
1088.0,0.33941908757270056
1087.0,0.3353580244438745
1086.0,0.3305901327122174
1085.0,0.3252306859845737
1084.0,0.31939257100821217
1083.0,0.3126494304419727
1082.0,0.3046934775681973
1081.0,0.2960211749916142
1080.0,0.28676153845433827
1079.0,0.2767085535224161
1078.0,0.2660808489876092
1077.0,0.25500332596143993
1076.0,0.24389662841489446
1075.0,0.2326214758858196
1074.0,0.2214146721370378
1073.0,0.2107013888405589
1072.0,0.200797343699475
1071.0,0.19165396425960513
1070.0,0.18309616062433975
1069.0,0.1751585282462993
1068.0,0.16781053893148679
1067.0,0.16089921729284673
1066.0,0.1545918603782066
1065.0,0.1490476002065071
1064.0,0.14429916916456276
1063.0,0.14014147951900724
1062.0,0.13655817138629134
1061.0,0.13353543402825974
1060.0,0.1311792938024825
1059.0,0.1295960947209729
1058.0,0.12889429901441463
1057.0,0.1290696416513042
1056.0,0.13012318673323353
1055.0,0.1318847946727828
1054.0,0.13418561983203192
1053.0,0.1370342410222376
1052.0,0.14032142337155173
1051.0,0.14381507327283027
1050.0,0.14733705565543076
1049.0,0.15082636690117335
1048.0,0.15415809257824264
1047.0,0.15732836623921154
1046.0,0.160145015398115
1045.0,0.16266413198498508
1044.0,0.1646899991309374
1043.0,0.16596098184053343
1042.0,0.16640670600154372
1041.0,0.16621562534352097
1040.0,0.16545214231905137
1039.0,0.16418264570652719
1038.0,0.16272729749769965
1037.0,0.16115090926274478
1036.0,0.15958022226351387
1035.0,0.15782777061438424
1034.0,0.1559579579589836
1033.0,0.15403423845451636
1032.0,0.15211900255462485
1031.0,0.1502121757623145
1030.0,0.14837479684669086
1029.0,0.146788665496683
1028.0,0.14551177495556966
1027.0,0.1447838052666366
1026.0,0.1450869776921444
1025.0,0.1471541819850033
1024.0,0.15187248943212528
1023.0,0.15983115075924403
1022.0,0.1714689933548985
1021.0,0.18668594105416525
1020.0,0.20425897913075608
1019.0,0.22206595116222072
1018.0,0.23717144681090963
1017.0,0.2467234298155816
1016.0,0.24818221226312076
1015.0,0.24093681183951277
1014.0,0.22650610772902935
1013.0,0.20844969497266996
1012.0,0.19010375339756092
1011.0,0.17353645090719882
1010.0,0.15958022226351387
1009.0,0.14800825203784274
1008.0,0.13834612978608907
1007.0,0.1302990263261221
1006.0,0.12355121312165873
1005.0,0.11804502866039956
1004.0,0.11350927482751816
1003.0,0.10969078310005154
1002.0,0.1063491830140364
1001.0,0.1033635694704158
1000.0,0.10072681268239614
999.0,0.09826930827078129
998.0,0.0960964733098364
997.0,0.09415017335768128
996.0,0.09248115389337075
995.0,0.09097914578884403
994.0,0.08964244272712252
993.0,0.08857603462370545
992.0,0.08772478950118767
991.0,0.0870343792958963
990.0,0.08645104209348209
989.0,0.08597434830367123
988.0,0.08560394787021397
987.0,0.08528671302637614
986.0,0.08518101955252688
985.0,0.08523386307414738
984.0,0.08549817717268593
983.0,0.08570974433405087
982.0,0.08576265223225898
981.0,0.08570974433405087
980.0,0.0856568428805593
979.0,0.08555105930144569
978.0,0.08555105930144569
977.0,0.08555105930144569
976.0,0.0856568428805593
975.0,0.0856568428805593
974.0,0.0854453014823664
973.0,0.08507535179485148
972.0,0.08444188458847957
971.0,0.08370400543686918
970.0,0.08275714209253371
969.0,0.08155025759884227
968.0,0.08003329851661278
967.0,0.07820951434181311
966.0,0.0763933569825408
965.0,0.07463633264589853
964.0,0.0729891310243489
963.0,0.0713481533463054
962.0,0.06971335275448043
961.0,0.06813548650796819
960.0,0.0666645899223488
959.0,0.0654005617819271
958.0,0.06424089625468832
957.0,0.06323500239005853
956.0,0.062331685600995
955.0,0.06143024377893891
954.0,0.060530669156469985
953.0,0.05968277842578207
952.0,0.059035506507200575
951.0,0.05848856736559682
950.0,0.05794231615860479
949.0,0.05744631966579017
948.0,0.057000406633959555
947.0,0.05655495097496965
946.0,0.05610995175152733
945.0,0.05581353871631256
944.0,0.05551732784983132
943.0,0.055270639696704205
942.0,0.0549747987575373
941.0,0.054728418492290265
940.0,0.05448217792216048
939.0,0.05428528594013993
938.0,0.05413767551038262
937.0,0.054088483180726676
936.0,0.05399011523423525
935.0,0.053842605077627725
934.0,0.053646002773725554
933.0,0.053449489430144714
932.0,0.05330216275425803
931.0,0.0531548860393769
930.0,0.05300765925162776
929.0,0.052762392129333646
928.0,0.052468254304406825
927.0,0.05212534510230182
926.0,0.05173378011970464
925.0,0.05129369109514803
924.0,0.05085404758005607
923.0,0.05036607620073763
922.0,0.04997609347667353
921.0,0.04982994019179987
920.0,0.04987865248862655
919.0,0.050073556332087765
918.0,0.050414848673348
917.0,0.050805225762017736
916.0,0.05119595406718891
915.0,0.05163594401163074
914.0,0.052419250695677544
913.0,0.053646002773725554
912.0,0.05536929814372171
911.0,0.057396751157843484
910.0,0.05963295401433477
909.0,0.06218131530164395
908.0,0.06504729218214189
907.0,0.06813548650796819
906.0,0.0713481533463054
905.0,0.07463633264589853
904.0,0.07779372256098371
903.0,0.08081727095749947
902.0,0.08349341288484435
901.0,0.08592141461088798
900.0,0.08804381092731295
899.0,0.08964244272712252
898.0,0.09065796163869155
897.0,0.09113982698272349
896.0,0.09130056764777605
895.0,0.09130056764777605
894.0,0.09135416109288674
893.0,0.09146136782804049
892.0,0.09167586072382083
891.0,0.0919977988274463
890.0,0.09237369515673355
889.0,0.09301884677114591
888.0,0.09398837472858723
887.0,0.09523037409340485
886.0,0.09680145295702158
885.0,0.09892328427374508
884.0,0.10171372141087698
883.0,0.10507502264045665
882.0,0.10902040301031102
881.0,0.11356568037106163
880.0,0.11884367892443626
879.0,0.12476505354983503
878.0,0.13106182166708868
877.0,0.1375704438939911
876.0,0.14393604666690019
875.0,0.14953756723848333
874.0,0.15360102696532518
873.0,0.15564710368910672
872.0,0.15539858037365328
871.0,0.1527358982292355
870.0,0.1478861391502384
869.0,0.1413425159091921
868.0,0.13383085236622927
867.0,0.12604034525664676
866.0,0.11855827805860697
865.0,0.11193288659256306
864.0,0.10646015643533868
863.0,0.10193333935836524
862.0,0.09837823590664274
861.0,0.09571734235437201
860.0,0.09371884422784693
859.0,0.09226626300234453
858.0,0.09124698081546634
857.0,0.09060445403289452
856.0,0.09017663034908807
855.0,0.08985603893548699
854.0,0.08958906008531176
853.0,0.08942895151874142
852.0,0.08932224525729482
851.0,0.08916223500731646
850.0,0.08905559425002108
849.0,0.08900228368935714
848.0,0.08900228368935714
847.0,0.08889568219596411
846.0,0.08868255767596933
845.0,0.0885227828938977
844.0,0.0884695376928375
843.0,0.08836306687055773
842.0,0.0880970039559672
841.0,0.08783110394037297
840.0,0.08745911720936239
839.0,0.08687520961044104
838.0,0.08592141461088798
837.0,0.08475850269380558
836.0,0.08333553545860273
835.0,0.08170748724464438
834.0,0.07998108397108505
833.0,0.07826151631540124
832.0,0.07675598136972361
831.0,0.07541061433058172
830.0,0.07432700607875953
829.0,0.07334892291111106
828.0,0.07237303755504598
827.0,0.07129697256940304
826.0,0.07017251876930874
825.0,0.0692037370166998
824.0,0.0685421293109949
823.0,0.06813548650796819
822.0,0.06777998612288094
821.0,0.06747550294945781
820.0,0.0671712330991534
819.0,0.06686717627326577
818.0,0.06661395809694559
817.0,0.06661395809694559
816.0,0.06686717627326577
815.0,0.06722192993944942
814.0,0.06752623532284674
813.0,0.06777998612288094
812.0,0.06798309356579857
811.0,0.0680846829187538
810.0,0.0680846829187538
809.0,0.06803388527182741
808.0,0.06798309356579857
807.0,0.06793230779927839
806.0,0.06767846801070698
805.0,0.06722192993944942
804.0,0.06661395809694559
803.0,0.0658551882075229
802.0,0.06519865825346338
801.0,0.06474471821595262
800.0,0.06494641076893504
799.0,0.06625970050306473
798.0,0.0690000580438479
797.0,0.07314329105030759
796.0,0.07800156869172903
795.0,0.08259953204474924
794.0,0.08586848736910624
793.0,0.08714052483764512
792.0,0.08618614761628329
791.0,0.08333553545860273
790.0,0.07925073872429178
789.0,0.07463633264589853
788.0,0.0699173666076287
787.0,0.0653500770992892
786.0,0.06108018775522828
785.0,0.05729763111133224
784.0,0.05399011523423525
783.0,0.05114709380028648
782.0,0.04875964967565971
781.0,0.04667530361081473
780.0,0.044793462458058375
779.0,0.042967683653061695
778.0,0.04129280891271536
777.0,0.039719535563357944
776.0,0.038151940981675736
775.0,0.03658998431977123
774.0,0.03526907894637077
773.0,0.03414006319292828
772.0,0.0332483359486222
771.0,0.03249882527715853
770.0,0.03175060589208267
769.0,0.030910397045078586
768.0,0.029746130405213123
767.0,0.028214062120885508
766.0,0.02664120011360227
765.0,0.025304128090317013
764.0,0.024430342106337877
763.0,0.023787622882622816
762.0,0.02314585342378117
761.0,0.02245929405346514
760.0,0.021728158389364705
759.0,0.021043834782408455
758.0,0.020542681902151694
757.0,0.02022406727031445
756.0,0.01995115493504329
755.0,0.01954210772389997
754.0,0.018906576854070378
753.0,0.01831727262871463
752.0,0.017955020928509757
751.0,0.01800028587012159
750.0,0.018498511851753108
749.0,0.019315025636685412
748.0,0.020406104151069693
747.0,0.021773818325474092
746.0,0.023925268380126097
745.0,0.02738066094037661
744.0,0.03249882527715853
743.0,0.03948165721929198
742.0,0.04851676924770687
741.0,0.05988213325228142
740.0,0.07365755337434488
739.0,0.08958906008531176
738.0,0.10718217569042365
737.0,0.12592425477696523
736.0,0.1450869776921444
735.0,0.16411926818260536
734.0,0.18283142761894444
733.0,0.20183294028406085
732.0,0.22177637323390353
731.0,0.24267990345332757
730.0,0.2645607967485186
729.0,0.28793985753892537
728.0,0.3125602254541058
727.0,0.3366760663717876
726.0,0.3574365628956122
725.0,0.3717132689104856
724.0,0.37706103078850983
723.0,0.37232696823338407
722.0,0.3581294545236873
721.0,0.3365817877473203
720.0,0.3106911408763797
719.0,0.28391314622516783
718.0,0.2586907911004306
717.0,0.23649713453240295
716.0,0.21767073100316314
715.0,0.20231706508510094
714.0,0.1902383348928749
713.0,0.1809828013109407
712.0,0.17373078060627378
711.0,0.16768273007773837
710.0,0.16215913834447737
709.0,0.15701652987778258
708.0,0.15218065270476067
707.0,0.14752000636314366
706.0,0.14290884532648618
705.0,0.13828641242856565
704.0,0.1337717526203528
703.0,0.12918657608440243
702.0,0.12459143992293642
701.0,0.1199871616332282
700.0,0.11514801725400226
699.0,0.11008231656379408
698.0,0.10496440254767725
697.0,0.10028890542885538
696.0,0.09625905937846135
695.0,0.09307265269104414
694.0,0.09071147583774919
693.0,0.08916223500731646
692.0,0.08793744441149753
691.0,0.086239113587677
690.0,0.08375666953466032
689.0,0.08092190762392604
688.0,0.07872981449018734
687.0,0.07779372256098371
686.0,0.07800156869172903
685.0,0.07872981449018734
684.0,0.07972010536705154
683.0,0.08102656950704579
682.0,0.08254700807033655
681.0,0.08375666953466032
680.0,0.08380934001946239
679.0,0.08254700807033655
678.0,0.08018997982980403
677.0,0.0772226580712021
676.0,0.07422394616325367
675.0,0.07145053299833615
674.0,0.0691018855898955
673.0,0.06696850489759454
672.0,0.06474471821595262
671.0,0.06193081377661436
670.0,0.05814087347462649
669.0,0.05379344615721715
668.0,0.050805225762017736
667.0,0.05021979163799939
666.0,0.05095170768433621
665.0,0.05192951848105887
664.0,0.05232126006306337
663.0,0.0518316382728683
662.0,0.050707598587974356
661.0,0.04939177521576932
660.0,0.04803141550708934
659.0,0.04677202844014605
658.0,0.04570923829887308
657.0,0.04522701031028298
656.0,0.04541983725624266
655.0,0.04595055323640551
654.0,0.046192002334692894
653.0,0.045612749855485024
652.0,0.044312249686494276
651.0,0.042967683653061695
650.0,0.04210551278710151
649.0,0.04186632432376469
648.0,0.04200982159316968
647.0,0.04244059810252043
646.0,0.04315950984076644
645.0,0.04402377775167454
644.0,0.04460091336073302
643.0,0.044793462458058375
642.0,0.04503426894157925
641.0,0.04570923829887308
640.0,0.04672366333269573
639.0,0.047595060422975566
638.0,0.048225491918274965
637.0,0.048905443158337114
636.0,0.050317309204795935
635.0,0.0531548860393769
634.0,0.05744631966579017
633.0,0.06193081377661436
632.0,0.06449273417528723
631.0,0.0636873663378068
630.0,0.06028111764589528
629.0,0.05635711724787096
628.0,0.053203972728539606
627.0,0.051098239029786274
626.0,0.04987865248862655
625.0,0.049294465226138895
624.0,0.04885683989244738
623.0,0.04827402457540786
622.0,0.04774046340917959
621.0,0.047691990337874746
620.0,0.0478374257855374
619.0,0.04754660357696672
618.0,0.04657860031896477
617.0,0.045516282844447975
616.0,0.044937930324967956
615.0,0.04469717723830824
614.0,0.04411991377462465
613.0,0.04301563225723992
612.0,0.041483896576958834
611.0,0.039767126871487646
610.0,0.038151940981675736
609.0,0.0371100126082089
608.0,0.03649550058570927
607.0,0.03592902944204468
606.0,0.03508070571335731
605.0,0.03423403581731388
604.0,0.03362357691107709
603.0,0.033482823553208085
602.0,0.03423403581731388
601.0,0.03658998431977123
600.0,0.039909932095080425
