cm-1,A
4000.0,0.015607721475734415
3999.0,0.015697768020096703
3998.0,0.01578783323856614
3997.0,0.015832872853011715
3996.0,0.015877917138889863
3995.0,0.015877917138889863
3994.0,0.01578783323856614
3993.0,0.015742798294583915
3992.0,0.015697768020096703
3991.0,0.015697768020096703
3990.0,0.015652742414136167
3989.0,0.015652742414136167
3988.0,0.015652742414136167
3987.0,0.015697768020096703
3986.0,0.015742798294583915
3985.0,0.015832872853011715
3984.0,0.015877917138889863
3983.0,0.015922966097169144
3982.0,0.015877917138889863
3981.0,0.01578783323856614
3980.0,0.015742798294583915
3979.0,0.015742798294583915
3978.0,0.01578783323856614
3977.0,0.015832872853011715
3976.0,0.015832872853011715
3975.0,0.01578783323856614
3974.0,0.015742798294583915
3973.0,0.015697768020096703
3972.0,0.015697768020096703
3971.0,0.015742798294583915
3970.0,0.015832872853011715
3969.0,0.015922966097169144
3968.0,0.01596801972881945
3967.0,0.015922966097169144
3966.0,0.015877917138889863
3965.0,0.015832872853011715
3964.0,0.01578783323856614
3963.0,0.01578783323856614
3962.0,0.015832872853011715
3961.0,0.015832872853011715
3960.0,0.015832872853011715
3959.0,0.015832872853011715
3958.0,0.01578783323856614
3957.0,0.01578783323856614
3956.0,0.01578783323856614
3955.0,0.015877917138889863
3954.0,0.015922966097169144
3953.0,0.015877917138889863
3952.0,0.015877917138889863
3951.0,0.01578783323856614
3950.0,0.01578783323856614
3949.0,0.01578783323856614
3948.0,0.01578783323856614
3947.0,0.015832872853011715
3946.0,0.015832872853011715
3945.0,0.015877917138889863
3944.0,0.015877917138889863
3943.0,0.015877917138889863
3942.0,0.015877917138889863
3941.0,0.015877917138889863
3940.0,0.015877917138889863
3939.0,0.015922966097169144
3938.0,0.01596801972881945
3937.0,0.01596801972881945
3936.0,0.01596801972881945
3935.0,0.015922966097169144
3934.0,0.015877917138889863
3933.0,0.015742798294583915
3932.0,0.015697768020096703
3931.0,0.015697768020096703
3930.0,0.015742798294583915
3929.0,0.01578783323856614
3928.0,0.015832872853011715
3927.0,0.015877917138889863
3926.0,0.01596801972881945
3925.0,0.01596801972881945
3924.0,0.01596801972881945
3923.0,0.01596801972881945
3922.0,0.016013078034810446
3921.0,0.016013078034810446
3920.0,0.016013078034810446
3919.0,0.016013078034810446
3918.0,0.016058141016111804
3917.0,0.016013078034810446
3916.0,0.01596801972881945
3915.0,0.01596801972881945
3914.0,0.016013078034810446
3913.0,0.016058141016111804
3912.0,0.016103208673694303
3911.0,0.016148281008528276
3910.0,0.016148281008528276
3909.0,0.016148281008528276
3908.0,0.016103208673694303
3907.0,0.016058141016111804
3906.0,0.016013078034810446
3905.0,0.01596801972881945
3904.0,0.015922966097169144
3903.0,0.015877917138889863
3902.0,0.015832872853011715
3901.0,0.015877917138889863
3900.0,0.01596801972881945
3899.0,0.01596801972881945
3898.0,0.016013078034810446
3897.0,0.016013078034810446
3896.0,0.016058141016111804
3895.0,0.016013078034810446
3894.0,0.016058141016111804
3893.0,0.016193358021584725
3892.0,0.01628352608625061
3891.0,0.016193358021584725
3890.0,0.016103208673694303
3889.0,0.016103208673694303
3888.0,0.016148281008528276
3887.0,0.016193358021584725
3886.0,0.016148281008528276
3885.0,0.016013078034810446
3884.0,0.015922966097169144
3883.0,0.015922966097169144
3882.0,0.016013078034810446
3881.0,0.016058141016111804
3880.0,0.016013078034810446
3879.0,0.01596801972881945
3878.0,0.016058141016111804
3877.0,0.016238439713835096
3876.0,0.01632861713980338
3875.0,0.01628352608625061
3874.0,0.016193358021584725
3873.0,0.016103208673694303
3872.0,0.016103208673694303
3871.0,0.016193358021584725
3870.0,0.016148281008528276
3869.0,0.016058141016111804
3868.0,0.016013078034810446
3867.0,0.016103208673694303
3866.0,0.016103208673694303
3865.0,0.016103208673694303
3864.0,0.016103208673694303
3863.0,0.016148281008528276
3862.0,0.016238439713835096
3861.0,0.016238439713835096
3860.0,0.016238439713835096
3859.0,0.016238439713835096
3858.0,0.016193358021584725
3857.0,0.016103208673694303
3856.0,0.01596801972881945
3855.0,0.01596801972881945
3854.0,0.01596801972881945
3853.0,0.015742798294583915
3852.0,0.015607721475734415
3851.0,0.015922966097169144
3850.0,0.01628352608625061
3849.0,0.016554142658660398
3848.0,0.016599261819461697
3847.0,0.016599261819461697
3846.0,0.016554142658660398
3845.0,0.01646391839700767
3844.0,0.016373712875465518
3843.0,0.016238439713835096
3842.0,0.016103208673694303
3841.0,0.016013078034810446
3840.0,0.016013078034810446
3839.0,0.016013078034810446
3838.0,0.016013078034810446
3837.0,0.016058141016111804
3836.0,0.016148281008528276
3835.0,0.016373712875465518
3834.0,0.016554142658660398
3833.0,0.016644385668211692
3832.0,0.016599261819461697
3831.0,0.016509028184833463
3830.0,0.016418813294209356
3829.0,0.016418813294209356
3828.0,0.016418813294209356
3827.0,0.016373712875465518
3826.0,0.01628352608625061
3825.0,0.016193358021584725
3824.0,0.016103208673694303
3823.0,0.016148281008528276
3822.0,0.016238439713835096
3821.0,0.016238439713835096
3820.0,0.016148281008528276
3819.0,0.016193358021584725
3818.0,0.016418813294209356
3817.0,0.016554142658660398
3816.0,0.016509028184833463
3815.0,0.016373712875465518
3814.0,0.016418813294209356
3813.0,0.016554142658660398
3812.0,0.016599261819461697
3811.0,0.016554142658660398
3810.0,0.016554142658660398
3809.0,0.016599261819461697
3808.0,0.016689514205884493
3807.0,0.016689514205884493
3806.0,0.016554142658660398
3805.0,0.016509028184833463
3804.0,0.016599261819461697
3803.0,0.016689514205884493
3802.0,0.016734647433454652
3801.0,0.016644385668211692
3800.0,0.016554142658660398
3799.0,0.016644385668211692
3798.0,0.016734647433454652
3797.0,0.01677978535189717
3796.0,0.016734647433454652
3795.0,0.016734647433454652
3794.0,0.01677978535189717
3793.0,0.016870075265299933
3792.0,0.016915227262211507
3791.0,0.016960383953898095
3790.0,0.016960383953898095
3789.0,0.016870075265299933
3788.0,0.016824927962187042
3787.0,0.016824927962187042
3786.0,0.016824927962187042
3785.0,0.016870075265299933
3784.0,0.016915227262211507
3783.0,0.016915227262211507
3782.0,0.016915227262211507
3781.0,0.016915227262211507
3780.0,0.016915227262211507
3779.0,0.016915227262211507
3778.0,0.016915227262211507
3777.0,0.016960383953898095
3776.0,0.017005545341335804
3775.0,0.017005545341335804
3774.0,0.016960383953898095
3773.0,0.017005545341335804
3772.0,0.017050711425501408
3771.0,0.017095882207371904
3770.0,0.017141057687924732
3769.0,0.017095882207371904
3768.0,0.017095882207371904
3767.0,0.017141057687924732
3766.0,0.017095882207371904
3765.0,0.017005545341335804
3764.0,0.016915227262211507
3763.0,0.016915227262211507
3762.0,0.016960383953898095
3761.0,0.016960383953898095
3760.0,0.016960383953898095
3759.0,0.017005545341335804
3758.0,0.017005545341335804
3757.0,0.016960383953898095
3756.0,0.016960383953898095
3755.0,0.016915227262211507
3754.0,0.01677978535189717
3753.0,0.016644385668211692
3752.0,0.01677978535189717
3751.0,0.017005545341335804
3750.0,0.017005545341335804
3749.0,0.016870075265299933
3748.0,0.016870075265299933
3747.0,0.017005545341335804
3746.0,0.017231422748988034
3745.0,0.01727661233145472
3744.0,0.017005545341335804
3743.0,0.016734647433454652
3742.0,0.01677978535189717
3741.0,0.016870075265299933
3740.0,0.016824927962187042
3739.0,0.016644385668211692
3738.0,0.016509028184833463
3737.0,0.016509028184833463
3736.0,0.016554142658660398
3735.0,0.016554142658660398
3734.0,0.016509028184833463
3733.0,0.01646391839700767
3732.0,0.016418813294209356
3731.0,0.01632861713980338
3730.0,0.01632861713980338
3729.0,0.01628352608625061
3728.0,0.016193358021584725
3727.0,0.016013078034810446
3726.0,0.015832872853011715
3725.0,0.01578783323856614
3724.0,0.015877917138889863
3723.0,0.01596801972881945
3722.0,0.016148281008528276
3721.0,0.01628352608625061
3720.0,0.01646391839700767
3719.0,0.016689514205884493
3718.0,0.016824927962187042
3717.0,0.016960383953898095
3716.0,0.017095882207371904
3715.0,0.017186237868137555
3714.0,0.01727661233145472
3713.0,0.017367005605150476
3712.0,0.017502630802287644
3711.0,0.017502630802287644
3710.0,0.017321806616515723
3709.0,0.017231422748988034
3708.0,0.017141057687924732
3707.0,0.017141057687924732
3706.0,0.017095882207371904
3705.0,0.017050711425501408
3704.0,0.016960383953898095
3703.0,0.016960383953898095
3702.0,0.016960383953898095
3701.0,0.016960383953898095
3700.0,0.017005545341335804
3699.0,0.017141057687924732
3698.0,0.017231422748988034
3697.0,0.017231422748988034
3696.0,0.017231422748988034
3695.0,0.01727661233145472
3694.0,0.017367005605150476
3693.0,0.017457417697056554
3692.0,0.017638298366853045
3691.0,0.017909760704207134
3690.0,0.01809082990920774
3689.0,0.01809082990920774
3688.0,0.018045555530026514
3687.0,0.018181392829336396
3686.0,0.01840788278591865
3685.0,0.018679826740892747
3684.0,0.018815862601645694
3683.0,0.018861217359339655
3682.0,0.018861217359339655
3681.0,0.018861217359339655
3680.0,0.018770512579999288
3679.0,0.018634490921455527
3678.0,0.018634490921455527
3677.0,0.018951941086827073
3676.0,0.019451260640229506
3675.0,0.019632973815224997
3674.0,0.01958753839310856
3673.0,0.019632973815224997
3672.0,0.019632973815224997
3671.0,0.019632973815224997
3670.0,0.019723858922159776
3669.0,0.01990568621470623
3668.0,0.020178569969774962
3667.0,0.020497151212598652
3666.0,0.020724852408976924
3665.0,0.020861530453190058
3664.0,0.020952673052035298
3663.0,0.0209982515252789
3662.0,0.021089422824428272
3661.0,0.0211806132671577
3660.0,0.02122621566987748
3659.0,0.021317434843055594
3658.0,0.021499930688540836
3657.0,0.021773818325474092
3656.0,0.021956506090037076
3655.0,0.02204787879853809
3654.0,0.022093572362881675
3653.0,0.022139270735302752
3652.0,0.022139270735302752
3651.0,0.022367834754000393
3650.0,0.02291687968414724
3649.0,0.023329119375188556
3648.0,0.023466619608062178
3647.0,0.02355831062115543
3646.0,0.023741750742954926
3645.0,0.024017056287453542
3644.0,0.024200690320592466
3643.0,0.02438440203310499
3642.0,0.024568191490736968
3641.0,0.024798037742147727
3640.0,0.025028005701930978
3639.0,0.025304128090317013
3638.0,0.02544225514642018
3637.0,0.02558042614771394
3636.0,0.02562649291857677
3635.0,0.025672564576383117
3634.0,0.025718641122169483
3633.0,0.025764722556973707
3632.0,0.025810808881832736
3631.0,0.025902996205869
3630.0,0.026271941311972746
3629.0,0.02664120011360227
3628.0,0.02682594731702781
3627.0,0.027010773144651168
3626.0,0.027288159452933503
3625.0,0.02751945012352408
3624.0,0.027658283674251827
3623.0,0.027750864037404455
3622.0,0.027889771597169544
3621.0,0.02812138297373412
3620.0,0.028445846553939003
3619.0,0.028863370523193765
3618.0,0.029188389127482228
3617.0,0.029560137048236124
3616.0,0.029885677714903025
3615.0,0.030164906924202484
3614.0,0.030490901403433135
3613.0,0.0307239045110681
3612.0,0.030910397045078586
3611.0,0.031096969696171817
3610.0,0.03128362253321426
3609.0,0.031563752288295444
3608.0,0.03184406285002961
3607.0,0.03207779326948268
3606.0,0.03226486821611996
3605.0,0.03240522732811035
3604.0,0.032545631817259224
3603.0,0.032686081712916426
3602.0,0.032920265855503006
3601.0,0.033201453616638954
3600.0,0.03352973627071565
3599.0,0.0338113190438627
3598.0,0.03399914237121604
3597.0,0.03423403581731388
3596.0,0.034516075754861264
3595.0,0.0349394793888016
3594.0,0.03531618502395939
3593.0,0.035646070707806565
3592.0,0.03578752703018084
3591.0,0.03578752703018084
3590.0,0.035740369803151095
3589.0,0.03592902944204468
3588.0,0.036401037402758574
3587.0,0.0369681249461018
3586.0,0.03744126420403626
3585.0,0.03786753070176463
3584.0,0.038199360808321536
3583.0,0.038531444649213764
3582.0,0.038816290187564384
3581.0,0.03905380426616856
3580.0,0.03929144831144349
3579.0,0.03957679292217042
3578.0,0.039909932095080425
3577.0,0.0402909757535701
3576.0,0.040672354027829094
3575.0,0.04105406750606355
3574.0,0.041436116778032606
3573.0,0.04167506835594681
3572.0,0.04186632432376469
3571.0,0.041914151478914974
3570.0,0.04186632432376469
3569.0,0.04196198390166317
3568.0,0.042344833056508824
3567.0,0.04287180232318688
3566.0,0.0433514207947967
3565.0,0.04368746915880539
3564.0,0.04402377775167454
3563.0,0.044312249686494276
3562.0,0.04464904263234004
3561.0,0.044937930324967956
3560.0,0.04527520902093718
3559.0,0.045612749855485024
3558.0,0.04599883231842972
3557.0,0.04628861957244457
3556.0,0.046481918555007384
3555.0,0.04662694927330402
3554.0,0.04686877481655505
3553.0,0.04715914332429838
3552.0,0.04749815213697639
3551.0,0.0478374257855374
3550.0,0.04807992647970649
3549.0,0.04832256265669943
3548.0,0.04866248120408234
3547.0,0.04900266601119507
3546.0,0.04939177521576932
3545.0,0.04968383607539972
3544.0,0.04997609347667353
3543.0,0.05021979163799939
3542.0,0.050463626623857394
3541.0,0.050707598587974356
3540.0,0.05100054597304693
3539.0,0.05129369109514803
3538.0,0.0515870342213991
3537.0,0.05188057561946402
3536.0,0.05217431555754937
3535.0,0.052419250695677544
3534.0,0.05261529831525902
3533.0,0.052762392129333646
3532.0,0.05295859474477971
3531.0,0.05310580489767336
3530.0,0.05330216275425803
3529.0,0.053596866100945384
3528.0,0.05394093961487645
3527.0,0.05428528594013993
3526.0,0.054728418492290265
3525.0,0.055122694036304765
3524.0,0.05551732784983132
3523.0,0.05586292684190197
3522.0,0.05610995175152733
3521.0,0.05625823416868636
3520.0,0.056456022846545606
3519.0,0.05660442349104544
3518.0,0.05680236993107379
3517.0,0.057049929922901255
3516.0,0.05734718830678798
3515.0,0.05764465029232335
3514.0,0.05794231615860479
3513.0,0.05814087347462649
3512.0,0.0583891978463662
3511.0,0.05863766428823891
3510.0,0.0588862729628985
3509.0,0.05918479134919874
3508.0,0.05948351506743288
3507.0,0.05978244440026481
3506.0,0.06003170944866376
3505.0,0.06033101647767336
3504.0,0.06063052992534024
3503.0,0.06093025007657582
3502.0,0.06118017497378969
3501.0,0.06143024377893891
3500.0,0.06173051653708872
3499.0,0.06203099704854709
3498.0,0.062381820606176586
3497.0,0.0627329277885873
3496.0,0.0630843190547461
3495.0,0.06338573802478864
3494.0,0.0636873663378068
3493.0,0.06393888339001164
3492.0,0.06414020196211956
3491.0,0.06439198148213077
3490.0,0.06469430971007495
3489.0,0.06494641076893504
3488.0,0.06519865825346338
3487.0,0.0654005617819271
3486.0,0.0655520510510299
3485.0,0.06575411897692884
3484.0,0.06600683616875758
3483.0,0.0663102910421054
3482.0,0.0666645899223488
3481.0,0.06696850489759454
3480.0,0.06727263269847072
3479.0,0.0676277178520861
3478.0,0.06793230779927839
3477.0,0.06828793294324442
3476.0,0.0685421293109949
3475.0,0.06884736147670667
3474.0,0.0691018855898955
3473.0,0.06935655895783555
3472.0,0.06956040523329987
3471.0,0.06976434723371505
3470.0,0.06996838504902692
3469.0,0.07022356719509815
3468.0,0.07052998382251041
3467.0,0.07078549626260622
3466.0,0.0710411591191702
3465.0,0.07129697256940304
3464.0,0.07160414774328627
3463.0,0.07191154033502922
3462.0,0.07221915065262552
3461.0,0.0725783049495814
3460.0,0.07288638806623937
3459.0,0.0732460948102629
3458.0,0.07365755337434488
3457.0,0.07401789967289685
3456.0,0.07437854520917098
3455.0,0.07473949048056472
3454.0,0.07499749231902242
3453.0,0.07525564752005143
3452.0,0.07546228222451012
3451.0,0.07566901529132153
3450.0,0.07587584681417514
3449.0,0.07618627890881036
3448.0,0.07654873036034848
3447.0,0.07696333132921396
3446.0,0.07727454200674
3445.0,0.07753405470158659
3444.0,0.07779372256098371
3443.0,0.07805354577058976
3442.0,0.07831352451639795
3441.0,0.07857365898473456
3440.0,0.07883394936226118
3439.0,0.07914650387874067
3438.0,0.0794592834975203
3437.0,0.07982447798997727
3436.0,0.08018997982980403
3435.0,0.0805035121369384
3434.0,0.08071265949561734
3433.0,0.0809742354126397
3432.0,0.08118360963962057
3431.0,0.08134070657817682
3430.0,0.08155025759884227
3429.0,0.08175990977858505
3428.0,0.08196966321511989
3427.0,0.08223199755224364
3426.0,0.08238947425013277
3425.0,0.08244197917456386
3424.0,0.08244197917456386
3423.0,0.08249449044745338
3422.0,0.08254700807033655
3421.0,0.08259953204474924
3420.0,0.08270459905431071
3419.0,0.08275714209253371
3418.0,0.08280969148843575
3417.0,0.08291480935943274
3416.0,0.08301995267961781
3415.0,0.0830725338870073
3414.0,0.0830725338870073
3413.0,0.0830725338870073
3412.0,0.0830725338870073
3411.0,0.08312512146131668
3410.0,0.08317771540408803
3409.0,0.0832303157168639
3408.0,0.0832303157168639
3407.0,0.08328292240118751
3406.0,0.08328292240118751
3405.0,0.08328292240118751
3404.0,0.08328292240118751
3403.0,0.08333553545860273
3402.0,0.08344078069888616
3401.0,0.08349341288484435
3400.0,0.08354605145007499
3399.0,0.08354605145007499
3398.0,0.08354605145007499
3397.0,0.08354605145007499
3396.0,0.08359869639612438
3395.0,0.08370400543686918
3394.0,0.08380934001946239
3393.0,0.0839147001562972
3392.0,0.08396738981143059
3391.0,0.08396738981143059
3390.0,0.0838620168928248
3389.0,0.08370400543686918
3388.0,0.08365134772453975
3387.0,0.08359869639612438
3386.0,0.08365134772453975
3385.0,0.08359869639612438
3384.0,0.08354605145007499
3383.0,0.08354605145007499
3382.0,0.08354605145007499
3381.0,0.08354605145007499
3380.0,0.08354605145007499
3379.0,0.08349341288484435
3378.0,0.0833881548906541
3377.0,0.08328292240118751
3376.0,0.08317771540408803
3375.0,0.08317771540408803
3374.0,0.08317771540408803
3373.0,0.08317771540408803
3372.0,0.08312512146131668
3371.0,0.08301995267961781
3370.0,0.08291480935943274
3369.0,0.08286224724355584
3368.0,0.08275714209253371
3367.0,0.08270459905431071
3366.0,0.08265206237222844
3365.0,0.08259953204474924
3364.0,0.08254700807033655
3363.0,0.08244197917456386
3362.0,0.0823369756726251
3361.0,0.08223199755224364
3360.0,0.08217951800630297
3359.0,0.08207457793525874
3358.0,0.08202211740709164
3357.0,0.08191721535781271
3356.0,0.08181233864107451
3355.0,0.08165507103772507
3354.0,0.08149786036382611
3353.0,0.08139308485501817
3352.0,0.08134070657817682
3351.0,0.0812883346176787
3350.0,0.08118360963962057
3349.0,0.08107890990866418
3348.0,0.0809742354126397
3347.0,0.08086958613938555
3346.0,0.08076496207674921
3345.0,0.08060807322614072
3344.0,0.08045124103115198
3343.0,0.08029446545087904
3342.0,0.08013774644446192
3341.0,0.07998108397108505
3340.0,0.07987667370927598
3339.0,0.07977228854307139
3338.0,0.07966792846041071
3337.0,0.07956359344924135
3336.0,0.0794071379151915
3335.0,0.07925073872429178
3334.0,0.079094395835976
3333.0,0.0788860261633193
3332.0,0.07862570458152551
3331.0,0.07841755960658348
3330.0,0.07826151631540124
3329.0,0.07805354577058976
3328.0,0.07789763319239285
3327.0,0.07768983678560404
3326.0,0.07743023101428781
3325.0,0.07717078033335123
3324.0,0.07696333132921396
3323.0,0.07685964397479927
3322.0,0.07675598136972361
3321.0,0.07670415934449615
3320.0,0.07660053384128362
3319.0,0.07649693305789551
3318.0,0.07628980560343712
3317.0,0.07608277688689435
3316.0,0.07587584681417514
3315.0,0.07556563645676939
3314.0,0.07530729697981409
3313.0,0.07504911108438939
3312.0,0.07479107858799638
3311.0,0.07458476291575367
3310.0,0.07437854520917098
3309.0,0.07422394616325367
3308.0,0.07417242537525759
3307.0,0.07406940213152868
3306.0,0.07401789967289685
3305.0,0.07391491307485598
3304.0,0.07376047895413773
3303.0,0.07355465218161061
3302.0,0.07334892291111106
3301.0,0.07314329105030759
3300.0,0.0729891310243489
3299.0,0.07283502570063005
3298.0,0.07273231918911849
3297.0,0.07262963696097646
3296.0,0.07247565912497134
3295.0,0.07227044022834539
3294.0,0.07206531825882068
3293.0,0.07186029312488018
3292.0,0.07170658776779781
3291.0,0.07155293679081787
3290.0,0.07145053299833615
3289.0,0.07129697256940304
3288.0,0.07114346641808922
3287.0,0.07093887591523451
3286.0,0.07073438174693436
3285.0,0.07047889936889606
3284.0,0.07017251876930874
3283.0,0.06996838504902692
3282.0,0.06976434723371505
3281.0,0.06966236426227002
3280.0,0.06956040523329987
3279.0,0.06945847013556561
3278.0,0.06935655895783555
3277.0,0.06925467168888666
3276.0,0.06915280831750303
3275.0,0.06905096883247697
3274.0,0.06884736147670667
3273.0,0.06864384953207203
3272.0,0.068389593637038
3271.0,0.0681862960408608
3270.0,0.0680846829187538
3269.0,0.06793230779927839
3268.0,0.06772922410050963
3267.0,0.06752623532284674
3266.0,0.06727263269847072
3265.0,0.0671712330991534
3264.0,0.06706985716921054
3263.0,0.06701917807680191
3262.0,0.06691783763020887
3261.0,0.06681652082538614
3260.0,0.0666645899223488
3259.0,0.06646209802829528
3258.0,0.06620911585658007
3257.0,0.06600683616875758
3256.0,0.06580465065211571
3255.0,0.06570359318059427
3254.0,0.06560255921901192
3253.0,0.0655520510510299
3252.0,0.0655520510510299
3251.0,0.06545105233385295
3250.0,0.06529959828457499
3249.0,0.06509774167768612
3248.0,0.06489597884855036
3247.0,0.06469430971007495
3246.0,0.06459351024765114
3245.0,0.06444235490698613
3244.0,0.06429125215733666
3243.0,0.06414020196211956
3242.0,0.06393888339001164
3241.0,0.06378795567975115
3240.0,0.06363708040225546
3239.0,0.06353652599525317
3238.0,0.06338573802478864
3237.0,0.06318476880236723
3236.0,0.06303410289212974
3235.0,0.06278310913729457
3234.0,0.06253226035662252
3233.0,0.06223143295006417
3232.0,0.06193081377661436
3231.0,0.061680456657844385
3230.0,0.06148027482350815
3229.0,0.061380218497318895
3228.0,0.06123017721688262
3227.0,0.0611301784870133
3226.0,0.06093025007657582
3225.0,0.06078036414518184
3224.0,0.06058059667068294
3223.0,0.06038092104330195
3222.0,0.0601813371786204
3221.0,0.05988213325228142
3220.0,0.0595831353183347
3219.0,0.05933412752417122
3218.0,0.059035506507200575
3217.0,0.058836539841526925
3216.0,0.05868737463933793
3215.0,0.058538260652670315
3214.0,0.0583395216116076
3213.0,0.05814087347462649
3212.0,0.05794231615860479
3211.0,0.057743849580535134
3210.0,0.05749589383191922
3209.0,0.057198533682059516
3208.0,0.05690137699451481
3207.0,0.05665390164340933
3206.0,0.056406567231630955
3205.0,0.05620880107069848
3204.0,0.05606053552778367
3203.0,0.05586292684190197
3202.0,0.05566540802921782
3201.0,0.05546797900801881
3200.0,0.055270639696704205
3199.0,0.05502409158795207
3198.0,0.054728418492290265
3197.0,0.05448217792216048
3196.0,0.05428528594013993
3195.0,0.054088483180726676
3194.0,0.05389176956309405
3193.0,0.053646002773725554
3192.0,0.05340037498486727
3191.0,0.0531548860393769
3190.0,0.05295859474477971
3189.0,0.052762392129333646
3188.0,0.05256627811294923
3187.0,0.052419250695677544
3186.0,0.05222329153526162
3185.0,0.05197846685889629
3184.0,0.05173378011970464
3183.0,0.05148923116234294
3182.0,0.051244819831730126
3181.0,0.05100054597304693
3180.0,0.05075640943173498
3179.0,0.05056119896349576
3178.0,0.050317309204795935
3177.0,0.05002482217034632
3176.0,0.04978123335813667
3175.0,0.04944043838819989
3174.0,0.04919717703534143
3173.0,0.048954051864180226
3172.0,0.04875964967565971
3171.0,0.0486139051197072
3170.0,0.04841965509660828
3169.0,0.048225491918274965
3168.0,0.04803141550708934
3167.0,0.047885915093007325
3166.0,0.04774046340917959
3165.0,0.04754660357696672
3164.0,0.047352830241056854
3163.0,0.04720755695590784
3162.0,0.04696554274964315
3161.0,0.04677202844014605
3160.0,0.04653025674659861
3159.0,0.04633693625290869
3158.0,0.046143701775014145
3157.0,0.04595055323640551
3156.0,0.04575749056067524
3155.0,0.045564513671517703
3154.0,0.045323413081356456
3153.0,0.04513062893352182
3152.0,0.044937930324967956
3151.0,0.04474531717982
3150.0,0.04464904263234004
3149.0,0.04450467081587295
3148.0,0.04440844959427559
3147.0,0.04421607108308856
3146.0,0.04402377775167454
3145.0,0.0437835307566099
3144.0,0.04359142880416744
3143.0,0.04339941178682327
3142.0,0.04320747962950522
3141.0,0.0431115453499229
3140.0,0.04301563225723992
3139.0,0.04291974034210022
3138.0,0.042775942156833
3137.0,0.04263219156847242
3136.0,0.04244059810252043
3135.0,0.04224908912272074
3134.0,0.04210551278710151
3133.0,0.042057664554595586
3132.0,0.04196198390166317
3131.0,0.041914151478914974
3130.0,0.0417706858116178
3129.0,0.04167506835594681
3128.0,0.04153168163305643
3127.0,0.041340572947066834
3126.0,0.041149548320321694
3125.0,0.041006334969674096
3124.0,0.04091088563260792
3123.0,0.04081545726880842
3122.0,0.04072004986906119
3121.0,0.04057697805689475
3120.0,0.04038628892895613
3119.0,0.04019568349166214
3118.0,0.040005161671583744
3117.0,0.03986232513620536
3116.0,0.039767126871487646
3115.0,0.03967194946985697
3114.0,0.03962436858984186
3113.0,0.03957679292217042
3112.0,0.03962436858984186
3111.0,0.03967194946985697
3110.0,0.039767126871487646
3109.0,0.039767126871487646
3108.0,0.03981472339538916
3107.0,0.039767126871487646
3106.0,0.03967194946985697
3105.0,0.03952922246570112
3104.0,0.03938654235209116
3103.0,0.03924390909822728
3102.0,0.03905380426616856
3101.0,0.03886378261277468
3100.0,0.038673844065289176
3099.0,0.038531444649213764
3098.0,0.038341651362284734
3097.0,0.038151940981675736
3096.0,0.03800971255993524
3095.0,0.03786753070176463
3094.0,0.03772539537668518
3093.0,0.03763066432997886
3092.0,0.03753595394209874
3091.0,0.03744126420403626
3090.0,0.03739392707587297
3089.0,0.03739392707587297
3088.0,0.03739392707587297
3087.0,0.03744126420403626
3086.0,0.03744126420403626
3085.0,0.03744126420403626
3084.0,0.037488606492403154
3083.0,0.037488606492403154
3082.0,0.03744126420403626
3081.0,0.037346595106788616
3080.0,0.03720463014276687
3079.0,0.037062711569998186
3078.0,0.0369681249461018
3077.0,0.036873558918095295
3076.0,0.036779013477011624
3075.0,0.03668448861388862
3074.0,0.03658998431977123
3073.0,0.036542739883292485
3072.0,0.03649550058570927
3071.0,0.03644826642590382
3070.0,0.03635381351515665
3069.0,0.03625938114211591
3068.0,0.03616496929785207
3067.0,0.03602339000339416
3066.0,0.03588185684851508
3065.0,0.035740369803151095
3064.0,0.03555179208333925
3063.0,0.03541041251009669
3062.0,0.035363296211498474
3061.0,0.03531618502395939
3060.0,0.03531618502395939
3059.0,0.03531618502395939
3058.0,0.03526907894637077
3057.0,0.03517488211661135
3056.0,0.03508070571335731
3055.0,0.03498654972775217
3054.0,0.03484535401307465
3053.0,0.03465716443937783
3052.0,0.03437503289075727
3051.0,0.03409308450480819
3050.0,0.03376437590141812
3049.0,0.033482823553208085
3048.0,0.033154576345083564
3047.0,0.032873418923587305
3046.0,0.032545631817259224
3045.0,0.03226486821611996
3044.0,0.032031037121307726
3043.0,0.03175060589208267
3042.0,0.03151705144606498
3041.0,0.03133029827960798
3040.0,0.031190286087141805
3039.0,0.03105031901865729
3038.0,0.030910397045078586
3037.0,0.0307239045110681
3036.0,0.03063068826647264
3035.0,0.030537492025363155
3034.0,0.030490901403433135
3033.0,0.030444315779156517
3032.0,0.030397735151460825
3031.0,0.030351159519274695
3030.0,0.03025802323714588
3029.0,0.030164906924202484
3028.0,0.030118356253500123
3027.0,0.030118356253500123
3026.0,0.030118356253500123
3025.0,0.030164906924202484
3024.0,0.030211462585061133
3023.0,0.03030458888152676
3022.0,0.030444315779156517
3021.0,0.030537492025363155
3020.0,0.03067729388779794
3019.0,0.03081714076773867
3018.0,0.030957032694186815
3017.0,0.031143625385307683
3016.0,0.03128362253321426
3015.0,0.03147035562516054
3014.0,0.031563752288295444
3013.0,0.03170388495374454
3012.0,0.03184406285002961
3011.0,0.032031037121307726
3010.0,0.03217132066984485
3009.0,0.03235843591698884
3008.0,0.03245202378113787
3007.0,0.032592443402527316
3006.0,0.03273290844021437
3005.0,0.032873418923587305
3004.0,0.03301397488206215
3003.0,0.03310770413286357
3002.0,0.033201453616638954
3001.0,0.0332483359486222
3000.0,0.033295223342125535
2999.0,0.03334211579824231
2998.0,0.03338901331806565
2997.0,0.033482823553208085
2996.0,0.03352973627071565
2995.0,0.03362357691107709
2994.0,0.03371743783253667
2993.0,0.03385826726096752
2992.0,0.03399914237121604
2991.0,0.034187046963396917
2990.0,0.03437503289075727
2989.0,0.03456310022373987
2988.0,0.03484535401307465
2987.0,0.03517488211661135
2986.0,0.03550466044490741
2985.0,0.03588185684851508
2984.0,0.03621217265444465
2983.0,0.036542739883292485
2982.0,0.036873558918095295
2981.0,0.037299268295658994
2980.0,0.03777276864991497
2979.0,0.038199360808321536
2978.0,0.03862637240519895
2977.0,0.038958783046687984
2976.0,0.03929144831144349
2975.0,0.03967194946985697
2974.0,0.0400527842915015
2973.0,0.04038628892895613
2972.0,0.040672354027829094
2971.0,0.04086316882962593
2970.0,0.040958607678906356
2969.0,0.041101805289228244
2968.0,0.041197296600497646
2967.0,0.04129280891271536
2966.0,0.04129280891271536
2965.0,0.04124505013091051
2964.0,0.041149548320321694
2963.0,0.04105406750606355
2962.0,0.04091088563260792
2961.0,0.040672354027829094
2960.0,0.04038628892895613
2959.0,0.0400527842915015
2958.0,0.03962436858984186
2957.0,0.03914884628031379
2956.0,0.038673844065289176
2955.0,0.03824678581321739
2954.0,0.03782014709123227
2953.0,0.03739392707587297
2952.0,0.03692083935817303
2951.0,0.03644826642590382
2950.0,0.03597620715996652
2949.0,0.03545753392086315
2948.0,0.03498654972775217
2947.0,0.034516075754861264
2946.0,0.03409308450480819
2945.0,0.03362357691107709
2944.0,0.033201453616638954
2943.0,0.03277974021703267
2942.0,0.03240522732811035
2941.0,0.032124554451966825
2940.0,0.03184406285002961
2939.0,0.031563752288295444
2938.0,0.03128362253321426
2937.0,0.031003673351687855
2936.0,0.030770520137356927
2935.0,0.03058408764601861
2934.0,0.030397735151460825
2933.0,0.03025802323714588
2932.0,0.030164906924202484
2931.0,0.03002526987828502
2930.0,0.029932203450862893
2929.0,0.029839156962686353
2928.0,0.029792641193145286
2927.0,0.029746130405213123
2926.0,0.029746130405213123
2925.0,0.02969962459782227
2924.0,0.029653123769906697
2923.0,0.029653123769906697
2922.0,0.029653123769906697
2921.0,0.029653123769906697
2920.0,0.029746130405213123
2919.0,0.029885677714903025
2918.0,0.030071810571884017
2917.0,0.030211462585061133
2916.0,0.030351159519274695
2915.0,0.030490901403433135
2914.0,0.03063068826647264
2913.0,0.03081714076773867
2912.0,0.031003673351687855
2911.0,0.031236951802751545
2910.0,0.03142366482450232
2909.0,0.03151705144606498
2908.0,0.03151705144606498
2907.0,0.03137697904301118
2906.0,0.031143625385307683
2905.0,0.03081714076773867
2904.0,0.030537492025363155
2903.0,0.030211462585061133
2902.0,0.029932203450862893
2901.0,0.029653123769906697
2900.0,0.029374223311705583
2899.0,0.029095501846216454
2898.0,0.028863370523193765
2897.0,0.02872415126189476
2896.0,0.02858497661500481
2895.0,0.028538594975413334
2894.0,0.02849221828874393
2893.0,0.02839947976994095
2892.0,0.028353117935693284
2891.0,0.02826040911222183
2890.0,0.028214062120885508
2889.0,0.02812138297373412
2888.0,0.028075050815808744
2887.0,0.02798240132598462
2886.0,0.027889771597169544
2885.0,0.027750864037404455
2884.0,0.027565723042634938
2883.0,0.027426919073445077
2882.0,0.027288159452933503
2881.0,0.02710321556345563
2880.0,0.02696455931306696
2879.0,0.026872146400301444
2878.0,0.02677975314776626
2877.0,0.026733563891471412
2876.0,0.02664120011360227
2875.0,0.026502691267936695
2874.0,0.026410376572743033
2873.0,0.026318081496016443
2872.0,0.026271941311972746
2871.0,0.02617967564731627
2870.0,0.026087429580295085
2869.0,0.026041313893296225
2868.0,0.025995203102585407
2867.0,0.025949097207122573
2866.0,0.025949097207122573
2865.0,0.025995203102585407
2864.0,0.025995203102585407
2863.0,0.025995203102585407
2862.0,0.025949097207122573
2861.0,0.025902996205869
2860.0,0.025856900097785074
2859.0,0.025810808881832736
2858.0,0.025764722556973707
2857.0,0.025764722556973707
2856.0,0.025718641122169483
2855.0,0.025672564576383117
2854.0,0.02558042614771394
2853.0,0.02539620791296726
2852.0,0.02521206778644225
2851.0,0.02498200236711723
2850.0,0.024798037742147727
2849.0,0.024660115394541604
2848.0,0.024568191490736968
2847.0,0.024430342106337877
2846.0,0.024200690320592466
2845.0,0.024017056287453542
2844.0,0.023833499868024743
2843.0,0.023741750742954926
2842.0,0.023604163388120325
2841.0,0.023466619608062178
2840.0,0.023329119375188556
2839.0,0.023191662661933732
2838.0,0.02314585342378117
2837.0,0.023054249440757957
2836.0,0.02300845469384938
2835.0,0.02291687968414724
2834.0,0.022871099419317753
2833.0,0.02282532397981263
2832.0,0.022733787572707387
2831.0,0.022688026603074007
2830.0,0.022642270454698687
2829.0,0.02259651912656535
2828.0,0.02255077261765881
2827.0,0.022505030926963654
2826.0,0.022413561996148967
2825.0,0.022322112326006227
2824.0,0.02227639471115217
2823.0,0.0221849739168134
2822.0,0.022139270735302752
2821.0,0.022139270735302752
2820.0,0.022093572362881675
2819.0,0.022093572362881675
2818.0,0.022093572362881675
2817.0,0.022093572362881675
2816.0,0.022093572362881675
2815.0,0.02204787879853809
2814.0,0.02200219004126036
2813.0,0.02200219004126036
2812.0,0.021956506090037076
2811.0,0.021956506090037076
2810.0,0.021956506090037076
2809.0,0.021956506090037076
2808.0,0.021910826943857264
2807.0,0.021865152601710403
2806.0,0.021819483062586187
2805.0,0.021819483062586187
2804.0,0.021819483062586187
2803.0,0.021773818325474092
2802.0,0.021728158389364705
2801.0,0.021636852916117055
2800.0,0.02159120737696063
2799.0,0.021545566634771474
2798.0,0.021545566634771474
2797.0,0.021545566634771474
2796.0,0.021499930688540836
2795.0,0.0214542995372613
2794.0,0.021363051615525652
2793.0,0.021271822861508305
2792.0,0.0211806132671577
2791.0,0.021135015652343103
2790.0,0.021089422824428272
2789.0,0.021043834782408455
2788.0,0.0209982515252789
2787.0,0.0209982515252789
2786.0,0.020952673052035298
2785.0,0.020907099361673565
2784.0,0.020861530453190058
2783.0,0.02081596632558158
2782.0,0.020770406977844713
2781.0,0.020770406977844713
2780.0,0.020770406977844713
2779.0,0.020770406977844713
2778.0,0.020724852408976924
2777.0,0.02067930261797568
2776.0,0.020633757603838898
2775.0,0.020542681902151694
2774.0,0.020497151212598652
2773.0,0.02045162529590483
2772.0,0.020406104151069693
2771.0,0.020406104151069693
2770.0,0.020406104151069693
2769.0,0.02036058777709271
2768.0,0.02036058777709271
2767.0,0.02036058777709271
2766.0,0.020315076172974234
2765.0,0.02026956933771462
2764.0,0.02022406727031445
2763.0,0.020178569969774962
2762.0,0.020087589665283012
2761.0,0.019996628416253603
2760.0,0.01995115493504329
2759.0,0.01995115493504329
2758.0,0.019996628416253603
2757.0,0.019996628416253603
2756.0,0.02004210665933459
2755.0,0.02004210665933459
2754.0,0.019996628416253603
2753.0,0.01995115493504329
2752.0,0.01990568621470623
2751.0,0.019860222254245663
2750.0,0.019860222254245663
2749.0,0.019814763052665052
2748.0,0.019814763052665052
2747.0,0.019860222254245663
2746.0,0.01990568621470623
2745.0,0.01990568621470623
2744.0,0.01990568621470623
2743.0,0.019860222254245663
2742.0,0.019814763052665052
2741.0,0.019723858922159776
2740.0,0.019678413991243593
2739.0,0.019678413991243593
2738.0,0.019632973815224997
2737.0,0.019678413991243593
2736.0,0.019678413991243593
2735.0,0.019632973815224997
2734.0,0.019632973815224997
2733.0,0.01958753839310856
2732.0,0.01958753839310856
2731.0,0.01954210772389997
2730.0,0.01949668180660491
2729.0,0.019451260640229506
2728.0,0.01940584422377989
2727.0,0.019360432556262852
2726.0,0.019360432556262852
2725.0,0.019315025636685412
2724.0,0.019315025636685412
2723.0,0.019315025636685412
2722.0,0.019269623464054586
2721.0,0.0192242260373785
2720.0,0.019133445417920836
2719.0,0.0190880622231564
2718.0,0.019042683770379876
2717.0,0.01899731005860028
2716.0,0.018951941086827073
2715.0,0.018951941086827073
2714.0,0.018951941086827073
2713.0,0.018951941086827073
2712.0,0.018951941086827073
2711.0,0.018951941086827073
2710.0,0.018951941086827073
2709.0,0.018906576854070378
2708.0,0.018861217359339655
2707.0,0.018861217359339655
2706.0,0.018815862601645694
2705.0,0.018815862601645694
2704.0,0.018725167293411005
2703.0,0.018679826740892747
2702.0,0.018634490921455527
2701.0,0.018634490921455527
2700.0,0.018679826740892747
2699.0,0.018770512579999288
2698.0,0.018815862601645694
2697.0,0.018770512579999288
2696.0,0.018725167293411005
2695.0,0.018634490921455527
2694.0,0.01858915983411169
2693.0,0.018543833477873584
2692.0,0.018543833477873584
2691.0,0.018543833477873584
2690.0,0.018543833477873584
2689.0,0.018498511851753108
2688.0,0.018498511851753108
2687.0,0.018498511851753108
2686.0,0.018498511851753108
2685.0,0.018498511851753108
2684.0,0.01845319495476394
2683.0,0.01840788278591865
2682.0,0.01840788278591865
2681.0,0.018362575344230914
2680.0,0.018362575344230914
2679.0,0.01831727262871463
2678.0,0.01831727262871463
2677.0,0.018271974638383703
2676.0,0.018271974638383703
2675.0,0.018271974638383703
2674.0,0.018271974638383703
2673.0,0.018271974638383703
2672.0,0.018271974638383703
2671.0,0.018271974638383703
2670.0,0.018271974638383703
2669.0,0.018226681372252695
2668.0,0.018181392829336396
2667.0,0.018136109008649592
2666.0,0.01809082990920774
2665.0,0.01800028587012159
2664.0,0.017955020928509757
2663.0,0.017955020928509757
2662.0,0.017955020928509757
2661.0,0.01800028587012159
2660.0,0.01800028587012159
2659.0,0.01800028587012159
2658.0,0.017955020928509757
2657.0,0.017909760704207134
2656.0,0.017864505196230507
2655.0,0.017864505196230507
2654.0,0.017864505196230507
2653.0,0.017864505196230507
2652.0,0.017864505196230507
2651.0,0.01781925440359733
2650.0,0.017728766960431575
2649.0,0.01768353030793479
2648.0,0.017728766960431575
2647.0,0.017774008325325275
2646.0,0.01781925440359733
2645.0,0.017864505196230507
2644.0,0.017909760704207134
2643.0,0.017955020928509757
2642.0,0.01800028587012159
2641.0,0.01800028587012159
2640.0,0.017955020928509757
2639.0,0.017864505196230507
2638.0,0.017864505196230507
2637.0,0.017864505196230507
2636.0,0.017909760704207134
2635.0,0.017955020928509757
2634.0,0.017955020928509757
2633.0,0.017955020928509757
2632.0,0.017909760704207134
2631.0,0.017909760704207134
2630.0,0.017909760704207134
2629.0,0.017909760704207134
2628.0,0.017909760704207134
2627.0,0.017909760704207134
2626.0,0.01781925440359733
2625.0,0.017728766960431575
2624.0,0.01768353030793479
2623.0,0.01768353030793479
2622.0,0.017728766960431575
2621.0,0.017728766960431575
2620.0,0.017728766960431575
2619.0,0.01768353030793479
2618.0,0.017638298366853045
2617.0,0.017638298366853045
2616.0,0.01759307113620534
2615.0,0.017638298366853045
2614.0,0.017638298366853045
2613.0,0.017638298366853045
2612.0,0.017638298366853045
2611.0,0.017638298366853045
2610.0,0.017638298366853045
2609.0,0.017638298366853045
2608.0,0.017638298366853045
2607.0,0.01768353030793479
2606.0,0.01768353030793479
2605.0,0.01768353030793479
2604.0,0.017728766960431575
2603.0,0.017728766960431575
2602.0,0.017728766960431575
2601.0,0.017728766960431575
2600.0,0.017728766960431575
2599.0,0.017728766960431575
2598.0,0.017774008325325275
2597.0,0.017774008325325275
2596.0,0.01781925440359733
2595.0,0.017774008325325275
2594.0,0.017774008325325275
2593.0,0.017774008325325275
2592.0,0.017774008325325275
2591.0,0.017774008325325275
2590.0,0.017774008325325275
2589.0,0.01781925440359733
2588.0,0.01781925440359733
2587.0,0.01781925440359733
2586.0,0.01781925440359733
2585.0,0.01781925440359733
2584.0,0.017864505196230507
2583.0,0.017909760704207134
2582.0,0.017955020928509757
2581.0,0.01800028587012159
2580.0,0.01800028587012159
2579.0,0.01800028587012159
2578.0,0.017955020928509757
2577.0,0.017909760704207134
2576.0,0.017909760704207134
2575.0,0.017909760704207134
2574.0,0.017909760704207134
2573.0,0.017864505196230507
2572.0,0.01781925440359733
2571.0,0.01781925440359733
2570.0,0.01781925440359733
2569.0,0.017864505196230507
2568.0,0.017909760704207134
2567.0,0.017909760704207134
2566.0,0.017864505196230507
2565.0,0.017774008325325275
2564.0,0.017728766960431575
2563.0,0.017728766960431575
2562.0,0.017728766960431575
2561.0,0.01768353030793479
2560.0,0.01768353030793479
2559.0,0.01768353030793479
2558.0,0.01768353030793479
2557.0,0.01768353030793479
2556.0,0.017728766960431575
2555.0,0.017728766960431575
2554.0,0.01768353030793479
2553.0,0.017638298366853045
2552.0,0.01759307113620534
2551.0,0.01759307113620534
2550.0,0.01759307113620534
2549.0,0.017638298366853045
2548.0,0.01768353030793479
2547.0,0.017728766960431575
2546.0,0.017728766960431575
2545.0,0.017728766960431575
2544.0,0.017728766960431575
2543.0,0.01768353030793479
2542.0,0.01759307113620534
2541.0,0.01759307113620534
2540.0,0.01759307113620534
2539.0,0.01768353030793479
2538.0,0.01768353030793479
2537.0,0.01768353030793479
2536.0,0.01759307113620534
2535.0,0.017502630802287644
2534.0,0.017412209298337533
2533.0,0.017412209298337533
2532.0,0.017412209298337533
2531.0,0.017457417697056554
2530.0,0.017502630802287644
2529.0,0.017547848615010242
2528.0,0.017547848615010242
2527.0,0.017547848615010242
2526.0,0.017457417697056554
2525.0,0.017367005605150476
2524.0,0.017321806616515723
2523.0,0.017321806616515723
2522.0,0.017321806616515723
2521.0,0.017321806616515723
2520.0,0.017321806616515723
2519.0,0.01727661233145472
2518.0,0.017231422748988034
2517.0,0.017141057687924732
2516.0,0.017095882207371904
2515.0,0.017095882207371904
2514.0,0.017050711425501408
2513.0,0.017050711425501408
2512.0,0.017050711425501408
2511.0,0.017050711425501408
2510.0,0.017005545341335804
2509.0,0.016960383953898095
2508.0,0.017005545341335804
2507.0,0.017050711425501408
2506.0,0.017095882207371904
2505.0,0.017095882207371904
2504.0,0.017095882207371904
2503.0,0.017095882207371904
2502.0,0.017050711425501408
2501.0,0.017005545341335804
2500.0,0.016960383953898095
2499.0,0.016915227262211507
2498.0,0.016915227262211507
2497.0,0.016870075265299933
2496.0,0.016870075265299933
2495.0,0.016870075265299933
2494.0,0.016824927962187042
2493.0,0.016824927962187042
2492.0,0.01677978535189717
2491.0,0.01677978535189717
2490.0,0.016734647433454652
2489.0,0.016689514205884493
2488.0,0.016644385668211692
2487.0,0.016644385668211692
2486.0,0.016644385668211692
2485.0,0.016644385668211692
2484.0,0.016644385668211692
2483.0,0.016599261819461697
2482.0,0.016554142658660398
2481.0,0.016554142658660398
2480.0,0.016554142658660398
2479.0,0.016554142658660398
2478.0,0.016599261819461697
2477.0,0.016644385668211692
2476.0,0.016689514205884493
2475.0,0.016644385668211692
2474.0,0.016554142658660398
2473.0,0.01646391839700767
2472.0,0.016418813294209356
2471.0,0.016418813294209356
2470.0,0.016418813294209356
2469.0,0.016418813294209356
2468.0,0.016418813294209356
2467.0,0.016418813294209356
2466.0,0.016373712875465518
2465.0,0.016373712875465518
2464.0,0.016373712875465518
2463.0,0.016373712875465518
2462.0,0.01632861713980338
2461.0,0.01632861713980338
2460.0,0.01632861713980338
2459.0,0.01632861713980338
2458.0,0.01632861713980338
2457.0,0.016238439713835096
2456.0,0.016148281008528276
2455.0,0.016103208673694303
2454.0,0.016058141016111804
2453.0,0.016058141016111804
2452.0,0.016058141016111804
2451.0,0.016058141016111804
2450.0,0.016058141016111804
2449.0,0.016058141016111804
2448.0,0.016103208673694303
2447.0,0.016103208673694303
2446.0,0.016058141016111804
2445.0,0.016058141016111804
2444.0,0.016058141016111804
2443.0,0.016058141016111804
2442.0,0.016103208673694303
2441.0,0.016103208673694303
2440.0,0.016148281008528276
2439.0,0.016193358021584725
2438.0,0.016238439713835096
2437.0,0.016193358021584725
2436.0,0.016193358021584725
2435.0,0.016193358021584725
2434.0,0.016238439713835096
2433.0,0.016238439713835096
2432.0,0.01628352608625061
2431.0,0.01628352608625061
2430.0,0.016238439713835096
2429.0,0.016238439713835096
2428.0,0.016238439713835096
2427.0,0.01628352608625061
2426.0,0.01632861713980338
2425.0,0.016373712875465518
2424.0,0.016373712875465518
2423.0,0.016418813294209356
2422.0,0.01646391839700767
2421.0,0.01646391839700767
2420.0,0.016509028184833463
2419.0,0.016509028184833463
2418.0,0.016509028184833463
2417.0,0.016509028184833463
2416.0,0.016554142658660398
2415.0,0.016599261819461697
2414.0,0.016599261819461697
2413.0,0.016599261819461697
2412.0,0.016599261819461697
2411.0,0.016599261819461697
2410.0,0.016599261819461697
2409.0,0.016644385668211692
2408.0,0.016644385668211692
2407.0,0.016689514205884493
2406.0,0.016689514205884493
2405.0,0.016689514205884493
2404.0,0.016689514205884493
2403.0,0.016689514205884493
2402.0,0.016689514205884493
2401.0,0.016734647433454652
2400.0,0.01677978535189717
2399.0,0.016824927962187042
2398.0,0.016870075265299933
2397.0,0.016870075265299933
2396.0,0.016870075265299933
2395.0,0.016870075265299933
2394.0,0.016870075265299933
2393.0,0.016870075265299933
2392.0,0.016824927962187042
2391.0,0.016870075265299933
2390.0,0.016870075265299933
2389.0,0.016915227262211507
2388.0,0.016915227262211507
2387.0,0.016960383953898095
2386.0,0.016960383953898095
2385.0,0.016915227262211507
2384.0,0.016824927962187042
2383.0,0.016689514205884493
2382.0,0.01646391839700767
2381.0,0.016103208673694303
2380.0,0.015742798294583915
2379.0,0.01538268676325183
2378.0,0.015157768594724175
2377.0,0.015022873584506602
2376.0,0.015112798935672522
2375.0,0.01547268665620738
2374.0,0.01578783323856614
2373.0,0.015742798294583915
2372.0,0.015247721884586563
2371.0,0.014753209197138295
2370.0,0.014618439768003144
2369.0,0.014618439768003144
2368.0,0.01452861671041239
2367.0,0.014438812226654996
2366.0,0.014708281407112
2365.0,0.015427684378367834
2364.0,0.016509028184833463
2363.0,0.017638298366853045
2362.0,0.018136109008649592
2361.0,0.017909760704207134
2360.0,0.017638298366853045
2359.0,0.016915227262211507
2358.0,0.014798141635428141
2357.0,0.0119764380713403
2356.0,0.009972101229705377
2355.0,0.008951223547323472
2354.0,0.007888512213050314
2353.0,0.006651960076740071
2352.0,0.00625524344553785
2351.0,0.007667440952535687
2350.0,0.01037222925484893
2349.0,0.012780770091995297
2348.0,0.013452186585275916
2347.0,0.01215504982870197
2346.0,0.010060986715464404
2345.0,0.008640997362049818
2344.0,0.008862564879688284
2343.0,0.010283280051895272
2342.0,0.01117359295472431
2341.0,0.010950843561779777
2340.0,0.01023881228122181
2339.0,0.009883233932095559
2338.0,0.009883233932095559
2337.0,0.010060986715464404
2336.0,0.01046119667949763
2335.0,0.010817248744452446
2334.0,0.010639186223752484
2333.0,0.009794384815193347
2332.0,0.008906891951112605
2331.0,0.008685301823389224
2330.0,0.009261671492462709
2329.0,0.009927665307847056
2328.0,0.01046119667949763
2327.0,0.010639186223752484
2326.0,0.010817248744452446
2325.0,0.011084479487313281
2324.0,0.011485634166333858
2323.0,0.011842527443247208
2322.0,0.012021084124518078
2321.0,0.012244383261476699
2320.0,0.01260190086298274
2319.0,0.013138729709955221
2318.0,0.013676222949234651
2317.0,0.014079779876432497
2316.0,0.014304140310157809
2315.0,0.014349026309051105
2314.0,0.014169510141607944
2313.0,0.01385553528947936
2312.0,0.013631406429727155
2311.0,0.013496984613259544
2310.0,0.013496984613259544
2309.0,0.013586594534531482
2308.0,0.013676222949234651
2307.0,0.01372104409400876
2306.0,0.01381070026317599
2305.0,0.013900374944870508
2304.0,0.014079779876432497
2303.0,0.014304140310157809
2302.0,0.014438812226654996
2301.0,0.0144837121472845
2300.0,0.01452861671041239
2299.0,0.014663358264387139
2298.0,0.014798141635428141
2297.0,0.014932966849499074
2296.0,0.015022873584506602
2295.0,0.015112798935672522
2294.0,0.015247721884586563
2293.0,0.015292705517326866
2292.0,0.015337693809893471
2291.0,0.01538268676325183
2290.0,0.015427684378367834
2289.0,0.015517693597737248
2288.0,0.015652742414136167
2287.0,0.01578783323856614
2286.0,0.015877917138889863
2285.0,0.015922966097169144
2284.0,0.01596801972881945
2283.0,0.01596801972881945
2282.0,0.015922966097169144
2281.0,0.01578783323856614
2280.0,0.015697768020096703
2279.0,0.015607721475734415
2278.0,0.015562705203923999
2277.0,0.01547268665620738
2276.0,0.015427684378367834
2275.0,0.01538268676325183
2274.0,0.015337693809893471
2273.0,0.015247721884586563
2272.0,0.015202742910707112
2271.0,0.015202742910707112
2270.0,0.015202742910707112
2269.0,0.015247721884586563
2268.0,0.015247721884586563
2267.0,0.015247721884586563
2266.0,0.015292705517326866
2265.0,0.015292705517326866
2264.0,0.015337693809893471
2263.0,0.015337693809893471
2262.0,0.015337693809893471
2261.0,0.015337693809893471
2260.0,0.015337693809893471
2259.0,0.015337693809893471
2258.0,0.01538268676325183
2257.0,0.01538268676325183
2256.0,0.01538268676325183
2255.0,0.015427684378367834
2254.0,0.01547268665620738
2253.0,0.01547268665620738
2252.0,0.01547268665620738
2251.0,0.015427684378367834
2250.0,0.01538268676325183
2249.0,0.015337693809893471
2248.0,0.015292705517326866
2247.0,0.015247721884586563
2246.0,0.015202742910707112
2245.0,0.015202742910707112
2244.0,0.015157768594724175
2243.0,0.015157768594724175
2242.0,0.015112798935672522
2241.0,0.015067833932588037
2240.0,0.015022873584506602
2239.0,0.015022873584506602
2238.0,0.015067833932588037
2237.0,0.015067833932588037
2236.0,0.015067833932588037
2235.0,0.015067833932588037
2234.0,0.015022873584506602
2233.0,0.014932966849499074
2232.0,0.014932966849499074
2231.0,0.014888020460646079
2230.0,0.014888020460646079
2229.0,0.014843078722943437
2228.0,0.014798141635428141
2227.0,0.014798141635428141
2226.0,0.014753209197138295
2225.0,0.014753209197138295
2224.0,0.014753209197138295
2223.0,0.014753209197138295
2222.0,0.014708281407112
2221.0,0.014663358264387139
2220.0,0.014618439768003144
2219.0,0.014573525916998342
2218.0,0.01452861671041239
2217.0,0.0144837121472845
2216.0,0.0144837121472845
2215.0,0.0144837121472845
2214.0,0.0144837121472845
2213.0,0.014438812226654996
2212.0,0.014393916947563534
2211.0,0.014349026309051105
2210.0,0.014259258949925524
2209.0,0.014214382227394795
2208.0,0.014169510141607944
2207.0,0.014169510141607944
2206.0,0.014169510141607944
2205.0,0.014124642691606404
2204.0,0.014124642691606404
2203.0,0.014124642691606404
2202.0,0.014079779876432497
2201.0,0.01403492169512921
2200.0,0.013990068146738865
2199.0,0.013990068146738865
2198.0,0.013945219230304673
2197.0,0.013900374944870508
2196.0,0.01385553528947936
2195.0,0.01381070026317599
2194.0,0.01381070026317599
2193.0,0.01381070026317599
2192.0,0.013765869865004277
2191.0,0.01372104409400876
2190.0,0.013676222949234651
2189.0,0.013631406429727155
2188.0,0.013631406429727155
2187.0,0.013676222949234651
2186.0,0.013631406429727155
2185.0,0.013586594534531482
2184.0,0.013541787262693505
2183.0,0.013496984613259544
2182.0,0.013452186585275916
2181.0,0.013452186585275916
2180.0,0.013452186585275916
2179.0,0.013452186585275916
2178.0,0.013452186585275916
2177.0,0.013407393177789162
2176.0,0.013452186585275916
2175.0,0.013452186585275916
2174.0,0.013452186585275916
2173.0,0.013452186585275916
2172.0,0.013452186585275916
2171.0,0.013452186585275916
2170.0,0.013407393177789162
2169.0,0.013407393177789162
2168.0,0.013407393177789162
2167.0,0.013452186585275916
2166.0,0.013452186585275916
2165.0,0.013452186585275916
2164.0,0.013452186585275916
2163.0,0.013496984613259544
2162.0,0.013496984613259544
2161.0,0.013541787262693505
2160.0,0.013541787262693505
2159.0,0.013586594534531482
2158.0,0.013631406429727155
2157.0,0.013631406429727155
2156.0,0.013631406429727155
2155.0,0.013631406429727155
2154.0,0.013631406429727155
2153.0,0.013631406429727155
2152.0,0.013631406429727155
2151.0,0.013631406429727155
2150.0,0.013631406429727155
2149.0,0.013631406429727155
2148.0,0.013586594534531482
2147.0,0.013586594534531482
2146.0,0.013541787262693505
2145.0,0.013541787262693505
2144.0,0.013541787262693505
2143.0,0.013631406429727155
2142.0,0.01372104409400876
2141.0,0.013765869865004277
2140.0,0.01381070026317599
2139.0,0.013765869865004277
2138.0,0.01372104409400876
2137.0,0.013631406429727155
2136.0,0.013586594534531482
2135.0,0.013586594534531482
2134.0,0.013631406429727155
2133.0,0.013676222949234651
2132.0,0.013676222949234651
2131.0,0.01372104409400876
2130.0,0.01372104409400876
2129.0,0.01372104409400876
2128.0,0.01372104409400876
2127.0,0.01381070026317599
2126.0,0.01385553528947936
2125.0,0.01385553528947936
2124.0,0.01381070026317599
2123.0,0.01381070026317599
2122.0,0.01381070026317599
2121.0,0.01385553528947936
2120.0,0.01385553528947936
2119.0,0.013900374944870508
2118.0,0.013945219230304673
2117.0,0.013945219230304673
2116.0,0.013945219230304673
2115.0,0.013945219230304673
2114.0,0.013900374944870508
2113.0,0.01385553528947936
2112.0,0.01385553528947936
2111.0,0.013900374944870508
2110.0,0.013900374944870508
2109.0,0.01385553528947936
2108.0,0.01385553528947936
2107.0,0.01385553528947936
2106.0,0.01381070026317599
2105.0,0.013765869865004277
2104.0,0.01372104409400876
2103.0,0.01372104409400876
2102.0,0.01372104409400876
2101.0,0.01372104409400876
2100.0,0.01372104409400876
2099.0,0.01372104409400876
2098.0,0.013676222949234651
2097.0,0.013586594534531482
2096.0,0.013541787262693505
2095.0,0.013496984613259544
2094.0,0.013452186585275916
2093.0,0.013407393177789162
2092.0,0.013407393177789162
2091.0,0.013407393177789162
2090.0,0.013362604389846044
2089.0,0.013317820220494436
2088.0,0.013273040668781544
2087.0,0.013273040668781544
2086.0,0.013273040668781544
2085.0,0.01322826573375524
2084.0,0.01322826573375524
2083.0,0.01318349541446362
2082.0,0.013138729709955221
2081.0,0.013093968619278806
2080.0,0.013049212141483357
2079.0,0.013004460275618523
2078.0,0.012959713020733288
2077.0,0.012870232340102872
2076.0,0.012825498912458322
2075.0,0.012780770091995297
2074.0,0.012736045877764557
2073.0,0.01264661126420652
2072.0,0.012557195064198723
2071.0,0.012467797270160563
2070.0,0.012423105273012602
2069.0,0.012333735073725371
2068.0,0.012244383261476699
2067.0,0.01215504982870197
2066.0,0.012110390002254778
2065.0,0.012021084124518078
2064.0,0.0119764380713403
2063.0,0.0119764380713403
2062.0,0.011931796607364653
2061.0,0.011842527443247208
2060.0,0.011708658092512314
2059.0,0.011664044143949504
2058.0,0.011574829993696856
2057.0,0.011530229790124524
2056.0,0.011441043121384498
2055.0,0.011396456654336085
2054.0,0.011351874764248926
2053.0,0.011307297450183107
2052.0,0.011262724711199823
2051.0,0.011262724711199823
2050.0,0.011218156546359825
2049.0,0.01117359295472431
2048.0,0.011084479487313281
2047.0,0.011039929609661936
2046.0,0.010995384301463185
2045.0,0.010906307389674463
2044.0,0.01086177578421088
2043.0,0.010817248744452446
2042.0,0.01077272626946324
2041.0,0.010728208358306901
2040.0,0.010683695010048622
2039.0,0.010683695010048622
2038.0,0.010683695010048622
2037.0,0.010639186223752484
2036.0,0.010550182333308289
2035.0,0.01046119667949763
2034.0,0.010416710688994968
2033.0,0.010416710688994968
2032.0,0.010416710688994968
2031.0,0.010416710688994968
2030.0,0.010416710688994968
2029.0,0.01037222925484893
2028.0,0.010327752376126709
2027.0,0.010327752376126709
2026.0,0.010327752376126709
2025.0,0.010283280051895272
2024.0,0.01023881228122181
2023.0,0.01023881228122181
2022.0,0.01023881228122181
2021.0,0.01023881228122181
2020.0,0.010194349063173958
2019.0,0.01023881228122181
2018.0,0.010194349063173958
2017.0,0.010194349063173958
2016.0,0.010194349063173958
2015.0,0.01023881228122181
2014.0,0.010283280051895272
2013.0,0.01023881228122181
2012.0,0.01023881228122181
2011.0,0.01023881228122181
2010.0,0.010194349063173958
2009.0,0.010194349063173958
2008.0,0.010194349063173958
2007.0,0.01023881228122181
2006.0,0.010283280051895272
2005.0,0.01023881228122181
2004.0,0.01023881228122181
2003.0,0.010283280051895272
2002.0,0.010327752376126709
2001.0,0.010327752376126709
2000.0,0.010327752376126709
1999.0,0.01037222925484893
1998.0,0.01046119667949763
1997.0,0.010505687227290839
1996.0,0.010505687227290839
1995.0,0.010505687227290839
1994.0,0.01046119667949763
1993.0,0.010416710688994968
1992.0,0.010416710688994968
1991.0,0.01046119667949763
1990.0,0.010505687227290839
1989.0,0.010550182333308289
1988.0,0.010594681998483901
1987.0,0.010683695010048622
1986.0,0.010728208358306901
1985.0,0.010683695010048622
1984.0,0.010683695010048622
1983.0,0.010683695010048622
1982.0,0.010728208358306901
1981.0,0.010728208358306901
1980.0,0.01077272626946324
1979.0,0.010817248744452446
1978.0,0.010817248744452446
1977.0,0.010817248744452446
1976.0,0.01086177578421088
1975.0,0.010906307389674463
1974.0,0.011039929609661936
1973.0,0.011084479487313281
1972.0,0.01117359295472431
1971.0,0.011262724711199823
1970.0,0.011307297450183107
1969.0,0.011351874764248926
1968.0,0.011396456654336085
1967.0,0.011574829993696856
1966.0,0.011753276624621556
1965.0,0.011931796607364653
1964.0,0.012065734767841452
1963.0,0.012244383261476699
1962.0,0.012423105273012602
1961.0,0.012557195064198723
1960.0,0.012691326268817527
1959.0,0.012825498912458322
1958.0,0.012914970375878188
1957.0,0.012914970375878188
1956.0,0.012870232340102872
1955.0,0.012870232340102872
1954.0,0.012870232340102872
1953.0,0.012825498912458322
1952.0,0.012825498912458322
1951.0,0.012825498912458322
1950.0,0.012780770091995297
1949.0,0.01264661126420652
1948.0,0.012512493866907004
1947.0,0.012333735073725371
1946.0,0.01215504982870197
1945.0,0.011931796607364653
1944.0,0.011708658092512314
1943.0,0.011485634166333858
1942.0,0.011307297450183107
1941.0,0.011129033935354915
1940.0,0.010950843561779777
1939.0,0.01077272626946324
1938.0,0.010594681998483901
1937.0,0.01037222925484893
1936.0,0.010149890396819572
1935.0,0.009972101229705377
1934.0,0.009838807101520963
1933.0,0.009705553871561357
1932.0,0.009616741093766423
1931.0,0.009527946474380489
1930.0,0.009439170005980158
1929.0,0.009217308196862062
1928.0,0.009039900317800775
1927.0,0.008818242332126802
1926.0,0.008640997362049818
1925.0,0.008463824699968647
1924.0,0.008286724286910463
1923.0,0.008153946355103248
1922.0,0.008021209005416363
1921.0,0.007932739972333236
1920.0,0.007888512213050314
1919.0,0.007844288957383316
1918.0,0.007755855953228474
1917.0,0.007667440952535687
1916.0,0.007534852191956709
1915.0,0.0074464821678643656
1914.0,0.007313960837872058
1913.0,0.007181479933320523
1912.0,0.007049039429553483
1911.0,0.006916639301937977
1910.0,0.006784279525863024
1909.0,0.006607862550997545
1908.0,0.006519680930003435
1907.0,0.006475596832934416
1906.0,0.006475596832934416
1905.0,0.006431517210272464
1904.0,0.006387442061109638
1903.0,0.006299305179649828
1902.0,0.00621118618129457
1901.0,0.00612308505878878
1900.0,0.005990966876386672
1899.0,0.00590291041179003
1898.0,0.00577085918230158
1897.0,0.005638848091999105
1896.0,0.005506877116487674
1895.0,0.00541891874010525
1894.0,0.00537494623139545
1893.0,0.005330978174470591
1892.0,0.0052870145684298375
1891.0,0.005199100705396198
1890.0,0.005067263269958211
1889.0,0.00489154225525934
1888.0,0.004759798137184523
1887.0,0.004715892310740433
1886.0,0.004715892310740433
1885.0,0.004628093971837721
1884.0,0.004540313378935901
1883.0,0.004452550524862486
1882.0,0.004408675747646695
1881.0,0.0043648054024501
1880.0,0.004320939488377862
1879.0,0.004277078004534696
1878.0,0.004189368323957332
1877.0,0.004101676353562844
1876.0,0.003970171588923321
1875.0,0.003926345514724705
1874.0,0.0038387066319929275
1873.0,0.0037510854308679953
1872.0,0.0036634819042162814
1871.0,0.0035321097382827737
1870.0,0.0033570086445275926
1869.0,0.0031382315093266833
1868.0,0.0029632891174733444
1867.0,0.0029195645282691363
1866.0,0.0029632891174733444
1865.0,0.003050751504618754
1864.0,0.0031382315093266833
1863.0,0.0032257291386954545
1862.0,0.0032257291386954545
1861.0,0.0031819781204844855
1860.0,0.0031382315093266833
1859.0,0.0031382315093266833
1858.0,0.0031382315093266833
1857.0,0.0030944893043338695
1856.0,0.003050751504618754
1855.0,0.0030944893043338695
1854.0,0.0031382315093266833
1853.0,0.0031382315093266833
1852.0,0.0031382315093266833
1851.0,0.0031819781204844855
1850.0,0.0031819781204844855
1849.0,0.0031382315093266833
1848.0,0.0030944893043338695
1847.0,0.0031819781204844855
1846.0,0.0033570086445275926
1845.0,0.0034445503666347133
1844.0,0.0034445503666347133
1843.0,0.0034445503666347133
1842.0,0.0034445503666347133
1841.0,0.0034445503666347133
1840.0,0.0035321097382827737
1839.0,0.0036634819042162814
1838.0,0.0037510854308679953
1837.0,0.0037510854308679953
1836.0,0.003794893821675638
1835.0,0.003926345514724705
1834.0,0.00401400208620073
1833.0,0.0040578370074493275
1832.0,0.0040578370074493275
1831.0,0.0040578370074493275
1830.0,0.0040578370074493275
1829.0,0.003926345514724705
1828.0,0.003926345514724705
1827.0,0.0040578370074493275
1826.0,0.004189368323957332
1825.0,0.004189368323957332
1824.0,0.004145520125434121
1823.0,0.004189368323957332
1822.0,0.004233220950025984
1821.0,0.004189368323957332
1820.0,0.004145520125434121
1819.0,0.004145520125434121
1818.0,0.004101676353562844
1817.0,0.00401400208620073
1816.0,0.0038825238627120395
1815.0,0.0038387066319929275
1814.0,0.003794893821675638
1813.0,0.003619686766589858
1812.0,0.0034445503666347133
1811.0,0.0032694845648473247
1810.0,0.0031382315093266833
1809.0,0.0029632891174733444
1808.0,0.0028321285541661467
1807.0,0.0027884171674950053
1806.0,0.0027447101798967477
1805.0,0.002613615602686581
1804.0,0.0024388843664115978
1803.0,0.0022642234021015284
1802.0,0.002089632653256679
1801.0,0.0018278780605593958
1800.0,0.0016534626036355249
1799.0,0.001609869681952425
1798.0,0.0014791171649619628
1797.0,0.0012177301682640973
1796.0,0.0010000277816797354
1795.0,0.0009565003968372565
1794.0,0.0009129773741116676
1793.0,0.0006954276616513155
1792.0,0.0003475746339209884
1791.0,0.00017375254558760211
1790.0,0.0001303078917322953
1789.0,0.0001303078917322953
1788.0,8.686758342868472e-05
1787.0,0.0001303078917322953
1786.0,8.686758342868472e-05
1785.0,-0.00017368305846510168
1784.0,-0.00043407747931878404
1783.0,-0.0006075870628903246
1782.0,-0.0007376737740329986
1781.0,-0.0009977303577937136
1780.0,-0.001257631312230778
1779.0,-0.001257631312230778
1778.0,-0.00121432528617893
1777.0,-0.0013009330204178937
1776.0,-0.0014308122463981832
1775.0,-0.001344230411601366
1774.0,-0.001257631312230778
1773.0,-0.001474096691732818
1772.0,-0.001776967077439462
1771.0,-0.001733712809000476
1770.0,-0.0015606526425728795
1769.0,-0.0013875234866409514
1768.0,-0.00121432528617893
1767.0,-0.0008677215312267172
1766.0,-0.0005208409361854294
1765.0,-0.0002604985473904087
1764.0,4.343161980746579e-05
1763.0,0.0006084382809090627
1762.0,0.0012177301682640973
1761.0,0.0016534626036355249
1760.0,0.002089632653256679
1759.0,0.0028758443407954637
1758.0,0.003926345514724705
1757.0,0.005023326350308999
1756.0,0.00621118618129457
1755.0,0.007667440952535687
1754.0,0.009217308196862062
1753.0,0.010906307389674463
1752.0,0.013138729709955221
1751.0,0.01632861713980338
1750.0,0.02022406727031445
1749.0,0.024522236834125355
1748.0,0.029560137048236124
1747.0,0.03541041251009669
1746.0,0.04181850243505214
1745.0,0.04905128560059957
1744.0,0.05744631966579017
1743.0,0.06686717627326577
1742.0,0.07675598136972361
1741.0,0.08783110394037297
1740.0,0.10105553313349058
1739.0,0.11458223488906394
1738.0,0.1252863112422209
1737.0,0.13359450162194508
1736.0,0.14302956651750764
1735.0,0.15958022226351387
1734.0,0.18263298371240588
1733.0,0.2016256233184388
1732.0,0.21516882187553077
1731.0,0.22936887222219338
1730.0,0.24649354300903004
1729.0,0.2650402387275548
1728.0,0.283078926833239
1727.0,0.30094314545233236
1726.0,0.31975516295739226
1725.0,0.3405592181296824
1724.0,0.3638131048012756
1723.0,0.38806437495987733
1722.0,0.41005039867429227
1721.0,0.4280583649255376
1720.0,0.44514756562794555
1719.0,0.4690323184280849
1718.0,0.5040396051182947
1717.0,0.5364055978129998
1716.0,0.5525318690502443
1715.0,0.5570501304221382
1714.0,0.5529971015338377
1713.0,0.5388017113775068
1712.0,0.5155577923575929
1711.0,0.48678239993206107
1710.0,0.4558078892349675
1709.0,0.42458120878564
1708.0,0.3932962586663258
1707.0,0.3605135107314139
1706.0,0.3268868957617663
1705.0,0.2982593675627876
1704.0,0.27827180142721186
1703.0,0.26376290109527134
1702.0,0.24918315735024543
1701.0,0.23054882059796222
1700.0,0.21161948468043668
1699.0,0.19880216554085117
1698.0,0.19037295810595034
1697.0,0.1821703002543944
1696.0,0.17347169365934856
1695.0,0.16596098184053343
1694.0,0.16083631708534996
1693.0,0.15689185800039307
1692.0,0.1531682471767426
1691.0,0.1490476002065071
1690.0,0.14496568332411575
1689.0,0.14176366457048695
1688.0,0.13936258322624528
1687.0,0.13709378643700187
1686.0,0.13442229258007088
1685.0,0.13212021654162043
1684.0,0.1304749371427727
1683.0,0.12889429901441463
1682.0,0.1270865583796048
1681.0,0.12517042212027807
1680.0,0.12320502379929943
1679.0,0.12124847982699793
1678.0,0.11935787359571504
1677.0,0.11770319906234805
1676.0,0.11611154211151953
1675.0,0.11424311893073247
1674.0,0.11238269966426384
1673.0,0.11069829749368965
1672.0,0.10913206118855912
1671.0,0.10740457717110186
1670.0,0.10568393731556158
1669.0,0.10430127304069425
1668.0,0.10308815917397474
1667.0,0.1017686154869033
1666.0,0.10028890542885538
1665.0,0.09881421986284966
1664.0,0.09734452478207412
1663.0,0.0957714836599215
1662.0,0.09436599867304518
1661.0,0.09323411045927221
1660.0,0.09215885741705532
1659.0,0.09097914578884403
1658.0,0.08974922769985194
1657.0,0.08857603462370545
1656.0,0.08751223866767632
1655.0,0.086239113587677
1654.0,0.08518101955252688
1653.0,0.08481129482684358
1652.0,0.08438913733853282
1651.0,0.08344078069888616
1650.0,0.0823369756726251
1649.0,0.08134070657817682
1648.0,0.08060807322614072
1647.0,0.08003329851661278
1646.0,0.07956359344924135
1645.0,0.07914650387874067
1644.0,0.07852161962430992
1643.0,0.07763790321520991
1642.0,0.07675598136972361
1641.0,0.07592757008963713
1640.0,0.07510073598571654
1639.0,0.07406940213152868
1638.0,0.07293775650699996
1637.0,0.07206531825882068
1636.0,0.07150173187630915
1635.0,0.07083661679493547
1634.0,0.07012147634321675
1633.0,0.06930561233546473
1632.0,0.068389593637038
1631.0,0.06747550294945781
1630.0,0.0665127121512945
1629.0,0.06560255921901192
1628.0,0.06474471821595262
1627.0,0.06388856832514578
1626.0,0.0630843190547461
1625.0,0.062381820606176586
1624.0,0.06173051653708872
1623.0,0.0611301784870133
1622.0,0.06058059667068294
1621.0,0.0601813371786204
1620.0,0.05983228596592505
1619.0,0.05963295401433477
1618.0,0.05973260855398799
1617.0,0.06038092104330195
1616.0,0.06098022355133348
1615.0,0.06098022355133348
1614.0,0.06063052992534024
1613.0,0.06003170944866376
1612.0,0.05933412752417122
1611.0,0.0583891978463662
1610.0,0.05724807957018618
1609.0,0.05606053552778367
1608.0,0.054876229877880656
1607.0,0.05369514500652506
1606.0,0.0525172634430815
1605.0,0.05144033789103841
1604.0,0.05036607620073763
1603.0,0.049294465226138895
1602.0,0.04832256265669943
1601.0,0.04744970610179822
1600.0,0.04667530361081473
1599.0,0.04585401117045196
1598.0,0.04503426894157925
1597.0,0.044312249686494276
1596.0,0.043735497301724546
1595.0,0.04320747962950522
1594.0,0.04282386959515394
1593.0,0.04253638427006878
1592.0,0.042344833056508824
1591.0,0.04210551278710151
1590.0,0.04196198390166317
1589.0,0.041914151478914974
1588.0,0.04200982159316968
1587.0,0.042201225070002124
1586.0,0.04263219156847242
1585.0,0.04339941178682327
1584.0,0.04455278942230456
1583.0,0.046047116768076934
1582.0,0.04774046340917959
1581.0,0.04934311749548925
1580.0,0.05056119896349576
1579.0,0.05119595406718891
1578.0,0.051098239029786274
1577.0,0.05026854768429301
1576.0,0.04875964967565971
1575.0,0.047062332249019345
1574.0,0.045660991397539874
1573.0,0.04440844959427559
1572.0,0.04325545471730896
1571.0,0.04196198390166317
1570.0,0.040529297924893015
1569.0,0.039338992729018196
1568.0,0.038436537637930535
1567.0,0.03777276864991497
1566.0,0.0371573187987575
1565.0,0.03658998431977123
1564.0,0.0360705779734416
1563.0,0.03559892883726867
1562.0,0.03526907894637077
1561.0,0.0349394793888016
1560.0,0.03470420418834386
1559.0,0.03437503289075727
1558.0,0.034046110897937076
1557.0,0.033905220553829274
1556.0,0.03357665405630694
1555.0,0.033201453616638954
1554.0,0.032920265855503006
1553.0,0.032592443402527316
1552.0,0.032218091924200776
1551.0,0.03175060589208267
1550.0,0.03137697904301118
1549.0,0.031190286087141805
1548.0,0.031003673351687855
1547.0,0.03067729388779794
1546.0,0.03030458888152676
1545.0,0.029932203450862893
1544.0,0.029560137048236124
1543.0,0.029188389127482228
1542.0,0.02890978686288448
1541.0,0.028816959143838528
1540.0,0.02872415126189476
1539.0,0.02849221828874393
1538.0,0.028353117935693284
1537.0,0.028214062120885508
1536.0,0.028075050815808744
1535.0,0.028028723600243666
1534.0,0.028167720075074953
1533.0,0.028353117935693284
1532.0,0.028445846553939003
1531.0,0.02839947976994095
1530.0,0.028353117935693284
1529.0,0.028306761050139073
1528.0,0.028214062120885508
1527.0,0.028028723600243666
1526.0,0.027843464140506313
1525.0,0.027658283674251827
1524.0,0.027334407733889066
1523.0,0.026872146400301444
1522.0,0.026318081496016443
1521.0,0.025856900097785074
1520.0,0.02553436426275746
1519.0,0.02521206778644225
1518.0,0.024890010313838973
1517.0,0.024660115394541604
1516.0,0.024568191490736968
1515.0,0.024706084643793647
1514.0,0.02512002699306959
1513.0,0.025902996205869
1512.0,0.02710321556345563
1511.0,0.02849221828874393
1510.0,0.030397735151460825
1509.0,0.03338901331806565
1508.0,0.03995754427315856
1507.0,0.05002482217034632
1506.0,0.05650548409389744
1505.0,0.056950888991593285
1504.0,0.05423607688882637
1503.0,0.049927370249842395
1502.0,0.04503426894157925
1501.0,0.040243327009005014
1500.0,0.03592902944204468
1499.0,0.03226486821611996
1498.0,0.029188389127482228
1497.0,0.02691835039863255
1496.0,0.025350165561278004
1495.0,0.024200690320592466
1494.0,0.023374947949272418
1493.0,0.02291687968414724
1492.0,0.022688026603074007
1491.0,0.02245929405346514
1490.0,0.022367834754000393
1489.0,0.02291687968414724
1488.0,0.023925268380126097
1487.0,0.025074013910237447
1486.0,0.026271941311972746
1485.0,0.027658283674251827
1484.0,0.02904906565457588
1483.0,0.030537492025363155
1482.0,0.03226486821611996
1481.0,0.03423403581731388
1480.0,0.03602339000339416
1479.0,0.03753595394209874
1478.0,0.038958783046687984
1477.0,0.040481623027001756
1476.0,0.04200982159316968
1475.0,0.04325545471730896
1474.0,0.04440844959427559
1473.0,0.045660991397539874
1472.0,0.04643358574299339
1471.0,0.04638525830935958
1470.0,0.045902279520810385
1469.0,0.04541983725624266
1468.0,0.044937930324967956
1467.0,0.04474531717982
1466.0,0.044937930324967956
1465.0,0.04580574818413763
1464.0,0.04686877481655505
1463.0,0.04774046340917959
1462.0,0.04841965509660828
1461.0,0.04905128560059957
1460.0,0.04968383607539972
1459.0,0.050414848673348
1458.0,0.05163594401163074
1457.0,0.05325306496641513
1456.0,0.05413767551038262
1455.0,0.054186873412661596
1454.0,0.05394093961487645
1453.0,0.05354773498692689
1452.0,0.05310580489767336
1451.0,0.052419250695677544
1450.0,0.051684859310652254
1449.0,0.050902874887084115
1448.0,0.05002482217034632
1447.0,0.04919717703534143
1446.0,0.04851676924770687
1445.0,0.04803141550708934
1444.0,0.04754660357696672
1443.0,0.04701393480294458
1442.0,0.04643358574299339
1441.0,0.04585401117045196
1440.0,0.04527520902093718
1439.0,0.04455278942230456
1438.0,0.0435434165901003
1437.0,0.04196198390166317
1436.0,0.040005161671583744
1435.0,0.03810452633214956
1434.0,0.036401037402758574
1433.0,0.03470420418834386
1432.0,0.032920265855503006
1431.0,0.03105031901865729
1430.0,0.029234840219232394
1429.0,0.027658283674251827
1428.0,0.02654885597506529
1427.0,0.025718641122169483
1426.0,0.025074013910237447
1425.0,0.024660115394541604
1424.0,0.02461415101053266
1423.0,0.025074013910237447
1422.0,0.025902996205869
1421.0,0.02747318213414429
1420.0,0.03058408764601861
1419.0,0.035740369803151095
1418.0,0.04229695845116854
1417.0,0.04987865248862655
1416.0,0.058836539841526925
1415.0,0.06956040523329987
1414.0,0.08217951800630297
1413.0,0.09653017149282994
1412.0,0.11159583226295333
1411.0,0.124996646399959
1410.0,0.13442229258007088
1409.0,0.13912320359670227
1408.0,0.1388839558386048
1407.0,0.13365357725039817
1406.0,0.12424442074194553
1405.0,0.11288929687511629
1404.0,0.10193333935836524
1403.0,0.09285746899685954
1402.0,0.08549817717268593
1401.0,0.07899019850296574
1400.0,0.07268097504034388
1399.0,0.06671522765130522
1398.0,0.06193081377661436
1397.0,0.0583395216116076
1396.0,0.055270639696704205
1395.0,0.05232126006306337
1394.0,0.049927370249842395
1393.0,0.04817696468408794
1392.0,0.04696554274964315
1391.0,0.04595055323640551
1390.0,0.04503426894157925
1389.0,0.044312249686494276
1388.0,0.0437835307566099
1387.0,0.04344740808260106
1386.0,0.043303435105349175
1385.0,0.0433514207947967
1384.0,0.0435434165901003
1383.0,0.0437835307566099
1382.0,0.044071843103049346
1381.0,0.044456557540257124
1380.0,0.044937930324967956
1379.0,0.045564513671517703
1378.0,0.046192002334692894
1377.0,0.04686877481655505
1376.0,0.047595060422975566
1375.0,0.04851676924770687
1374.0,0.04944043838819989
1373.0,0.05026854768429301
1372.0,0.050805225762017736
1371.0,0.050805225762017736
1370.0,0.05021979163799939
1369.0,0.04909991063361274
1368.0,0.04749815213697639
1367.0,0.045516282844447975
1366.0,0.04325545471730896
1365.0,0.04076775094900409
1364.0,0.03810452633214956
1363.0,0.03541041251009669
1362.0,0.0332483359486222
1361.0,0.03184406285002961
1360.0,0.031003673351687855
1359.0,0.030537492025363155
1358.0,0.03030458888152676
1357.0,0.030397735151460825
1356.0,0.030910397045078586
1355.0,0.03184406285002961
1354.0,0.033201453616638954
1353.0,0.03522197797762394
1352.0,0.03786753070176463
1351.0,0.041340572947066834
1350.0,0.04585401117045196
1349.0,0.05163594401163074
1348.0,0.058836539841526925
1347.0,0.0675769736232612
1346.0,0.07794959783282618
1345.0,0.08985603893548699
1344.0,0.10248287059947447
1343.0,0.11469533241103202
1342.0,0.12569216687196105
1341.0,0.134659094375416
1340.0,0.14032142337155173
1339.0,0.14116214857141451
1338.0,0.1367961409713705
1337.0,0.1283103343144847
1336.0,0.11690664142431006
1335.0,0.10385974855798041
1334.0,0.09028354676565531
1333.0,0.07732643214144574
1332.0,0.06570359318059427
1331.0,0.05606053552778367
1330.0,0.048565334467987054
1329.0,0.043063586155803746
1328.0,0.03919637508823026
1327.0,0.036779013477011624
1326.0,0.03541041251009669
1325.0,0.03489241415094413
1324.0,0.0349394793888016
1323.0,0.03541041251009669
1322.0,0.03621217265444465
1321.0,0.03720463014276687
1320.0,0.038341651362284734
1319.0,0.039719535563357944
1318.0,0.041197296600497646
1317.0,0.04282386959515394
1316.0,0.044456557540257124
1315.0,0.04633693625290869
1314.0,0.04841965509660828
1313.0,0.05075640943173498
1312.0,0.05330216275425803
1311.0,0.055961719945581745
1310.0,0.058737090681050264
1309.0,0.06163040254819374
1308.0,0.06459351024765114
1307.0,0.06752623532284674
1306.0,0.07032568205141221
1305.0,0.07319468988839395
1304.0,0.07618627890881036
1303.0,0.07951143534170213
1302.0,0.08328292240118751
1301.0,0.0877779434675845
1300.0,0.09285746899685954
1299.0,0.09848719087006019
1298.0,0.10446696051592963
1297.0,0.11075433910702048
1296.0,0.11724784438692004
1295.0,0.12378215940835768
1294.0,0.13018179202067182
1293.0,0.13649869935854997
1292.0,0.14284849731250704
1291.0,0.1489251947711132
1290.0,0.1548399223480541
1289.0,0.16058480731610647
1288.0,0.16634300310712757
1287.0,0.1718558926962137
1286.0,0.17711305216584927
1285.0,0.18223636771963214
1284.0,0.18735398376688117
1283.0,0.19239733008350535
1282.0,0.19736308191718943
1281.0,0.20245548563827365
1280.0,0.20788859091283163
1279.0,0.21360353862769577
1278.0,0.21961067152904712
1277.0,0.22628667472297836
1276.0,0.23388471677858602
1275.0,0.242376254091611
1274.0,0.2519671058698565
1273.0,0.263046046216854
1272.0,0.2756421957735735
1271.0,0.28945955206670293
1270.0,0.30434324006380975
1269.0,0.32020882901964565
1268.0,0.3369590251060257
1267.0,0.3540867249661557
1266.0,0.3712025144332898
1265.0,0.38817052050162637
1264.0,0.40461401919085827
1263.0,0.4197594917346237
1262.0,0.43309134477319655
1261.0,0.4446636720047332
1260.0,0.45481663178459386
1259.0,0.4630629772953265
1258.0,0.47005659834133073
1257.0,0.4767739580342989
1256.0,0.48425858333063476
1255.0,0.49241396023698925
1254.0,0.5016894462103996
1253.0,0.512720183556931
1252.0,0.5254923608830242
1251.0,0.5395532161192795
1250.0,0.5540845860488766
1249.0,0.5692801121367177
1248.0,0.5845258318907642
1247.0,0.598427154323554
1246.0,0.6094181214495646
1245.0,0.6176226965318863
1244.0,0.6221475809932455
1243.0,0.6212388246836267
1242.0,0.6145724851948695
1241.0,0.6029294500405913
1240.0,0.5870357280033371
1239.0,0.5668704824195145
1238.0,0.5433303705762424
1237.0,0.5184140636323777
1236.0,0.4928190227397591
1235.0,0.46711828059260285
1234.0,0.4418916983694503
1233.0,0.41816407594235194
1232.0,0.39609816826832867
1231.0,0.37551163748655103
1230.0,0.35634996178267087
1229.0,0.3388501427552135
1228.0,0.3228494787265672
1227.0,0.30803489723263966
1226.0,0.2940508050897044
1225.0,0.2811662816961378
1224.0,0.26913700795350604
1223.0,0.25790359769675564
1222.0,0.24703013497091586
1221.0,0.23679669962922834
1220.0,0.22694530663573742
1219.0,0.21745571598998992
1218.0,0.20823919598709506
1217.0,0.1994203784308699
1216.0,0.19111413264018795
1215.0,0.1832285876666535
1214.0,0.17574396237031764
1213.0,0.16889843549864048
1212.0,0.16266413198498508
1211.0,0.15695418946543072
1210.0,0.1515645446685292
1209.0,0.14648430324307138
1208.0,0.14182386201765573
1207.0,0.13739163603505822
1206.0,0.13318119707395182
1205.0,0.12918657608440243
1204.0,0.12546020292898974
1203.0,0.12188051530283239
1202.0,0.11844417020668851
1201.0,0.11520463605101905
1200.0,0.11210151190312767
1199.0,0.10913206118855912
1198.0,0.1062937069352865
1197.0,0.10352889952072264
1196.0,0.10089114180660053
1195.0,0.09837823590664274
1194.0,0.09593394808549704
1193.0,0.09371884422784693
1192.0,0.09167586072382083
1191.0,0.08980263003399913
1190.0,0.0881502035005799
1189.0,0.0867160982395816
1188.0,0.08549817717268593
1187.0,0.08454739831152125
1186.0,0.08402008585977572
1185.0,0.0838620168928248
1184.0,0.08407278830288423
1183.0,0.08470571697731355
1182.0,0.0856568428805593
1181.0,0.08687520961044104
1180.0,0.08836306687055773
1179.0,0.08990945440593179
1178.0,0.09140776115243066
1177.0,0.09269615116603047
1176.0,0.09366495819490939
1175.0,0.09415017335768128
1174.0,0.09398837472858723
1173.0,0.09312646527792956
1172.0,0.0916222275676053
1171.0,0.08942895151874142
1170.0,0.08682216600953208
1169.0,0.08407278830288423
1168.0,0.08144546944972642
1167.0,0.07914650387874067
1166.0,0.07732643214144574
1165.0,0.0759792995259323
1164.0,0.07510073598571654
1163.0,0.07458476291575367
1162.0,0.07427547306393745
1161.0,0.07422394616325367
1160.0,0.07427547306393745
1159.0,0.07453319930846214
1158.0,0.07494587968815725
1157.0,0.07556563645676939
1156.0,0.07644514193245056
1155.0,0.07763790321520991
1154.0,0.07914650387874067
1153.0,0.0809742354126397
1152.0,0.0832303157168639
1151.0,0.08576265223225898
1150.0,0.08862929288386212
1149.0,0.0917831469106074
1148.0,0.09523037409340485
1147.0,0.09903237608087578
1146.0,0.10325338439259446
1145.0,0.10790539730951965
1144.0,0.1130019543289007
1143.0,0.11855827805860697
1142.0,0.1244757360506914
1141.0,0.1308269726783169
1140.0,0.13763006287711765
1139.0,0.14496568332411575
1138.0,0.15292113793428452
1137.0,0.16152872092807113
1136.0,0.17101804599207693
1135.0,0.18131233655848633
1134.0,0.19246497193114664
1133.0,0.20432849405397824
1132.0,0.21695442788530706
1131.0,0.2299584456803314
1130.0,0.24313577593945102
1129.0,0.25649023527157033
1128.0,0.2700257143004443
1127.0,0.28341242232430774
1126.0,0.2965366581167068
1125.0,0.3094495384896414
1124.0,0.3221194184884095
1123.0,0.3340439705460432
1122.0,0.344861565188618
1121.0,0.354381261757305
1120.0,0.36241021416130015
1119.0,0.3681505378401819
1118.0,0.37110043557939343
1117.0,0.37140674414874075
1116.0,0.369470428573176
1115.0,0.3659259745125316
1114.0,0.36211018341920953
1113.0,0.3597173703033192
1112.0,0.3601152580836957
1111.0,0.3636124141868433
1110.0,0.37069235992625105
1109.0,0.38153350780091966
1108.0,0.3956659268970888
1107.0,0.412176828681045
1106.0,0.4299242946783959
1105.0,0.44806230463516283
1104.0,0.46584692581493736
1103.0,0.4821445810699714
1102.0,0.4966179365262673
1101.0,0.5090587946432132
1100.0,0.5192746210115122
1099.0,0.5265130299354315
1098.0,0.530177984021837
1097.0,0.5307672574933879
1096.0,0.5282683485199489
1095.0,0.5225893120927485
1094.0,0.5139948136377579
1093.0,0.5033470607490822
1092.0,0.4914702810287135
1091.0,0.4783389848879267
1090.0,0.4644527208233322
1089.0,0.45062884766682276
1088.0,0.4371126187061207
1087.0,0.4236586497942072
1086.0,0.41016205685254015
1085.0,0.3968556273798176
1084.0,0.3835244861114344
1083.0,0.3696738451960533
1082.0,0.35536449623184696
1081.0,0.3405592181296824
1080.0,0.3255062827036499
1079.0,0.3101585908624953
1078.0,0.2948207551263238
1077.0,0.28008893580166117
1076.0,0.2660808489876092
1075.0,0.25297682254837217
1074.0,0.24078556876575608
1073.0,0.22973726182940668
1072.0,0.2198267563574059
1071.0,0.21077194273266486
1070.0,0.20245548563827365
1069.0,0.19497515557019485
1068.0,0.18815699382352258
1067.0,0.18203819546800593
1066.0,0.17639537164484187
1065.0,0.1712756728612086
1064.0,0.16672536070943655
1063.0,0.16253782851400533
1062.0,0.158765704493959
1061.0,0.15539858037365328
1060.0,0.1524890347967518
1059.0,0.15002808767114995
1058.0,0.14800825203784274
1057.0,0.14648430324307138
1056.0,0.14551177495556966
1055.0,0.14484442282300614
1054.0,0.1446020033459312
1053.0,0.14472319616990825
1052.0,0.14520830594601453
1051.0,0.14581545616639335
1050.0,0.14648430324307138
1049.0,0.1472151313194523
1048.0,0.1479471913021495
1047.0,0.14861933203440336
1046.0,0.1491088158640761
1045.0,0.1494762911210057
1044.0,0.1495988520028415
1043.0,0.14923127307111983
1042.0,0.14837479684669086
1041.0,0.1471541819850033
1040.0,0.1455724942121388
1039.0,0.14369413356670102
1038.0,0.14170347546611461
1037.0,0.1396619934290062
1036.0,0.13768969004572962
1035.0,0.13572630319562085
1034.0,0.13383085236622927
1033.0,0.1320613491092153
1032.0,0.1306509192409071
1031.0,0.12971317100740865
1030.0,0.12965462891904034
1029.0,0.13123804178794973
1028.0,0.13519237097385295
1027.0,0.1423660148499919
1026.0,0.15323004646278116
1025.0,0.16787445746599094
1024.0,0.18601892436352818
1023.0,0.20683847075444928
1022.0,0.22973726182940668
1021.0,0.2536772349100471
1020.0,0.2767906895948886
1019.0,0.29533481454547084
1018.0,0.3048687022959742
1017.0,0.30242196634888674
1016.0,0.2881084501194211
1015.0,0.26512019720737245
1014.0,0.23874892569133732
1013.0,0.2135325232597176
1012.0,0.19219446772937543
1011.0,0.17509352869788763
1010.0,0.1619068615544017
1009.0,0.15168769637271562
1008.0,0.14369413356670102
1007.0,0.1373320497714121
1006.0,0.132179091954427
1005.0,0.1280769681176266
1004.0,0.12482294018529605
1003.0,0.12205304837081177
1002.0,0.11958660012208333
1001.0,0.11741854644554883
1000.0,0.11548784080960606
999.0,0.11367851344052027
998.0,0.11210151190312767
997.0,0.1106422631110684
996.0,0.10941133229451272
995.0,0.10835105612944096
994.0,0.10740457717110186
993.0,0.10673771411200872
992.0,0.1062937069352865
991.0,0.10601643278815298
990.0,0.10590557267730127
989.0,0.10590557267730127
988.0,0.1060718734573931
987.0,0.10640466618011679
986.0,0.10690433390377163
985.0,0.10768273927751948
984.0,0.10879717273970457
983.0,0.11008231656379408
982.0,0.11159583226295333
981.0,0.11339648571328764
980.0,0.11537453674376552
979.0,0.1175323851046286
978.0,0.11975822410451964
977.0,0.12188051530283239
976.0,0.12378215940835768
975.0,0.12534426740189897
974.0,0.1263307072932056
973.0,0.1267375405612734
972.0,0.12656313677796316
971.0,0.12575017722159698
970.0,0.12430223801979201
969.0,0.12234075588839133
968.0,0.12004441487725082
967.0,0.11741854644554883
966.0,0.11463877996848804
965.0,0.11187669270209155
964.0,0.10918790104487552
963.0,0.10657115822045493
962.0,0.10408045468998406
961.0,0.10165883427249067
960.0,0.09935981601739963
959.0,0.09712721455392082
958.0,0.09512223303659528
957.0,0.09328794305703592
956.0,0.09167586072382083
955.0,0.09023008526723086
954.0,0.08889568219596411
953.0,0.08767164203958999
952.0,0.08645104209348209
951.0,0.08533956941077814
950.0,0.08423093401631587
949.0,0.0832303157168639
948.0,0.08228448344050654
947.0,0.08144546944972642
946.0,0.08071265949561734
945.0,0.08013774644446192
944.0,0.07956359344924135
943.0,0.07893810920972144
942.0,0.07836553894629472
941.0,0.07784567476894111
940.0,0.07737832847680104
939.0,0.07701518429111709
938.0,0.07654873036034848
937.0,0.0760310351245288
936.0,0.07546228222451012
935.0,0.07494587968815725
934.0,0.07448164182257
933.0,0.07406940213152868
932.0,0.07365755337434488
931.0,0.0732460948102629
930.0,0.07273231918911849
929.0,0.07227044022834539
928.0,0.07175781684269089
927.0,0.07124579782334672
926.0,0.07073438174693436
925.0,0.07017251876930874
924.0,0.06966236426227002
923.0,0.0691018855898955
922.0,0.06859298644342648
921.0,0.0681862960408608
920.0,0.06798309356579857
919.0,0.06777998612288094
918.0,0.0675769736232612
917.0,0.06742477650170953
916.0,0.06727263269847072
915.0,0.0671712330991534
914.0,0.0671712330991534
913.0,0.06732334137759932
912.0,0.0676277178520861
911.0,0.0681862960408608
910.0,0.0688982543673613
909.0,0.06986635415888243
908.0,0.0709900145060387
907.0,0.07221915065262552
906.0,0.07350321072677968
905.0,0.0748426728241014
904.0,0.07613452481449845
903.0,0.07727454200674
902.0,0.07836553894629472
901.0,0.07930286553008004
900.0,0.08008551934056851
899.0,0.08071265949561734
898.0,0.08102656950704579
897.0,0.08107890990866418
896.0,0.08092190762392604
895.0,0.08055578953476306
894.0,0.08008551934056851
893.0,0.07961575782164254
892.0,0.07925073872429178
891.0,0.07904229404455076
890.0,0.07914650387874067
889.0,0.07956359344924135
888.0,0.08039897621588898
887.0,0.08186477383364066
886.0,0.08407278830288423
885.0,0.08735289378168276
884.0,0.09189045960744768
883.0,0.09767069414168117
882.0,0.10463271122663809
881.0,0.11272036546997688
880.0,0.12170805075020397
879.0,0.13153190097901324
878.0,0.14218522202899342
877.0,0.15397232463562127
876.0,0.16723569505946845
875.0,0.1811804924524636
874.0,0.19375217280420953
873.0,0.2016256233184388
872.0,0.20197120659592693
871.0,0.19436323369406505
870.0,0.18157614490792118
869.0,0.16742722515382025
868.0,0.1545918603782066
867.0,0.14405705376768396
866.0,0.13590442657575252
865.0,0.12977172098820566
864.0,0.12517042212027807
863.0,0.12176553132495593
862.0,0.11930071078129845
861.0,0.11770319906234805
860.0,0.11679296664760996
859.0,0.11622503864474187
858.0,0.11594135290606156
857.0,0.11588463798833115
856.0,0.11605480496572018
855.0,0.1165089098110701
854.0,0.11719095860756013
853.0,0.11827306462358211
852.0,0.11970100857424737
851.0,0.12136332697348307
850.0,0.12291674334934943
849.0,0.12412880927263426
848.0,0.12476505354983503
847.0,0.12459143992293642
846.0,0.1236666709136196
845.0,0.12222565000860186
844.0,0.12033079436794658
843.0,0.11815903167507247
842.0,0.11599807523121286
841.0,0.11390426756225258
840.0,0.11193288659256306
839.0,0.10997041383658313
838.0,0.10801676914803293
837.0,0.10601643278815298
836.0,0.10402526764093545
835.0,0.10193333935836524
834.0,0.09985143928065598
833.0,0.0978882765519955
832.0,0.0960964733098364
831.0,0.09436599867304518
830.0,0.09280368972839836
829.0,0.09130056764777605
828.0,0.08985603893548699
827.0,0.08857603462370545
826.0,0.08745911720936239
825.0,0.08650404038287651
824.0,0.08576265223225898
823.0,0.08502252755566908
822.0,0.08433639649422697
821.0,0.08375666953466032
820.0,0.08328292240118751
819.0,0.08291480935943274
818.0,0.08265206237222844
817.0,0.08244197917456386
816.0,0.08212704480115218
815.0,0.08181233864107451
814.0,0.08144546944972642
813.0,0.08118360963962057
812.0,0.08092190762392604
811.0,0.0805035121369384
810.0,0.08003329851661278
809.0,0.07961575782164254
808.0,0.07925073872429178
807.0,0.07883394936226118
806.0,0.07826151631540124
805.0,0.07763790321520991
804.0,0.07701518429111709
803.0,0.0763933569825408
802.0,0.07566901529132153
801.0,0.07515236702446293
800.0,0.07504911108438939
799.0,0.07587584681417514
798.0,0.07794959783282618
797.0,0.08134070657817682
796.0,0.08539243222891946
795.0,0.08916223500731646
794.0,0.09167586072382083
793.0,0.09248115389337075
792.0,0.09156860103399356
791.0,0.08932224525729482
790.0,0.08634506491338012
789.0,0.08333553545860273
788.0,0.0805035121369384
787.0,0.07789763319239285
786.0,0.07556563645676939
785.0,0.07355465218161061
784.0,0.07186029312488018
783.0,0.0702746216219956
782.0,0.06879647454924775
781.0,0.06737405597821788
780.0,0.06600683616875758
779.0,0.06474471821595262
778.0,0.06358680028852026
777.0,0.06248210798265341
776.0,0.06133019897732073
775.0,0.060081579630943294
774.0,0.058786812414678646
773.0,0.05749589383191922
772.0,0.05635711724787096
771.0,0.055172003656783764
770.0,0.05399011523423525
769.0,0.052762392129333646
768.0,0.05153812993871654
767.0,0.050317309204795935
766.0,0.04909991063361274
765.0,0.04803141550708934
764.0,0.04696554274964315
763.0,0.045902279520810385
762.0,0.044793462458058375
761.0,0.043735497301724546
760.0,0.04282386959515394
759.0,0.04181850243505214
758.0,0.04081545726880842
757.0,0.03986232513620536
756.0,0.039006291057664066
755.0,0.03824678581321739
754.0,0.03763066432997886
753.0,0.0371573187987575
752.0,0.036731748473764814
751.0,0.03621217265444465
750.0,0.03583468937826462
749.0,0.035740369803151095
748.0,0.03597620715996652
747.0,0.03644826642590382
746.0,0.03739392707587297
745.0,0.03910132267333921
744.0,0.0417706858116178
743.0,0.04570923829887308
742.0,0.0515870342213991
741.0,0.0601813371786204
740.0,0.07206531825882068
739.0,0.08719360733870762
738.0,0.10557316203581202
737.0,0.12691201440971422
736.0,0.15082636690117335
735.0,0.176525770829699
734.0,0.20370325994820848
733.0,0.23247310059161808
732.0,0.2629664686661224
731.0,0.29516339378859624
730.0,0.32938311359967454
729.0,0.36653154442041336
728.0,0.40638169187046413
727.0,0.44587441848698717
726.0,0.4800408192479315
725.0,0.5032086842999575
724.0,0.5120136688706065
723.0,0.5072396109731625
722.0,0.4929541275726743
721.0,0.47391930819797
720.0,0.45333397492981575
719.0,0.43273830764612553
718.0,0.412176828681045
717.0,0.39136701050996314
716.0,0.37048846579954686
715.0,0.3499840475281615
714.0,0.3311483519174814
713.0,0.3147062186132159
712.0,0.30068269897861777
711.0,0.28853021812567214
710.0,0.27769521312567225
709.0,0.26768667252875744
708.0,0.2582183038568333
707.0,0.24926024876464936
706.0,0.24063437834407142
705.0,0.2326214758858196
704.0,0.2251911696892941
703.0,0.21802932608744796
702.0,0.21077194273266486
701.0,0.20342566678957041
700.0,0.19592875111433883
699.0,0.1886261029461067
698.0,0.18164212204164532
697.0,0.1751585282462993
696.0,0.16928305056310244
695.0,0.16418264570652719
694.0,0.15989390554324223
693.0,0.1562690348879079
692.0,0.15304467498017615
691.0,0.14990540561329913
690.0,0.14684956355215717
689.0,0.14405705376768396
688.0,0.141884067809934
687.0,0.14032142337155173
686.0,0.1390633792999063
685.0,0.13792828062000573
684.0,0.1369151746796402
683.0,0.13620146131949973
682.0,0.13584504399797437
681.0,0.13572630319562085
680.0,0.1352516643703412
679.0,0.1340081998737246
678.0,0.13212021654162043
677.0,0.12994741830645506
676.0,0.12784372725170723
675.0,0.12586622117202761
674.0,0.12378215940835768
673.0,0.12176553132495593
672.0,0.11992991593593283
671.0,0.11827306462358211
670.0,0.11662251025166115
669.0,0.11469533241103202
668.0,0.1136220932414278
667.0,0.11503480179926728
666.0,0.1157145376603248
665.0,0.11424311893073247
664.0,0.11227020271196975
663.0,0.11053021603049262
662.0,0.10896458468468917
661.0,0.10746019534136453
660.0,0.10623823794205656
659.0,0.10540705207704448
658.0,0.10485381062400778
657.0,0.10441172433373724
656.0,0.1038045895457893
655.0,0.10292299679057959
654.0,0.10182351650232357
653.0,0.10083635852278117
652.0,0.10012480397898926
651.0,0.09963287134352972
650.0,0.09930522554760213
649.0,0.09919606518963042
648.0,0.09914149529800831
647.0,0.09892328427374508
646.0,0.09843270997155007
645.0,0.09777947172068524
644.0,0.09696430321150284
643.0,0.09598811640261173
642.0,0.09523037409340485
641.0,0.0950141189006366
640.0,0.09550084460218011
639.0,0.09653017149282994
638.0,0.0975619438013351
637.0,0.09865067458435761
636.0,0.10023419805561384
635.0,0.10242788617426934
634.0,0.10468797552421272
633.0,0.1061827760325369
632.0,0.10612732120491852
631.0,0.10441172433373724
630.0,0.1017686154869033
629.0,0.09925064193892053
628.0,0.09734452478207412
627.0,0.0960964733098364
626.0,0.09506817260434741
625.0,0.09409623378338305
624.0,0.09312646527792956
623.0,0.09226626300234453
622.0,0.09146136782804049
621.0,0.09065796163869155
620.0,0.08985603893548699
619.0,0.0892689019566193
618.0,0.08900228368935714
617.0,0.08937559511079884
616.0,0.08996287644694911
615.0,0.09017663034908807
614.0,0.08958906008531176
613.0,0.08868255767596933
612.0,0.0880970039559672
611.0,0.08825662214406838
610.0,0.08873582900163002
609.0,0.08910891135547172
608.0,0.08900228368935714
607.0,0.08841629901892434
606.0,0.08751223866767632
605.0,0.08645104209348209
604.0,0.08539243222891946
603.0,0.08438913733853282
602.0,0.08328292240118751
601.0,0.08212704480115218
600.0,0.08134070657817682
599.0,0.08113125661901543
598.0,0.0812359689720008
597.0,0.08107890990866418
596.0,0.08045124103115198
595.0,0.07966792846041071
594.0,0.07930286553008004
593.0,0.0794071379151915
592.0,0.0794071379151915
591.0,0.07883394936226118
590.0,0.07779372256098371
589.0,0.07670415934449615
588.0,0.0759792995259323
587.0,0.07551395626608493
586.0,0.07551395626608493
585.0,0.07644514193245056
584.0,0.07794959783282618
583.0,0.07899019850296574
582.0,0.07862570458152551
581.0,0.07779372256098371
580.0,0.07826151631540124
579.0,0.08066036321258663
578.0,0.0839147001562972
577.0,0.0870343792958963
576.0,0.08958906008531176
575.0,0.09119340059432579
574.0,0.09210516458371698
573.0,0.09334178232840018
572.0,0.09533854208447545
571.0,0.09739886933346864
570.0,0.09903237608087578
569.0,0.10078158214862709
568.0,0.10198826120249849
567.0,0.10132965703447017
566.0,0.09941441335003853
565.0,0.09886874864462802
564.0,0.10001543745060903
563.0,0.10165883427249067
562.0,0.10374943753836186
561.0,0.10734896612269962
560.0,0.11120293254331926
559.0,0.11277666863747693
558.0,0.11142740314240007
557.0,0.10851829616048003
556.0,0.10535169620648288
555.0,0.1033635694704158
554.0,0.10507502264045665
553.0,0.11092250734993603
552.0,0.11724784438692004
551.0,0.11947222180119477
550.0,0.11719095860756013
549.0,0.11350927482751816
548.0,0.11036219959333216
547.0,0.10768273927751948
546.0,0.1060718734573931
545.0,0.10679324694015202
544.0,0.10952309103982927
543.0,0.11243895906999102
542.0,0.11418662533951118
541.0,0.11520463605101905
540.0,0.11577123036739612
539.0,0.11503480179926728
538.0,0.1120452961911984
537.0,0.10573933555301185
536.0,0.09636748391576244
535.0,0.08719360733870762
534.0,0.08344078069888616
533.0,0.08666307406737683
532.0,0.09285746899685954
531.0,0.09734452478207412
530.0,0.09996076451267522
529.0,0.1038045895457893
528.0,0.11025022473596224
527.0,0.11702034596270106
526.0,0.12153565465853111
525.0,0.12320502379929943
524.0,0.12165057778222454
523.0,0.11582793047608719
522.0,0.10679324694015202
521.0,0.09859617317474823
520.0,0.0950141189006366
519.0,0.0964759355287379
518.0,0.10067205012234592
517.0,0.10518567091669917
516.0,0.10862982530385179
515.0,0.10980261378997125
514.0,0.10790539730951965
513.0,0.10292299679057959
512.0,0.09669292003582619
511.0,0.09264239186882706
510.0,0.09334178232840018
509.0,0.09805153492691598
508.0,0.10308815917397474
507.0,0.10518567091669917
506.0,0.10397008760377302
505.0,0.10083635852278117
504.0,0.09680145295702158
503.0,0.09269615116603047
502.0,0.09023008526723086
501.0,0.09113982698272349
500.0,0.09560907998763835
499.0,0.10215306842042837
498.0,0.10851829616048003
497.0,0.112945621949043
496.0,0.11458223488906394
495.0,0.11356568037106163
494.0,0.11036219959333216
493.0,0.10540705207704448
492.0,0.09946901754724413
491.0,0.09474395125154866
490.0,0.0937727369476411
489.0,0.09625905937846135
488.0,0.09925064193892053
487.0,0.1005625457138224
486.0,0.10089114180660053
485.0,0.10089114180660053
484.0,0.09963287134352972
483.0,0.09669292003582619
482.0,0.09458193129745807
481.0,0.0955549589230904
480.0,0.0978882765519955
479.0,0.09821485469640057
478.0,0.09663866374468144
477.0,0.09680145295702158
476.0,0.10116516193172598
475.0,0.10784972209863586
474.0,0.1136220932414278
473.0,0.11713408027837091
472.0,0.11855827805860697
471.0,0.11770319906234805
470.0,0.1141301390960936
469.0,0.1082953237608173
468.0,0.1017686154869033
467.0,0.09691001300805646
466.0,0.09550084460218011
465.0,0.09707290398273716
464.0,0.09821485469640057
463.0,0.09620485725896466
462.0,0.09205147838772776
461.0,0.0892689019566193
460.0,0.0900163050601559
459.0,0.09323411045927221
458.0,0.09636748391576244
457.0,0.0978882765519955
456.0,0.0975619438013351
455.0,0.0960964733098364
454.0,0.09517630019905599
453.0,0.09631326826349751
452.0,0.09903237608087578
451.0,0.10154908080162528
450.0,0.10259286033841963
