cm-1,A
4000.0,0.06590573164451952
3999.0,0.06610796423578891
3998.0,0.06625970050306473
3997.0,0.06646209802829528
3996.0,0.0666645899223488
3995.0,0.06676587128519196
3994.0,0.06671522765130522
3993.0,0.06661395809694559
3992.0,0.0665127121512945
3991.0,0.06641148980334699
3990.0,0.0663102910421054
3989.0,0.06625970050306473
3988.0,0.0663102910421054
3987.0,0.0663102910421054
3986.0,0.06625970050306473
3985.0,0.06610796423578891
3984.0,0.06590573164451952
3983.0,0.0658551882075229
3982.0,0.06590573164451952
3981.0,0.06605739725873905
3980.0,0.06615853710127872
3979.0,0.06625970050306473
3978.0,0.0663102910421054
3977.0,0.0663102910421054
3976.0,0.06620911585658007
3975.0,0.06600683616875758
3974.0,0.0658551882075229
3973.0,0.06575411897692884
3972.0,0.0658551882075229
3971.0,0.06605739725873905
3970.0,0.06620911585658007
3969.0,0.06636088747507496
3968.0,0.06641148980334699
3967.0,0.06641148980334699
3966.0,0.06646209802829528
3965.0,0.0665127121512945
3964.0,0.06661395809694559
3963.0,0.0666645899223488
3962.0,0.06661395809694559
3961.0,0.0665127121512945
3960.0,0.06636088747507496
3959.0,0.0663102910421054
3958.0,0.06636088747507496
3957.0,0.0665127121512945
3956.0,0.06656333217371957
3955.0,0.0665127121512945
3954.0,0.06646209802829528
3953.0,0.06636088747507496
3952.0,0.06625970050306473
3951.0,0.06610796423578891
3950.0,0.06600683616875758
3949.0,0.0659562809644747
3948.0,0.0659562809644747
3947.0,0.0658551882075229
3946.0,0.06575411897692884
3945.0,0.06570359318059427
3944.0,0.06580465065211571
3943.0,0.06590573164451952
3942.0,0.0659562809644747
3941.0,0.0659562809644747
3940.0,0.06600683616875758
3939.0,0.06636088747507496
3938.0,0.06686717627326577
3937.0,0.0671712330991534
3936.0,0.06722192993944942
3935.0,0.06712054217620067
3934.0,0.06696850489759454
3933.0,0.06676587128519196
3932.0,0.0665127121512945
3931.0,0.06625970050306473
3930.0,0.06615853710127872
3929.0,0.06625970050306473
3928.0,0.06646209802829528
3927.0,0.0666645899223488
3926.0,0.06686717627326577
3925.0,0.06686717627326577
3924.0,0.06661395809694559
3923.0,0.06610796423578891
3922.0,0.06575411897692884
3921.0,0.06575411897692884
3920.0,0.06600683616875758
3919.0,0.06625970050306473
3918.0,0.06656333217371957
3917.0,0.06701917807680191
3916.0,0.06732334137759932
3915.0,0.06737405597821788
3914.0,0.06742477650170953
3913.0,0.0676277178520861
3912.0,0.06793230779927839
3911.0,0.06813548650796819
3910.0,0.0680846829187538
3909.0,0.06777998612288094
3908.0,0.06722192993944942
3907.0,0.06646209802829528
3906.0,0.06570359318059427
3905.0,0.06514819703433927
3904.0,0.06479513257341862
3903.0,0.06454311928839007
3902.0,0.06444235490698613
3901.0,0.06484555278383164
3900.0,0.06570359318059427
3899.0,0.06656333217371957
3898.0,0.06691783763020887
3897.0,0.06681652082538614
3896.0,0.0666645899223488
3895.0,0.06646209802829528
3894.0,0.06625970050306473
3893.0,0.06610796423578891
3892.0,0.06636088747507496
3891.0,0.06681652082538614
3890.0,0.0666645899223488
3889.0,0.0658551882075229
3888.0,0.0653500770992892
3887.0,0.06570359318059427
3886.0,0.0663102910421054
3885.0,0.0665127121512945
3884.0,0.06605739725873905
3883.0,0.06550154875643233
3882.0,0.06565307326174441
3881.0,0.06625970050306473
3880.0,0.06676587128519196
3879.0,0.06671522765130522
3878.0,0.06641148980334699
3877.0,0.0663102910421054
3876.0,0.06671522765130522
3875.0,0.06701917807680191
3874.0,0.06661395809694559
3873.0,0.06560255921901192
3872.0,0.06489597884855036
3871.0,0.06519865825346338
3870.0,0.06615853710127872
3869.0,0.0666645899223488
3868.0,0.06605739725873905
3867.0,0.06550154875643233
3866.0,0.0658551882075229
3865.0,0.0665127121512945
3864.0,0.06656333217371957
3863.0,0.0663102910421054
3862.0,0.06620911585658007
3861.0,0.06625970050306473
3860.0,0.06625970050306473
3859.0,0.06615853710127872
3858.0,0.06590573164451952
3857.0,0.0655520510510299
3856.0,0.06509774167768612
3855.0,0.06474471821595262
3854.0,0.06484555278383164
3853.0,0.06560255921901192
3852.0,0.06565307326174441
3851.0,0.06454311928839007
3850.0,0.06454311928839007
3849.0,0.0659562809644747
3848.0,0.06727263269847072
3847.0,0.0678307540792078
3846.0,0.06788152797087754
3845.0,0.06777998612288094
3844.0,0.06742477650170953
3843.0,0.06671522765130522
3842.0,0.0658551882075229
3841.0,0.06504729218214189
3840.0,0.06479513257341862
3839.0,0.06504729218214189
3838.0,0.06545105233385295
3837.0,0.06570359318059427
3836.0,0.06560255921901192
3835.0,0.0655520510510299
3834.0,0.06605739725873905
3833.0,0.06696850489759454
3832.0,0.0678307540792078
3831.0,0.06823711151882228
3830.0,0.06813548650796819
3829.0,0.06793230779927839
3828.0,0.06793230779927839
3827.0,0.0680846829187538
3826.0,0.06788152797087754
3825.0,0.06712054217620067
3824.0,0.06625970050306473
3823.0,0.06590573164451952
3822.0,0.06615853710127872
3821.0,0.06646209802829528
3820.0,0.06620911585658007
3819.0,0.0653500770992892
3818.0,0.06524912533642091
3817.0,0.06656333217371957
3816.0,0.06798309356579857
3815.0,0.06828793294324442
3814.0,0.06767846801070698
3813.0,0.06742477650170953
3812.0,0.0681862960408608
3811.0,0.0688982543673613
3810.0,0.06894915322260897
3809.0,0.06869471857832687
3808.0,0.06869471857832687
3807.0,0.0688982543673613
3806.0,0.06859298644342648
3805.0,0.06747550294945781
3804.0,0.06661395809694559
3803.0,0.06681652082538614
3802.0,0.06747550294945781
3801.0,0.06772922410050963
3800.0,0.06706985716921054
3799.0,0.06610796423578891
3798.0,0.06636088747507496
3797.0,0.0675769736232612
3796.0,0.06869471857832687
3795.0,0.06915280831750303
3794.0,0.06930561233546473
3793.0,0.06961138175567827
3792.0,0.07001940948448526
3791.0,0.07012147634321675
3790.0,0.0699173666076287
3789.0,0.06956040523329987
3788.0,0.06925467168888666
3787.0,0.06894915322260897
3786.0,0.0688982543673613
3785.0,0.0691018855898955
3784.0,0.06930561233546473
3783.0,0.06925467168888666
3782.0,0.0691018855898955
3781.0,0.0691018855898955
3780.0,0.06935655895783555
3779.0,0.06966236426227002
3778.0,0.06986635415888243
3777.0,0.0699173666076287
3776.0,0.07017251876930874
3775.0,0.07047889936889606
3774.0,0.07047889936889606
3773.0,0.07007043991541217
3772.0,0.06971335275448043
3771.0,0.06971335275448043
3770.0,0.06986635415888243
3769.0,0.06966236426227002
3768.0,0.06915280831750303
3767.0,0.0688982543673613
3766.0,0.06915280831750303
3765.0,0.06956040523329987
3764.0,0.06950943469373039
3763.0,0.06915280831750303
3762.0,0.06905096883247697
3761.0,0.0692037370166998
3760.0,0.0692037370166998
3759.0,0.06894915322260897
3758.0,0.06869471857832687
3757.0,0.068389593637038
3756.0,0.06803388527182741
3755.0,0.06767846801070698
3754.0,0.06737405597821788
3753.0,0.06691783763020887
3752.0,0.06625970050306473
3751.0,0.06590573164451952
3750.0,0.06625970050306473
3749.0,0.06625970050306473
3748.0,0.0653500770992892
3747.0,0.06479513257341862
3746.0,0.06550154875643233
3745.0,0.06696850489759454
3744.0,0.06803388527182741
3743.0,0.0676277178520861
3742.0,0.06625970050306473
3741.0,0.06610796423578891
3740.0,0.06681652082538614
3739.0,0.06681652082538614
3738.0,0.06600683616875758
3737.0,0.06524912533642091
3736.0,0.06494641076893504
3735.0,0.06494641076893504
3734.0,0.06514819703433927
3733.0,0.06565307326174441
3732.0,0.06636088747507496
3731.0,0.06676587128519196
3730.0,0.06661395809694559
3729.0,0.06661395809694559
3728.0,0.06701917807680191
3727.0,0.06752623532284674
3726.0,0.06777998612288094
3725.0,0.06777998612288094
3724.0,0.0678307540792078
3723.0,0.0680846829187538
3722.0,0.06833876031551878
3721.0,0.0685421293109949
3720.0,0.06874559358358656
3719.0,0.06915280831750303
3718.0,0.06961138175567827
3717.0,0.06966236426227002
3716.0,0.0692037370166998
3715.0,0.06844043290919477
3714.0,0.06777998612288094
3713.0,0.06737405597821788
3712.0,0.06722192993944942
3711.0,0.06742477650170953
3710.0,0.06777998612288094
3709.0,0.06813548650796819
3708.0,0.0684912781333824
3707.0,0.06894915322260897
3706.0,0.06925467168888666
3705.0,0.06925467168888666
3704.0,0.0691018855898955
3703.0,0.0691018855898955
3702.0,0.06925467168888666
3701.0,0.06956040523329987
3700.0,0.06966236426227002
3699.0,0.06961138175567827
3698.0,0.06976434723371505
3697.0,0.07001940948448526
3696.0,0.07007043991541217
3695.0,0.06976434723371505
3694.0,0.06915280831750303
3693.0,0.06844043290919477
3692.0,0.0675769736232612
3691.0,0.06671522765130522
3690.0,0.06641148980334699
3689.0,0.06701917807680191
3688.0,0.06793230779927839
3687.0,0.06823711151882228
3686.0,0.06833876031551878
3685.0,0.06905096883247697
3684.0,0.07001940948448526
3683.0,0.07063217075990047
3682.0,0.07068327324650436
3681.0,0.07047889936889606
3680.0,0.07012147634321675
3679.0,0.06940751155740177
3678.0,0.0685421293109949
3677.0,0.06823711151882228
3676.0,0.06864384953207203
3675.0,0.06925467168888666
3674.0,0.06859298644342648
3673.0,0.06722192993944942
3672.0,0.06712054217620067
3671.0,0.0681862960408608
3670.0,0.06905096883247697
3669.0,0.06950943469373039
3668.0,0.06961138175567827
3667.0,0.0699173666076287
3666.0,0.07073438174693436
3665.0,0.07160414774328627
3664.0,0.07206531825882068
3663.0,0.07216786713341827
3662.0,0.07221915065262552
3661.0,0.07206531825882068
3660.0,0.07175781684269089
3659.0,0.0713481533463054
3658.0,0.07119462910671581
3657.0,0.07145053299833615
3656.0,0.0718090519612431
3655.0,0.07155293679081787
3654.0,0.07068327324650436
3653.0,0.06986635415888243
3652.0,0.06930561233546473
3651.0,0.0685421293109949
3650.0,0.06777998612288094
3649.0,0.0678307540792078
3648.0,0.06869471857832687
3647.0,0.06925467168888666
3646.0,0.06950943469373039
3645.0,0.06996838504902692
3644.0,0.07068327324650436
3643.0,0.07139934015547578
3642.0,0.0718090519612431
3641.0,0.07186029312488018
3640.0,0.07175781684269089
3639.0,0.07160414774328627
3638.0,0.07145053299833615
3637.0,0.07119462910671581
3636.0,0.0709900145060387
3635.0,0.0710411591191702
3634.0,0.07109230975604719
3633.0,0.07073438174693436
3632.0,0.07001940948448526
3631.0,0.06940751155740177
3630.0,0.06915280831750303
3629.0,0.06935655895783555
3628.0,0.06971335275448043
3627.0,0.06966236426227002
3626.0,0.06966236426227002
3625.0,0.07047889936889606
3624.0,0.0713481533463054
3623.0,0.07155293679081787
3622.0,0.07129697256940304
3621.0,0.0710411591191702
3620.0,0.07109230975604719
3619.0,0.07129697256940304
3618.0,0.07139934015547578
3617.0,0.07119462910671581
3616.0,0.07093887591523451
3615.0,0.07093887591523451
3614.0,0.0709900145060387
3613.0,0.0709900145060387
3612.0,0.07093887591523451
3611.0,0.0709900145060387
3610.0,0.07129697256940304
3609.0,0.0716553647351379
3608.0,0.07196279359311708
3607.0,0.07216786713341827
3606.0,0.07252697900472405
3605.0,0.07293775650699996
3604.0,0.07340034609297241
3603.0,0.07360609973031784
3602.0,0.07360609973031784
3601.0,0.0734517753643813
3600.0,0.07319468988839395
3599.0,0.07288638806623937
3598.0,0.07268097504034388
3597.0,0.07268097504034388
3596.0,0.07283502570063005
3595.0,0.07309189829456408
3594.0,0.07334892291111106
3593.0,0.0734517753643813
3592.0,0.07334892291111106
3591.0,0.07309189829456408
3590.0,0.07283502570063005
3589.0,0.0725783049495814
3588.0,0.07247565912497134
3587.0,0.07252697900472405
3586.0,0.0725783049495814
3585.0,0.07262963696097646
3584.0,0.07304051161972436
3583.0,0.07381195089279391
3582.0,0.07453319930846214
3581.0,0.07499749231902242
3580.0,0.07510073598571654
3579.0,0.07499749231902242
3578.0,0.07473949048056472
3577.0,0.07453319930846214
3576.0,0.07443009045662374
3575.0,0.07448164182257
3574.0,0.07473949048056472
3573.0,0.07504911108438939
3572.0,0.07520400420208784
3571.0,0.07499749231902242
3570.0,0.07443009045662374
3569.0,0.07350321072677968
3568.0,0.0725783049495814
3567.0,0.07196279359311708
3566.0,0.07186029312488018
3565.0,0.07206531825882068
3564.0,0.07252697900472405
3563.0,0.07304051161972436
3562.0,0.07355465218161061
3561.0,0.07396640332115534
3560.0,0.07437854520917098
3559.0,0.07479107858799638
3558.0,0.07515236702446293
3557.0,0.07541061433058172
3556.0,0.07541061433058172
3555.0,0.07525564752005143
3554.0,0.07504911108438939
3553.0,0.07504911108438939
3552.0,0.07525564752005143
3551.0,0.07541061433058172
3550.0,0.07551395626608493
3549.0,0.07546228222451012
3548.0,0.07541061433058172
3547.0,0.07535895258283709
3546.0,0.07541061433058172
3545.0,0.07546228222451012
3544.0,0.07551395626608493
3543.0,0.07546228222451012
3542.0,0.07541061433058172
3541.0,0.07551395626608493
3540.0,0.07566901529132153
3539.0,0.0759792995259323
3538.0,0.07628980560343712
3537.0,0.07654873036034848
3536.0,0.07680780957933253
3535.0,0.07701518429111709
3534.0,0.0772226580712021
3533.0,0.07732643214144574
3532.0,0.07732643214144574
3531.0,0.07711890879170658
3530.0,0.07680780957933253
3529.0,0.07644514193245056
3528.0,0.07613452481449845
3527.0,0.07587584681417514
3526.0,0.07566901529132153
3525.0,0.07566901529132153
3524.0,0.07582412969807906
3523.0,0.07608277688689435
3522.0,0.07628980560343712
3521.0,0.07654873036034848
3520.0,0.07675598136972361
3519.0,0.07696333132921396
3518.0,0.07717078033335123
3517.0,0.07727454200674
3516.0,0.07732643214144574
3515.0,0.07727454200674
3514.0,0.07732643214144574
3513.0,0.07737832847680104
3512.0,0.07743023101428781
3511.0,0.07748213975538865
3510.0,0.07748213975538865
3509.0,0.07758597585436577
3508.0,0.07758597585436577
3507.0,0.07748213975538865
3506.0,0.07727454200674
3505.0,0.07706704344478843
3504.0,0.07696333132921396
3503.0,0.07706704344478843
3502.0,0.07711890879170658
3501.0,0.07706704344478843
3500.0,0.07685964397479927
3499.0,0.07670415934449615
3498.0,0.07670415934449615
3497.0,0.07685964397479927
3496.0,0.07711890879170658
3495.0,0.07737832847680104
3494.0,0.07758597585436577
3493.0,0.0777417765670334
3492.0,0.07789763319239285
3491.0,0.07800156869172903
3490.0,0.07794959783282618
3489.0,0.07794959783282618
3488.0,0.07800156869172903
3487.0,0.07826151631540124
3486.0,0.07846958649875768
3485.0,0.07862570458152551
3484.0,0.07857365898473456
3483.0,0.07831352451639795
3482.0,0.07794959783282618
3481.0,0.07763790321520991
3480.0,0.07748213975538865
3479.0,0.07753405470158659
3478.0,0.07784567476894111
3477.0,0.07826151631540124
3476.0,0.07862570458152551
3475.0,0.07872981449018734
3474.0,0.07862570458152551
3473.0,0.07852161962430992
3472.0,0.07841755960658348
3471.0,0.07846958649875768
3470.0,0.07852161962430992
3469.0,0.07862570458152551
3468.0,0.07867775641617802
3467.0,0.07862570458152551
3466.0,0.07846958649875768
3465.0,0.07831352451639795
3464.0,0.07826151631540124
3463.0,0.07831352451639795
3462.0,0.07836553894629472
3461.0,0.07836553894629472
3460.0,0.07836553894629472
3459.0,0.07841755960658348
3458.0,0.07857365898473456
3457.0,0.07878187880504961
3456.0,0.07893810920972144
3455.0,0.07893810920972144
3454.0,0.0788860261633193
3453.0,0.07883394936226118
3452.0,0.07878187880504961
3451.0,0.07872981449018734
3450.0,0.07867775641617802
3449.0,0.07862570458152551
3448.0,0.07852161962430992
3447.0,0.07852161962430992
3446.0,0.07862570458152551
3445.0,0.07878187880504961
3444.0,0.07904229404455076
3443.0,0.07930286553008004
3442.0,0.07935499859321249
3441.0,0.07925073872429178
3440.0,0.07899019850296574
3439.0,0.07878187880504961
3438.0,0.07878187880504961
3437.0,0.07893810920972144
3436.0,0.07925073872429178
3435.0,0.0794592834975203
3434.0,0.07956359344924135
3433.0,0.0794592834975203
3432.0,0.07935499859321249
3431.0,0.07930286553008004
3430.0,0.07935499859321249
3429.0,0.07956359344924135
3428.0,0.07977228854307139
3427.0,0.07992887570247587
3426.0,0.07992887570247587
3425.0,0.07977228854307139
3424.0,0.07951143534170213
3423.0,0.07930286553008004
3422.0,0.07919861817434581
3421.0,0.07925073872429178
3420.0,0.07925073872429178
3419.0,0.07919861817434581
3418.0,0.07919861817434581
3417.0,0.07930286553008004
3416.0,0.07961575782164254
3415.0,0.07992887570247587
3414.0,0.08008551934056851
3413.0,0.08013774644446192
3412.0,0.08003329851661278
3411.0,0.07992887570247587
3410.0,0.07977228854307139
3409.0,0.07972010536705154
3408.0,0.07977228854307139
3407.0,0.07982447798997727
3406.0,0.07977228854307139
3405.0,0.07961575782164254
3404.0,0.0794071379151915
3403.0,0.07930286553008004
3402.0,0.0794592834975203
3401.0,0.07982447798997727
3400.0,0.08013774644446192
3399.0,0.08024221949810584
3398.0,0.08013774644446192
3397.0,0.07992887570247587
3396.0,0.07982447798997727
3395.0,0.07987667370927598
3394.0,0.07992887570247587
3393.0,0.07998108397108505
3392.0,0.07998108397108505
3391.0,0.07998108397108505
3390.0,0.07992887570247587
3389.0,0.07987667370927598
3388.0,0.07987667370927598
3387.0,0.07987667370927598
3386.0,0.07998108397108505
3385.0,0.08003329851661278
3384.0,0.08008551934056851
3383.0,0.08008551934056851
3382.0,0.08003329851661278
3381.0,0.07982447798997727
3380.0,0.0794592834975203
3379.0,0.079094395835976
3378.0,0.07893810920972144
3377.0,0.07914650387874067
3376.0,0.0794071379151915
3375.0,0.07966792846041071
3374.0,0.07982447798997727
3373.0,0.07992887570247587
3372.0,0.08008551934056851
3371.0,0.08024221949810584
3370.0,0.08029446545087904
3369.0,0.08024221949810584
3368.0,0.08008551934056851
3367.0,0.07987667370927598
3366.0,0.07966792846041071
3365.0,0.07961575782164254
3364.0,0.07972010536705154
3363.0,0.07987667370927598
3362.0,0.08003329851661278
3361.0,0.07998108397108505
3360.0,0.07992887570247587
3359.0,0.07987667370927598
3358.0,0.07992887570247587
3357.0,0.08013774644446192
3356.0,0.08029446545087904
3355.0,0.08034671768963575
3354.0,0.08039897621588898
3353.0,0.08055578953476306
3352.0,0.08081727095749947
3351.0,0.08113125661901543
3350.0,0.08134070657817682
3349.0,0.0812883346176787
3348.0,0.0809742354126397
3347.0,0.08060807322614072
3346.0,0.08039897621588898
3345.0,0.08039897621588898
3344.0,0.0805035121369384
3343.0,0.08066036321258663
3342.0,0.08076496207674921
3341.0,0.08086958613938555
3340.0,0.08092190762392604
3339.0,0.08092190762392604
3338.0,0.08086958613938555
3337.0,0.08081727095749947
3336.0,0.08076496207674921
3335.0,0.08071265949561734
3334.0,0.08071265949561734
3333.0,0.08060807322614072
3332.0,0.0805035121369384
3331.0,0.08034671768963575
3330.0,0.08018997982980403
3329.0,0.08008551934056851
3328.0,0.07998108397108505
3327.0,0.07992887570247587
3326.0,0.07998108397108505
3325.0,0.08018997982980403
3324.0,0.08039897621588898
3323.0,0.0805035121369384
3322.0,0.0805035121369384
3321.0,0.08034671768963575
3320.0,0.08008551934056851
3319.0,0.07987667370927598
3318.0,0.07972010536705154
3317.0,0.07961575782164254
3316.0,0.07966792846041071
3315.0,0.07982447798997727
3314.0,0.08013774644446192
3313.0,0.08039897621588898
3312.0,0.08045124103115198
3311.0,0.08034671768963575
3310.0,0.08029446545087904
3309.0,0.08039897621588898
3308.0,0.08060807322614072
3307.0,0.08081727095749947
3306.0,0.08092190762392604
3305.0,0.08092190762392604
3304.0,0.08076496207674921
3303.0,0.08060807322614072
3302.0,0.08045124103115198
3301.0,0.08039897621588898
3300.0,0.08039897621588898
3299.0,0.08039897621588898
3298.0,0.08045124103115198
3297.0,0.08060807322614072
3296.0,0.08071265949561734
3295.0,0.08066036321258663
3294.0,0.0805035121369384
3293.0,0.08029446545087904
3292.0,0.08018997982980403
3291.0,0.08018997982980403
3290.0,0.08024221949810584
3289.0,0.08024221949810584
3288.0,0.08024221949810584
3287.0,0.08029446545087904
3286.0,0.08029446545087904
3285.0,0.08029446545087904
3284.0,0.08029446545087904
3283.0,0.08034671768963575
3282.0,0.08039897621588898
3281.0,0.0805035121369384
3280.0,0.08060807322614072
3279.0,0.08060807322614072
3278.0,0.08055578953476306
3277.0,0.08039897621588898
3276.0,0.08024221949810584
3275.0,0.07998108397108505
3274.0,0.07982447798997727
3273.0,0.07982447798997727
3272.0,0.07998108397108505
3271.0,0.08024221949810584
3270.0,0.08034671768963575
3269.0,0.08018997982980403
3268.0,0.07987667370927598
3267.0,0.07956359344924135
3266.0,0.0794071379151915
3265.0,0.0794071379151915
3264.0,0.07951143534170213
3263.0,0.07966792846041071
3262.0,0.07972010536705154
3261.0,0.07972010536705154
3260.0,0.07966792846041071
3259.0,0.07972010536705154
3258.0,0.07977228854307139
3257.0,0.07982447798997727
3256.0,0.07982447798997727
3255.0,0.07972010536705154
3254.0,0.07961575782164254
3253.0,0.07956359344924135
3252.0,0.07956359344924135
3251.0,0.07951143534170213
3250.0,0.0794592834975203
3249.0,0.07951143534170213
3248.0,0.07956359344924135
3247.0,0.07966792846041071
3246.0,0.07966792846041071
3245.0,0.07961575782164254
3244.0,0.07961575782164254
3243.0,0.07961575782164254
3242.0,0.07961575782164254
3241.0,0.07961575782164254
3240.0,0.07961575782164254
3239.0,0.07961575782164254
3238.0,0.07956359344924135
3237.0,0.0794592834975203
3236.0,0.07935499859321249
3235.0,0.07930286553008004
3234.0,0.07930286553008004
3233.0,0.07925073872429178
3232.0,0.07919861817434581
3231.0,0.07914650387874067
3230.0,0.079094395835976
3229.0,0.079094395835976
3228.0,0.07904229404455076
3227.0,0.07899019850296574
3226.0,0.0788860261633193
3225.0,0.07878187880504961
3224.0,0.07867775641617802
3223.0,0.07862570458152551
3222.0,0.07862570458152551
3221.0,0.07867775641617802
3220.0,0.07878187880504961
3219.0,0.07893810920972144
3218.0,0.07904229404455076
3217.0,0.07914650387874067
3216.0,0.07914650387874067
3215.0,0.07904229404455076
3214.0,0.0788860261633193
3213.0,0.07883394936226118
3212.0,0.07883394936226118
3211.0,0.07893810920972144
3210.0,0.079094395835976
3209.0,0.07919861817434581
3208.0,0.07925073872429178
3207.0,0.07919861817434581
3206.0,0.079094395835976
3205.0,0.07893810920972144
3204.0,0.07878187880504961
3203.0,0.07862570458152551
3202.0,0.07846958649875768
3201.0,0.07826151631540124
3200.0,0.07805354577058976
3199.0,0.07789763319239285
3198.0,0.07784567476894111
3197.0,0.07779372256098371
3196.0,0.0777417765670334
3195.0,0.0777417765670334
3194.0,0.07789763319239285
3193.0,0.07805354577058976
3192.0,0.0781575185941421
3191.0,0.07826151631540124
3190.0,0.07820951434181311
3189.0,0.0781575185941421
3188.0,0.07800156869172903
3187.0,0.07784567476894111
3186.0,0.07768983678560404
3185.0,0.07758597585436577
3184.0,0.07737832847680104
3183.0,0.07717078033335123
3182.0,0.07717078033335123
3181.0,0.07743023101428781
3180.0,0.07768983678560404
3179.0,0.07779372256098371
3178.0,0.07763790321520991
3177.0,0.07737832847680104
3176.0,0.07717078033335123
3175.0,0.07706704344478843
3174.0,0.07701518429111709
3173.0,0.07706704344478843
3172.0,0.07706704344478843
3171.0,0.07696333132921396
3170.0,0.07685964397479927
3169.0,0.07680780957933253
3168.0,0.07685964397479927
3167.0,0.07701518429111709
3166.0,0.07706704344478843
3165.0,0.07701518429111709
3164.0,0.07691148455760066
3163.0,0.07680780957933253
3162.0,0.07670415934449615
3161.0,0.07660053384128362
3160.0,0.07654873036034848
3159.0,0.07654873036034848
3158.0,0.07660053384128362
3157.0,0.07665234350217442
3156.0,0.07665234350217442
3155.0,0.07660053384128362
3154.0,0.07644514193245056
3153.0,0.07634157820669385
3152.0,0.07628980560343712
3151.0,0.07628980560343712
3150.0,0.07628980560343712
3149.0,0.07623803917129979
3148.0,0.0760310351245288
3147.0,0.07587584681417514
3146.0,0.07572071393811841
3145.0,0.07572071393811841
3144.0,0.07577241873988227
3143.0,0.07592757008963713
3142.0,0.0760310351245288
3141.0,0.07613452481449845
3140.0,0.07613452481449845
3139.0,0.0760310351245288
3138.0,0.07572071393811841
3137.0,0.07530729697981409
3136.0,0.07489427319033615
3135.0,0.07458476291575367
3134.0,0.07453319930846214
3133.0,0.07463633264589853
3132.0,0.07489427319033615
3131.0,0.07504911108438939
3130.0,0.07515236702446293
3129.0,0.07510073598571654
3128.0,0.07494587968815725
3127.0,0.07479107858799638
3126.0,0.07468790850035045
3125.0,0.07463633264589853
3124.0,0.07468790850035045
3123.0,0.07463633264589853
3122.0,0.07448164182257
3121.0,0.07427547306393745
3120.0,0.07401789967289685
3119.0,0.07381195089279391
3118.0,0.07365755337434488
3117.0,0.07355465218161061
3116.0,0.07340034609297241
3115.0,0.07329750581735506
3114.0,0.0732460948102629
3113.0,0.0732460948102629
3112.0,0.07334892291111106
3111.0,0.0734517753643813
3110.0,0.0734517753643813
3109.0,0.07334892291111106
3108.0,0.07314329105030759
3107.0,0.07293775650699996
3106.0,0.07278366940873537
3105.0,0.07273231918911849
3104.0,0.07273231918911849
3103.0,0.07262963696097646
3102.0,0.07252697900472405
3101.0,0.07242434530888953
3100.0,0.07232173586200852
3099.0,0.07216786713341827
3098.0,0.07196279359311708
3097.0,0.07191154033502922
3096.0,0.07196279359311708
3095.0,0.07206531825882068
3094.0,0.07211658966929302
3093.0,0.07211658966929302
3092.0,0.07206531825882068
3091.0,0.0720140529005715
3090.0,0.0718090519612431
3089.0,0.07155293679081787
3088.0,0.07124579782334672
3087.0,0.07109230975604719
3086.0,0.07109230975604719
3085.0,0.07114346641808922
3084.0,0.07114346641808922
3083.0,0.0710411591191702
3082.0,0.0709900145060387
3081.0,0.07109230975604719
3080.0,0.07114346641808922
3079.0,0.07109230975604719
3078.0,0.0709900145060387
3077.0,0.07088774334533943
3076.0,0.07088774334533943
3075.0,0.07093887591523451
3074.0,0.07088774334533943
3073.0,0.07073438174693436
3072.0,0.07047889936889606
3071.0,0.07017251876930874
3070.0,0.06986635415888243
3069.0,0.06956040523329987
3068.0,0.06930561233546473
3067.0,0.06905096883247697
3066.0,0.06884736147670667
3065.0,0.06884736147670667
3064.0,0.06894915322260897
3063.0,0.0691018855898955
3062.0,0.06905096883247697
3061.0,0.06894915322260897
3060.0,0.06864384953207203
3059.0,0.06833876031551878
3058.0,0.06803388527182741
3057.0,0.06777998612288094
3056.0,0.06767846801070698
3055.0,0.0676277178520861
3054.0,0.0676277178520861
3053.0,0.0675769736232612
3052.0,0.06737405597821788
3051.0,0.06712054217620067
3050.0,0.06686717627326577
3049.0,0.0666645899223488
3048.0,0.0665127121512945
3047.0,0.06646209802829528
3046.0,0.06641148980334699
3045.0,0.06641148980334699
3044.0,0.06636088747507496
3043.0,0.06625970050306473
3042.0,0.06610796423578891
3041.0,0.0659562809644747
3040.0,0.0658551882075229
3039.0,0.06565307326174441
3038.0,0.0654005617819271
3037.0,0.06514819703433927
3036.0,0.06494641076893504
3035.0,0.06464390705442691
3034.0,0.06429125215733666
3033.0,0.06393888339001164
3032.0,0.06358680028852026
3031.0,0.06328524178879635
3030.0,0.06303410289212974
3029.0,0.06288348923294618
3028.0,0.06268275223750575
3027.0,0.06253226035662252
3026.0,0.062381820606176586
3025.0,0.062281556382736136
3024.0,0.06218131530164395
3023.0,0.06203099704854709
3022.0,0.06173051653708872
3021.0,0.061380218497318895
3020.0,0.06098022355133348
3019.0,0.06063052992534024
3018.0,0.060231224546650086
3017.0,0.05983228596592505
3016.0,0.05943371350990989
3015.0,0.059035506507200575
3014.0,0.058786812414678646
3013.0,0.05848856736559682
3012.0,0.058190526991161784
3011.0,0.05779345772290467
3010.0,0.05734718830678798
3009.0,0.057000406633959555
3008.0,0.05680236993107379
3007.0,0.05670338543334519
3006.0,0.05650548409389744
3005.0,0.05606053552778367
3004.0,0.05546797900801881
3003.0,0.054876229877880656
3002.0,0.05443294655761144
3001.0,0.05403929642243144
3000.0,0.053646002773725554
2999.0,0.05310580489767336
2998.0,0.0525172634430815
2997.0,0.05197846685889629
2996.0,0.05144033789103841
2995.0,0.05095170768433621
2994.0,0.05051241005349638
2993.0,0.050171041064686284
2992.0,0.04982994019179987
2991.0,0.04939177521576932
2990.0,0.04885683989244738
2989.0,0.04832256265669943
2988.0,0.0478374257855374
2987.0,0.04740126547022694
2986.0,0.04701393480294458
2985.0,0.04667530361081473
2984.0,0.04633693625290869
2983.0,0.04595055323640551
2982.0,0.045516282844447975
2981.0,0.04513062893352182
2980.0,0.04469717723830824
2979.0,0.044167989767578186
2978.0,0.04359142880416744
2977.0,0.04301563225723992
2976.0,0.04248848854552012
2975.0,0.04215336629184985
2974.0,0.04200982159316968
2973.0,0.04186632432376469
2972.0,0.041627267521392675
2971.0,0.04124505013091051
2970.0,0.04081545726880842
2969.0,0.040529297924893015
2968.0,0.040338629726504704
2967.0,0.040243327009005014
2966.0,0.04019568349166214
2965.0,0.0400527842915015
2964.0,0.03986232513620536
2963.0,0.03962436858984186
2962.0,0.03938654235209116
2961.0,0.03914884628031379
2960.0,0.03905380426616856
2959.0,0.03905380426616856
2958.0,0.039006291057664066
2957.0,0.039006291057664066
2956.0,0.038911280232103884
2955.0,0.03876880295533702
2954.0,0.03848398855105106
2953.0,0.038151940981675736
2952.0,0.03767802727041558
2951.0,0.03720463014276687
2950.0,0.03682628362474838
2949.0,0.03663723389626394
2948.0,0.036731748473764814
2947.0,0.037062711569998186
2946.0,0.03772539537668518
2945.0,0.03857890593355173
2944.0,0.039767126871487646
2943.0,0.04129280891271536
2942.0,0.04325545471730896
2941.0,0.04570923829887308
2940.0,0.048565334467987054
2939.0,0.05178270644002936
2938.0,0.05531996611868961
2937.0,0.05933412752417122
2936.0,0.0636873663378068
2935.0,0.0684912781333824
2934.0,0.07365755337434488
2933.0,0.07925073872429178
2932.0,0.08533956941077814
2931.0,0.0919441259012328
2930.0,0.09919606518963042
2929.0,0.10718217569042365
2928.0,0.11588463798833115
2927.0,0.12546020292898974
2926.0,0.13626089265478303
2925.0,0.14868048735125483
2924.0,0.16291684917681404
2923.0,0.1791420105603001
2922.0,0.19749993223560658
2921.0,0.21795758337944582
2920.0,0.24086118371883347
2919.0,0.2663213443229122
2918.0,0.2943073034622965
2917.0,0.3238553196437939
2916.0,0.3528127021040104
2915.0,0.37809703910876946
2914.0,0.39653084026616114
2913.0,0.40582852088508803
2912.0,0.40604970473601254
2911.0,0.39902710431325183
2910.0,0.3878521616735131
2909.0,0.374790474618119
2908.0,0.36161059233466397
2907.0,0.3493040202393891
2906.0,0.33799812061008283
2905.0,0.3279945549770482
2904.0,0.31903028153410284
2903.0,0.31104653736258214
2902.0,0.3039932847814546
2901.0,0.2978280491422889
2900.0,0.29260016886675144
2899.0,0.2881084501194211
2898.0,0.2839966563652008
2897.0,0.28025450747042324
2896.0,0.2767085535224161
2895.0,0.2733542797590882
2894.0,0.2700257143004443
2893.0,0.26664221207441474
2892.0,0.26320524507563947
2891.0,0.2596373105057561
2890.0,0.2560984495148211
2889.0,0.2523551806717519
2888.0,0.24864390027460637
2887.0,0.24473510858775338
2886.0,0.24063437834407142
2885.0,0.2364222755333547
2884.0,0.2321023839819094
2883.0,0.22767829327708022
2882.0,0.2231535913047007
2881.0,0.2183882175068499
2880.0,0.2133195468033513
2879.0,0.20795868928791772
2878.0,0.20224787134928923
2877.0,0.19633807676377568
2876.0,0.19037295810595034
2875.0,0.18455508375564977
2874.0,0.17887967622317635
2873.0,0.1733422081241307
2872.0,0.16774662980299215
2871.0,0.16222223044626682
2870.0,0.15689185800039307
2869.0,0.15181088300860135
2868.0,0.14703230897118158
2867.0,0.14248658522331015
2866.0,0.1381073096085541
2865.0,0.1340081998737246
2864.0,0.13041629228657614
2863.0,0.1275523522109867
2862.0,0.12557616941349803
2861.0,0.12464930342071079
2860.0,0.1248808345374317
2859.0,0.12650501774383094
2858.0,0.12983027886355947
2857.0,0.13519237097385295
2856.0,0.14321071124668383
2855.0,0.15440590683997568
2854.0,0.1693471862025755
2853.0,0.1887602272467106
2852.0,0.21339052735134012
2851.0,0.243439956993317
2850.0,0.2781893847874535
2849.0,0.31551370781126575
2848.0,0.35115229162710637
2847.0,0.3799681048737027
2846.0,0.3979400086720375
2845.0,0.40395299245456084
2844.0,0.40000782241590205
2843.0,0.38965928854784315
2842.0,0.37602748798300367
2841.0,0.36131111330987653
2840.0,0.3468840068344332
2839.0,0.3332013163338259
2838.0,0.32048125630421054
2837.0,0.3087416418668889
2836.0,0.2979142785641751
2835.0,0.2880241456482442
2834.0,0.27909682918654255
2833.0,0.27099729072781
2832.0,0.26360349772335767
2831.0,0.2569608451950669
2830.0,0.2509597312965428
2829.0,0.2453459307445678
2828.0,0.24033215531036944
2827.0,0.23589862352377122
2826.0,0.23180603836692848
2825.0,0.22797183467514515
2824.0,0.22424396215590203
2823.0,0.22076436832413648
2822.0,0.21745571598998992
2821.0,0.21438547505317596
2820.0,0.2115487929765445
2819.0,0.2089412564081745
2818.0,0.20662875108104428
2817.0,0.20446755728984556
2816.0,0.20238626984692432
2815.0,0.20038379551850105
2814.0,0.19832194096410682
2813.0,0.1962698290254561
2812.0,0.19436323369406505
2811.0,0.19266796070880954
2810.0,0.19111413264018795
2809.0,0.18970025895983111
2808.0,0.18829097330380895
2807.0,0.18695303483989223
2806.0,0.18561920553006184
2805.0,0.18435585086803474
2804.0,0.18302996224270052
2803.0,0.18170810920000413
2802.0,0.18032448000570733
2801.0,0.1789452449531117
2800.0,0.17770112873763355
2799.0,0.1765909851074554
2798.0,0.17574396237031764
2797.0,0.17496355877864622
2796.0,0.17411970106382046
2795.0,0.173212761183708
2794.0,0.17224313702138327
2793.0,0.1714045436282976
2792.0,0.17069622716897515
2791.0,0.17005330405836405
2790.0,0.1693471862025755
2789.0,0.16857818293497795
2788.0,0.16781053893148679
2787.0,0.16698045292346864
2786.0,0.1660882849286216
2785.0,0.16513442009996204
2784.0,0.16418264570652719
2783.0,0.16323295260579473
2782.0,0.1624115617644888
2781.0,0.16171775008531153
2780.0,0.16102504504453208
2779.0,0.1603334431175667
2778.0,0.15964294079664376
2777.0,0.1590787998012282
2776.0,0.15857795559764076
2775.0,0.15807768832054925
2774.0,0.15745316350498495
2773.0,0.15676722190199066
2772.0,0.1560823619936076
2771.0,0.15552282425431851
2770.0,0.15515019919336104
2769.0,0.15477789357098626
2768.0,0.15446788250642451
2767.0,0.1540961611012175
2766.0,0.15366288787019466
2765.0,0.1531682471767426
2764.0,0.15255073750082726
2763.0,0.15181088300860135
2762.0,0.15113378850522063
2761.0,0.1507034591652734
2760.0,0.1503963419175529
2759.0,0.15015080439474215
2758.0,0.14990540561329913
2757.0,0.14966014541652073
2756.0,0.1493537648169334
2755.0,0.14898639317633
2754.0,0.14861933203440336
2753.0,0.1482525808667361
2752.0,0.1479471913021495
2751.0,0.14764201633217278
2750.0,0.14733705565543076
2749.0,0.14691047014813452
2748.0,0.1465451586319333
2747.0,0.14630178822382556
2746.0,0.1461193498754576
2745.0,0.14581545616639335
2744.0,0.14545106418704923
2743.0,0.14514763758216587
2742.0,0.14496568332411575
2741.0,0.14490504884137811
2740.0,0.14484442282300614
2739.0,0.1446020033459312
2738.0,0.14429916916456276
2737.0,0.14405705376768396
2736.0,0.1438755557576996
2735.0,0.14357322752975565
2734.0,0.14321071124668383
2733.0,0.14284849731250704
2732.0,0.1425468829647336
2731.0,0.1423660148499919
2730.0,0.14218522202899342
2729.0,0.1419442819496357
2728.0,0.14170347546611461
2727.0,0.14140265500530758
2726.0,0.14122226269455074
2725.0,0.1410419452819942
2724.0,0.1409818561111058
2723.0,0.1409217752530305
2722.0,0.1408016384661226
2721.0,0.1407415825326932
2720.0,0.14056146454494378
2719.0,0.14032142337155173
2718.0,0.14002155835797914
2717.0,0.1397219002477652
2716.0,0.13936258322624528
2715.0,0.1390633792999063
2714.0,0.1388241644869712
2713.0,0.13864483980673992
2712.0,0.1385253311428314
2711.0,0.13834612978608907
2710.0,0.1381073096085541
2709.0,0.13780896894840278
2708.0,0.13751083309410284
2707.0,0.1374512304752069
2706.0,0.13739163603505822
2705.0,0.1373320497714121
2704.0,0.13715334001706125
2703.0,0.1367961409713705
2702.0,0.13649869935854997
2701.0,0.13620146131949973
2700.0,0.1360826230421397
2699.0,0.13596381727422502
2698.0,0.13590442657575252
2697.0,0.13584504399797437
2696.0,0.13584504399797437
2695.0,0.13584504399797437
2694.0,0.13578566953867033
2693.0,0.13566694496660703
2692.0,0.1354889189416082
2691.0,0.13531096586314884
2690.0,0.13519237097385295
2689.0,0.1350738084609946
2688.0,0.1349552783069008
2687.0,0.13483678049391368
2686.0,0.1345998818206986
2685.0,0.13442229258007088
2684.0,0.1341264717921853
2683.0,0.13394907599072514
2682.0,0.13383085236622927
2681.0,0.1337717526203528
2680.0,0.13383085236622927
2679.0,0.13383085236622927
2678.0,0.13383085236622927
2677.0,0.1337717526203528
2676.0,0.13371266091580503
2675.0,0.13359450162194508
2674.0,0.13341732293645103
2673.0,0.13324021650489182
2672.0,0.13318119707395182
2671.0,0.13318119707395182
2670.0,0.13324021650489182
2669.0,0.13335827943396006
2668.0,0.13347637446715632
2667.0,0.13353543402825974
2666.0,0.13365357725039817
2665.0,0.13365357725039817
2664.0,0.13359450162194508
2663.0,0.13341732293645103
2662.0,0.13318119707395182
2661.0,0.13306318226836056
2660.0,0.13306318226836056
2659.0,0.13318119707395182
2658.0,0.13324021650489182
2657.0,0.13324021650489182
2656.0,0.13318119707395182
2655.0,0.1331221856625011
2654.0,0.13300418688935212
2653.0,0.13300418688935212
2652.0,0.13300418688935212
2651.0,0.13294519952329842
2650.0,0.13282724882135022
2649.0,0.13270933014511588
2648.0,0.13265038281120756
2647.0,0.13259144347720886
2646.0,0.13247358880025661
2645.0,0.13229686672990226
2644.0,0.1320613491092153
2643.0,0.1318847946727828
2642.0,0.13200248965504868
2641.0,0.1322379753497993
2640.0,0.1325325121409484
2639.0,0.13265038281120756
2638.0,0.13259144347720886
2637.0,0.13247358880025661
2636.0,0.13247358880025661
2635.0,0.1325325121409484
2634.0,0.13259144347720886
2633.0,0.13259144347720886
2632.0,0.1325325121409484
2631.0,0.13259144347720886
2630.0,0.13265038281120756
2629.0,0.13259144347720886
2628.0,0.13247358880025661
2627.0,0.13235576609690147
2626.0,0.1322379753497993
2625.0,0.13212021654162043
2624.0,0.13200248965504868
2623.0,0.1318847946727828
2622.0,0.13176713157753506
2621.0,0.13176713157753506
2620.0,0.13176713157753506
2619.0,0.13176713157753506
2618.0,0.13170831198214428
2617.0,0.13159069668503998
2616.0,0.13141433344123432
2615.0,0.1312967977214634
2614.0,0.13106182166708868
2613.0,0.1308856730206247
2612.0,0.1305922506177981
2611.0,0.13024040521758962
2610.0,0.13000599987825812
2609.0,0.12983027886355947
2608.0,0.12988884463559924
2607.0,0.13006458935314003
2606.0,0.13018179202067182
2605.0,0.13024040521758962
2604.0,0.13018179202067182
2603.0,0.13006458935314003
2602.0,0.12994741830645506
2601.0,0.12988884463559924
2600.0,0.12988884463559924
2599.0,0.12994741830645506
2598.0,0.13000599987825812
2597.0,0.13006458935314003
2596.0,0.13012318673323353
2595.0,0.13018179202067182
2594.0,0.13018179202067182
2593.0,0.13012318673323353
2592.0,0.13000599987825812
2591.0,0.12977172098820566
2590.0,0.1295960947209729
2589.0,0.1294790499872358
2588.0,0.12942053944731513
2587.0,0.12930354201075
2586.0,0.12918657608440243
2585.0,0.1290696416513042
2584.0,0.12901118623942476
2583.0,0.1290696416513042
2582.0,0.12912810493225724
2581.0,0.12912810493225724
2580.0,0.12901118623942476
2579.0,0.12877744324029283
2578.0,0.1286022185125162
2577.0,0.12854382597704617
2576.0,0.1284854412916181
2575.0,0.12842706445412122
2574.0,0.1283103343144847
2573.0,0.12819363554127072
2572.0,0.1280769681176266
2571.0,0.12790202572577325
2570.0,0.12784372725170723
2569.0,0.12778543660241448
2568.0,0.12778543660241448
2567.0,0.12778543660241448
2566.0,0.12778543660241448
2565.0,0.12784372725170723
2564.0,0.12790202572577325
2563.0,0.12790202572577325
2562.0,0.12784372725170723
2561.0,0.1276688787697493
2560.0,0.12749410065407507
2559.0,0.12743585690934855
2558.0,0.12743585690934855
2557.0,0.12749410065407507
2556.0,0.12749410065407507
2555.0,0.12749410065407507
2554.0,0.1275523522109867
2553.0,0.1275523522109867
2552.0,0.12761061158217912
2551.0,0.12761061158217912
2550.0,0.1275523522109867
2549.0,0.1275523522109867
2548.0,0.12749410065407507
2547.0,0.12749410065407507
2546.0,0.12737762097471172
2545.0,0.12726117252733116
2544.0,0.12720296001040166
2543.0,0.12714475529518965
2542.0,0.1270865583796048
2541.0,0.12702836926155658
2540.0,0.12697018793895576
2539.0,0.12691201440971422
2538.0,0.12679569072295926
2537.0,0.1267375405612734
2536.0,0.12667939818460128
2535.0,0.12667939818460128
2534.0,0.1267375405612734
2533.0,0.1267375405612734
2532.0,0.1267375405612734
2531.0,0.1267375405612734
2530.0,0.1267375405612734
2529.0,0.126621263590859
2528.0,0.12656313677796316
2527.0,0.12644690648638135
2526.0,0.12644690648638135
2525.0,0.12644690648638135
2524.0,0.12650501774383094
2523.0,0.12650501774383094
2522.0,0.12638880300353272
2521.0,0.1263307072932056
2520.0,0.1263307072932056
2519.0,0.12638880300353272
2518.0,0.12638880300353272
2517.0,0.12644690648638135
2516.0,0.12644690648638135
2515.0,0.12644690648638135
2514.0,0.12644690648638135
2513.0,0.1263307072932056
2512.0,0.12621453918179926
2511.0,0.126156466776564
2510.0,0.12627261935332057
2509.0,0.12644690648638135
2508.0,0.126621263590859
2507.0,0.12667939818460128
2506.0,0.12667939818460128
2505.0,0.126621263590859
2504.0,0.12656313677796316
2503.0,0.12650501774383094
2502.0,0.12644690648638135
2501.0,0.12638880300353272
2500.0,0.12644690648638135
2499.0,0.12638880300353272
2498.0,0.1263307072932056
2497.0,0.126156466776564
2496.0,0.12598229613781387
2495.0,0.12586622117202761
2494.0,0.12586622117202761
2493.0,0.12592425477696523
2492.0,0.126156466776564
2491.0,0.1263307072932056
2490.0,0.12638880300353272
2489.0,0.12638880300353272
2488.0,0.1263307072932056
2487.0,0.12621453918179926
2486.0,0.1260984021355387
2485.0,0.12598229613781387
2484.0,0.12592425477696523
2483.0,0.12592425477696523
2482.0,0.12598229613781387
2481.0,0.1260984021355387
2480.0,0.1260984021355387
2479.0,0.1260984021355387
2478.0,0.1260984021355387
2477.0,0.1260984021355387
2476.0,0.126156466776564
2475.0,0.12621453918179926
2474.0,0.12627261935332057
2473.0,0.1263307072932056
2472.0,0.12644690648638135
2471.0,0.12656313677796316
2470.0,0.12656313677796316
2469.0,0.12644690648638135
2468.0,0.1263307072932056
2467.0,0.12627261935332057
2466.0,0.12638880300353272
2465.0,0.12650501774383094
2464.0,0.126621263590859
2463.0,0.12656313677796316
2462.0,0.12644690648638135
2461.0,0.12627261935332057
2460.0,0.12621453918179926
2459.0,0.126156466776564
2458.0,0.12592425477696523
2457.0,0.12569216687196105
2456.0,0.12551818230053358
2455.0,0.12551818230053358
2454.0,0.12569216687196105
2453.0,0.1258081953209289
2452.0,0.12586622117202761
2451.0,0.12592425477696523
2450.0,0.12598229613781387
2449.0,0.12604034525664676
2448.0,0.12604034525664676
2447.0,0.12604034525664676
2446.0,0.12598229613781387
2445.0,0.12592425477696523
2444.0,0.12592425477696523
2443.0,0.12592425477696523
2442.0,0.12598229613781387
2441.0,0.12604034525664676
2440.0,0.126156466776564
2439.0,0.12621453918179926
2438.0,0.12621453918179926
2437.0,0.12621453918179926
2436.0,0.12621453918179926
2435.0,0.126156466776564
2434.0,0.126156466776564
2433.0,0.12621453918179926
2432.0,0.1263307072932056
2431.0,0.12650501774383094
2430.0,0.12656313677796316
2429.0,0.12650501774383094
2428.0,0.12644690648638135
2427.0,0.12638880300353272
2426.0,0.1263307072932056
2425.0,0.1263307072932056
2424.0,0.1263307072932056
2423.0,0.1263307072932056
2422.0,0.1263307072932056
2421.0,0.12644690648638135
2420.0,0.126621263590859
2419.0,0.12667939818460128
2418.0,0.126621263590859
2417.0,0.12650501774383094
2416.0,0.12638880300353272
2415.0,0.12627261935332057
2414.0,0.12627261935332057
2413.0,0.1263307072932056
2412.0,0.12644690648638135
2411.0,0.126621263590859
2410.0,0.12667939818460128
2409.0,0.12667939818460128
2408.0,0.12667939818460128
2407.0,0.12667939818460128
2406.0,0.12656313677796316
2405.0,0.12650501774383094
2404.0,0.12638880300353272
2403.0,0.12638880300353272
2402.0,0.12644690648638135
2401.0,0.12650501774383094
2400.0,0.12656313677796316
2399.0,0.12656313677796316
2398.0,0.126621263590859
2397.0,0.1267375405612734
2396.0,0.12679569072295926
2395.0,0.12679569072295926
2394.0,0.12667939818460128
2393.0,0.126621263590859
2392.0,0.126621263590859
2391.0,0.126621263590859
2390.0,0.12650501774383094
2389.0,0.12627261935332057
2388.0,0.12586622117202761
2387.0,0.12540223129680017
2386.0,0.1248808345374317
2385.0,0.12424442074194553
2384.0,0.12349349573411894
2383.0,0.12268625668776156
2382.0,0.12176553132495593
2381.0,0.12090412049992727
2380.0,0.1201016756699902
2379.0,0.11941504393502012
2378.0,0.11890078161098283
2377.0,0.11861534322942724
2376.0,0.11872949607064243
2375.0,0.11918640771920863
2374.0,0.11964380058076385
2373.0,0.11970100857424737
2372.0,0.11924355548978971
2371.0,0.11815903167507247
2370.0,0.11684980031672243
2369.0,0.11588463798833115
2368.0,0.11531789579397489
2367.0,0.1145256971708426
2366.0,0.11317099532301778
2365.0,0.11215773489264302
2364.0,0.11215773489264302
2363.0,0.11288929687511629
2362.0,0.11396072443355765
2361.0,0.11503480179926728
2360.0,0.11599807523121286
2359.0,0.11622503864474187
2358.0,0.1148084593931522
2357.0,0.1130019543289007
2356.0,0.11266406960083297
2355.0,0.11429961987167014
2354.0,0.11702034596270106
2353.0,0.11930071078129845
2352.0,0.11935787359571504
2351.0,0.1149782051377024
2350.0,0.1075158206353124
2349.0,0.1014393550602879
2348.0,0.10034361969436434
2347.0,0.10435649517592083
2346.0,0.10974669484546551
2345.0,0.11317099532301778
2344.0,0.1137349409702435
2343.0,0.11311464101399138
2342.0,0.11356568037106163
2341.0,0.11503480179926728
2340.0,0.11684980031672243
2339.0,0.11781711236973003
2338.0,0.11804502866039956
2337.0,0.11787408022996826
2336.0,0.11787408022996826
2335.0,0.11810202642698875
2334.0,0.11884367892443626
2333.0,0.1199871616332282
2332.0,0.12170805075020397
2331.0,0.1233203895807995
2330.0,0.12476505354983503
2329.0,0.12586622117202761
2328.0,0.126156466776564
2327.0,0.1260984021355387
2326.0,0.1258081953209289
2325.0,0.126156466776564
2324.0,0.12650501774383094
2323.0,0.12650501774383094
2322.0,0.12621453918179926
2321.0,0.12592425477696523
2320.0,0.12604034525664676
2319.0,0.12604034525664676
2318.0,0.12586622117202761
2317.0,0.12551818230053358
2316.0,0.1252863112422209
2315.0,0.1252863112422209
2314.0,0.1252863112422209
2313.0,0.12522836281570182
2312.0,0.1248808345374317
2311.0,0.12470717462899183
2310.0,0.12464930342071079
2309.0,0.125054563914468
2308.0,0.12551818230053358
2307.0,0.12604034525664676
2306.0,0.12638880300353272
2305.0,0.12656313677796316
2304.0,0.12650501774383094
2303.0,0.12638880300353272
2302.0,0.1263307072932056
2301.0,0.12644690648638135
2300.0,0.12667939818460128
2299.0,0.12691201440971422
2298.0,0.12691201440971422
2297.0,0.12697018793895576
2296.0,0.1270865583796048
2295.0,0.12737762097471172
2294.0,0.12761061158217912
2293.0,0.12790202572577325
2292.0,0.1280186461566306
2291.0,0.1280769681176266
2290.0,0.1280769681176266
2289.0,0.1281352979118051
2288.0,0.1282519810081284
2287.0,0.1284854412916181
2286.0,0.12883586719705065
2285.0,0.1290696416513042
2284.0,0.12912810493225724
2283.0,0.12901118623942476
2282.0,0.12866061890013913
2281.0,0.12836869546244634
2280.0,0.1282519810081284
2279.0,0.12819363554127072
2278.0,0.1282519810081284
2277.0,0.12836869546244634
2276.0,0.12842706445412122
2275.0,0.12854382597704617
2274.0,0.12854382597704617
2273.0,0.1286022185125162
2272.0,0.1286022185125162
2271.0,0.12854382597704617
2270.0,0.12854382597704617
2269.0,0.1286022185125162
2268.0,0.1287190271420271
2267.0,0.12889429901441463
2266.0,0.12895273869450063
2265.0,0.1290696416513042
2264.0,0.1290696416513042
2263.0,0.12912810493225724
2262.0,0.1290696416513042
2261.0,0.12895273869450063
2260.0,0.12895273869450063
2259.0,0.1290696416513042
2258.0,0.12918657608440243
2257.0,0.12930354201075
2256.0,0.12942053944731513
2255.0,0.1294790499872358
2254.0,0.1294790499872358
2253.0,0.12942053944731513
2252.0,0.12942053944731513
2251.0,0.1294790499872358
2250.0,0.1295960947209729
2249.0,0.12971317100740865
2248.0,0.12965462891904034
2247.0,0.1295960947209729
2246.0,0.1294790499872358
2245.0,0.12942053944731513
2244.0,0.12942053944731513
2243.0,0.1294790499872358
2242.0,0.1295960947209729
2241.0,0.12971317100740865
2240.0,0.12983027886355947
2239.0,0.12988884463559924
2238.0,0.13000599987825812
2237.0,0.13006458935314003
2236.0,0.13018179202067182
2235.0,0.13024040521758962
2234.0,0.13018179202067182
2233.0,0.13006458935314003
2232.0,0.12994741830645506
2231.0,0.12983027886355947
2230.0,0.12965462891904034
2229.0,0.1295960947209729
2228.0,0.1295960947209729
2227.0,0.12965462891904034
2226.0,0.12983027886355947
2225.0,0.12994741830645506
2224.0,0.13006458935314003
2223.0,0.13000599987825812
2222.0,0.13000599987825812
2221.0,0.12994741830645506
2220.0,0.12994741830645506
2219.0,0.12994741830645506
2218.0,0.12994741830645506
2217.0,0.13000599987825812
2216.0,0.13018179202067182
2215.0,0.13024040521758962
2214.0,0.1302990263261221
2213.0,0.13024040521758962
2212.0,0.13018179202067182
2211.0,0.13018179202067182
2210.0,0.13018179202067182
2209.0,0.13018179202067182
2208.0,0.1302990263261221
2207.0,0.13035765534840538
2206.0,0.13041629228657614
2205.0,0.13041629228657614
2204.0,0.1304749371427727
2203.0,0.13053358991913355
2202.0,0.1306509192409071
2201.0,0.1308269726783169
2200.0,0.13094438129809216
2199.0,0.1308856730206247
2198.0,0.13070959579060148
2197.0,0.13053358991913355
2196.0,0.1304749371427727
2195.0,0.1304749371427727
2194.0,0.1304749371427727
2193.0,0.1304749371427727
2192.0,0.13041629228657614
2191.0,0.1304749371427727
2190.0,0.1305922506177981
2189.0,0.13070959579060148
2188.0,0.13076828026902376
2187.0,0.13070959579060148
2186.0,0.1305922506177981
2185.0,0.1306509192409071
2184.0,0.13076828026902376
2183.0,0.13094438129809216
2182.0,0.13100309751286465
2181.0,0.13106182166708868
2180.0,0.1311205537629121
2179.0,0.1312967977214634
2178.0,0.13141433344123432
2177.0,0.1314731132317961
2176.0,0.13141433344123432
2175.0,0.1312967977214634
2174.0,0.1311792938024825
2173.0,0.1311205537629121
2172.0,0.1311792938024825
2171.0,0.13123804178794973
2170.0,0.1312967977214634
2169.0,0.13123804178794973
2168.0,0.1311792938024825
2167.0,0.1311205537629121
2166.0,0.1311792938024825
2165.0,0.13135556160517425
2164.0,0.13159069668503998
2163.0,0.13176713157753506
2162.0,0.13182595914036166
2161.0,0.13170831198214428
2160.0,0.13141433344123432
2159.0,0.13123804178794973
2158.0,0.13123804178794973
2157.0,0.13141433344123432
2156.0,0.13170831198214428
2155.0,0.13194363817695853
2154.0,0.13212021654162043
2153.0,0.13212021654162043
2152.0,0.132179091954427
2151.0,0.1322379753497993
2150.0,0.13229686672990226
2149.0,0.13229686672990226
2148.0,0.132179091954427
2147.0,0.13200248965504868
2146.0,0.1318847946727828
2145.0,0.13194363817695853
2144.0,0.13212021654162043
2143.0,0.13229686672990226
2142.0,0.13241467345296387
2141.0,0.13241467345296387
2140.0,0.13241467345296387
2139.0,0.13241467345296387
2138.0,0.13241467345296387
2137.0,0.1325325121409484
2136.0,0.13259144347720886
2135.0,0.13265038281120756
2134.0,0.13270933014511588
2133.0,0.13276828548110586
2132.0,0.13282724882135022
2131.0,0.13282724882135022
2130.0,0.13276828548110586
2129.0,0.13276828548110586
2128.0,0.13276828548110586
2127.0,0.13270933014511588
2126.0,0.13259144347720886
2125.0,0.13247358880025661
2124.0,0.13235576609690147
2123.0,0.1322379753497993
2122.0,0.1322379753497993
2121.0,0.13235576609690147
2120.0,0.13247358880025661
2119.0,0.13259144347720886
2118.0,0.13265038281120756
2117.0,0.13265038281120756
2116.0,0.13259144347720886
2115.0,0.1325325121409484
2114.0,0.13247358880025661
2113.0,0.13241467345296387
2112.0,0.13247358880025661
2111.0,0.13247358880025661
2110.0,0.1325325121409484
2109.0,0.13259144347720886
2108.0,0.13270933014511588
2107.0,0.13282724882135022
2106.0,0.13300418688935212
2105.0,0.1331221856625011
2104.0,0.13324021650489182
2103.0,0.13324021650489182
2102.0,0.13329924395750092
2101.0,0.13341732293645103
2100.0,0.13335827943396006
2099.0,0.13318119707395182
2098.0,0.13288622016802298
2097.0,0.13276828548110586
2096.0,0.13282724882135022
2095.0,0.13300418688935212
2094.0,0.13318119707395182
2093.0,0.13324021650489182
2092.0,0.13324021650489182
2091.0,0.13324021650489182
2090.0,0.13324021650489182
2089.0,0.13335827943396006
2088.0,0.13335827943396006
2087.0,0.13335827943396006
2086.0,0.13329924395750092
2085.0,0.13324021650489182
2084.0,0.13329924395750092
2083.0,0.13335827943396006
2082.0,0.13341732293645103
2081.0,0.13353543402825974
2080.0,0.13365357725039817
2079.0,0.1337717526203528
2078.0,0.13383085236622927
2077.0,0.1337717526203528
2076.0,0.13365357725039817
2075.0,0.13353543402825974
2074.0,0.13353543402825974
2073.0,0.13365357725039817
2072.0,0.13383085236622927
2071.0,0.13394907599072514
2070.0,0.1340081998737246
2069.0,0.1340081998737246
2068.0,0.13394907599072514
2067.0,0.1340081998737246
2066.0,0.1341264717921853
2065.0,0.13436311230037123
2064.0,0.13448148092522594
2063.0,0.13448148092522594
2062.0,0.13442229258007088
2061.0,0.13430394008392943
2060.0,0.13418561983203192
2059.0,0.1341264717921853
2058.0,0.13418561983203192
2057.0,0.13430394008392943
2056.0,0.13442229258007088
2055.0,0.13454067733803532
2054.0,0.1345998818206986
2053.0,0.134659094375416
2052.0,0.13471831500438958
2051.0,0.13477754370982087
2050.0,0.13477754370982087
2049.0,0.13489602535887202
2048.0,0.1349552783069008
2047.0,0.1349552783069008
2046.0,0.13489602535887202
2045.0,0.13489602535887202
2044.0,0.13489602535887202
2043.0,0.13489602535887202
2042.0,0.13477754370982087
2041.0,0.13471831500438958
2040.0,0.13471831500438958
2039.0,0.13477754370982087
2038.0,0.13489602535887202
2037.0,0.1349552783069008
2036.0,0.13501453934020602
2035.0,0.13501453934020602
2034.0,0.13501453934020602
2033.0,0.13513308567147386
2032.0,0.1352516643703412
2031.0,0.13531096586314884
2030.0,0.13537027545448765
2029.0,0.13542959314656988
2028.0,0.13554825284181704
2027.0,0.13554825284181704
2026.0,0.1354889189416082
2025.0,0.1354889189416082
2024.0,0.13560759484941132
2023.0,0.13578566953867033
2022.0,0.13596381727422502
2021.0,0.1360826230421397
2020.0,0.1360826230421397
2019.0,0.13596381727422502
2018.0,0.13590442657575252
2017.0,0.13590442657575252
2016.0,0.13596381727422502
2015.0,0.1360826230421397
2014.0,0.136142038116027
2013.0,0.136142038116027
2012.0,0.136142038116027
2011.0,0.1360232160956132
2010.0,0.13590442657575252
2009.0,0.13578566953867033
2008.0,0.13584504399797437
2007.0,0.13584504399797437
2006.0,0.13584504399797437
2005.0,0.13578566953867033
2004.0,0.13584504399797437
2003.0,0.13590442657575252
2002.0,0.1360232160956132
2001.0,0.1360826230421397
2000.0,0.136142038116027
1999.0,0.13620146131949973
1998.0,0.13626089265478303
1997.0,0.13626089265478303
1996.0,0.13632033212410222
1995.0,0.13626089265478303
1994.0,0.13620146131949973
1993.0,0.136142038116027
1992.0,0.136142038116027
1991.0,0.13620146131949973
1990.0,0.13620146131949973
1989.0,0.13620146131949973
1988.0,0.13620146131949973
1987.0,0.13620146131949973
1986.0,0.13626089265478303
1985.0,0.13643923547375736
1984.0,0.13661765155921235
1983.0,0.1366771398795441
1982.0,0.13661765155921235
1981.0,0.13661765155921235
1980.0,0.13655817138629134
1979.0,0.13655817138629134
1978.0,0.13649869935854997
1977.0,0.13643923547375736
1976.0,0.13643923547375736
1975.0,0.13655817138629134
1974.0,0.13661765155921235
1973.0,0.13673663634951905
1972.0,0.1367961409713705
1971.0,0.13685565374733244
1970.0,0.1369151746796402
1969.0,0.1369151746796402
1968.0,0.13697470377052956
1967.0,0.1369151746796402
1966.0,0.1369151746796402
1965.0,0.13685565374733244
1964.0,0.13685565374733244
1963.0,0.1369151746796402
1962.0,0.1370342410222376
1961.0,0.13709378643700187
1960.0,0.13709378643700187
1959.0,0.13715334001706125
1958.0,0.13721290176465573
1957.0,0.13727247168202528
1956.0,0.13739163603505822
1955.0,0.1374512304752069
1954.0,0.1375704438939911
1953.0,0.13763006287711765
1952.0,0.13774932540207496
1951.0,0.13780896894840278
1950.0,0.13780896894840278
1949.0,0.13774932540207496
1948.0,0.13768969004572962
1947.0,0.13763006287711765
1946.0,0.1375704438939911
1945.0,0.13763006287711765
1944.0,0.13774932540207496
1943.0,0.13792828062000573
1942.0,0.1381073096085541
1941.0,0.13822670328130693
1940.0,0.13816700234205515
1939.0,0.13822670328130693
1938.0,0.13822670328130693
1937.0,0.13822670328130693
1936.0,0.13816700234205515
1935.0,0.13816700234205515
1934.0,0.1381073096085541
1933.0,0.13816700234205515
1932.0,0.13816700234205515
1931.0,0.13816700234205515
1930.0,0.1380476250785483
1929.0,0.13786862068696282
1928.0,0.13780896894840278
1927.0,0.13774932540207496
1926.0,0.13774932540207496
1925.0,0.13774932540207496
1924.0,0.13780896894840278
1923.0,0.13786862068696282
1922.0,0.13798794874978348
1921.0,0.13816700234205515
1920.0,0.1384058553561347
1919.0,0.13858508136400327
1918.0,0.13864483980673992
1917.0,0.13858508136400327
1916.0,0.1384058553561347
1915.0,0.13834612978608907
1914.0,0.13846558914096208
1913.0,0.13858508136400327
1912.0,0.13870460647330418
1911.0,0.13864483980673992
1910.0,0.13858508136400327
1909.0,0.1385253311428314
1908.0,0.13858508136400327
1907.0,0.13870460647330418
1906.0,0.1388839558386048
1905.0,0.13912320359670227
1904.0,0.1394224487555844
1903.0,0.1397219002477652
1902.0,0.14002155835797914
1901.0,0.14014147951900724
1900.0,0.14014147951900724
1899.0,0.1399616101928065
1898.0,0.1397219002477652
1897.0,0.13960209487268727
1896.0,0.1396619934290062
1895.0,0.1397219002477652
1894.0,0.13984173868172167
1893.0,0.14002155835797914
1892.0,0.14014147951900724
1891.0,0.14038142122781938
1890.0,0.14062149557439896
1889.0,0.14086170270546927
1888.0,0.1409217752530305
1887.0,0.14068153490288382
1886.0,0.14026143380285316
1885.0,0.14002155835797914
1884.0,0.13990167030148193
1883.0,0.13978181533124334
1882.0,0.1397219002477652
1881.0,0.1397219002477652
1880.0,0.13978181533124334
1879.0,0.13990167030148193
1878.0,0.14002155835797914
1877.0,0.14014147951900724
1876.0,0.1402014525194344
1875.0,0.1402014525194344
1874.0,0.14014147951900724
1873.0,0.1400815147992842
1872.0,0.1399616101928065
1871.0,0.13984173868172167
1870.0,0.13960209487268727
1869.0,0.13954220457652888
1868.0,0.13960209487268727
1867.0,0.13978181533124334
1866.0,0.1399616101928065
1865.0,0.1402014525194344
1864.0,0.14032142337155173
1863.0,0.14026143380285316
1862.0,0.1402014525194344
1861.0,0.1402014525194344
1860.0,0.14026143380285316
1859.0,0.14026143380285316
1858.0,0.14026143380285316
1857.0,0.14026143380285316
1856.0,0.14038142122781938
1855.0,0.14038142122781938
1854.0,0.14032142337155173
1853.0,0.14032142337155173
1852.0,0.14026143380285316
1851.0,0.14026143380285316
1850.0,0.1402014525194344
1849.0,0.14014147951900724
1848.0,0.1400815147992842
1847.0,0.14014147951900724
1846.0,0.14038142122781938
1845.0,0.1407415825326932
1844.0,0.1409217752530305
1843.0,0.1408016384661226
1842.0,0.14056146454494378
1841.0,0.1405014418122239
1840.0,0.14056146454494378
1839.0,0.14062149557439896
1838.0,0.14056146454494378
1837.0,0.14068153490288382
1836.0,0.14086170270546927
1835.0,0.1409217752530305
1834.0,0.1409217752530305
1833.0,0.1409217752530305
1832.0,0.14086170270546927
1831.0,0.1408016384661226
1830.0,0.14068153490288382
1829.0,0.14056146454494378
1828.0,0.1405014418122239
1827.0,0.1405014418122239
1826.0,0.14056146454494378
1825.0,0.14068153490288382
1824.0,0.1408016384661226
1823.0,0.1409217752530305
1822.0,0.1410419452819942
1821.0,0.14110204276799654
1820.0,0.14116214857141451
1819.0,0.14128238513970826
1818.0,0.1413425159091921
1817.0,0.1414628024303608
1816.0,0.14164329470222659
1815.0,0.14164329470222659
1814.0,0.14140265500530758
1813.0,0.14122226269455074
1812.0,0.14110204276799654
1811.0,0.14116214857141451
1810.0,0.14128238513970826
1809.0,0.1414628024303608
1808.0,0.14164329470222659
1807.0,0.14170347546611461
1806.0,0.14164329470222659
1805.0,0.1415831222765116
1804.0,0.1414628024303608
1803.0,0.14140265500530758
1802.0,0.14128238513970826
1801.0,0.14128238513970826
1800.0,0.14140265500530758
1799.0,0.14140265500530758
1798.0,0.1413425159091921
1797.0,0.1413425159091921
1796.0,0.14140265500530758
1795.0,0.1415229581866595
1794.0,0.1415831222765116
1793.0,0.14170347546611461
1792.0,0.14200450443907608
1791.0,0.14224547794055775
1790.0,0.14224547794055775
1789.0,0.14230574221345038
1788.0,0.1423660148499919
1787.0,0.1423660148499919
1786.0,0.1423660148499919
1785.0,0.14242629585250421
1784.0,0.14242629585250421
1783.0,0.1423660148499919
1782.0,0.1423660148499919
1781.0,0.1423660148499919
1780.0,0.1423660148499919
1779.0,0.14230574221345038
1778.0,0.14218522202899342
1777.0,0.14206473528057106
1776.0,0.1419442819496357
1775.0,0.1419442819496357
1774.0,0.1419442819496357
1773.0,0.141884067809934
1772.0,0.14200450443907608
1771.0,0.14224547794055775
1770.0,0.14242629585250421
1769.0,0.14266750356873148
1768.0,0.14290884532648618
1767.0,0.14290884532648618
1766.0,0.1427881576831076
1765.0,0.14266750356873148
1764.0,0.1427278264359586
1763.0,0.14290884532648618
1762.0,0.14315032127482774
1761.0,0.14333151638846497
1760.0,0.14339193156306385
1759.0,0.14339193156306385
1758.0,0.14357322752975565
1757.0,0.14381507327283027
1756.0,0.143996546002779
1755.0,0.14417809459397013
1754.0,0.14423862766005224
1753.0,0.14429916916456276
1752.0,0.14423862766005224
1751.0,0.14429916916456276
1750.0,0.14435971910985468
1749.0,0.14435971910985468
1748.0,0.14454141961396383
1747.0,0.14484442282300614
1746.0,0.14514763758216587
1745.0,0.14526898278605782
1744.0,0.14526898278605782
1743.0,0.14539036190420496
1742.0,0.14551177495556966
1741.0,0.14575470293388149
1740.0,0.14605855411951008
1739.0,0.14630178822382556
1738.0,0.14642345638035836
1737.0,0.1466060225493342
1736.0,0.14691047014813452
1735.0,0.14697138528701026
1734.0,0.14691047014813452
1733.0,0.14666689499766483
1732.0,0.14624096692523136
1731.0,0.1463626180414057
1730.0,0.146788665496683
1729.0,0.14697138528701026
1728.0,0.14697138528701026
1727.0,0.14691047014813452
1726.0,0.14684956355215717
1725.0,0.146788665496683
1724.0,0.14684956355215717
1723.0,0.14697138528701026
1722.0,0.14697138528701026
1721.0,0.14709324120304634
1720.0,0.1472151313194523
1719.0,0.1471541819850033
1718.0,0.146788665496683
1717.0,0.1465451586319333
1716.0,0.14648430324307138
1715.0,0.1465451586319333
1714.0,0.14672777597931685
1713.0,0.14697138528701026
1712.0,0.1472151313194523
1711.0,0.1472760892087941
1710.0,0.1472760892087941
1709.0,0.14733705565543076
1708.0,0.14733705565543076
1707.0,0.14739803066176504
1706.0,0.14739803066176504
1705.0,0.14733705565543076
1704.0,0.14733705565543076
1703.0,0.1475810070629986
1702.0,0.14813039927023364
1701.0,0.14855818532794496
1700.0,0.14880282382583943
1699.0,0.1482525808667361
1698.0,0.14776406058811253
1697.0,0.14819148577176255
1696.0,0.14880282382583943
1695.0,0.14880282382583943
1694.0,0.14837479684669086
1693.0,0.14843591773651155
1692.0,0.148864004988426
1691.0,0.1490476002065071
1690.0,0.148864004988426
1689.0,0.14880282382583943
1688.0,0.1490476002065071
1687.0,0.1494762911210057
1686.0,0.1495988520028415
1685.0,0.1493537648169334
1684.0,0.14929251462546267
1683.0,0.14923127307111983
1682.0,0.14898639317633
1681.0,0.14923127307111983
1680.0,0.14953756723848333
1679.0,0.1497214474819628
1678.0,0.1499667423102311
1677.0,0.1503963419175529
1676.0,0.15088783381542248
1675.0,0.15131834597604965
1674.0,0.1513798825658661
1673.0,0.15107228677292173
1672.0,0.1509493094304879
1671.0,0.1509493094304879
1670.0,0.15119529894819617
1669.0,0.15168769637271562
1668.0,0.15181088300860135
1667.0,0.1517492853229574
1666.0,0.1517492853229574
1665.0,0.15162611615539823
1664.0,0.1513798825658661
1663.0,0.15113378850522063
1662.0,0.15125681810431635
1661.0,0.1514414278762366
1660.0,0.1517492853229574
1659.0,0.1519957285027318
1658.0,0.15211900255462485
1657.0,0.15205736115477642
1656.0,0.15205736115477642
1655.0,0.15211900255462485
1654.0,0.15211900255462485
1653.0,0.15279763601907614
1652.0,0.15236565568174498
1651.0,0.1509493094304879
1650.0,0.15088783381542248
1649.0,0.15125681810431635
1648.0,0.15119529894819617
1647.0,0.15125681810431635
1646.0,0.15168769637271562
1645.0,0.15187248943212528
1644.0,0.1517492853229574
1643.0,0.1517492853229574
1642.0,0.1517492853229574
1641.0,0.1517492853229574
1640.0,0.15168769637271562
1639.0,0.15168769637271562
1638.0,0.15181088300860135
1637.0,0.15205736115477642
1636.0,0.15242734085788778
1635.0,0.15279763601907614
1634.0,0.15242734085788778
1633.0,0.15205736115477642
1632.0,0.15211900255462485
1631.0,0.15218065270476067
1630.0,0.15218065270476067
1629.0,0.15205736115477642
1628.0,0.1519957285027318
1627.0,0.15187248943212528
1626.0,0.1517492853229574
1625.0,0.15168769637271562
1624.0,0.15162611615539823
1623.0,0.15181088300860135
1622.0,0.1519957285027318
1621.0,0.1519957285027318
1620.0,0.15193410459600853
1619.0,0.15193410459600853
1618.0,0.15187248943212528
1617.0,0.15181088300860135
1616.0,0.15187248943212528
1615.0,0.15181088300860135
1614.0,0.15187248943212528
1613.0,0.15211900255462485
1612.0,0.15211900255462485
1611.0,0.1519957285027318
1610.0,0.15193410459600853
1609.0,0.1519957285027318
1608.0,0.15205736115477642
1607.0,0.15218065270476067
1606.0,0.1523039792658345
1605.0,0.15224231160766877
1604.0,0.15211900255462485
1603.0,0.15218065270476067
1602.0,0.15242734085788778
1601.0,0.15267416921457633
1600.0,0.1527358982292355
1599.0,0.15267416921457633
1598.0,0.15261244897260462
1597.0,0.15255073750082726
1596.0,0.15242734085788778
1595.0,0.15242734085788778
1594.0,0.15236565568174498
1593.0,0.1523039792658345
1592.0,0.15224231160766877
1591.0,0.1523039792658345
1590.0,0.1524890347967518
1589.0,0.15261244897260462
1588.0,0.15267416921457633
1587.0,0.15261244897260462
1586.0,0.15267416921457633
1585.0,0.1527358982292355
1584.0,0.1527358982292355
1583.0,0.1527358982292355
1582.0,0.1527358982292355
1581.0,0.15255073750082726
1580.0,0.15236565568174498
1579.0,0.15236565568174498
1578.0,0.15242734085788778
1577.0,0.15242734085788778
1576.0,0.15242734085788778
1575.0,0.15236565568174498
1574.0,0.15224231160766877
1573.0,0.15242734085788778
1572.0,0.15261244897260462
1571.0,0.15255073750082726
1570.0,0.15242734085788778
1569.0,0.15242734085788778
1568.0,0.15236565568174498
1567.0,0.15242734085788778
1566.0,0.1524890347967518
1565.0,0.1524890347967518
1564.0,0.15242734085788778
1563.0,0.15255073750082726
1562.0,0.15285938258659382
1561.0,0.15267416921457633
1560.0,0.1515645446685292
1559.0,0.15131834597604965
1558.0,0.1519957285027318
1557.0,0.1515029819096334
1556.0,0.1515029819096334
1555.0,0.15211900255462485
1554.0,0.15242734085788778
1553.0,0.15236565568174498
1552.0,0.15224231160766877
1551.0,0.15224231160766877
1550.0,0.15218065270476067
1549.0,0.15211900255462485
1548.0,0.15211900255462485
1547.0,0.15211900255462485
1546.0,0.15193410459600853
1545.0,0.15168769637271562
1544.0,0.15162611615539823
1543.0,0.15181088300860135
1542.0,0.15162611615539823
1541.0,0.15125681810431635
1540.0,0.1514414278762366
1539.0,0.15162611615539823
1538.0,0.1509493094304879
1537.0,0.15064201833870117
1536.0,0.15076490868527737
1535.0,0.15076490868527737
1534.0,0.15058058620310066
1533.0,0.15064201833870117
1532.0,0.15101079374883275
1531.0,0.15125681810431635
1530.0,0.15119529894819617
1529.0,0.15101079374883275
1528.0,0.1507034591652734
1527.0,0.15033494452126717
1526.0,0.14990540561329913
1525.0,0.14941502364796855
1524.0,0.14917004015146906
1523.0,0.1490476002065071
1522.0,0.1489251947711132
1521.0,0.14898639317633
1520.0,0.1490476002065071
1519.0,0.1490476002065071
1518.0,0.1490476002065071
1517.0,0.14898639317633
1516.0,0.1490476002065071
1515.0,0.1490476002065071
1514.0,0.1489251947711132
1513.0,0.14861933203440336
1512.0,0.14813039927023364
1511.0,0.14752000636314366
1510.0,0.14691047014813452
1509.0,0.1466060225493342
1508.0,0.14684956355215717
1507.0,0.14800825203784274
1506.0,0.14849704722945534
1505.0,0.1472151313194523
1504.0,0.14630178822382556
1503.0,0.1461193498754576
1502.0,0.14599776687301103
1501.0,0.1456332219591303
1500.0,0.14526898278605782
1499.0,0.14502632627358292
1498.0,0.1446020033459312
1497.0,0.14405705376768396
1496.0,0.14351278713136928
1495.0,0.1427278264359586
1494.0,0.141884067809934
1493.0,0.14116214857141451
1492.0,0.1405014418122239
1491.0,0.13948232253825377
1490.0,0.13828641242856565
1489.0,0.13727247168202528
1488.0,0.13661765155921235
1487.0,0.13578566953867033
1486.0,0.13454067733803532
1485.0,0.13318119707395182
1484.0,0.13176713157753506
1483.0,0.13018179202067182
1482.0,0.1280186461566306
1481.0,0.12546020292898974
1480.0,0.12308968865537295
1479.0,0.12107626603243293
1478.0,0.11958660012208333
1477.0,0.12015894401343741
1476.0,0.1258081953209289
1475.0,0.13954220457652888
1474.0,0.163359458427226
1473.0,0.19688444510997294
1472.0,0.22826557461323072
1471.0,0.24070996697569602
1470.0,0.2366468912517845
1469.0,0.22811867980990108
1468.0,0.2204035087421754
1467.0,0.21438547505317596
1466.0,0.21119550695535172
1465.0,0.21481257997063818
1464.0,0.22892721677880523
1463.0,0.24956875133979795
1462.0,0.26825011647273667
1461.0,0.27926202298157476
1460.0,0.28025450747042324
1459.0,0.2717274021049829
1458.0,0.25641184984009624
1457.0,0.2399546720341894
1456.0,0.22819212100089437
1455.0,0.22155931642876725
1454.0,0.21788585252092885
1453.0,0.21502629004559926
1452.0,0.2119731159041962
1451.0,0.2088007535011247
1450.0,0.20593041601836748
1449.0,0.20356444118982564
1448.0,0.2014874669686484
1447.0,0.19955787866374353
1446.0,0.1980477651457182
1445.0,0.19681611146465805
1444.0,0.19572423287090612
1443.0,0.19477108579657387
1442.0,0.19382002601611292
1441.0,0.19300648631789286
1440.0,0.19226207798589923
1439.0,0.19158644859963192
1438.0,0.19084446825281964
1437.0,0.19010375339756092
1436.0,0.18956584407732735
1435.0,0.18889439298206967
1434.0,0.18829097330380895
1433.0,0.18782222584124608
1432.0,0.18722029299103604
1431.0,0.18655245573517876
1430.0,0.1859522790044006
1429.0,0.18541948398968144
1428.0,0.18468795647564096
1427.0,0.18375870000821704
1426.0,0.18283142761894444
1425.0,0.18197215814074386
1424.0,0.18111458540599013
1423.0,0.18052187163787736
1422.0,0.180127178049454
1421.0,0.17960147729601839
1420.0,0.17887967622317635
1419.0,0.17835548245778288
1418.0,0.17822453281653639
1417.0,0.17829000270162365
1416.0,0.17835548245778288
1415.0,0.17815907279954568
1414.0,0.17776651976115598
1413.0,0.17724366704860928
1412.0,0.17672144304832926
1411.0,0.17639537164484187
1410.0,0.17626501160126873
1409.0,0.17613469067548881
1408.0,0.17606954487443605
1407.0,0.17580905934741686
1406.0,0.1755487299633871
1405.0,0.17535358528164813
1404.0,0.1751585282462993
1403.0,0.17502853887630665
1402.0,0.17476867680009978
1401.0,0.1745089701205691
1400.0,0.17418455501479646
1399.0,0.17411970106382046
1398.0,0.17411970106382046
1397.0,0.1739900222088997
1396.0,0.17379557650074728
1395.0,0.17366599437777985
1394.0,0.17366599437777985
1393.0,0.17366599437777985
1392.0,0.17366599437777985
1391.0,0.17366599437777985
1390.0,0.17360121781238225
1389.0,0.17353645090719882
1388.0,0.17340694606595197
1387.0,0.17347169365934856
1386.0,0.17360121781238225
1385.0,0.17366599437777985
1384.0,0.17360121781238225
1383.0,0.17353645090719882
1382.0,0.17347169365934856
1381.0,0.17366599437777985
1380.0,0.17392519729917355
1379.0,0.1742494186519723
1378.0,0.17457388223217696
1377.0,0.17483362774345035
1376.0,0.17496355877864622
1375.0,0.17509352869788763
1374.0,0.17535358528164813
1373.0,0.17574396237031764
1372.0,0.17613469067548881
1371.0,0.1764605663431411
1370.0,0.17678668671733244
1369.0,0.17717835469689547
1368.0,0.1775703762206431
1367.0,0.1778319206319825
1366.0,0.17796275192741495
1365.0,0.1778973313530796
1364.0,0.17763574755845046
1363.0,0.17750501472124913
1362.0,0.17770112873763355
1361.0,0.17802818235795725
1360.0,0.17822453281653639
1359.0,0.17822453281653639
1358.0,0.17815907279954568
1357.0,0.17809362264767703
1356.0,0.17809362264767703
1355.0,0.17822453281653639
1354.0,0.1784864715952268
1353.0,0.17874856845405884
1352.0,0.17901082358395048
1351.0,0.17920761891179637
1350.0,0.17927323717616583
1349.0,0.17927323717616583
1348.0,0.17927323717616583
1347.0,0.17933886535640453
1346.0,0.17940450345550985
1345.0,0.17953580942231584
1344.0,0.17953580942231584
1343.0,0.17940450345550985
1342.0,0.17920761891179637
1341.0,0.17901082358395048
1340.0,0.1789452449531117
1339.0,0.17907641211868253
1338.0,0.17940450345550985
1337.0,0.17973284283903546
1336.0,0.17992996568767428
1335.0,0.18006143064460467
1334.0,0.18019293540924397
1333.0,0.18039026724841478
1332.0,0.18052187163787736
1331.0,0.180587688790675
1330.0,0.180587688790675
1329.0,0.18052187163787736
1328.0,0.18052187163787736
1327.0,0.18065351591954726
1326.0,0.18085105719286587
1325.0,0.18111458540599013
1324.0,0.18137827362411096
1323.0,0.1815101777957866
1322.0,0.18157614490792118
1321.0,0.18164212204164532
1320.0,0.18170810920000413
1319.0,0.18190613085336405
1318.0,0.18223636771963214
1317.0,0.18263298371240588
1316.0,0.18289759574307696
1315.0,0.18309616062433975
1314.0,0.1832285876666535
1313.0,0.18349356295364294
1312.0,0.1838250095711984
1311.0,0.18422307970163732
1310.0,0.18462151503408197
1309.0,0.1849538239353694
1308.0,0.18521985425419518
1307.0,0.18555262147751228
1306.0,0.185819018959813
1305.0,0.18608557995139652
1304.0,0.18635230465310326
1303.0,0.18655245573517876
1302.0,0.18688624599210146
1301.0,0.18722029299103604
1300.0,0.18748771571001743
1299.0,0.18768839086887623
1298.0,0.1878891587969005
1297.0,0.18809001957990112
1296.0,0.18829097330380895
1295.0,0.18842499412940672
1294.0,0.18849202005467336
1293.0,0.1885590563258419
1292.0,0.1885590563258419
1291.0,0.18869315991866387
1290.0,0.1887602272467106
1289.0,0.18896149139578422
1288.0,0.18916284885951162
1287.0,0.18943147078358713
1286.0,0.18963304631837485
1285.0,0.18970025895983111
1284.0,0.189767482004916
1283.0,0.18983471545685027
1282.0,0.18996921359416064
1281.0,0.19017103893211385
1280.0,0.19037295810595034
1279.0,0.19057497120296585
1278.0,0.19064232978889417
1277.0,0.19070969882368427
1276.0,0.19077707831057822
1275.0,0.19091186865365373
1274.0,0.19111413264018795
1273.0,0.19131649087103075
1272.0,0.19151894343404896
1271.0,0.1917214904172322
1270.0,0.19185657423850877
1269.0,0.19192413190869306
1268.0,0.1919917000896001
1267.0,0.1921268679966679
1266.0,0.19226207798589923
1265.0,0.19246497193114664
1264.0,0.19253262431572216
1263.0,0.19266796070880954
1262.0,0.1928033392890527
1261.0,0.1928710444075783
1260.0,0.192938760082761
1259.0,0.192938760082761
1258.0,0.192938760082761
1257.0,0.19300648631789286
1256.0,0.1930742231162681
1255.0,0.19300648631789286
1254.0,0.19300648631789286
1253.0,0.19300648631789286
1252.0,0.1930742231162681
1251.0,0.19314197048118253
1250.0,0.1932097284159331
1249.0,0.1932097284159331
1248.0,0.19327749692381868
1247.0,0.19341306567219707
1246.0,0.1934808659192948
1245.0,0.19361649817583237
1244.0,0.19375217280420953
1243.0,0.19375217280420953
1242.0,0.19368433019188647
1241.0,0.19368433019188647
1240.0,0.19368433019188647
1239.0,0.19375217280420953
1238.0,0.19382002601611292
1237.0,0.19388788983090888
1236.0,0.19382002601611292
1235.0,0.19382002601611292
1234.0,0.19375217280420953
1233.0,0.19368433019188647
1232.0,0.1935486767527379
1231.0,0.1934808659192948
1230.0,0.19334527600813955
1229.0,0.19327749692381868
1228.0,0.19327749692381868
1227.0,0.19334527600813955
1226.0,0.19341306567219707
1225.0,0.19334527600813955
1224.0,0.1932097284159331
1223.0,0.19314197048118253
1222.0,0.19314197048118253
1221.0,0.19314197048118253
1220.0,0.1932097284159331
1219.0,0.19314197048118253
1218.0,0.1930742231162681
1217.0,0.1928033392890527
1216.0,0.19266796070880954
1215.0,0.19273564472389304
1214.0,0.1928033392890527
1213.0,0.1928710444075783
1212.0,0.1928033392890527
1211.0,0.1928710444075783
1210.0,0.192938760082761
1209.0,0.19314197048118253
1208.0,0.19327749692381868
1207.0,0.19341306567219707
1206.0,0.1935486767527379
1205.0,0.19361649817583237
1204.0,0.1935486767527379
1203.0,0.1934808659192948
1202.0,0.19341306567219707
1201.0,0.19341306567219707
1200.0,0.1935486767527379
1199.0,0.19361649817583237
1198.0,0.19361649817583237
1197.0,0.19341306567219707
1196.0,0.1932097284159331
1195.0,0.1930742231162681
1194.0,0.19314197048118253
1193.0,0.19314197048118253
1192.0,0.1932097284159331
1191.0,0.19334527600813955
1190.0,0.19341306567219707
1189.0,0.19334527600813955
1188.0,0.1932097284159331
1187.0,0.19300648631789286
1186.0,0.1928710444075783
1185.0,0.1928710444075783
1184.0,0.19300648631789286
1183.0,0.1932097284159331
1182.0,0.19334527600813955
1181.0,0.19341306567219707
1180.0,0.1934808659192948
1179.0,0.19361649817583237
1178.0,0.19375217280420953
1177.0,0.19388788983090888
1176.0,0.1940236492824372
1175.0,0.19422736806433094
1174.0,0.19436323369406505
1173.0,0.19449914184159978
1172.0,0.19449914184159978
1171.0,0.19449914184159978
1170.0,0.1944311824514442
1169.0,0.1944311824514442
1168.0,0.1944311824514442
1167.0,0.19449914184159978
1166.0,0.19456711186786002
1165.0,0.1946350925335547
1164.0,0.19456711186786002
1163.0,0.1944311824514442
1162.0,0.19436323369406505
1161.0,0.19429529556613567
1160.0,0.19422736806433094
1159.0,0.1941594511853273
1158.0,0.19409154492580294
1157.0,0.19409154492580294
1156.0,0.1941594511853273
1155.0,0.1941594511853273
1154.0,0.19409154492580294
1153.0,0.19409154492580294
1152.0,0.1940236492824372
1151.0,0.19409154492580294
1150.0,0.19422736806433094
1149.0,0.19449914184159978
1148.0,0.19477108579657387
1147.0,0.1948390984005659
1146.0,0.19470308384201496
1145.0,0.19436323369406505
1144.0,0.19388788983090888
1143.0,0.19341306567219707
1142.0,0.1930742231162681
1141.0,0.1930742231162681
1140.0,0.19341306567219707
1139.0,0.19395576425191186
1138.0,0.1944311824514442
1137.0,0.19456711186786002
1136.0,0.19449914184159978
1135.0,0.19422736806433094
1134.0,0.1940236492824372
1133.0,0.1940236492824372
1132.0,0.1941594511853273
1131.0,0.19429529556613567
1130.0,0.1944311824514442
1129.0,0.19449914184159978
1128.0,0.19449914184159978
1127.0,0.1944311824514442
1126.0,0.19429529556613567
1125.0,0.1941594511853273
1124.0,0.19409154492580294
1123.0,0.19422736806433094
1122.0,0.1944311824514442
1121.0,0.19456711186786002
1120.0,0.19456711186786002
1119.0,0.1944311824514442
1118.0,0.19429529556613567
1117.0,0.19422736806433094
1116.0,0.19429529556613567
1115.0,0.1944311824514442
1114.0,0.19456711186786002
1113.0,0.19470308384201496
1112.0,0.19470308384201496
1111.0,0.1946350925335547
1110.0,0.1944311824514442
1109.0,0.19436323369406505
1108.0,0.19436323369406505
1107.0,0.1944311824514442
1106.0,0.19449914184159978
1105.0,0.19449914184159978
1104.0,0.19449914184159978
1103.0,0.19456711186786002
1102.0,0.1946350925335547
1101.0,0.19456711186786002
1100.0,0.19436323369406505
1099.0,0.19429529556613567
1098.0,0.19436323369406505
1097.0,0.19470308384201496
1096.0,0.19497515557019485
1095.0,0.19511125537760865
1094.0,0.19511125537760865
1093.0,0.19511125537760865
1092.0,0.19511125537760865
1091.0,0.19511125537760865
1090.0,0.19517932127883775
1089.0,0.19531548509305963
1088.0,0.19551981089400727
1087.0,0.19565608152013425
1086.0,0.19579239491795852
1085.0,0.19572423287090612
1084.0,0.19558794086228604
1083.0,0.19531548509305963
1082.0,0.19504320014250842
1081.0,0.19490712165732704
1080.0,0.19490712165732704
1079.0,0.19490712165732704
1078.0,0.1948390984005659
1077.0,0.1948390984005659
1076.0,0.19504320014250842
1075.0,0.19517932127883775
1074.0,0.19531548509305963
1073.0,0.19524739784953948
1072.0,0.19517932127883775
1071.0,0.19517932127883775
1070.0,0.19517932127883775
1069.0,0.19517932127883775
1068.0,0.19524739784953948
1067.0,0.19531548509305963
1066.0,0.19538358301274483
1065.0,0.19551981089400727
1064.0,0.19558794086228604
1063.0,0.19565608152013425
1062.0,0.19579239491795852
1061.0,0.19592875111433883
1060.0,0.1960651501361581
1059.0,0.19620159201032594
1058.0,0.19613336571501572
1057.0,0.19592875111433883
1056.0,0.19586056766464965
1055.0,0.19599694527038736
1054.0,0.19647460442346754
1053.0,0.1969527895088714
1052.0,0.19722627470802445
1051.0,0.19722627470802445
1050.0,0.19702114466473808
1049.0,0.19688444510997294
1048.0,0.1969527895088714
1047.0,0.19715788726092565
1046.0,0.19736308191718943
1045.0,0.19749993223560658
1044.0,0.19777376230892996
1043.0,0.1980477651457182
1042.0,0.19825338078053978
1041.0,0.19825338078053978
1040.0,0.19825338078053978
1039.0,0.19825338078053978
1038.0,0.1983905119726812
1037.0,0.1985276864785288
1036.0,0.1987335295103798
1035.0,0.19887081242029603
1034.0,0.1990081387398286
1033.0,0.19921420967223735
1032.0,0.19935164463601196
1031.0,0.19948912310563194
1030.0,0.19948912310563194
1029.0,0.19948912310563194
1028.0,0.19955787866374353
1027.0,0.19976421067264605
1026.0,0.20003947259401644
1025.0,0.200246033588114
1024.0,0.20038379551850105
1023.0,0.200521601162019
1022.0,0.20059052038487324
1021.0,0.20059052038487324
1020.0,0.20045269287438483
1019.0,0.20038379551850105
1018.0,0.200246033588114
1017.0,0.200246033588114
1016.0,0.20017716900668026
1015.0,0.20010831534313467
1014.0,0.20010831534313467
1013.0,0.20017716900668026
1012.0,0.20031490909089955
1011.0,0.20059052038487324
1010.0,0.200797343699475
1009.0,0.20086630669793704
1008.0,0.2009352806489919
1007.0,0.2010042655561186
1006.0,0.20107326142279858
1005.0,0.2010042655561186
1004.0,0.20072839165012724
1003.0,0.200521601162019
1002.0,0.20038379551850105
1001.0,0.20038379551850105
1000.0,0.200521601162019
999.0,0.20059052038487324
998.0,0.20065945054641832
997.0,0.20065945054641832
996.0,0.20065945054641832
995.0,0.20059052038487324
994.0,0.20059052038487324
993.0,0.20065945054641832
992.0,0.200797343699475
991.0,0.2010042655561186
990.0,0.20114226825251436
989.0,0.20128031481499375
988.0,0.2014874669686484
987.0,0.2014874669686484
986.0,0.20134935455473113
985.0,0.20114226825251436
984.0,0.20107326142279858
983.0,0.20121128604875071
982.0,0.20141840527145227
981.0,0.20169471797802352
980.0,0.20190206793751408
979.0,0.20197120659592693
978.0,0.20204035626280392
977.0,0.20197120659592693
976.0,0.20204035626280392
975.0,0.20217868863597643
974.0,0.20252471246266568
973.0,0.2028710122034474
972.0,0.20314825095011302
971.0,0.2033562962148836
970.0,0.20342566678957041
969.0,0.20349504844670374
968.0,0.20349504844670374
967.0,0.20356444118982564
966.0,0.20370325994820848
965.0,0.20391157131933157
964.0,0.20391157131933157
963.0,0.2037726859705613
962.0,0.20356444118982564
961.0,0.20349504844670374
960.0,0.2036338450224786
959.0,0.20384212309308558
958.0,0.20398103065285067
957.0,0.2040505010971967
956.0,0.2040505010971967
955.0,0.2041199826559248
954.0,0.20425897913075608
953.0,0.20453710560962013
952.0,0.20467623567068616
951.0,0.20467623567068616
950.0,0.20446755728984556
949.0,0.20418947533259169
948.0,0.20391157131933157
947.0,0.20370325994820848
946.0,0.20356444118982564
945.0,0.2037726859705613
944.0,0.2040505010971967
943.0,0.20432849405397824
942.0,0.20446755728984556
941.0,0.20446755728984556
940.0,0.20453710560962013
939.0,0.20467623567068616
938.0,0.20481541031757589
937.0,0.20481541031757589
936.0,0.20481541031757589
935.0,0.20481541031757589
934.0,0.20474581741911724
933.0,0.20467623567068616
932.0,0.20467623567068616
931.0,0.20474581741911724
930.0,0.20481541031757589
929.0,0.20481541031757589
928.0,0.20488501436963658
927.0,0.20502425594886842
926.0,0.20516354218543853
925.0,0.20523320205917894
924.0,0.20516354218543853
923.0,0.20502425594886842
922.0,0.20481541031757589
921.0,0.2046066650687106
920.0,0.20453710560962013
919.0,0.20453710560962013
918.0,0.20467623567068616
917.0,0.20481541031757589
916.0,0.20502425594886842
915.0,0.20509389348319607
914.0,0.20516354218543853
913.0,0.20523320205917894
912.0,0.2054422487452383
911.0,0.20579088365350362
910.0,0.20600019901552957
909.0,0.20606999322731534
908.0,0.20606999322731534
907.0,0.20606999322731534
906.0,0.20606999322731534
905.0,0.20613979865733034
904.0,0.20641913263184408
903.0,0.20669864638688495
902.0,0.20669864638688495
901.0,0.206349282292827
900.0,0.20593041601836748
899.0,0.20586064423222616
898.0,0.20627944318647673
897.0,0.20676855294347907
896.0,0.20711825461460287
895.0,0.20718822875185294
894.0,0.20725821416525125
893.0,0.2074682380986923
892.0,0.20781850385032108
891.0,0.208028798979232
890.0,0.208028798979232
889.0,0.20795868928791772
888.0,0.20788859091283163
887.0,0.208028798979232
886.0,0.20823919598709506
885.0,0.2085198839799991
884.0,0.2088007535011247
883.0,0.2089412564081745
882.0,0.20915209603456808
881.0,0.20943337485392344
880.0,0.20971483596675822
879.0,0.20971483596675822
878.0,0.20957408260888943
877.0,0.20943337485392344
876.0,0.20957408260888943
875.0,0.20985563495709947
874.0,0.2102078322693246
873.0,0.21041928783557462
872.0,0.21041928783557462
871.0,0.21041928783557462
870.0,0.21034879120659045
869.0,0.21041928783557462
868.0,0.2104897959097456
867.0,0.2107013888405589
866.0,0.2107013888405589
865.0,0.21056031543282083
864.0,0.2104897959097456
863.0,0.21056031543282083
862.0,0.21077194273266486
861.0,0.21091308491197136
860.0,0.21091308491197136
859.0,0.2108425080885603
858.0,0.21091308491197136
857.0,0.2108425080885603
856.0,0.21077194273266486
855.0,0.21056031543282083
854.0,0.2102078322693246
853.0,0.20985563495709947
852.0,0.20964445358561346
851.0,0.20964445358561346
850.0,0.20992605157369537
849.0,0.21041928783557462
848.0,0.21091308491197136
847.0,0.2111248842245832
846.0,0.21105427297625234
845.0,0.21098367320662526
844.0,0.21105427297625234
843.0,0.21140744407964052
842.0,0.21183162885883222
841.0,0.212185432936977
840.0,0.21246868387276563
839.0,0.21253952548158495
838.0,0.21253952548158495
837.0,0.21232703531250707
836.0,0.212185432936977
835.0,0.212185432936977
834.0,0.21232703531250707
833.0,0.21253952548158495
832.0,0.21275211966804597
831.0,0.2128939069634299
830.0,0.21282300752944616
829.0,0.2126103786478899
828.0,0.21232703531250707
827.0,0.2119731159041962
826.0,0.21161948468043668
825.0,0.2115487929765445
824.0,0.21183162885883222
823.0,0.21232703531250707
822.0,0.21282300752944616
821.0,0.2133195468033513
820.0,0.21367456560992992
819.0,0.21395878975744576
818.0,0.2141009716156166
817.0,0.21402987486799052
816.0,0.21388771628017356
815.0,0.2137456042102197
814.0,0.21360353862769577
813.0,0.21360353862769577
812.0,0.21360353862769577
811.0,0.21360353862769577
810.0,0.21339052735134012
809.0,0.2130357405642671
808.0,0.21282300752944616
807.0,0.21296481797377664
806.0,0.2133195468033513
805.0,0.2135325232597176
804.0,0.2137456042102197
803.0,0.21402987486799052
802.0,0.21438547505317596
801.0,0.21467016498923286
800.0,0.21481257997063818
799.0,0.21467016498923286
798.0,0.21431433171909875
797.0,0.2137456042102197
796.0,0.21324857785443885
795.0,0.21296481797377664
794.0,0.2130357405642671
793.0,0.21324857785443885
792.0,0.2135325232597176
791.0,0.21367456560992992
790.0,0.21388771628017356
789.0,0.21417208000413446
788.0,0.21452779669361166
787.0,0.21474136664229881
786.0,0.21445663004340698
785.0,0.21402987486799052
784.0,0.2137456042102197
783.0,0.21388771628017356
782.0,0.21395878975744576
781.0,0.21367456560992992
780.0,0.21317762050081246
779.0,0.21282300752944616
778.0,0.21296481797377664
777.0,0.2133195468033513
776.0,0.21381665443236653
775.0,0.21417208000413446
774.0,0.21445663004340698
773.0,0.21474136664229881
772.0,0.21481257997063818
771.0,0.21467016498923286
770.0,0.21431433171909875
769.0,0.2137456042102197
768.0,0.21310667473868428
767.0,0.21246868387276563
766.0,0.2121146490590755
765.0,0.21190236661970263
764.0,0.21183162885883222
763.0,0.2119731159041962
762.0,0.2119731159041962
761.0,0.21183162885883222
760.0,0.21147811277752715
759.0,0.21105427297625234
758.0,0.2107013888405589
757.0,0.2101373699536182
756.0,0.2093630380682967
755.0,0.2085198839799991
754.0,0.20809891999042884
753.0,0.2081690523251638
752.0,0.20837951730718585
751.0,0.208028798979232
750.0,0.20704829174986794
749.0,0.20606999322731534
748.0,0.20551195334083028
747.0,0.2054422487452383
746.0,0.20537255533549192
745.0,0.20481541031757589
744.0,0.20370325994820848
743.0,0.20197120659592693
742.0,0.19976421067264605
741.0,0.19729467292564795
740.0,0.1948390984005659
739.0,0.19239733008350535
738.0,0.18970025895983111
737.0,0.18648572845811695
736.0,0.18263298371240588
735.0,0.17907641211868253
734.0,0.17842097208799124
733.0,0.1840903491132253
732.0,0.19832194096410682
731.0,0.2192507688964478
730.0,0.2404832405378119
729.0,0.2543787786930616
728.0,0.2577463300934064
727.0,0.25328797748333964
726.0,0.24595761321456378
725.0,0.23905004858910273
724.0,0.2341080235699846
723.0,0.23314118897858238
722.0,0.2398037705448659
721.0,0.2577463300934064
720.0,0.2860896458710447
719.0,0.31650268232018863
718.0,0.3374310330667398
717.0,0.3434227086038859
716.0,0.3374310330667398
715.0,0.3257820544233001
714.0,0.31327437892545795
713.0,0.30224772583224535
712.0,0.2933675491267054
711.0,0.2860896458710447
710.0,0.2800061736323962
709.0,0.27474193364003896
708.0,0.2704302736980302
707.0,0.26744542014856787
706.0,0.26520017041115307
705.0,0.2629664686661224
704.0,0.2601904009786411
703.0,0.2573534100612638
702.0,0.25515960321462083
701.0,0.25359935550843904
700.0,0.25266589038409504
699.0,0.25204469309327027
698.0,0.25157937753243176
697.0,0.25088233764367773
696.0,0.2500319164905971
695.0,0.2491060796178748
694.0,0.24818221226312076
693.0,0.24718356881172854
692.0,0.24580461181016156
691.0,0.2439727870265589
690.0,0.2420728168866706
689.0,0.24078556876575608
688.0,0.24033215531036944
687.0,0.24025663240227502
686.0,0.23957751657678794
685.0,0.23799703062488464
684.0,0.23627259623430175
683.0,0.23522628308895954
682.0,0.23492779889720805
681.0,0.2347040703019434
680.0,0.23425695857895557
679.0,0.23381030668984004
678.0,0.23388471677858602
677.0,0.2344059446805551
676.0,0.2347040703019434
675.0,0.23455498190985002
674.0,0.2344059446805551
673.0,0.2336615247487126
672.0,0.2316579413554667
671.0,0.22973726182940668
670.0,0.22973726182940668
669.0,0.2321023839819094
668.0,0.2361229685043451
667.0,0.23807216157947098
666.0,0.23462951970835144
665.0,0.22936887222219338
664.0,0.22650610772902935
663.0,0.2259942697417905
662.0,0.22643295107394135
661.0,0.22687207596666514
660.0,0.22731164531785852
659.0,0.22716507276098175
658.0,0.22621355501880647
657.0,0.22533707746217768
656.0,0.22482661457521314
655.0,0.22446236521904295
654.0,0.22417118553538762
653.0,0.22409842110832567
652.0,0.22424396215590203
651.0,0.22424396215590203
650.0,0.2234440892967382
649.0,0.22213837582375806
648.0,0.22098102808512943
647.0,0.22047565667521019
646.0,0.22047565667521019
645.0,0.2206199885083442
644.0,0.22098102808512943
643.0,0.22177637323390353
642.0,0.22337144657984997
641.0,0.22570206150072258
640.0,0.22870655737094037
639.0,0.23225063265442003
638.0,0.23627259623430175
637.0,0.2404832405378119
636.0,0.24443001937120012
635.0,0.24695343837347083
634.0,0.24634035271400134
633.0,0.24283180778572744
632.0,0.23837281543841726
631.0,0.23433144524098592
630.0,0.23099212905622624
629.0,0.22841251911874472
628.0,0.22731164531785852
627.0,0.22782503917538577
626.0,0.22900079483605928
625.0,0.2299584456803314
624.0,0.23054882059796222
623.0,0.23180603836692848
622.0,0.23381030668984004
621.0,0.23582386760966934
620.0,0.23672178898102136
619.0,0.2361229685043451
618.0,0.23403357521428614
617.0,0.23106605781321843
616.0,0.22797183467514515
615.0,0.22555603107503486
614.0,0.22395292881822026
613.0,0.22337144657984997
612.0,0.22395292881822026
611.0,0.22577509513108107
610.0,0.22826557461323072
609.0,0.2303273359445075
608.0,0.2312139530919859
607.0,0.23106605781321843
606.0,0.2301797422364078
605.0,0.22914798835785577
604.0,0.22841251911874472
603.0,0.22811867980990108
602.0,0.22782503917538577
601.0,0.22723835285596783
600.0,0.22635980673997413
