cm-1,A
4000.0,0.0016534626036355249
3999.0,0.0017406615763013722
3998.0,0.0018278780605593958
3997.0,0.0018278780605593958
3996.0,0.0017842676290416026
3995.0,0.0017406615763013722
3994.0,0.0017842676290416026
3993.0,0.0018714928717336043
3992.0,0.001915112063444413
3991.0,0.001915112063444413
3990.0,0.0018714928717336043
3989.0,0.0017406615763013722
3988.0,0.0016534626036355249
3987.0,0.0015662811355310335
3986.0,0.0015226969634936083
3985.0,0.0014791171649619628
3984.0,0.0015226969634936083
3983.0,0.0015662811355310335
3982.0,0.0016534626036355249
3981.0,0.0016970599014589638
3980.0,0.0017406615763013722
3979.0,0.0017406615763013722
3978.0,0.0016970599014589638
3977.0,0.0016534626036355249
3976.0,0.0015662811355310335
3975.0,0.0015662811355310335
3974.0,0.0015662811355310335
3973.0,0.001609869681952425
3972.0,0.001609869681952425
3971.0,0.001609869681952425
3970.0,0.001609869681952425
3969.0,0.001609869681952425
3968.0,0.001609869681952425
3967.0,0.0015662811355310335
3966.0,0.0014791171649619628
3965.0,0.0013919706849057079
3964.0,0.0013919706849057079
3963.0,0.0014355417390583547
3962.0,0.0015226969634936083
3961.0,0.0016534626036355249
3960.0,0.0017842676290416026
3959.0,0.0018714928717336043
3958.0,0.001915112063444413
3957.0,0.0018714928717336043
3956.0,0.0018714928717336043
3955.0,0.0017842676290416026
3954.0,0.0016970599014589638
3953.0,0.001609869681952425
3952.0,0.0015226969634936083
3951.0,0.0014791171649619628
3950.0,0.0013919706849057079
3949.0,0.001304841688344327
3948.0,0.0012612837441823288
3947.0,0.001304841688344327
3946.0,0.0014355417390583547
3945.0,0.001609869681952425
3944.0,0.0017406615763013722
3943.0,0.0018278780605593958
3942.0,0.0017842676290416026
3941.0,0.0017842676290416026
3940.0,0.0017842676290416026
3939.0,0.0017842676290416026
3938.0,0.0017406615763013722
3937.0,0.0016970599014589638
3936.0,0.001609869681952425
3935.0,0.0015662811355310335
3934.0,0.0015662811355310335
3933.0,0.0015662811355310335
3932.0,0.0016534626036355249
3931.0,0.0017842676290416026
3930.0,0.0018278780605593958
3929.0,0.0017842676290416026
3928.0,0.0016970599014589638
3927.0,0.0015226969634936083
3926.0,0.0013919706849057079
3925.0,0.0012612837441823288
3924.0,0.0012177301682640973
3923.0,0.0012612837441823288
3922.0,0.0013919706849057079
3921.0,0.0015226969634936083
3920.0,0.0015662811355310335
3919.0,0.0016534626036355249
3918.0,0.0016534626036355249
3917.0,0.0016970599014589638
3916.0,0.0016970599014589638
3915.0,0.0017842676290416026
3914.0,0.0018714928717336043
3913.0,0.0019587356365717845
3912.0,0.001915112063444413
3911.0,0.0018278780605593958
3910.0,0.0016970599014589638
3909.0,0.0015662811355310335
3908.0,0.0014355417390583547
3907.0,0.0013919706849057079
3906.0,0.0013919706849057079
3905.0,0.0014355417390583547
3904.0,0.0014355417390583547
3903.0,0.0014355417390583547
3902.0,0.0014791171649619628
3901.0,0.0015662811355310335
3900.0,0.0015662811355310335
3899.0,0.0015662811355310335
3898.0,0.0015662811355310335
3897.0,0.001609869681952425
3896.0,0.0016534626036355249
3895.0,0.001609869681952425
3894.0,0.0015662811355310335
3893.0,0.001609869681952425
3892.0,0.0016534626036355249
3891.0,0.0016970599014589638
3890.0,0.0017406615763013722
3889.0,0.0018278780605593958
3888.0,0.001915112063444413
3887.0,0.0018714928717336043
3886.0,0.0016970599014589638
3885.0,0.0015662811355310335
3884.0,0.0016534626036355249
3883.0,0.0018278780605593958
3882.0,0.001915112063444413
3881.0,0.0018278780605593958
3880.0,0.0015662811355310335
3879.0,0.001348404001626502
3878.0,0.001348404001626502
3877.0,0.0014355417390583547
3876.0,0.0014355417390583547
3875.0,0.001348404001626502
3874.0,0.0012177301682640973
3873.0,0.0011306361176557367
3872.0,0.0012612837441823288
3871.0,0.001348404001626502
3870.0,0.001348404001626502
3869.0,0.0012177301682640973
3868.0,0.001304841688344327
3867.0,0.0014791171649619628
3866.0,0.0015662811355310335
3865.0,0.0015226969634936083
3864.0,0.0014791171649619628
3863.0,0.0014791171649619628
3862.0,0.0014791171649619628
3861.0,0.0014791171649619628
3860.0,0.0014355417390583547
3859.0,0.001348404001626502
3858.0,0.0012612837441823288
3857.0,0.0012177301682640973
3856.0,0.001348404001626502
3855.0,0.0017406615763013722
3854.0,0.0020459959305969555
3853.0,0.0018714928717336043
3852.0,0.0014791171649619628
3851.0,0.0014355417390583547
3850.0,0.0015662811355310335
3849.0,0.001609869681952425
3848.0,0.0016534626036355249
3847.0,0.0016970599014589638
3846.0,0.0017406615763013722
3845.0,0.0017406615763013722
3844.0,0.0016970599014589638
3843.0,0.0015662811355310335
3842.0,0.0013919706849057079
3841.0,0.0012177301682640973
3840.0,0.0011306361176557367
3839.0,0.0010435595295137379
3838.0,0.0009129773741116676
3837.0,0.0007389288868995258
3836.0,0.0006954276616513155
3835.0,0.0008259444115150671
3834.0,0.0011306361176557367
3833.0,0.0013919706849057079
3832.0,0.001609869681952425
3831.0,0.0017406615763013722
3830.0,0.0018278780605593958
3829.0,0.0018714928717336043
3828.0,0.0018278780605593958
3827.0,0.0016970599014589638
3826.0,0.0014791171649619628
3825.0,0.001348404001626502
3824.0,0.001348404001626502
3823.0,0.0014355417390583547
3822.0,0.0014355417390583547
3821.0,0.0011741809597138886
3820.0,0.000869458712629001
3819.0,0.0008259444115150671
3818.0,0.0009565003968372565
3817.0,0.0010870956412141197
3816.0,0.0011306361176557367
3815.0,0.0012177301682640973
3814.0,0.0014355417390583547
3813.0,0.0016970599014589638
3812.0,0.0017406615763013722
3811.0,0.0016534626036355249
3810.0,0.0015662811355310335
3809.0,0.0014791171649619628
3808.0,0.0013919706849057079
3807.0,0.001304841688344327
3806.0,0.0012612837441823288
3805.0,0.0013919706849057079
3804.0,0.001609869681952425
3803.0,0.0017406615763013722
3802.0,0.0016534626036355249
3801.0,0.0013919706849057079
3800.0,0.0012612837441823288
3799.0,0.001348404001626502
3798.0,0.0015226969634936083
3797.0,0.0015662811355310335
3796.0,0.001609869681952425
3795.0,0.001609869681952425
3794.0,0.0016534626036355249
3793.0,0.0016970599014589638
3792.0,0.0017406615763013722
3791.0,0.0018278780605593958
3790.0,0.0019587356365717845
3789.0,0.002089632653256679
3788.0,0.0021332737608552588
3787.0,0.0021769192542746563
3786.0,0.0021332737608552588
3785.0,0.0020023635919956817
3784.0,0.0018714928717336043
3783.0,0.0017406615763013722
3782.0,0.0016970599014589638
3781.0,0.001609869681952425
3780.0,0.0015662811355310335
3779.0,0.0015226969634936083
3778.0,0.0016534626036355249
3777.0,0.0018278780605593958
3776.0,0.0020023635919956817
3775.0,0.0020459959305969555
3774.0,0.0020459959305969555
3773.0,0.0020459959305969555
3772.0,0.0020023635919956817
3771.0,0.0019587356365717845
3770.0,0.001915112063444413
3769.0,0.001915112063444413
3768.0,0.0020023635919956817
3767.0,0.002089632653256679
3766.0,0.0020023635919956817
3765.0,0.0018714928717336043
3764.0,0.0017842676290416026
3763.0,0.0017842676290416026
3762.0,0.0018714928717336043
3761.0,0.001915112063444413
3760.0,0.0019587356365717845
3759.0,0.001915112063444413
3758.0,0.0018278780605593958
3757.0,0.0017406615763013722
3756.0,0.0016534626036355249
3755.0,0.0015662811355310335
3754.0,0.0014791171649619628
3753.0,0.0013919706849057079
3752.0,0.0013919706849057079
3751.0,0.0014355417390583547
3750.0,0.001348404001626502
3749.0,0.0012177301682640973
3748.0,0.001348404001626502
3747.0,0.001609869681952425
3746.0,0.001915112063444413
3745.0,0.002089632653256679
3744.0,0.0020023635919956817
3743.0,0.001915112063444413
3742.0,0.002089632653256679
3741.0,0.0022205691343961664
3740.0,0.0021769192542746563
3739.0,0.0020459959305969555
3738.0,0.0020023635919956817
3737.0,0.0019587356365717845
3736.0,0.001915112063444413
3735.0,0.0018714928717336043
3734.0,0.0018714928717336043
3733.0,0.001915112063444413
3732.0,0.0018714928717336043
3731.0,0.0018714928717336043
3730.0,0.001915112063444413
3729.0,0.0019587356365717845
3728.0,0.0020023635919956817
3727.0,0.0020023635919956817
3726.0,0.0019587356365717845
3725.0,0.0019587356365717845
3724.0,0.0020023635919956817
3723.0,0.0020023635919956817
3722.0,0.0020459959305969555
3721.0,0.002089632653256679
3720.0,0.0021332737608552588
3719.0,0.0022205691343961664
3718.0,0.0022205691343961664
3717.0,0.0021332737608552588
3716.0,0.002089632653256679
3715.0,0.0020459959305969555
3714.0,0.0020023635919956817
3713.0,0.0020459959305969555
3712.0,0.0021769192542746563
3711.0,0.0023078820582733695
3710.0,0.0023078820582733695
3709.0,0.002351545103793873
3708.0,0.002395212539545666
3707.0,0.0024388843664115978
3706.0,0.002482560585275184
3705.0,0.0025262411970197185
3704.0,0.002613615602686581
3703.0,0.0027447101798967477
3702.0,0.0027884171674950053
3701.0,0.0028321285541661467
3700.0,0.0029195645282691363
3699.0,0.003050751504618754
3698.0,0.0031819781204844855
3697.0,0.0031819781204844855
3696.0,0.0031382315093266833
3695.0,0.003050751504618754
3694.0,0.0030070181092942683
3693.0,0.0029632891174733444
3692.0,0.0028758443407954637
3691.0,0.0028321285541661467
3690.0,0.0027447101798967477
3689.0,0.002701007590486082
3688.0,0.002701007590486082
3687.0,0.0028758443407954637
3686.0,0.0031382315093266833
3685.0,0.0033132443998284966
3684.0,0.0033132443998284966
3683.0,0.0032694845648473247
3682.0,0.0031819781204844855
3681.0,0.0031382315093266833
3680.0,0.0030944893043338695
3679.0,0.0030070181092942683
3678.0,0.0028758443407954637
3677.0,0.002701007590486082
3676.0,0.0025262411970197185
3675.0,0.002395212539545666
3674.0,0.002482560585275184
3673.0,0.0028758443407954637
3672.0,0.0032257291386954545
3671.0,0.0034445503666347133
3670.0,0.0035321097382827737
3669.0,0.0035758960449088217
3668.0,0.0036634819042162814
3667.0,0.0038825238627120395
3666.0,0.0040578370074493275
3665.0,0.004145520125434121
3664.0,0.004233220950025984
3663.0,0.004320939488377862
3662.0,0.004408675747646695
3661.0,0.004452550524862486
3660.0,0.004452550524862486
3659.0,0.004540313378935901
3658.0,0.004628093971837721
3657.0,0.004671990922590297
3656.0,0.004628093971837721
3655.0,0.0044964297349936455
3654.0,0.004408675747646695
3653.0,0.0043648054024501
3652.0,0.004277078004534696
3651.0,0.004320939488377862
3650.0,0.0044964297349936455
3649.0,0.004715892310740433
3648.0,0.004935465843858511
3647.0,0.005155150446602086
3646.0,0.00537494623139545
3645.0,0.005638848091999105
3644.0,0.00577085918230158
3643.0,0.005858888873877532
3642.0,0.005946936412324799
3641.0,0.006035001804881146
3640.0,0.006167133386013823
3639.0,0.00621118618129457
3638.0,0.006299305179649828
3637.0,0.006387442061109638
3636.0,0.006519680930003435
3635.0,0.006651960076740071
3634.0,0.006740168563263094
3633.0,0.006784279525863024
3632.0,0.006784279525863024
3631.0,0.006828394969235152
3630.0,0.007049039429553483
3629.0,0.007358130121602358
3628.0,0.0075790439479759275
3627.0,0.007800070204414977
3626.0,0.008065450281052211
3625.0,0.008198201155356077
3624.0,0.008242460465651913
3623.0,0.008198201155356077
3622.0,0.008242460465651913
3621.0,0.008330992620051436
3620.0,0.00850811108984062
3619.0,0.0087296108049002
3618.0,0.008995559669244813
3617.0,0.009217308196862062
3616.0,0.009350411681145587
3615.0,0.009439170005980158
3614.0,0.009483555971770974
3613.0,0.009527946474380489
3612.0,0.009616741093766423
3611.0,0.00974996707218323
3610.0,0.009972101229705377
3609.0,0.010283280051895272
3608.0,0.010639186223752484
3607.0,0.010995384301463185
3606.0,0.011262724711199823
3605.0,0.011441043121384498
3604.0,0.011574829993696856
3603.0,0.011619434777991433
3602.0,0.011708658092512314
3601.0,0.011753276624621556
3600.0,0.011797899741219142
3599.0,0.011842527443247208
3598.0,0.011887159731648111
3597.0,0.012021084124518078
3596.0,0.012244383261476699
3595.0,0.012512493866907004
3594.0,0.012825498912458322
3593.0,0.013093968619278806
3592.0,0.013273040668781544
3591.0,0.013407393177789162
3590.0,0.013586594534531482
3589.0,0.013900374944870508
3588.0,0.014169510141607944
3587.0,0.014349026309051105
3586.0,0.014393916947563534
3585.0,0.01452861671041239
3584.0,0.014708281407112
3583.0,0.014888020460646079
3582.0,0.015022873584506602
3581.0,0.015157768594724175
3580.0,0.015292705517326866
3579.0,0.015562705203923999
3578.0,0.015832872853011715
3577.0,0.016103208673694303
3576.0,0.01628352608625061
3575.0,0.01646391839700767
3574.0,0.016644385668211692
3573.0,0.01677978535189717
3572.0,0.01677978535189717
3571.0,0.016689514205884493
3570.0,0.016644385668211692
3569.0,0.01677978535189717
3568.0,0.017231422748988034
3567.0,0.01781925440359733
3566.0,0.018271974638383703
3565.0,0.018498511851753108
3564.0,0.018634490921455527
3563.0,0.018679826740892747
3562.0,0.018815862601645694
3561.0,0.018951941086827073
3560.0,0.019178833355664393
3559.0,0.019451260640229506
3558.0,0.019678413991243593
3557.0,0.019860222254245663
3556.0,0.019996628416253603
3555.0,0.020087589665283012
3554.0,0.020178569969774962
3553.0,0.02036058777709271
3552.0,0.020542681902151694
3551.0,0.020724852408976924
3550.0,0.020861530453190058
3549.0,0.0209982515252789
3548.0,0.021135015652343103
3547.0,0.021363051615525652
3546.0,0.021728158389364705
3545.0,0.02204787879853809
3544.0,0.022322112326006227
3543.0,0.022505030926963654
3542.0,0.022642270454698687
3541.0,0.022688026603074007
3540.0,0.022733787572707387
3539.0,0.02277955336461468
3538.0,0.022871099419317753
3537.0,0.02300845469384938
3536.0,0.023191662661933732
3535.0,0.023374947949272418
3534.0,0.023466619608062178
3533.0,0.02351246269481
3532.0,0.02355831062115543
3531.0,0.023695883447997224
3530.0,0.023925268380126097
3529.0,0.024200690320592466
3528.0,0.024476287039668643
3527.0,0.02475205875931885
3526.0,0.025074013910237447
3525.0,0.02539620791296726
3524.0,0.025764722556973707
3523.0,0.02613355016462182
3522.0,0.02636422658259252
3521.0,0.026502691267936695
3520.0,0.026595025589939425
3519.0,0.02664120011360227
3518.0,0.026733563891471412
3517.0,0.026872146400301444
3516.0,0.02710321556345563
3515.0,0.027334407733889066
3514.0,0.027565723042634938
3513.0,0.027658283674251827
3512.0,0.0277045713888604
3511.0,0.027750864037404455
3510.0,0.027936083991977778
3509.0,0.028167720075074953
3508.0,0.028353117935693284
3507.0,0.02849221828874393
3506.0,0.02858497661500481
3505.0,0.028770552723758724
3504.0,0.029095501846216454
3503.0,0.029467170231675777
3502.0,0.02969962459782227
3501.0,0.029792641193145286
3500.0,0.029839156962686353
3499.0,0.029978734171634214
3498.0,0.030164906924202484
3497.0,0.030397735151460825
3496.0,0.03063068826647264
3495.0,0.0307239045110681
3494.0,0.030863766403287585
3493.0,0.03105031901865729
3492.0,0.03137697904301118
3491.0,0.031657169041054534
3490.0,0.031984286006358165
3489.0,0.032218091924200776
3488.0,0.03245202378113787
3487.0,0.032592443402527316
3486.0,0.03263926003405038
3485.0,0.03263926003405038
3484.0,0.03273290844021437
3483.0,0.032873418923587305
3482.0,0.033201453616638954
3481.0,0.03357665405630694
3480.0,0.03385826726096752
3479.0,0.034046110897937076
3478.0,0.03414006319292828
3477.0,0.03428102975577918
3476.0,0.034516075754861264
3475.0,0.03475124903287918
3474.0,0.03503362516890207
3473.0,0.03522197797762394
3472.0,0.03541041251009669
3471.0,0.03559892883726867
3470.0,0.035740369803151095
3469.0,0.03588185684851508
3468.0,0.03602339000339416
3467.0,0.036117771071222604
3466.0,0.03621217265444465
3465.0,0.03630659476198117
3464.0,0.03635381351515665
3463.0,0.03644826642590382
3462.0,0.03663723389626394
3461.0,0.036873558918095295
3460.0,0.03720463014276687
3459.0,0.03753595394209874
3458.0,0.03777276864991497
3457.0,0.03796231343498735
3456.0,0.038151940981675736
3455.0,0.03829421599749461
3454.0,0.038436537637930535
3453.0,0.03857890593355173
3452.0,0.038721320914956836
3451.0,0.03886378261277468
3450.0,0.038958783046687984
3449.0,0.03910132267333921
3448.0,0.03924390909822728
3447.0,0.03948165721929198
3446.0,0.039719535563357944
3445.0,0.03995754427315856
3444.0,0.040243327009005014
3443.0,0.040529297924893015
3442.0,0.04086316882962593
3441.0,0.041149548320321694
3440.0,0.04138834223512067
3439.0,0.041579471947481794
3438.0,0.04172287445230238
3437.0,0.04186632432376469
3436.0,0.04196198390166317
3435.0,0.042057664554595586
3434.0,0.04210551278710151
3433.0,0.042201225070002124
3432.0,0.042392712939904875
3431.0,0.042584285277331047
3430.0,0.042775942156833
3429.0,0.042967683653061695
3428.0,0.043063586155803746
3427.0,0.0431115453499229
3426.0,0.0431115453499229
3425.0,0.04315950984076644
3424.0,0.04325545471730896
3423.0,0.04339941178682327
3422.0,0.043495409683302455
3421.0,0.04359142880416744
3420.0,0.04368746915880539
3419.0,0.04383156952463674
3418.0,0.04402377775167454
3417.0,0.04421607108308856
3416.0,0.04440844959427559
3415.0,0.04460091336073302
3414.0,0.04484161307420642
3413.0,0.04508244626504121
3412.0,0.04522701031028298
3411.0,0.04527520902093718
3410.0,0.04522701031028298
3409.0,0.04522701031028298
3408.0,0.04522701031028298
3407.0,0.045323413081356456
3406.0,0.04541983725624266
3405.0,0.045564513671517703
3404.0,0.045660991397539874
3403.0,0.04575749056067524
3402.0,0.04575749056067524
3401.0,0.04570923829887308
3400.0,0.04570923829887308
3399.0,0.04580574818413763
3398.0,0.045902279520810385
3397.0,0.04585401117045196
3396.0,0.04580574818413763
3395.0,0.04570923829887308
3394.0,0.04575749056067524
3393.0,0.045902279520810385
3392.0,0.04599883231842972
3391.0,0.046047116768076934
3390.0,0.04595055323640551
3389.0,0.04575749056067524
3388.0,0.045612749855485024
3387.0,0.0454680573730859
3386.0,0.04537162249272897
3385.0,0.04527520902093718
3384.0,0.04527520902093718
3383.0,0.045323413081356456
3382.0,0.045516282844447975
3381.0,0.04570923829887308
3380.0,0.04585401117045196
3379.0,0.04580574818413763
3378.0,0.04570923829887308
3377.0,0.045564513671517703
3376.0,0.0454680573730859
3375.0,0.045323413081356456
3374.0,0.0451788169482068
3373.0,0.04503426894157925
3372.0,0.04488976902944808
3371.0,0.04488976902944808
3370.0,0.04488976902944808
3369.0,0.04484161307420642
3368.0,0.044793462458058375
3367.0,0.04464904263234004
3366.0,0.04450467081587295
3365.0,0.04440844959427559
3364.0,0.04440844959427559
3363.0,0.044456557540257124
3362.0,0.04450467081587295
3361.0,0.04460091336073302
3360.0,0.04460091336073302
3359.0,0.04450467081587295
3358.0,0.044360346976747955
3357.0,0.04426415772233416
3356.0,0.04411991377462465
3355.0,0.04397571771932274
3354.0,0.04387961360698034
3353.0,0.043735497301724546
3352.0,0.04368746915880539
3351.0,0.043735497301724546
3350.0,0.043735497301724546
3349.0,0.043735497301724546
3348.0,0.043735497301724546
3347.0,0.04368746915880539
3346.0,0.04363944632667782
3345.0,0.0435434165901003
3344.0,0.04339941178682327
3343.0,0.04325545471730896
3342.0,0.043063586155803746
3341.0,0.04287180232318688
3340.0,0.04268010314465909
3339.0,0.04253638427006878
3338.0,0.04244059810252043
3337.0,0.042344833056508824
3336.0,0.042201225070002124
3335.0,0.042057664554595586
3334.0,0.04181850243505214
3333.0,0.04167506835594681
3332.0,0.041579471947481794
3331.0,0.041579471947481794
3330.0,0.04153168163305643
3329.0,0.041483896576958834
3328.0,0.04138834223512067
3327.0,0.04129280891271536
3326.0,0.041197296600497646
3325.0,0.04105406750606355
3324.0,0.04091088563260792
3323.0,0.04072004986906119
3322.0,0.040481623027001756
3321.0,0.040338629726504704
3320.0,0.0402909757535701
3319.0,0.04038628892895613
3318.0,0.040481623027001756
3317.0,0.040481623027001756
3316.0,0.040338629726504704
3315.0,0.04010041213405646
3314.0,0.03986232513620536
3313.0,0.03967194946985697
3312.0,0.03952922246570112
3311.0,0.03948165721929198
3310.0,0.03938654235209116
3309.0,0.03929144831144349
3308.0,0.03919637508823026
3307.0,0.03914884628031379
3306.0,0.03914884628031379
3305.0,0.03914884628031379
3304.0,0.03910132267333921
3303.0,0.039006291057664066
3302.0,0.038816290187564384
3301.0,0.03862637240519895
3300.0,0.03848398855105106
3299.0,0.03838909190871931
3298.0,0.038341651362284734
3297.0,0.03829421599749461
3296.0,0.03829421599749461
3295.0,0.03824678581321739
3294.0,0.038199360808321536
3293.0,0.038151940981675736
3292.0,0.038151940981675736
3291.0,0.038151940981675736
3290.0,0.038057116858612794
3289.0,0.03786753070176463
3288.0,0.03763066432997886
3287.0,0.037346595106788616
3286.0,0.03720463014276687
3285.0,0.037062711569998186
3284.0,0.0369681249461018
3283.0,0.036873558918095295
3282.0,0.036779013477011624
3281.0,0.036731748473764814
3280.0,0.03668448861388862
3279.0,0.03658998431977123
3278.0,0.03644826642590382
3277.0,0.03625938114211591
3276.0,0.0360705779734416
3275.0,0.03597620715996652
3274.0,0.03597620715996652
3273.0,0.03597620715996652
3272.0,0.03592902944204468
3271.0,0.03588185684851508
3270.0,0.03583468937826462
3269.0,0.035740369803151095
3268.0,0.035646070707806565
3267.0,0.03555179208333925
3266.0,0.03541041251009669
3265.0,0.03531618502395939
3264.0,0.03526907894637077
3263.0,0.03526907894637077
3262.0,0.03526907894637077
3261.0,0.03517488211661135
3260.0,0.03508070571335731
3259.0,0.03498654972775217
3258.0,0.0349394793888016
3257.0,0.03484535401307465
3256.0,0.03479829897408804
3255.0,0.03475124903287918
3254.0,0.03484535401307465
3253.0,0.0349394793888016
3252.0,0.03508070571335731
3251.0,0.03517488211661135
3250.0,0.03517488211661135
3249.0,0.03508070571335731
3248.0,0.03489241415094413
3247.0,0.03461012978487776
3246.0,0.03437503289075727
3245.0,0.034187046963396917
3244.0,0.033952178923546183
3243.0,0.03376437590141812
3242.0,0.03357665405630694
3241.0,0.033482823553208085
3240.0,0.03352973627071565
3239.0,0.03357665405630694
3238.0,0.03357665405630694
3237.0,0.03352973627071565
3236.0,0.033482823553208085
3235.0,0.03334211579824231
3234.0,0.033201453616638954
3233.0,0.0329671178412978
3232.0,0.03273290844021437
3231.0,0.032592443402527316
3230.0,0.03245202378113787
3229.0,0.03235843591698884
3228.0,0.03226486821611996
3227.0,0.03217132066984485
3226.0,0.03207779326948268
3225.0,0.03207779326948268
3224.0,0.032031037121307726
3223.0,0.03189079887180224
3222.0,0.03170388495374454
3221.0,0.03151705144606498
3220.0,0.03133029827960798
3219.0,0.031190286087141805
3218.0,0.031096969696171817
3217.0,0.031096969696171817
3216.0,0.031096969696171817
3215.0,0.031190286087141805
3214.0,0.031236951802751545
3213.0,0.031236951802751545
3212.0,0.031143625385307683
3211.0,0.030957032694186815
3210.0,0.030770520137356927
3209.0,0.03063068826647264
3208.0,0.030444315779156517
3207.0,0.030164906924202484
3206.0,0.029978734171634214
3205.0,0.029885677714903025
3204.0,0.029839156962686353
3203.0,0.029792641193145286
3202.0,0.029653123769906697
3201.0,0.029513651152349718
3200.0,0.02942069428514915
3199.0,0.02932775731028059
3198.0,0.029188389127482228
3197.0,0.029002634427514717
3196.0,0.02890978686288448
3195.0,0.028816959143838528
3194.0,0.02872415126189476
3193.0,0.02849221828874393
3192.0,0.028167720075074953
3191.0,0.027750864037404455
3190.0,0.02747318213414429
3189.0,0.027288159452933503
3188.0,0.02724191609646076
3187.0,0.027288159452933503
3186.0,0.02724191609646076
3185.0,0.02710321556345563
3184.0,0.026872146400301444
3183.0,0.026687379547098322
3182.0,0.026502691267936695
3181.0,0.026318081496016443
3180.0,0.02617967564731627
3179.0,0.025995203102585407
3178.0,0.025810808881832736
3177.0,0.025672564576383117
3176.0,0.02562649291857677
3175.0,0.025672564576383117
3174.0,0.025810808881832736
3173.0,0.025810808881832736
3172.0,0.02562649291857677
3171.0,0.025304128090317013
3170.0,0.024936003904763915
3169.0,0.024706084643793647
3168.0,0.02461415101053266
3167.0,0.024522236834125355
3166.0,0.024430342106337877
3165.0,0.024338466818941473
3164.0,0.024246610963712723
3163.0,0.024154774532432866
3162.0,0.024017056287453542
3161.0,0.023925268380126097
3160.0,0.023879381700184332
3159.0,0.023833499868024743
3158.0,0.023741750742954926
3157.0,0.02355831062115543
3156.0,0.023374947949272418
3155.0,0.023191662661933732
3154.0,0.023054249440757957
3153.0,0.02300845469384938
3152.0,0.02291687968414724
3151.0,0.02277955336461468
3150.0,0.022642270454698687
3149.0,0.022505030926963654
3148.0,0.022413561996148967
3147.0,0.022322112326006227
3146.0,0.022230681908425698
3145.0,0.02204787879853809
3144.0,0.021865152601710403
3143.0,0.021728158389364705
3142.0,0.02159120737696063
3141.0,0.021499930688540836
3140.0,0.02140867317992523
3139.0,0.021271822861508305
3138.0,0.0211806132671577
3137.0,0.021043834782408455
3136.0,0.020861530453190058
3135.0,0.02058821736556471
3134.0,0.02036058777709271
3133.0,0.02022406727031445
3132.0,0.02013307743509718
3131.0,0.02013307743509718
3130.0,0.02004210665933459
3129.0,0.019860222254245663
3128.0,0.019632973815224997
3127.0,0.01949668180660491
3126.0,0.019451260640229506
3125.0,0.01949668180660491
3124.0,0.01949668180660491
3123.0,0.01940584422377989
3122.0,0.019315025636685412
3121.0,0.019178833355664393
3120.0,0.019042683770379876
3119.0,0.018951941086827073
3118.0,0.018815862601645694
3117.0,0.018679826740892747
3116.0,0.018498511851753108
3115.0,0.018362575344230914
3114.0,0.01831727262871463
3113.0,0.01831727262871463
3112.0,0.01831727262871463
3111.0,0.018226681372252695
3110.0,0.01809082990920774
3109.0,0.017864505196230507
3108.0,0.017728766960431575
3107.0,0.017728766960431575
3106.0,0.017728766960431575
3105.0,0.017728766960431575
3104.0,0.01759307113620534
3103.0,0.017412209298337533
3102.0,0.017186237868137555
3101.0,0.017005545341335804
3100.0,0.016870075265299933
3099.0,0.016824927962187042
3098.0,0.01677978535189717
3097.0,0.016689514205884493
3096.0,0.016599261819461697
3095.0,0.01646391839700767
3094.0,0.01628352608625061
3093.0,0.016193358021584725
3092.0,0.016148281008528276
3091.0,0.016103208673694303
3090.0,0.016013078034810446
3089.0,0.015877917138889863
3088.0,0.015742798294583915
3087.0,0.015697768020096703
3086.0,0.015697768020096703
3085.0,0.015742798294583915
3084.0,0.015742798294583915
3083.0,0.015652742414136167
3082.0,0.015517693597737248
3081.0,0.015337693809893471
3080.0,0.015157768594724175
3079.0,0.015022873584506602
3078.0,0.014932966849499074
3077.0,0.014753209197138295
3076.0,0.014573525916998342
3075.0,0.014393916947563534
3074.0,0.014259258949925524
3073.0,0.014169510141607944
3072.0,0.014124642691606404
3071.0,0.01403492169512921
3070.0,0.013990068146738865
3069.0,0.013900374944870508
3068.0,0.01381070026317599
3067.0,0.01372104409400876
3066.0,0.013631406429727155
3065.0,0.013586594534531482
3064.0,0.013586594534531482
3063.0,0.013586594534531482
3062.0,0.013586594534531482
3061.0,0.013541787262693505
3060.0,0.013452186585275916
3059.0,0.013317820220494436
3058.0,0.013138729709955221
3057.0,0.013049212141483357
3056.0,0.012959713020733288
3055.0,0.012959713020733288
3054.0,0.012959713020733288
3053.0,0.012914970375878188
3052.0,0.012780770091995297
3051.0,0.01260190086298274
3050.0,0.012378417874516323
3049.0,0.012244383261476699
3048.0,0.012244383261476699
3047.0,0.012244383261476699
3046.0,0.012289056869694281
3045.0,0.012244383261476699
3044.0,0.01215504982870197
3043.0,0.012021084124518078
3042.0,0.011887159731648111
3041.0,0.011753276624621556
3040.0,0.011619434777991433
3039.0,0.011574829993696856
3038.0,0.011574829993696856
3037.0,0.011574829993696856
3036.0,0.011530229790124524
3035.0,0.011441043121384498
3034.0,0.011396456654336085
3033.0,0.011307297450183107
3032.0,0.011218156546359825
3031.0,0.01117359295472431
3030.0,0.011129033935354915
3029.0,0.011084479487313281
3028.0,0.010995384301463185
3027.0,0.010906307389674463
3026.0,0.010817248744452446
3025.0,0.010728208358306901
3024.0,0.010639186223752484
3023.0,0.010594681998483901
3022.0,0.010639186223752484
3021.0,0.010594681998483901
3020.0,0.01046119667949763
3019.0,0.01023881228122181
3018.0,0.010105436281226954
3017.0,0.01001654169860089
3016.0,0.010060986715464404
3015.0,0.010105436281226954
3014.0,0.010149890396819572
3013.0,0.010194349063173958
3012.0,0.010149890396819572
3011.0,0.010060986715464404
3010.0,0.01001654169860089
3009.0,0.01001654169860089
3008.0,0.010060986715464404
3007.0,0.010105436281226954
3006.0,0.010149890396819572
3005.0,0.010105436281226954
3004.0,0.010060986715464404
3003.0,0.010060986715464404
3002.0,0.010105436281226954
3001.0,0.010194349063173958
3000.0,0.010283280051895272
2999.0,0.01037222925484893
2998.0,0.01037222925484893
2997.0,0.010327752376126709
2996.0,0.010327752376126709
2995.0,0.01037222925484893
2994.0,0.010550182333308289
2993.0,0.010817248744452446
2992.0,0.011129033935354915
2991.0,0.011396456654336085
2990.0,0.011619434777991433
2989.0,0.011842527443247208
2988.0,0.012021084124518078
2987.0,0.012244383261476699
2986.0,0.01260190086298274
2985.0,0.013049212141483357
2984.0,0.013631406429727155
2983.0,0.014349026309051105
2982.0,0.015112798935672522
2981.0,0.01596801972881945
2980.0,0.016870075265299933
2979.0,0.017909760704207134
2978.0,0.019133445417920836
2977.0,0.020542681902151694
2976.0,0.0221849739168134
2975.0,0.024017056287453542
2974.0,0.02613355016462182
2973.0,0.028445846553939003
2972.0,0.030910397045078586
2971.0,0.03362357691107709
2970.0,0.03668448861388862
2969.0,0.040005161671583744
2968.0,0.04359142880416744
2967.0,0.04730440041308315
2966.0,0.051049389754451946
2965.0,0.05462990550969615
2964.0,0.05799194697768684
2963.0,0.06098022355133348
2962.0,0.06348625752110681
2961.0,0.0654005617819271
2960.0,0.06696850489759454
2959.0,0.06833876031551878
2958.0,0.06986635415888243
2957.0,0.07175781684269089
2956.0,0.07417242537525759
2955.0,0.07727454200674
2954.0,0.08092190762392604
2953.0,0.08470571697731355
2952.0,0.0881502035005799
2951.0,0.09071147583774919
2950.0,0.0919441259012328
2949.0,0.09156860103399356
2948.0,0.08969583193143116
2947.0,0.08650404038287651
2946.0,0.08238947425013277
2945.0,0.07789763319239285
2944.0,0.07355465218161061
2943.0,0.06971335275448043
2942.0,0.06676587128519196
2941.0,0.06469430971007495
2940.0,0.06363708040225546
2939.0,0.06343599486473406
2938.0,0.06408986356949264
2937.0,0.06545105233385295
2936.0,0.06742477650170953
2935.0,0.07001940948448526
2934.0,0.07319468988839395
2933.0,0.07696333132921396
2932.0,0.08139308485501817
2931.0,0.0862920860195171
2930.0,0.09151498112135026
2929.0,0.09696430321150284
2928.0,0.10253786198693682
2927.0,0.10812816955441629
2926.0,0.11367851344052027
2925.0,0.11918640771920863
2924.0,0.12470717462899183
2923.0,0.13035765534840538
2922.0,0.136142038116027
2921.0,0.14182386201765573
2920.0,0.14703230897118158
2919.0,0.15125681810431635
2918.0,0.1538485234711846
2917.0,0.15440590683997568
2916.0,0.15292113793428452
2915.0,0.14966014541652073
2914.0,0.14520830594601453
2913.0,0.14014147951900724
2912.0,0.13501453934020602
2911.0,0.13018179202067182
2910.0,0.12586622117202761
2909.0,0.1219955297319748
2908.0,0.11855827805860697
2907.0,0.11543118508166672
2906.0,0.11249522576462212
2905.0,0.10963487855187593
2904.0,0.10684878687013422
2903.0,0.10402526764093545
2902.0,0.10116516193172598
2901.0,0.09837823590664274
2900.0,0.0955549589230904
2899.0,0.09280368972839836
2898.0,0.09012318200960712
2897.0,0.08761850108119962
2896.0,0.08528671302637614
2895.0,0.0832303157168639
2894.0,0.08144546944972642
2893.0,0.07992887570247587
2892.0,0.07857365898473456
2891.0,0.07743023101428781
2890.0,0.07649693305789551
2889.0,0.07582412969807906
2888.0,0.07530729697981409
2887.0,0.07494587968815725
2886.0,0.07468790850035045
2885.0,0.07458476291575367
2884.0,0.07468790850035045
2883.0,0.07499749231902242
2882.0,0.0756173227980268
2881.0,0.07634157820669385
2880.0,0.07711890879170658
2879.0,0.07779372256098371
2878.0,0.0781575185941421
2877.0,0.07826151631540124
2876.0,0.07810552907089763
2875.0,0.07789763319239285
2874.0,0.0777417765670334
2873.0,0.07784567476894111
2872.0,0.07820951434181311
2871.0,0.0788860261633193
2870.0,0.07987667370927598
2869.0,0.0809742354126397
2868.0,0.08196966321511989
2867.0,0.08249449044745338
2866.0,0.08228448344050654
2865.0,0.08118360963962057
2864.0,0.07919861817434581
2863.0,0.07670415934449615
2862.0,0.07422394616325367
2861.0,0.07211658966929302
2860.0,0.07068327324650436
2859.0,0.07012147634321675
2858.0,0.07042782092345012
2857.0,0.07160414774328627
2856.0,0.07355465218161061
2855.0,0.07618627890881036
2854.0,0.07935499859321249
2853.0,0.08259953204474924
2852.0,0.08539243222891946
2851.0,0.08708744882390307
2850.0,0.08719360733870762
2849.0,0.08576265223225898
2848.0,0.08328292240118751
2847.0,0.08060807322614072
2846.0,0.07857365898473456
2845.0,0.07748213975538865
2844.0,0.07737832847680104
2843.0,0.0781575185941421
2842.0,0.07935499859321249
2841.0,0.08066036321258663
2840.0,0.08165507103772507
2839.0,0.08207457793525874
2838.0,0.08170748724464438
2837.0,0.08034671768963575
2836.0,0.07794959783282618
2835.0,0.07463633264589853
2834.0,0.07063217075990047
2833.0,0.06636088747507496
2832.0,0.06218131530164395
2831.0,0.0583395216116076
2830.0,0.0549747987575373
2829.0,0.052027420754219955
2828.0,0.04953778109440221
2827.0,0.04740126547022694
2826.0,0.045564513671517703
2825.0,0.0439276630048171
2824.0,0.04248848854552012
2823.0,0.041197296600497646
2822.0,0.040005161671583744
2821.0,0.038911280232103884
2820.0,0.03800971255993524
2819.0,0.03720463014276687
2818.0,0.03649550058570927
2817.0,0.03583468937826462
2816.0,0.03517488211661135
2815.0,0.034516075754861264
2814.0,0.033905220553829274
2813.0,0.033295223342125535
2812.0,0.03277974021703267
2811.0,0.032311649546687526
2810.0,0.03184406285002961
2809.0,0.03142366482450232
2808.0,0.031003673351687855
2807.0,0.030490901403433135
2806.0,0.029932203450862893
2805.0,0.02932775731028059
2804.0,0.028677754757187035
2803.0,0.028075050815808744
2802.0,0.027565723042634938
2801.0,0.02710321556345563
2800.0,0.02677975314776626
2799.0,0.026502691267936695
2798.0,0.026271941311972746
2797.0,0.026087429580295085
2796.0,0.025856900097785074
2795.0,0.02562649291857677
2794.0,0.025304128090317013
2793.0,0.024936003904763915
2792.0,0.024522236834125355
2791.0,0.024154774532432866
2790.0,0.023787622882622816
2789.0,0.023466619608062178
2788.0,0.023237476732539397
2787.0,0.02300845469384938
2786.0,0.022733787572707387
2785.0,0.022413561996148967
2784.0,0.022093572362881675
2783.0,0.021773818325474092
2782.0,0.0214542995372613
2781.0,0.02122621566987748
2780.0,0.020952673052035298
2779.0,0.020724852408976924
2778.0,0.020497151212598652
2777.0,0.02036058777709271
2776.0,0.02026956933771462
2775.0,0.02022406727031445
2774.0,0.020087589665283012
2773.0,0.01990568621470623
2772.0,0.019723858922159776
2771.0,0.01958753839310856
2770.0,0.01940584422377989
2769.0,0.019269623464054586
2768.0,0.0190880622231564
2767.0,0.018951941086827073
2766.0,0.018861217359339655
2765.0,0.018770512579999288
2764.0,0.018679826740892747
2763.0,0.018543833477873584
2762.0,0.01840788278591865
2761.0,0.018271974638383703
2760.0,0.018136109008649592
2759.0,0.01800028587012159
2758.0,0.017864505196230507
2757.0,0.017728766960431575
2756.0,0.017638298366853045
2755.0,0.01759307113620534
2754.0,0.017502630802287644
2753.0,0.017367005605150476
2752.0,0.017231422748988034
2751.0,0.017141057687924732
2750.0,0.017095882207371904
2749.0,0.017005545341335804
2748.0,0.016960383953898095
2747.0,0.016915227262211507
2746.0,0.016870075265299933
2745.0,0.016870075265299933
2744.0,0.016870075265299933
2743.0,0.016870075265299933
2742.0,0.016870075265299933
2741.0,0.016824927962187042
2740.0,0.016824927962187042
2739.0,0.016870075265299933
2738.0,0.017005545341335804
2737.0,0.017141057687924732
2736.0,0.017231422748988034
2735.0,0.017231422748988034
2734.0,0.017141057687924732
2733.0,0.017050711425501408
2732.0,0.017050711425501408
2731.0,0.017141057687924732
2730.0,0.01727661233145472
2729.0,0.017412209298337533
2728.0,0.017547848615010242
2727.0,0.017638298366853045
2726.0,0.017728766960431575
2725.0,0.017864505196230507
2724.0,0.017955020928509757
2723.0,0.01800028587012159
2722.0,0.017955020928509757
2721.0,0.01781925440359733
2720.0,0.01768353030793479
2719.0,0.017547848615010242
2718.0,0.017321806616515723
2717.0,0.017095882207371904
2716.0,0.016870075265299933
2715.0,0.016644385668211692
2714.0,0.01646391839700767
2713.0,0.01628352608625061
2712.0,0.016148281008528276
2711.0,0.016013078034810446
2710.0,0.015877917138889863
2709.0,0.01578783323856614
2708.0,0.015652742414136167
2707.0,0.015607721475734415
2706.0,0.015517693597737248
2705.0,0.015427684378367834
2704.0,0.015292705517326866
2703.0,0.015112798935672522
2702.0,0.014977917890464765
2701.0,0.014798141635428141
2700.0,0.014663358264387139
2699.0,0.01452861671041239
2698.0,0.0144837121472845
2697.0,0.0144837121472845
2696.0,0.01452861671041239
2695.0,0.01452861671041239
2694.0,0.01452861671041239
2693.0,0.0144837121472845
2692.0,0.014393916947563534
2691.0,0.014304140310157809
2690.0,0.014259258949925524
2689.0,0.014259258949925524
2688.0,0.014259258949925524
2687.0,0.014169510141607944
2686.0,0.014079779876432497
2685.0,0.01403492169512921
2684.0,0.01403492169512921
2683.0,0.013990068146738865
2682.0,0.013990068146738865
2681.0,0.013945219230304673
2680.0,0.013900374944870508
2679.0,0.01385553528947936
2678.0,0.01385553528947936
2677.0,0.013900374944870508
2676.0,0.013900374944870508
2675.0,0.013900374944870508
2674.0,0.013900374944870508
2673.0,0.01385553528947936
2672.0,0.013765869865004277
2671.0,0.013676222949234651
2670.0,0.013676222949234651
2669.0,0.013676222949234651
2668.0,0.013676222949234651
2667.0,0.013631406429727155
2666.0,0.013586594534531482
2665.0,0.013541787262693505
2664.0,0.013452186585275916
2663.0,0.013407393177789162
2662.0,0.013362604389846044
2661.0,0.013273040668781544
2660.0,0.01322826573375524
2659.0,0.013138729709955221
2658.0,0.013138729709955221
2657.0,0.013138729709955221
2656.0,0.01318349541446362
2655.0,0.01322826573375524
2654.0,0.013138729709955221
2653.0,0.013004460275618523
2652.0,0.012870232340102872
2651.0,0.012780770091995297
2650.0,0.012691326268817527
2649.0,0.012691326268817527
2648.0,0.01264661126420652
2647.0,0.012691326268817527
2646.0,0.01264661126420652
2645.0,0.012557195064198723
2644.0,0.012467797270160563
2643.0,0.012378417874516323
2642.0,0.012333735073725371
2641.0,0.012333735073725371
2640.0,0.012333735073725371
2639.0,0.012289056869694281
2638.0,0.012244383261476699
2637.0,0.01215504982870197
2636.0,0.012110390002254778
2635.0,0.012110390002254778
2634.0,0.012110390002254778
2633.0,0.01215504982870197
2632.0,0.012199714248127602
2631.0,0.012199714248127602
2630.0,0.012199714248127602
2629.0,0.012110390002254778
2628.0,0.012065734767841452
2627.0,0.012021084124518078
2626.0,0.012021084124518078
2625.0,0.011931796607364653
2624.0,0.011842527443247208
2623.0,0.011753276624621556
2622.0,0.011753276624621556
2621.0,0.011753276624621556
2620.0,0.011753276624621556
2619.0,0.011753276624621556
2618.0,0.011797899741219142
2617.0,0.011797899741219142
2616.0,0.011842527443247208
2615.0,0.011842527443247208
2614.0,0.011842527443247208
2613.0,0.011842527443247208
2612.0,0.011797899741219142
2611.0,0.011708658092512314
2610.0,0.011619434777991433
2609.0,0.011485634166333858
2608.0,0.011396456654336085
2607.0,0.011262724711199823
2606.0,0.01117359295472431
2605.0,0.011084479487313281
2604.0,0.010995384301463185
2603.0,0.010995384301463185
2602.0,0.010995384301463185
2601.0,0.011129033935354915
2600.0,0.011218156546359825
2599.0,0.011262724711199823
2598.0,0.011262724711199823
2597.0,0.01117359295472431
2596.0,0.011084479487313281
2595.0,0.011039929609661936
2594.0,0.011084479487313281
2593.0,0.01117359295472431
2592.0,0.011218156546359825
2591.0,0.011218156546359825
2590.0,0.011129033935354915
2589.0,0.011084479487313281
2588.0,0.01117359295472431
2587.0,0.011307297450183107
2586.0,0.011441043121384498
2585.0,0.011485634166333858
2584.0,0.011441043121384498
2583.0,0.011396456654336085
2582.0,0.011396456654336085
2581.0,0.011351874764248926
2580.0,0.011351874764248926
2579.0,0.011262724711199823
2578.0,0.01117359295472431
2577.0,0.011084479487313281
2576.0,0.010950843561779777
2575.0,0.010817248744452446
2574.0,0.010728208358306901
2573.0,0.010639186223752484
2572.0,0.010505687227290839
2571.0,0.01046119667949763
2570.0,0.010416710688994968
2569.0,0.010416710688994968
2568.0,0.010416710688994968
2567.0,0.01037222925484893
2566.0,0.01037222925484893
2565.0,0.01037222925484893
2564.0,0.01037222925484893
2563.0,0.010327752376126709
2562.0,0.010283280051895272
2561.0,0.01023881228122181
2560.0,0.01023881228122181
2559.0,0.01023881228122181
2558.0,0.010283280051895272
2557.0,0.010327752376126709
2556.0,0.010283280051895272
2555.0,0.01023881228122181
2554.0,0.010149890396819572
2553.0,0.010105436281226954
2552.0,0.010060986715464404
2551.0,0.010060986715464404
2550.0,0.010060986715464404
2549.0,0.01001654169860089
2548.0,0.009883233932095559
2547.0,0.00974996707218323
2546.0,0.009616741093766423
2545.0,0.009527946474380489
2544.0,0.009527946474380489
2543.0,0.009527946474380489
2542.0,0.009527946474380489
2541.0,0.009527946474380489
2540.0,0.009572341514736404
2539.0,0.009527946474380489
2538.0,0.009439170005980158
2537.0,0.00939478857608056
2536.0,0.00939478857608056
2535.0,0.009439170005980158
2534.0,0.009483555971770974
2533.0,0.009527946474380489
2532.0,0.009572341514736404
2531.0,0.009527946474380489
2530.0,0.009483555971770974
2529.0,0.00939478857608056
2528.0,0.009350411681145587
2527.0,0.009350411681145587
2526.0,0.009350411681145587
2525.0,0.009350411681145587
2524.0,0.009350411681145587
2523.0,0.009350411681145587
2522.0,0.009306039320248427
2521.0,0.009261671492462709
2520.0,0.009217308196862062
2519.0,0.009172949432521227
2518.0,0.009172949432521227
2517.0,0.009172949432521227
2516.0,0.009217308196862062
2515.0,0.009217308196862062
2514.0,0.009172949432521227
2513.0,0.00908424549391551
2512.0,0.009039900317800775
2511.0,0.008951223547323472
2510.0,0.008862564879688284
2509.0,0.008862564879688284
2508.0,0.008862564879688284
2507.0,0.008862564879688284
2506.0,0.008906891951112605
2505.0,0.008906891951112605
2504.0,0.008862564879688284
2503.0,0.008773924307505121
2502.0,0.008640997362049818
2501.0,0.008552401996197112
2500.0,0.00850811108984062
2499.0,0.00850811108984062
2498.0,0.008552401996197112
2497.0,0.008596697419959609
2496.0,0.008640997362049818
2495.0,0.008640997362049818
2494.0,0.008640997362049818
2493.0,0.008596697419959609
2492.0,0.008552401996197112
2491.0,0.008552401996197112
2490.0,0.00850811108984062
2489.0,0.00850811108984062
2488.0,0.00850811108984062
2487.0,0.008463824699968647
2486.0,0.008375265465994541
2485.0,0.008375265465994541
2484.0,0.008419542825660153
2483.0,0.00850811108984062
2482.0,0.008640997362049818
2481.0,0.008685301823389224
2480.0,0.008640997362049818
2479.0,0.008596697419959609
2478.0,0.00850811108984062
2477.0,0.008419542825660153
2476.0,0.008330992620051436
2475.0,0.008286724286910463
2474.0,0.008330992620051436
2473.0,0.008330992620051436
2472.0,0.008286724286910463
2471.0,0.008242460465651913
2470.0,0.008198201155356077
2469.0,0.008242460465651913
2468.0,0.008330992620051436
2467.0,0.008419542825660153
2466.0,0.008463824699968647
2465.0,0.008463824699968647
2464.0,0.008463824699968647
2463.0,0.008375265465994541
2462.0,0.008286724286910463
2461.0,0.008242460465651913
2460.0,0.008198201155356077
2459.0,0.008153946355103248
2458.0,0.008153946355103248
2457.0,0.008198201155356077
2456.0,0.008242460465651913
2455.0,0.008286724286910463
2454.0,0.008286724286910463
2453.0,0.008242460465651913
2452.0,0.008198201155356077
2451.0,0.008153946355103248
2450.0,0.008153946355103248
2449.0,0.008198201155356077
2448.0,0.008198201155356077
2447.0,0.008198201155356077
2446.0,0.008198201155356077
2445.0,0.008198201155356077
2444.0,0.008198201155356077
2443.0,0.008242460465651913
2442.0,0.008198201155356077
2441.0,0.008153946355103248
2440.0,0.008109696063975047
2439.0,0.008021209005416363
2438.0,0.008021209005416363
2437.0,0.008021209005416363
2436.0,0.008065450281052211
2435.0,0.008109696063975047
2434.0,0.008153946355103248
2433.0,0.008153946355103248
2432.0,0.008153946355103248
2431.0,0.008109696063975047
2430.0,0.008153946355103248
2429.0,0.008198201155356077
2428.0,0.008242460465651913
2427.0,0.008330992620051436
2426.0,0.008330992620051436
2425.0,0.008375265465994541
2424.0,0.008375265465994541
2423.0,0.008419542825660153
2422.0,0.008419542825660153
2421.0,0.008463824699968647
2420.0,0.008463824699968647
2419.0,0.008463824699968647
2418.0,0.00850811108984062
2417.0,0.00850811108984062
2416.0,0.008463824699968647
2415.0,0.008375265465994541
2414.0,0.008286724286910463
2413.0,0.008286724286910463
2412.0,0.008286724286910463
2411.0,0.008286724286910463
2410.0,0.008242460465651913
2409.0,0.008242460465651913
2408.0,0.008242460465651913
2407.0,0.008286724286910463
2406.0,0.008242460465651913
2405.0,0.008242460465651913
2404.0,0.008198201155356077
2403.0,0.008198201155356077
2402.0,0.008286724286910463
2401.0,0.008330992620051436
2400.0,0.008330992620051436
2399.0,0.008330992620051436
2398.0,0.008286724286910463
2397.0,0.008198201155356077
2396.0,0.008109696063975047
2395.0,0.008065450281052211
2394.0,0.008065450281052211
2393.0,0.008065450281052211
2392.0,0.008021209005416363
2391.0,0.008021209005416363
2390.0,0.008065450281052211
2389.0,0.008109696063975047
2388.0,0.008109696063975047
2387.0,0.008109696063975047
2386.0,0.008065450281052211
2385.0,0.008109696063975047
2384.0,0.008109696063975047
2383.0,0.008065450281052211
2382.0,0.008065450281052211
2381.0,0.008065450281052211
2380.0,0.008065450281052211
2379.0,0.008065450281052211
2378.0,0.007932739972333236
2377.0,0.007667440952535687
2376.0,0.007358130121602358
2375.0,0.007004901568658406
2374.0,0.006828394969235152
2373.0,0.006916639301937977
2372.0,0.007269796045857202
2371.0,0.007755855953228474
2370.0,0.008109696063975047
2369.0,0.008242460465651913
2368.0,0.008153946355103248
2367.0,0.008065450281052211
2366.0,0.008065450281052211
2365.0,0.008021209005416363
2364.0,0.007932739972333236
2363.0,0.007932739972333236
2362.0,0.008153946355103248
2361.0,0.00850811108984062
2360.0,0.0087296108049002
2359.0,0.008552401996197112
2358.0,0.008021209005416363
2357.0,0.007534852191956709
2356.0,0.007313960837872058
2355.0,0.007490664932224611
2354.0,0.007800070204414977
2353.0,0.007932739972333236
2352.0,0.007976972236149349
2351.0,0.008198201155356077
2350.0,0.008640997362049818
2349.0,0.008906891951112605
2348.0,0.008818242332126802
2347.0,0.00850811108984062
2346.0,0.008375265465994541
2345.0,0.0087296108049002
2344.0,0.009039900317800775
2343.0,0.008818242332126802
2342.0,0.008021209005416363
2341.0,0.007049039429553483
2340.0,0.006299305179649828
2339.0,0.005990966876386672
2338.0,0.00612308505878878
2337.0,0.006607862550997545
2336.0,0.007181479933320523
2335.0,0.007667440952535687
2334.0,0.008021209005416363
2333.0,0.008109696063975047
2332.0,0.008021209005416363
2331.0,0.007932739972333236
2330.0,0.007932739972333236
2329.0,0.008021209005416363
2328.0,0.008021209005416363
2327.0,0.007888512213050314
2326.0,0.007800070204414977
2325.0,0.007800070204414977
2324.0,0.007888512213050314
2323.0,0.008065450281052211
2322.0,0.008286724286910463
2321.0,0.008463824699968647
2320.0,0.00850811108984062
2319.0,0.00850811108984062
2318.0,0.00850811108984062
2317.0,0.008463824699968647
2316.0,0.008286724286910463
2315.0,0.008021209005416363
2314.0,0.007755855953228474
2313.0,0.00762324020119709
2312.0,0.00762324020119709
2311.0,0.007755855953228474
2310.0,0.007932739972333236
2309.0,0.008065450281052211
2308.0,0.008065450281052211
2307.0,0.007932739972333236
2306.0,0.007844288957383316
2305.0,0.007800070204414977
2304.0,0.007755855953228474
2303.0,0.007800070204414977
2302.0,0.007800070204414977
2301.0,0.007844288957383316
2300.0,0.007844288957383316
2299.0,0.007888512213050314
2298.0,0.007932739972333236
2297.0,0.008021209005416363
2296.0,0.008109696063975047
2295.0,0.008109696063975047
2294.0,0.008065450281052211
2293.0,0.007976972236149349
2292.0,0.007888512213050314
2291.0,0.007844288957383316
2290.0,0.007755855953228474
2289.0,0.007711646202907652
2288.0,0.007711646202907652
2287.0,0.007711646202907652
2286.0,0.007800070204414977
2285.0,0.007800070204414977
2284.0,0.007755855953228474
2283.0,0.007711646202907652
2282.0,0.007711646202907652
2281.0,0.007755855953228474
2280.0,0.007800070204414977
2279.0,0.007888512213050314
2278.0,0.007932739972333236
2277.0,0.007976972236149349
2276.0,0.007976972236149349
2275.0,0.007932739972333236
2274.0,0.007888512213050314
2273.0,0.007888512213050314
2272.0,0.007888512213050314
2271.0,0.007888512213050314
2270.0,0.007888512213050314
2269.0,0.007888512213050314
2268.0,0.007844288957383316
2267.0,0.007844288957383316
2266.0,0.007888512213050314
2265.0,0.007888512213050314
2264.0,0.007888512213050314
2263.0,0.007844288957383316
2262.0,0.007755855953228474
2261.0,0.007711646202907652
2260.0,0.007667440952535687
2259.0,0.007711646202907652
2258.0,0.007800070204414977
2257.0,0.007932739972333236
2256.0,0.008021209005416363
2255.0,0.008021209005416363
2254.0,0.007976972236149349
2253.0,0.007976972236149349
2252.0,0.007976972236149349
2251.0,0.007976972236149349
2250.0,0.007932739972333236
2249.0,0.007844288957383316
2248.0,0.007755855953228474
2247.0,0.007711646202907652
2246.0,0.007755855953228474
2245.0,0.007800070204414977
2244.0,0.007844288957383316
2243.0,0.007888512213050314
2242.0,0.007844288957383316
2241.0,0.007800070204414977
2240.0,0.007755855953228474
2239.0,0.007711646202907652
2238.0,0.007667440952535687
2237.0,0.007667440952535687
2236.0,0.007667440952535687
2235.0,0.007711646202907652
2234.0,0.007711646202907652
2233.0,0.007711646202907652
2232.0,0.007667440952535687
2231.0,0.007667440952535687
2230.0,0.00762324020119709
2229.0,0.0075790439479759275
2228.0,0.007490664932224611
2227.0,0.007402303897961815
2226.0,0.007313960837872058
2225.0,0.007269796045857202
2224.0,0.007269796045857202
2223.0,0.007313960837872058
2222.0,0.007358130121602358
2221.0,0.0074464821678643656
2220.0,0.007534852191956709
2219.0,0.0075790439479759275
2218.0,0.007534852191956709
2217.0,0.007534852191956709
2216.0,0.007490664932224611
2215.0,0.0074464821678643656
2214.0,0.0074464821678643656
2213.0,0.007402303897961815
2212.0,0.007402303897961815
2211.0,0.007402303897961815
2210.0,0.0074464821678643656
2209.0,0.0075790439479759275
2208.0,0.00762324020119709
2207.0,0.00762324020119709
2206.0,0.0075790439479759275
2205.0,0.007534852191956709
2204.0,0.007490664932224611
2203.0,0.007402303897961815
2202.0,0.007358130121602358
2201.0,0.007313960837872058
2200.0,0.007402303897961815
2199.0,0.0074464821678643656
2198.0,0.007534852191956709
2197.0,0.007534852191956709
2196.0,0.007490664932224611
2195.0,0.007490664932224611
2194.0,0.007490664932224611
2193.0,0.0075790439479759275
2192.0,0.00762324020119709
2191.0,0.007667440952535687
2190.0,0.00762324020119709
2189.0,0.0075790439479759275
2188.0,0.007534852191956709
2187.0,0.0074464821678643656
2186.0,0.007402303897961815
2185.0,0.007358130121602358
2184.0,0.007402303897961815
2183.0,0.0074464821678643656
2182.0,0.007534852191956709
2181.0,0.0075790439479759275
2180.0,0.0075790439479759275
2179.0,0.0075790439479759275
2178.0,0.007534852191956709
2177.0,0.007490664932224611
2176.0,0.0074464821678643656
2175.0,0.0074464821678643656
2174.0,0.007490664932224611
2173.0,0.0075790439479759275
2172.0,0.0075790439479759275
2171.0,0.0075790439479759275
2170.0,0.007490664932224611
2169.0,0.0074464821678643656
2168.0,0.007402303897961815
2167.0,0.0074464821678643656
2166.0,0.007490664932224611
2165.0,0.007534852191956709
2164.0,0.007534852191956709
2163.0,0.007534852191956709
2162.0,0.0074464821678643656
2161.0,0.007402303897961815
2160.0,0.007313960837872058
2159.0,0.007313960837872058
2158.0,0.007313960837872058
2157.0,0.007313960837872058
2156.0,0.007358130121602358
2155.0,0.007358130121602358
2154.0,0.007358130121602358
2153.0,0.007358130121602358
2152.0,0.007313960837872058
2151.0,0.007313960837872058
2150.0,0.007269796045857202
2149.0,0.007181479933320523
2148.0,0.007137328610972382
2147.0,0.007049039429553483
2146.0,0.007049039429553483
2145.0,0.007093181776687496
2144.0,0.007137328610972382
2143.0,0.007225635744644521
2142.0,0.007225635744644521
2141.0,0.007181479933320523
2140.0,0.007137328610972382
2139.0,0.007137328610972382
2138.0,0.007137328610972382
2137.0,0.007137328610972382
2136.0,0.007137328610972382
2135.0,0.007137328610972382
2134.0,0.007137328610972382
2133.0,0.007137328610972382
2132.0,0.007137328610972382
2131.0,0.007181479933320523
2130.0,0.007225635744644521
2129.0,0.007269796045857202
2128.0,0.007358130121602358
2127.0,0.007402303897961815
2126.0,0.007358130121602358
2125.0,0.007225635744644521
2124.0,0.007137328610972382
2123.0,0.007049039429553483
2122.0,0.007004901568658406
2121.0,0.00696076819309055
2120.0,0.00696076819309055
2119.0,0.006916639301937977
2118.0,0.006872514894289861
2117.0,0.006872514894289861
2116.0,0.006916639301937977
2115.0,0.007004901568658406
2114.0,0.007049039429553483
2113.0,0.007049039429553483
2112.0,0.007004901568658406
2111.0,0.00696076819309055
2110.0,0.006872514894289861
2109.0,0.006828394969235152
2108.0,0.006828394969235152
2107.0,0.006872514894289861
2106.0,0.00696076819309055
2105.0,0.007049039429553483
2104.0,0.007093181776687496
2103.0,0.007093181776687496
2102.0,0.007049039429553483
2101.0,0.007004901568658406
2100.0,0.007004901568658406
2099.0,0.00696076819309055
2098.0,0.007004901568658406
2097.0,0.007004901568658406
2096.0,0.007049039429553483
2095.0,0.007004901568658406
2094.0,0.00696076819309055
2093.0,0.006916639301937977
2092.0,0.006872514894289861
2091.0,0.006916639301937977
2090.0,0.006916639301937977
2089.0,0.006916639301937977
2088.0,0.006872514894289861
2087.0,0.006828394969235152
2086.0,0.006828394969235152
2085.0,0.006784279525863024
2084.0,0.006740168563263094
2083.0,0.006696062080525422
2082.0,0.006696062080525422
2081.0,0.006740168563263094
2080.0,0.006828394969235152
2079.0,0.006828394969235152
2078.0,0.006872514894289861
2077.0,0.006828394969235152
2076.0,0.006784279525863024
2075.0,0.006784279525863024
2074.0,0.006828394969235152
2073.0,0.006872514894289861
2072.0,0.006872514894289861
2071.0,0.006828394969235152
2070.0,0.006828394969235152
2069.0,0.006872514894289861
2068.0,0.006872514894289861
2067.0,0.006872514894289861
2066.0,0.006828394969235152
2065.0,0.006784279525863024
2064.0,0.006740168563263094
2063.0,0.006740168563263094
2062.0,0.006784279525863024
2061.0,0.006828394969235152
2060.0,0.006828394969235152
2059.0,0.006784279525863024
2058.0,0.006740168563263094
2057.0,0.006696062080525422
2056.0,0.006651960076740071
2055.0,0.006651960076740071
2054.0,0.006651960076740071
2053.0,0.006696062080525422
2052.0,0.006784279525863024
2051.0,0.006828394969235152
2050.0,0.006872514894289861
2049.0,0.006872514894289861
2048.0,0.006828394969235152
2047.0,0.006740168563263094
2046.0,0.006696062080525422
2045.0,0.006696062080525422
2044.0,0.006696062080525422
2043.0,0.006696062080525422
2042.0,0.006740168563263094
2041.0,0.006784279525863024
2040.0,0.006740168563263094
2039.0,0.006696062080525422
2038.0,0.006651960076740071
2037.0,0.006651960076740071
2036.0,0.006696062080525422
2035.0,0.006696062080525422
2034.0,0.006740168563263094
2033.0,0.006696062080525422
2032.0,0.006651960076740071
2031.0,0.006651960076740071
2030.0,0.006651960076740071
2029.0,0.006696062080525422
2028.0,0.006784279525863024
2027.0,0.006872514894289861
2026.0,0.006916639301937977
2025.0,0.00696076819309055
2024.0,0.007004901568658406
2023.0,0.007004901568658406
2022.0,0.00696076819309055
2021.0,0.006916639301937977
2020.0,0.006872514894289861
2019.0,0.006828394969235152
2018.0,0.006828394969235152
2017.0,0.006828394969235152
2016.0,0.006828394969235152
2015.0,0.006740168563263094
2014.0,0.006696062080525422
2013.0,0.006607862550997545
2012.0,0.006519680930003435
2011.0,0.006475596832934416
2010.0,0.006431517210272464
2009.0,0.006431517210272464
2008.0,0.006431517210272464
2007.0,0.006475596832934416
2006.0,0.006519680930003435
2005.0,0.00656376950238835
2004.0,0.006607862550997545
2003.0,0.006607862550997545
2002.0,0.006607862550997545
2001.0,0.006651960076740071
2000.0,0.006651960076740071
1999.0,0.006607862550997545
1998.0,0.006519680930003435
1997.0,0.006431517210272464
1996.0,0.006431517210272464
1995.0,0.006519680930003435
1994.0,0.006651960076740071
1993.0,0.006740168563263094
1992.0,0.006740168563263094
1991.0,0.006696062080525422
1990.0,0.006696062080525422
1989.0,0.006651960076740071
1988.0,0.006607862550997545
1987.0,0.006519680930003435
1986.0,0.006475596832934416
1985.0,0.006475596832934416
1984.0,0.006475596832934416
1983.0,0.006475596832934416
1982.0,0.006519680930003435
1981.0,0.006651960076740071
1980.0,0.006696062080525422
1979.0,0.006696062080525422
1978.0,0.006696062080525422
1977.0,0.006651960076740071
1976.0,0.006651960076740071
1975.0,0.006651960076740071
1974.0,0.006607862550997545
1973.0,0.006607862550997545
1972.0,0.006607862550997545
1971.0,0.006651960076740071
1970.0,0.006651960076740071
1969.0,0.006607862550997545
1968.0,0.00656376950238835
1967.0,0.00656376950238835
1966.0,0.00656376950238835
1965.0,0.00656376950238835
1964.0,0.00656376950238835
1963.0,0.006519680930003435
1962.0,0.006431517210272464
1961.0,0.006387442061109638
1960.0,0.006387442061109638
1959.0,0.006387442061109638
1958.0,0.006387442061109638
1957.0,0.006431517210272464
1956.0,0.006475596832934416
1955.0,0.006519680930003435
1954.0,0.006475596832934416
1953.0,0.006431517210272464
1952.0,0.006387442061109638
1951.0,0.006343371384537999
1950.0,0.006343371384537999
1949.0,0.006299305179649828
1948.0,0.006299305179649828
1947.0,0.006299305179649828
1946.0,0.006343371384537999
1945.0,0.006343371384537999
1944.0,0.006343371384537999
1943.0,0.006343371384537999
1942.0,0.006387442061109638
1941.0,0.006431517210272464
1940.0,0.006475596832934416
1939.0,0.006431517210272464
1938.0,0.006431517210272464
1937.0,0.006387442061109638
1936.0,0.006387442061109638
1935.0,0.006343371384537999
1934.0,0.006299305179649828
1933.0,0.00625524344553785
1932.0,0.006167133386013823
1931.0,0.006079041198713275
1930.0,0.006079041198713275
1929.0,0.006167133386013823
1928.0,0.006299305179649828
1927.0,0.006343371384537999
1926.0,0.006387442061109638
1925.0,0.006387442061109638
1924.0,0.006387442061109638
1923.0,0.006387442061109638
1922.0,0.006387442061109638
1921.0,0.006431517210272464
1920.0,0.006431517210272464
1919.0,0.006387442061109638
1918.0,0.006299305179649828
1917.0,0.00625524344553785
1916.0,0.006299305179649828
1915.0,0.006299305179649828
1914.0,0.006343371384537999
1913.0,0.006343371384537999
1912.0,0.006343371384537999
1911.0,0.006387442061109638
1910.0,0.006431517210272464
1909.0,0.006475596832934416
1908.0,0.006475596832934416
1907.0,0.006387442061109638
1906.0,0.006299305179649828
1905.0,0.00625524344553785
1904.0,0.00621118618129457
1903.0,0.00621118618129457
1902.0,0.006299305179649828
1901.0,0.006387442061109638
1900.0,0.006431517210272464
1899.0,0.006431517210272464
1898.0,0.006431517210272464
1897.0,0.006431517210272464
1896.0,0.006343371384537999
1895.0,0.00625524344553785
1894.0,0.00621118618129457
1893.0,0.00621118618129457
1892.0,0.00625524344553785
1891.0,0.00621118618129457
1890.0,0.00612308505878878
1889.0,0.00612308505878878
1888.0,0.00612308505878878
1887.0,0.00621118618129457
1886.0,0.006299305179649828
1885.0,0.006343371384537999
1884.0,0.006299305179649828
1883.0,0.006299305179649828
1882.0,0.006299305179649828
1881.0,0.006343371384537999
1880.0,0.006343371384537999
1879.0,0.006299305179649828
1878.0,0.00625524344553785
1877.0,0.00625524344553785
1876.0,0.00621118618129457
1875.0,0.006167133386013823
1874.0,0.00612308505878878
1873.0,0.00621118618129457
1872.0,0.006299305179649828
1871.0,0.006431517210272464
1870.0,0.006431517210272464
1869.0,0.006431517210272464
1868.0,0.006343371384537999
1867.0,0.006299305179649828
1866.0,0.006299305179649828
1865.0,0.006299305179649828
1864.0,0.006299305179649828
1863.0,0.00625524344553785
1862.0,0.00621118618129457
1861.0,0.00612308505878878
1860.0,0.00612308505878878
1859.0,0.00612308505878878
1858.0,0.006167133386013823
1857.0,0.00621118618129457
1856.0,0.00621118618129457
1855.0,0.006167133386013823
1854.0,0.006079041198713275
1853.0,0.006079041198713275
1852.0,0.00612308505878878
1851.0,0.006167133386013823
1850.0,0.00621118618129457
1849.0,0.00621118618129457
1848.0,0.00625524344553785
1847.0,0.006343371384537999
1846.0,0.006387442061109638
1845.0,0.006387442061109638
1844.0,0.006343371384537999
1843.0,0.006299305179649828
1842.0,0.00625524344553785
1841.0,0.00621118618129457
1840.0,0.006167133386013823
1839.0,0.00612308505878878
1838.0,0.006167133386013823
1837.0,0.006167133386013823
1836.0,0.006167133386013823
1835.0,0.006167133386013823
1834.0,0.00621118618129457
1833.0,0.00621118618129457
1832.0,0.006167133386013823
1831.0,0.006079041198713275
1830.0,0.005946936412324799
1829.0,0.006035001804881146
1828.0,0.00621118618129457
1827.0,0.006387442061109638
1826.0,0.006387442061109638
1825.0,0.006299305179649828
1824.0,0.00621118618129457
1823.0,0.006167133386013823
1822.0,0.00612308505878878
1821.0,0.006079041198713275
1820.0,0.006079041198713275
1819.0,0.006079041198713275
1818.0,0.006079041198713275
1817.0,0.00612308505878878
1816.0,0.00612308505878878
1815.0,0.006167133386013823
1814.0,0.006167133386013823
1813.0,0.00612308505878878
1812.0,0.00612308505878878
1811.0,0.006035001804881146
1810.0,0.006035001804881146
1809.0,0.006079041198713275
1808.0,0.006167133386013823
1807.0,0.006167133386013823
1806.0,0.00612308505878878
1805.0,0.00612308505878878
1804.0,0.006079041198713275
1803.0,0.006079041198713275
1802.0,0.00612308505878878
1801.0,0.00621118618129457
1800.0,0.00625524344553785
1799.0,0.00621118618129457
1798.0,0.00621118618129457
1797.0,0.00625524344553785
1796.0,0.006299305179649828
1795.0,0.006343371384537999
1794.0,0.006299305179649828
1793.0,0.00625524344553785
1792.0,0.00625524344553785
1791.0,0.006299305179649828
1790.0,0.006299305179649828
1789.0,0.006343371384537999
1788.0,0.006387442061109638
1787.0,0.006387442061109638
1786.0,0.006343371384537999
1785.0,0.006343371384537999
1784.0,0.006299305179649828
1783.0,0.006343371384537999
1782.0,0.006343371384537999
1781.0,0.006387442061109638
1780.0,0.006431517210272464
1779.0,0.006475596832934416
1778.0,0.006475596832934416
1777.0,0.006475596832934416
1776.0,0.006519680930003435
1775.0,0.006519680930003435
1774.0,0.006519680930003435
1773.0,0.006431517210272464
1772.0,0.006387442061109638
1771.0,0.006431517210272464
1770.0,0.006607862550997545
1769.0,0.006784279525863024
1768.0,0.006828394969235152
1767.0,0.006828394969235152
1766.0,0.006828394969235152
1765.0,0.006916639301937977
1764.0,0.007049039429553483
1763.0,0.007181479933320523
1762.0,0.007269796045857202
1761.0,0.007313960837872058
1760.0,0.0074464821678643656
1759.0,0.00762324020119709
1758.0,0.007844288957383316
1757.0,0.008153946355103248
1756.0,0.008552401996197112
1755.0,0.008906891951112605
1754.0,0.009217308196862062
1753.0,0.009527946474380489
1752.0,0.009883233932095559
1751.0,0.010327752376126709
1750.0,0.010817248744452446
1749.0,0.011351874764248926
1748.0,0.011887159731648111
1747.0,0.012333735073725371
1746.0,0.01264661126420652
1745.0,0.012914970375878188
1744.0,0.013138729709955221
1743.0,0.013362604389846044
1742.0,0.013496984613259544
1741.0,0.013586594534531482
1740.0,0.013631406429727155
1739.0,0.013586594534531482
1738.0,0.013631406429727155
1737.0,0.013631406429727155
1736.0,0.013541787262693505
1735.0,0.01318349541446362
1734.0,0.012870232340102872
1733.0,0.012691326268817527
1732.0,0.01264661126420652
1731.0,0.012512493866907004
1730.0,0.012333735073725371
1729.0,0.012110390002254778
1728.0,0.012021084124518078
1727.0,0.011931796607364653
1726.0,0.011842527443247208
1725.0,0.011753276624621556
1724.0,0.011708658092512314
1723.0,0.011664044143949504
1722.0,0.011708658092512314
1721.0,0.011797899741219142
1720.0,0.011842527443247208
1719.0,0.011842527443247208
1718.0,0.011887159731648111
1717.0,0.012065734767841452
1716.0,0.01215504982870197
1715.0,0.01215504982870197
1714.0,0.012110390002254778
1713.0,0.012110390002254778
1712.0,0.012110390002254778
1711.0,0.012065734767841452
1710.0,0.012021084124518078
1709.0,0.012021084124518078
1708.0,0.012065734767841452
1707.0,0.012065734767841452
1706.0,0.012065734767841452
1705.0,0.012199714248127602
1704.0,0.012467797270160563
1703.0,0.012736045877764557
1702.0,0.012870232340102872
1701.0,0.012959713020733288
1700.0,0.013093968619278806
1699.0,0.01322826573375524
1698.0,0.013496984613259544
1697.0,0.01372104409400876
1696.0,0.01381070026317599
1695.0,0.01381070026317599
1694.0,0.01385553528947936
1693.0,0.013990068146738865
1692.0,0.014079779876432497
1691.0,0.014079779876432497
1690.0,0.014214382227394795
1689.0,0.0144837121472845
1688.0,0.014798141635428141
1687.0,0.014977917890464765
1686.0,0.015112798935672522
1685.0,0.01538268676325183
1684.0,0.01596801972881945
1683.0,0.016418813294209356
1682.0,0.016824927962187042
1681.0,0.017141057687924732
1680.0,0.017367005605150476
1679.0,0.017547848615010242
1678.0,0.017728766960431575
1677.0,0.017955020928509757
1676.0,0.018271974638383703
1675.0,0.018634490921455527
1674.0,0.018861217359339655
1673.0,0.019042683770379876
1672.0,0.0192242260373785
1671.0,0.019360432556262852
1670.0,0.019678413991243593
1669.0,0.020087589665283012
1668.0,0.02045162529590483
1667.0,0.02067930261797568
1666.0,0.02081596632558158
1665.0,0.020952673052035298
1664.0,0.021089422824428272
1663.0,0.02140867317992523
1662.0,0.021819483062586187
1661.0,0.0221849739168134
1660.0,0.02255077261765881
1659.0,0.02277955336461468
1658.0,0.02296266477531872
1657.0,0.023100049017062307
1656.0,0.023329119375188556
1655.0,0.023466619608062178
1654.0,0.024017056287453542
1653.0,0.024798037742147727
1652.0,0.025028005701930978
1651.0,0.025074013910237447
1650.0,0.02512002699306959
1649.0,0.02512002699306959
1648.0,0.025350165561278004
1647.0,0.025902996205869
1646.0,0.026456531467510258
1645.0,0.02682594731702781
1644.0,0.02710321556345563
1643.0,0.027288159452933503
1642.0,0.027426919073445077
1641.0,0.02747318213414429
1640.0,0.02751945012352408
1639.0,0.027426919073445077
1638.0,0.027288159452933503
1637.0,0.027195677663422346
1636.0,0.027288159452933503
1635.0,0.027195677663422346
1634.0,0.02691835039863255
1633.0,0.02664120011360227
1632.0,0.02636422658259252
1631.0,0.026041313893296225
1630.0,0.025718641122169483
1629.0,0.02544225514642018
1628.0,0.025258095499050004
1627.0,0.025074013910237447
1626.0,0.024890010313838973
1625.0,0.024706084643793647
1624.0,0.024476287039668643
1623.0,0.02438440203310499
1622.0,0.024338466818941473
1621.0,0.02438440203310499
1620.0,0.02438440203310499
1619.0,0.024246610963712723
1618.0,0.024108863598207186
1617.0,0.024017056287453542
1616.0,0.024017056287453542
1615.0,0.02406295751688936
1614.0,0.024017056287453542
1613.0,0.023879381700184332
1612.0,0.023787622882622816
1611.0,0.023787622882622816
1610.0,0.023833499868024743
1609.0,0.023971159908874107
1608.0,0.024154774532432866
1607.0,0.024338466818941473
1606.0,0.024568191490736968
1605.0,0.02475205875931885
1604.0,0.024936003904763915
1603.0,0.02512002699306959
1602.0,0.025304128090317013
1601.0,0.02544225514642018
1600.0,0.02553436426275746
1599.0,0.025672564576383117
1598.0,0.025718641122169483
1597.0,0.025856900097785074
1596.0,0.025995203102585407
1595.0,0.026225806029419818
1594.0,0.026456531467510258
1593.0,0.026687379547098322
1592.0,0.026872146400301444
1591.0,0.027056991894431892
1590.0,0.027195677663422346
1589.0,0.027334407733889066
1588.0,0.02747318213414429
1587.0,0.027658283674251827
1586.0,0.027843464140506313
1585.0,0.027936083991977778
1584.0,0.028028723600243666
1583.0,0.028075050815808744
1582.0,0.028028723600243666
1581.0,0.027936083991977778
1580.0,0.027797161620935595
1579.0,0.027658283674251827
1578.0,0.02747318213414429
1577.0,0.02738066094037661
1576.0,0.027334407733889066
1575.0,0.02724191609646076
1574.0,0.027010773144651168
1573.0,0.02664120011360227
1572.0,0.02617967564731627
1571.0,0.02558042614771394
1570.0,0.025028005701930978
1569.0,0.02461415101053266
1568.0,0.024292536462819925
1567.0,0.024017056287453542
1566.0,0.023604163388120325
1565.0,0.023191662661933732
1564.0,0.02291687968414724
1563.0,0.022688026603074007
1562.0,0.022367834754000393
1561.0,0.02168250325324883
1560.0,0.020770406977844713
1559.0,0.02022406727031445
1558.0,0.01995115493504329
1557.0,0.01990568621470623
1556.0,0.01990568621470623
1555.0,0.019632973815224997
1554.0,0.019269623464054586
1553.0,0.018861217359339655
1552.0,0.01858915983411169
1551.0,0.018226681372252695
1550.0,0.01781925440359733
1549.0,0.017457417697056554
1548.0,0.017141057687924732
1547.0,0.016824927962187042
1546.0,0.016509028184833463
1545.0,0.016238439713835096
1544.0,0.016013078034810446
1543.0,0.01578783323856614
1542.0,0.015427684378367834
1541.0,0.015022873584506602
1540.0,0.014393916947563534
1539.0,0.013631406429727155
1538.0,0.013273040668781544
1537.0,0.013138729709955221
1536.0,0.012959713020733288
1535.0,0.01260190086298274
1534.0,0.01215504982870197
1533.0,0.011887159731648111
1532.0,0.011797899741219142
1531.0,0.011708658092512314
1530.0,0.011619434777991433
1529.0,0.011485634166333858
1528.0,0.011441043121384498
1527.0,0.011307297450183107
1526.0,0.011084479487313281
1525.0,0.01086177578421088
1524.0,0.010683695010048622
1523.0,0.010416710688994968
1522.0,0.010105436281226954
1521.0,0.009927665307847056
1520.0,0.009883233932095559
1519.0,0.009927665307847056
1518.0,0.009972101229705377
1517.0,0.010060986715464404
1516.0,0.010149890396819572
1515.0,0.010105436281226954
1514.0,0.01001654169860089
1513.0,0.009883233932095559
1512.0,0.009838807101520963
1511.0,0.00974996707218323
1510.0,0.009705553871561357
1509.0,0.009705553871561357
1508.0,0.009838807101520963
1507.0,0.009927665307847056
1506.0,0.00974996707218323
1505.0,0.009572341514736404
1504.0,0.009616741093766423
1503.0,0.009572341514736404
1502.0,0.009572341514736404
1501.0,0.00966114521239847
1500.0,0.009794384815193347
1499.0,0.009927665307847056
1498.0,0.010105436281226954
1497.0,0.010550182333308289
1496.0,0.011039929609661936
1495.0,0.011441043121384498
1494.0,0.011708658092512314
1493.0,0.011931796607364653
1492.0,0.012065734767841452
1491.0,0.012065734767841452
1490.0,0.012110390002254778
1489.0,0.012289056869694281
1488.0,0.012467797270160563
1487.0,0.012557195064198723
1486.0,0.012780770091995297
1485.0,0.01322826573375524
1484.0,0.013676222949234651
1483.0,0.014169510141607944
1482.0,0.014708281407112
1481.0,0.015517693597737248
1480.0,0.01646391839700767
1479.0,0.017367005605150476
1478.0,0.01858915983411169
1477.0,0.020497151212598652
1476.0,0.023054249440757957
1475.0,0.026041313893296225
1474.0,0.029885677714903025
1473.0,0.03503362516890207
1472.0,0.04019568349166214
1471.0,0.044167989767578186
1470.0,0.04744970610179822
1469.0,0.050805225762017736
1468.0,0.05428528594013993
1467.0,0.05809122563440061
1466.0,0.06278310913729457
1465.0,0.06833876031551878
1464.0,0.07319468988839395
1463.0,0.0760310351245288
1462.0,0.07732643214144574
1461.0,0.07784567476894111
1460.0,0.07800156869172903
1459.0,0.07846958649875768
1458.0,0.08029446545087904
1457.0,0.08317771540408803
1456.0,0.08486409337798806
1455.0,0.08475850269380558
1454.0,0.08407278830288423
1453.0,0.08317771540408803
1452.0,0.08212704480115218
1451.0,0.08071265949561734
1450.0,0.07878187880504961
1449.0,0.0760310351245288
1448.0,0.07242434530888953
1447.0,0.068389593637038
1446.0,0.06439198148213077
1445.0,0.06068046892176193
1444.0,0.05724807957018618
1443.0,0.05428528594013993
1442.0,0.05192951848105887
1441.0,0.05021979163799939
1440.0,0.048954051864180226
1439.0,0.048225491918274965
1438.0,0.048225491918274965
1437.0,0.04875964967565971
1436.0,0.048905443158337114
1435.0,0.0478374257855374
1434.0,0.04580574818413763
1433.0,0.04320747962950522
1432.0,0.04043395336207234
1431.0,0.03791491948264003
1430.0,0.03583468937826462
1429.0,0.03423403581731388
1428.0,0.0329671178412978
1427.0,0.032031037121307726
1426.0,0.031236951802751545
1425.0,0.030537492025363155
1424.0,0.029978734171634214
1423.0,0.029653123769906697
1422.0,0.02942069428514915
1421.0,0.029141943003497595
1420.0,0.028956208163971375
1419.0,0.02890978686288448
1418.0,0.028770552723758724
1417.0,0.028353117935693284
1416.0,0.027843464140506313
1415.0,0.02738066094037661
1414.0,0.026872146400301444
1413.0,0.026318081496016443
1412.0,0.025810808881832736
1411.0,0.025304128090317013
1410.0,0.024798037742147727
1409.0,0.024200690320592466
1408.0,0.023604163388120325
1407.0,0.023100049017062307
1406.0,0.022688026603074007
1405.0,0.022139270735302752
1404.0,0.02159120737696063
1403.0,0.021135015652343103
1402.0,0.02067930261797568
1401.0,0.02013307743509718
1400.0,0.019632973815224997
1399.0,0.019360432556262852
1398.0,0.019178833355664393
1397.0,0.018951941086827073
1396.0,0.018725167293411005
1395.0,0.01858915983411169
1394.0,0.01845319495476394
1393.0,0.018271974638383703
1392.0,0.01809082990920774
1391.0,0.01809082990920774
1390.0,0.01831727262871463
1389.0,0.018725167293411005
1388.0,0.01949668180660491
1387.0,0.02081596632558158
1386.0,0.022688026603074007
1385.0,0.025258095499050004
1384.0,0.029002634427514717
1383.0,0.034469056377139484
1382.0,0.04181850243505214
1381.0,0.05114709380028648
1380.0,0.06268275223750575
1379.0,0.07608277688689435
1378.0,0.08932224525729482
1377.0,0.09968750301627338
1376.0,0.10507502264045665
1375.0,0.10402526764093545
1374.0,0.09685572959046151
1373.0,0.08639805027084257
1372.0,0.07566901529132153
1371.0,0.0658551882075229
1370.0,0.05724807957018618
1369.0,0.05026854768429301
1368.0,0.04508244626504121
1367.0,0.04153168163305643
1366.0,0.03929144831144349
1365.0,0.03800971255993524
1364.0,0.03772539537668518
1363.0,0.03829421599749461
1362.0,0.03948165721929198
1361.0,0.04076775094900409
1360.0,0.04172287445230238
1359.0,0.04196198390166317
1358.0,0.041340572947066834
1357.0,0.03995754427315856
1356.0,0.03796231343498735
1355.0,0.035646070707806565
1354.0,0.03338901331806565
1353.0,0.03137697904301118
1352.0,0.029653123769906697
1351.0,0.02812138297373412
1350.0,0.026872146400301444
1349.0,0.025810808881832736
1348.0,0.02498200236711723
1347.0,0.024154774532432866
1346.0,0.02342078135989012
1345.0,0.022688026603074007
1344.0,0.02200219004126036
1343.0,0.0214542995372613
1342.0,0.0209982515252789
1341.0,0.02067930261797568
1340.0,0.02045162529590483
1339.0,0.02026956933771462
1338.0,0.02013307743509718
1337.0,0.01995115493504329
1336.0,0.019814763052665052
1335.0,0.019814763052665052
1334.0,0.01995115493504329
1333.0,0.020178569969774962
1332.0,0.020497151212598652
1331.0,0.020724852408976924
1330.0,0.020770406977844713
1329.0,0.02067930261797568
1328.0,0.02045162529590483
1327.0,0.02013307743509718
1326.0,0.019769308608968306
1325.0,0.019451260640229506
1324.0,0.019133445417920836
1323.0,0.018951941086827073
1322.0,0.018770512579999288
1321.0,0.018634490921455527
1320.0,0.018498511851753108
1319.0,0.01840788278591865
1318.0,0.018271974638383703
1317.0,0.018136109008649592
1316.0,0.018045555530026514
1315.0,0.017955020928509757
1314.0,0.017864505196230507
1313.0,0.01781925440359733
1312.0,0.017774008325325275
1311.0,0.017774008325325275
1310.0,0.017909760704207134
1309.0,0.018181392829336396
1308.0,0.018634490921455527
1307.0,0.019178833355664393
1306.0,0.019632973815224997
1305.0,0.01995115493504329
1304.0,0.019996628416253603
1303.0,0.019860222254245663
1302.0,0.01958753839310856
1301.0,0.019360432556262852
1300.0,0.0192242260373785
1299.0,0.019269623464054586
1298.0,0.019360432556262852
1297.0,0.019451260640229506
1296.0,0.019451260640229506
1295.0,0.019269623464054586
1294.0,0.01899731005860028
1293.0,0.018634490921455527
1292.0,0.018271974638383703
1291.0,0.017955020928509757
1290.0,0.017638298366853045
1289.0,0.01727661233145472
1288.0,0.017005545341335804
1287.0,0.016734647433454652
1286.0,0.016554142658660398
1285.0,0.016373712875465518
1284.0,0.016238439713835096
1283.0,0.016148281008528276
1282.0,0.016013078034810446
1281.0,0.015922966097169144
1280.0,0.015832872853011715
1279.0,0.01578783323856614
1278.0,0.01578783323856614
1277.0,0.01578783323856614
1276.0,0.01578783323856614
1275.0,0.015742798294583915
1274.0,0.015697768020096703
1273.0,0.015562705203923999
1272.0,0.01547268665620738
1271.0,0.01538268676325183
1270.0,0.01538268676325183
1269.0,0.01547268665620738
1268.0,0.015562705203923999
1267.0,0.015607721475734415
1266.0,0.015697768020096703
1265.0,0.015697768020096703
1264.0,0.015742798294583915
1263.0,0.015832872853011715
1262.0,0.016013078034810446
1261.0,0.01628352608625061
1260.0,0.016689514205884493
1259.0,0.017141057687924732
1258.0,0.01759307113620534
1257.0,0.01800028587012159
1256.0,0.018181392829336396
1255.0,0.018136109008649592
1254.0,0.017864505196230507
1253.0,0.017412209298337533
1252.0,0.017005545341335804
1251.0,0.016644385668211692
1250.0,0.016418813294209356
1249.0,0.016238439713835096
1248.0,0.016193358021584725
1247.0,0.016148281008528276
1246.0,0.016148281008528276
1245.0,0.016103208673694303
1244.0,0.016013078034810446
1243.0,0.015877917138889863
1242.0,0.015697768020096703
1241.0,0.015607721475734415
1240.0,0.015562705203923999
1239.0,0.015562705203923999
1238.0,0.015517693597737248
1237.0,0.015517693597737248
1236.0,0.01547268665620738
1235.0,0.015427684378367834
1234.0,0.01538268676325183
1233.0,0.015337693809893471
1232.0,0.015247721884586563
1231.0,0.015157768594724175
1230.0,0.015067833932588037
1229.0,0.015112798935672522
1228.0,0.015247721884586563
1227.0,0.01538268676325183
1226.0,0.015607721475734415
1225.0,0.015832872853011715
1224.0,0.016148281008528276
1223.0,0.01646391839700767
1222.0,0.016824927962187042
1221.0,0.017095882207371904
1220.0,0.01727661233145472
1219.0,0.017367005605150476
1218.0,0.017367005605150476
1217.0,0.01727661233145472
1216.0,0.017095882207371904
1215.0,0.016870075265299933
1214.0,0.016644385668211692
1213.0,0.016418813294209356
1212.0,0.016238439713835096
1211.0,0.016148281008528276
1210.0,0.016103208673694303
1209.0,0.016103208673694303
1208.0,0.016148281008528276
1207.0,0.016238439713835096
1206.0,0.01646391839700767
1205.0,0.01677978535189717
1204.0,0.017186237868137555
1203.0,0.017547848615010242
1202.0,0.017864505196230507
1201.0,0.018181392829336396
1200.0,0.018498511851753108
1199.0,0.018770512579999288
1198.0,0.018951941086827073
1197.0,0.0190880622231564
1196.0,0.019133445417920836
1195.0,0.019133445417920836
1194.0,0.0190880622231564
1193.0,0.019042683770379876
1192.0,0.0190880622231564
1191.0,0.0192242260373785
1190.0,0.01949668180660491
1189.0,0.019860222254245663
1188.0,0.020315076172974234
1187.0,0.020770406977844713
1186.0,0.021271822861508305
1185.0,0.021728158389364705
1184.0,0.0221849739168134
1183.0,0.02259651912656535
1182.0,0.02291687968414724
1181.0,0.023237476732539397
1180.0,0.02355831062115543
1179.0,0.023879381700184332
1178.0,0.024246610963712723
1177.0,0.024706084643793647
1176.0,0.02539620791296726
1175.0,0.026271941311972746
1174.0,0.02738066094037661
1173.0,0.028677754757187035
1172.0,0.030164906924202484
1171.0,0.03179733185715028
1170.0,0.03338901331806565
1169.0,0.03470420418834386
1168.0,0.03555179208333925
1167.0,0.03583468937826462
1166.0,0.035693217696063595
1165.0,0.03517488211661135
1164.0,0.034469056377139484
1163.0,0.03376437590141812
1162.0,0.033060836978886954
1161.0,0.03245202378113787
1160.0,0.031984286006358165
1159.0,0.03170388495374454
1158.0,0.03161045815293173
1157.0,0.03161045815293173
1156.0,0.03161045815293173
1155.0,0.031563752288295444
1154.0,0.03151705144606498
1153.0,0.03151705144606498
1152.0,0.03147035562516054
1151.0,0.03137697904301118
1150.0,0.031096969696171817
1149.0,0.03067729388779794
1148.0,0.030118356253500123
1147.0,0.029560137048236124
1146.0,0.02904906565457588
1145.0,0.02863136320857662
1144.0,0.028214062120885508
1143.0,0.027889771597169544
1142.0,0.027565723042634938
1141.0,0.027195677663422346
1140.0,0.02691835039863255
1139.0,0.026687379547098322
1138.0,0.026502691267936695
1137.0,0.026318081496016443
1136.0,0.02617967564731627
1135.0,0.026087429580295085
1134.0,0.025995203102585407
1133.0,0.025949097207122573
1132.0,0.025902996205869
1131.0,0.025902996205869
1130.0,0.025902996205869
1129.0,0.025949097207122573
1128.0,0.025995203102585407
1127.0,0.025995203102585407
1126.0,0.026041313893296225
1125.0,0.026087429580295085
1124.0,0.02613355016462182
1123.0,0.026225806029419818
1122.0,0.026318081496016443
1121.0,0.02636422658259252
1120.0,0.026456531467510258
1119.0,0.026595025589939425
1118.0,0.026733563891471412
1117.0,0.02682594731702781
1116.0,0.02682594731702781
1115.0,0.02677975314776626
1114.0,0.02677975314776626
1113.0,0.026733563891471412
1112.0,0.026733563891471412
1111.0,0.02677975314776626
1110.0,0.02682594731702781
1109.0,0.02691835039863255
1108.0,0.027056991894431892
1107.0,0.027334407733889066
1106.0,0.027612000892527133
1105.0,0.027936083991977778
1104.0,0.028214062120885508
1103.0,0.028306761050139073
1102.0,0.028214062120885508
1101.0,0.027889771597169544
1100.0,0.027426919073445077
1099.0,0.026872146400301444
1098.0,0.026225806029419818
1097.0,0.025672564576383117
1096.0,0.02521206778644225
1095.0,0.024890010313838973
1094.0,0.024568191490736968
1093.0,0.024246610963712723
1092.0,0.023925268380126097
1091.0,0.02365002099672653
1090.0,0.02351246269481
1089.0,0.023329119375188556
1088.0,0.023191662661933732
1087.0,0.02300845469384938
1086.0,0.022871099419317753
1085.0,0.02277955336461468
1084.0,0.022642270454698687
1083.0,0.022505030926963654
1082.0,0.022322112326006227
1081.0,0.022139270735302752
1080.0,0.021956506090037076
1079.0,0.021819483062586187
1078.0,0.02168250325324883
1077.0,0.021545566634771474
1076.0,0.021363051615525652
1075.0,0.0211806132671577
1074.0,0.0209982515252789
1073.0,0.020861530453190058
1072.0,0.020724852408976924
1071.0,0.02058821736556471
1070.0,0.02036058777709271
1069.0,0.020178569969774962
1068.0,0.019996628416253603
1067.0,0.01990568621470623
1066.0,0.019769308608968306
1065.0,0.019632973815224997
1064.0,0.019451260640229506
1063.0,0.019315025636685412
1062.0,0.019269623464054586
1061.0,0.019269623464054586
1060.0,0.019269623464054586
1059.0,0.019269623464054586
1058.0,0.019178833355664393
1057.0,0.019133445417920836
1056.0,0.0190880622231564
1055.0,0.019133445417920836
1054.0,0.019133445417920836
1053.0,0.019133445417920836
1052.0,0.019178833355664393
1051.0,0.019315025636685412
1050.0,0.01954210772389997
1049.0,0.019814763052665052
1048.0,0.02013307743509718
1047.0,0.020406104151069693
1046.0,0.020633757603838898
1045.0,0.020770406977844713
1044.0,0.02081596632558158
1043.0,0.02081596632558158
1042.0,0.020724852408976924
1041.0,0.02058821736556471
1040.0,0.020406104151069693
1039.0,0.02026956933771462
1038.0,0.020178569969774962
1037.0,0.020087589665283012
1036.0,0.019996628416253603
1035.0,0.01995115493504329
1034.0,0.01995115493504329
1033.0,0.019996628416253603
1032.0,0.02004210665933459
1031.0,0.020087589665283012
1030.0,0.02013307743509718
1029.0,0.02022406727031445
1028.0,0.020315076172974234
1027.0,0.02036058777709271
1026.0,0.020315076172974234
1025.0,0.02022406727031445
1024.0,0.02022406727031445
1023.0,0.020315076172974234
1022.0,0.020497151212598652
1021.0,0.02058821736556471
1020.0,0.020633757603838898
1019.0,0.02058821736556471
1018.0,0.020542681902151694
1017.0,0.020406104151069693
1016.0,0.020315076172974234
1015.0,0.02022406727031445
1014.0,0.020087589665283012
1013.0,0.01990568621470623
1012.0,0.019632973815224997
1011.0,0.01940584422377989
1010.0,0.019269623464054586
1009.0,0.0192242260373785
1008.0,0.019178833355664393
1007.0,0.019178833355664393
1006.0,0.019315025636685412
1005.0,0.019723858922159776
1004.0,0.020497151212598652
1003.0,0.021636852916117055
1002.0,0.023283295636617574
1001.0,0.025258095499050004
1000.0,0.027334407733889066
999.0,0.029002634427514717
998.0,0.029839156962686353
997.0,0.02960662792039992
996.0,0.028445846553939003
995.0,0.026687379547098322
994.0,0.024706084643793647
993.0,0.022871099419317753
992.0,0.021363051615525652
991.0,0.02026956933771462
990.0,0.01954210772389997
989.0,0.01899731005860028
988.0,0.018634490921455527
987.0,0.018362575344230914
986.0,0.018271974638383703
985.0,0.018362575344230914
984.0,0.01858915983411169
983.0,0.018951941086827073
982.0,0.01949668180660491
981.0,0.020315076172974234
980.0,0.021545566634771474
979.0,0.023191662661933732
978.0,0.025074013910237447
977.0,0.02724191609646076
976.0,0.029560137048236124
975.0,0.03189079887180224
974.0,0.03367050483612166
973.0,0.03437503289075727
972.0,0.03376437590141812
971.0,0.03189079887180224
970.0,0.02932775731028059
969.0,0.026687379547098322
968.0,0.02438440203310499
967.0,0.022505030926963654
966.0,0.021089422824428272
965.0,0.02004210665933459
964.0,0.019269623464054586
963.0,0.018679826740892747
962.0,0.018181392829336396
961.0,0.017728766960431575
960.0,0.017367005605150476
959.0,0.017050711425501408
958.0,0.016734647433454652
957.0,0.016373712875465518
956.0,0.01596801972881945
955.0,0.015697768020096703
954.0,0.01547268665620738
953.0,0.01538268676325183
952.0,0.015247721884586563
951.0,0.015112798935672522
950.0,0.014888020460646079
949.0,0.014798141635428141
948.0,0.014798141635428141
947.0,0.014977917890464765
946.0,0.015202742910707112
945.0,0.015427684378367834
944.0,0.015652742414136167
943.0,0.015877917138889863
942.0,0.016103208673694303
941.0,0.01628352608625061
940.0,0.01628352608625061
939.0,0.016148281008528276
938.0,0.015877917138889863
937.0,0.015562705203923999
936.0,0.015292705517326866
935.0,0.015067833932588037
934.0,0.014843078722943437
933.0,0.014573525916998342
932.0,0.014393916947563534
931.0,0.014259258949925524
930.0,0.014304140310157809
929.0,0.014349026309051105
928.0,0.014349026309051105
927.0,0.014349026309051105
926.0,0.014304140310157809
925.0,0.014304140310157809
924.0,0.014259258949925524
923.0,0.014259258949925524
922.0,0.014214382227394795
921.0,0.014214382227394795
920.0,0.014214382227394795
919.0,0.014259258949925524
918.0,0.014259258949925524
917.0,0.014304140310157809
916.0,0.014349026309051105
915.0,0.014393916947563534
914.0,0.014393916947563534
913.0,0.014349026309051105
912.0,0.014349026309051105
911.0,0.014438812226654996
910.0,0.014663358264387139
909.0,0.014843078722943437
908.0,0.015022873584506602
907.0,0.015292705517326866
906.0,0.015607721475734415
905.0,0.016148281008528276
904.0,0.016960383953898095
903.0,0.01809082990920774
902.0,0.01954210772389997
901.0,0.020952673052035298
900.0,0.02204787879853809
899.0,0.022505030926963654
898.0,0.0221849739168134
897.0,0.02122621566987748
896.0,0.02004210665933459
895.0,0.018815862601645694
894.0,0.017774008325325275
893.0,0.016960383953898095
892.0,0.01632861713980338
891.0,0.01578783323856614
890.0,0.015337693809893471
889.0,0.015067833932588037
888.0,0.014932966849499074
887.0,0.014888020460646079
886.0,0.014888020460646079
885.0,0.014843078722943437
884.0,0.014708281407112
883.0,0.014573525916998342
882.0,0.01452861671041239
881.0,0.014618439768003144
880.0,0.014888020460646079
879.0,0.015292705517326866
878.0,0.015697768020096703
877.0,0.016013078034810446
876.0,0.016193358021584725
875.0,0.01632861713980338
874.0,0.016373712875465518
873.0,0.01628352608625061
872.0,0.016193358021584725
871.0,0.016103208673694303
870.0,0.016058141016111804
869.0,0.016013078034810446
868.0,0.015922966097169144
867.0,0.015877917138889863
866.0,0.015877917138889863
865.0,0.015922966097169144
864.0,0.016013078034810446
863.0,0.016148281008528276
862.0,0.016373712875465518
861.0,0.016644385668211692
860.0,0.016824927962187042
859.0,0.016915227262211507
858.0,0.016915227262211507
857.0,0.016960383953898095
856.0,0.017050711425501408
855.0,0.017186237868137555
854.0,0.017457417697056554
853.0,0.017728766960431575
852.0,0.018045555530026514
851.0,0.018362575344230914
850.0,0.018679826740892747
849.0,0.018951941086827073
848.0,0.0192242260373785
847.0,0.019632973815224997
846.0,0.020497151212598652
845.0,0.022093572362881675
844.0,0.024476287039668643
843.0,0.027288159452933503
842.0,0.029653123769906697
841.0,0.030537492025363155
840.0,0.02960662792039992
839.0,0.027426919073445077
838.0,0.024936003904763915
837.0,0.022871099419317753
836.0,0.0214542995372613
835.0,0.02045162529590483
834.0,0.019723858922159776
833.0,0.019178833355664393
832.0,0.018861217359339655
831.0,0.018634490921455527
830.0,0.018498511851753108
829.0,0.018362575344230914
828.0,0.018271974638383703
827.0,0.018181392829336396
826.0,0.018045555530026514
825.0,0.017955020928509757
824.0,0.017909760704207134
823.0,0.018045555530026514
822.0,0.018226681372252695
821.0,0.018362575344230914
820.0,0.01845319495476394
819.0,0.01858915983411169
818.0,0.018815862601645694
817.0,0.0190880622231564
816.0,0.01954210772389997
815.0,0.02026956933771462
814.0,0.021317434843055594
813.0,0.022642270454698687
812.0,0.02406295751688936
811.0,0.02539620791296726
810.0,0.02636422658259252
809.0,0.026872146400301444
808.0,0.026872146400301444
807.0,0.026410376572743033
806.0,0.025718641122169483
805.0,0.024890010313838973
804.0,0.024154774532432866
803.0,0.02355831062115543
802.0,0.023100049017062307
801.0,0.02277955336461468
800.0,0.02259651912656535
799.0,0.022642270454698687
798.0,0.02282532397981263
797.0,0.022871099419317753
796.0,0.022688026603074007
795.0,0.022322112326006227
794.0,0.02200219004126036
793.0,0.021910826943857264
792.0,0.02204787879853809
791.0,0.022322112326006227
790.0,0.022505030926963654
789.0,0.02255077261765881
788.0,0.022413561996148967
787.0,0.0221849739168134
786.0,0.02200219004126036
785.0,0.02200219004126036
784.0,0.022230681908425698
783.0,0.022413561996148967
782.0,0.022413561996148967
781.0,0.022230681908425698
780.0,0.021956506090037076
779.0,0.021819483062586187
778.0,0.021910826943857264
777.0,0.0221849739168134
776.0,0.02255077261765881
775.0,0.022871099419317753
774.0,0.023100049017062307
773.0,0.023237476732539397
772.0,0.023283295636617574
771.0,0.023329119375188556
770.0,0.023329119375188556
769.0,0.023329119375188556
768.0,0.023329119375188556
767.0,0.023329119375188556
766.0,0.023374947949272418
765.0,0.023466619608062178
764.0,0.02365002099672653
763.0,0.024017056287453542
762.0,0.024476287039668643
761.0,0.024890010313838973
760.0,0.02516604495145991
759.0,0.025258095499050004
758.0,0.02521206778644225
757.0,0.02512002699306959
756.0,0.025028005701930978
755.0,0.02498200236711723
754.0,0.025074013910237447
753.0,0.025350165561278004
752.0,0.025856900097785074
751.0,0.026271941311972746
750.0,0.02654885597506529
749.0,0.02664120011360227
748.0,0.026733563891471412
747.0,0.02696455931306696
746.0,0.027334407733889066
745.0,0.027797161620935595
744.0,0.028306761050139073
743.0,0.028677754757187035
742.0,0.028816959143838528
741.0,0.02890978686288448
740.0,0.02904906565457588
739.0,0.029374223311705583
738.0,0.029792641193145286
737.0,0.030164906924202484
736.0,0.030490901403433135
735.0,0.030957032694186815
734.0,0.031657169041054534
733.0,0.032920265855503006
732.0,0.03456310022373987
731.0,0.03602339000339416
730.0,0.03668448861388862
729.0,0.036401037402758574
728.0,0.03578752703018084
727.0,0.03541041251009669
726.0,0.03545753392086315
725.0,0.03583468937826462
724.0,0.03649550058570927
723.0,0.03739392707587297
722.0,0.03838909190871931
721.0,0.03919637508823026
720.0,0.03938654235209116
719.0,0.03886378261277468
718.0,0.03772539537668518
717.0,0.036542739883292485
716.0,0.03550466044490741
715.0,0.03475124903287918
714.0,0.03399914237121604
713.0,0.0332483359486222
712.0,0.03249882527715853
711.0,0.03193753992355086
710.0,0.03161045815293173
709.0,0.03151705144606498
708.0,0.03189079887180224
707.0,0.03273290844021437
706.0,0.03385826726096752
705.0,0.03498654972775217
704.0,0.03597620715996652
703.0,0.0371100126082089
702.0,0.038341651362284734
701.0,0.03938654235209116
700.0,0.0400527842915015
699.0,0.0402909757535701
698.0,0.04010041213405646
697.0,0.03957679292217042
696.0,0.038673844065289176
695.0,0.037488606492403154
694.0,0.03616496929785207
693.0,0.0349394793888016
692.0,0.033905220553829274
691.0,0.033154576345083564
690.0,0.03277974021703267
689.0,0.0329671178412978
688.0,0.03367050483612166
687.0,0.03461012978487776
686.0,0.035363296211498474
685.0,0.035740369803151095
684.0,0.03583468937826462
683.0,0.03578752703018084
682.0,0.03578752703018084
681.0,0.03588185684851508
680.0,0.036117771071222604
679.0,0.036401037402758574
678.0,0.03682628362474838
677.0,0.037346595106788616
676.0,0.03796231343498735
675.0,0.038341651362284734
674.0,0.03810452633214956
673.0,0.03720463014276687
672.0,0.0360705779734416
671.0,0.03517488211661135
670.0,0.03470420418834386
669.0,0.03479829897408804
668.0,0.03465716443937783
667.0,0.03399914237121604
666.0,0.03357665405630694
665.0,0.03343591590268957
664.0,0.033482823553208085
663.0,0.0338113190438627
662.0,0.03409308450480819
661.0,0.033905220553829274
660.0,0.03310770413286357
659.0,0.032124554451966825
658.0,0.03147035562516054
657.0,0.03128362253321426
656.0,0.03161045815293173
655.0,0.032218091924200776
654.0,0.03263926003405038
653.0,0.03273290844021437
652.0,0.032592443402527316
651.0,0.032592443402527316
650.0,0.033154576345083564
649.0,0.034187046963396917
648.0,0.03526907894637077
647.0,0.03588185684851508
646.0,0.035693217696063595
645.0,0.03498654972775217
644.0,0.03414006319292828
643.0,0.03357665405630694
642.0,0.03343591590268957
641.0,0.03376437590141812
640.0,0.034469056377139484
639.0,0.03550466044490741
638.0,0.03668448861388862
637.0,0.03796231343498735
636.0,0.03905380426616856
635.0,0.03967194946985697
634.0,0.03952922246570112
633.0,0.03910132267333921
632.0,0.038958783046687984
631.0,0.03919637508823026
630.0,0.03929144831144349
629.0,0.03914884628031379
628.0,0.03905380426616856
627.0,0.03929144831144349
626.0,0.039719535563357944
625.0,0.040005161671583744
624.0,0.039909932095080425
623.0,0.03967194946985697
622.0,0.03938654235209116
621.0,0.038958783046687984
620.0,0.038531444649213764
619.0,0.038199360808321536
618.0,0.038151940981675736
617.0,0.038151940981675736
616.0,0.03800971255993524
615.0,0.03791491948264003
614.0,0.038151940981675736
613.0,0.038958783046687984
612.0,0.03986232513620536
611.0,0.040481623027001756
610.0,0.041006334969674096
609.0,0.04186632432376469
608.0,0.04301563225723992
607.0,0.0435434165901003
606.0,0.04282386959515394
605.0,0.040958607678906356
604.0,0.038531444649213764
603.0,0.03602339000339416
602.0,0.03362357691107709
601.0,0.03147035562516054
600.0,0.029746130405213123
