cm-1,A
4000.0,0.0038825238627120395
3999.0,0.003926345514724705
3998.0,0.00401400208620073
3997.0,0.004145520125434121
3996.0,0.004233220950025984
3995.0,0.004277078004534696
3994.0,0.004233220950025984
3993.0,0.004145520125434121
3992.0,0.00401400208620073
3991.0,0.003970171588923321
3990.0,0.00401400208620073
3989.0,0.0040578370074493275
3988.0,0.004101676353562844
3987.0,0.004101676353562844
3986.0,0.004145520125434121
3985.0,0.004233220950025984
3984.0,0.004320939488377862
3983.0,0.0043648054024501
3982.0,0.0043648054024501
3981.0,0.004277078004534696
3980.0,0.004189368323957332
3979.0,0.0040578370074493275
3978.0,0.00401400208620073
3977.0,0.0040578370074493275
3976.0,0.0040578370074493275
3975.0,0.004101676353562844
3974.0,0.0040578370074493275
3973.0,0.0040578370074493275
3972.0,0.0040578370074493275
3971.0,0.0040578370074493275
3970.0,0.0040578370074493275
3969.0,0.004101676353562844
3968.0,0.004101676353562844
3967.0,0.004101676353562844
3966.0,0.004101676353562844
3965.0,0.00401400208620073
3964.0,0.003970171588923321
3963.0,0.003926345514724705
3962.0,0.003926345514724705
3961.0,0.003970171588923321
3960.0,0.0040578370074493275
3959.0,0.004145520125434121
3958.0,0.004233220950025984
3957.0,0.004277078004534696
3956.0,0.004320939488377862
3955.0,0.0043648054024501
3954.0,0.004408675747646695
3953.0,0.004408675747646695
3952.0,0.004452550524862486
3951.0,0.004452550524862486
3950.0,0.004408675747646695
3949.0,0.004320939488377862
3948.0,0.004277078004534696
3947.0,0.004233220950025984
3946.0,0.004277078004534696
3945.0,0.0043648054024501
3944.0,0.004452550524862486
3943.0,0.0044964297349936455
3942.0,0.004452550524862486
3941.0,0.004320939488377862
3940.0,0.004233220950025984
3939.0,0.004189368323957332
3938.0,0.004233220950025984
3937.0,0.004277078004534696
3936.0,0.004320939488377862
3935.0,0.004277078004534696
3934.0,0.004189368323957332
3933.0,0.004101676353562844
3932.0,0.0040578370074493275
3931.0,0.004101676353562844
3930.0,0.004101676353562844
3929.0,0.004145520125434121
3928.0,0.004189368323957332
3927.0,0.004189368323957332
3926.0,0.004145520125434121
3925.0,0.004145520125434121
3924.0,0.004145520125434121
3923.0,0.004233220950025984
3922.0,0.004320939488377862
3921.0,0.0043648054024501
3920.0,0.004320939488377862
3919.0,0.004320939488377862
3918.0,0.0043648054024501
3917.0,0.004452550524862486
3916.0,0.0044964297349936455
3915.0,0.0044964297349936455
3914.0,0.004452550524862486
3913.0,0.0043648054024501
3912.0,0.0043648054024501
3911.0,0.004320939488377862
3910.0,0.004320939488377862
3909.0,0.0043648054024501
3908.0,0.0043648054024501
3907.0,0.0043648054024501
3906.0,0.0043648054024501
3905.0,0.004320939488377862
3904.0,0.004320939488377862
3903.0,0.004408675747646695
3902.0,0.004540313378935901
3901.0,0.004628093971837721
3900.0,0.00458420145758498
3899.0,0.004540313378935901
3898.0,0.004540313378935901
3897.0,0.004540313378935901
3896.0,0.0044964297349936455
3895.0,0.004452550524862486
3894.0,0.004320939488377862
3893.0,0.004189368323957332
3892.0,0.004189368323957332
3891.0,0.004277078004534696
3890.0,0.0043648054024501
3889.0,0.0043648054024501
3888.0,0.004320939488377862
3887.0,0.004320939488377862
3886.0,0.004408675747646695
3885.0,0.004628093971837721
3884.0,0.004803708402820517
3883.0,0.004803708402820517
3882.0,0.004671990922590297
3881.0,0.00458420145758498
3880.0,0.00458420145758498
3879.0,0.004628093971837721
3878.0,0.004671990922590297
3877.0,0.004671990922590297
3876.0,0.00458420145758498
3875.0,0.00458420145758498
3874.0,0.004628093971837721
3873.0,0.004759798137184523
3872.0,0.004935465843858511
3871.0,0.005067263269958211
3870.0,0.005111204635089406
3869.0,0.005155150446602086
3868.0,0.005111204635089406
3867.0,0.005067263269958211
3866.0,0.004935465843858511
3865.0,0.00484762310854614
3864.0,0.004803708402820517
3863.0,0.004759798137184523
3862.0,0.004671990922590297
3861.0,0.00458420145758498
3860.0,0.004540313378935901
3859.0,0.00458420145758498
3858.0,0.004671990922590297
3857.0,0.004715892310740433
3856.0,0.004671990922590297
3855.0,0.0044964297349936455
3854.0,0.0043648054024501
3853.0,0.004452550524862486
3852.0,0.00458420145758498
3851.0,0.004671990922590297
3850.0,0.004671990922590297
3849.0,0.004671990922590297
3848.0,0.004628093971837721
3847.0,0.004628093971837721
3846.0,0.004671990922590297
3845.0,0.004759798137184523
3844.0,0.00484762310854614
3843.0,0.004935465843858511
3842.0,0.004979393875242044
3841.0,0.004935465843858511
3840.0,0.00489154225525934
3839.0,0.00484762310854614
3838.0,0.00484762310854614
3837.0,0.004803708402820517
3836.0,0.004759798137184523
3835.0,0.004759798137184523
3834.0,0.004715892310740433
3833.0,0.004715892310740433
3832.0,0.004715892310740433
3831.0,0.004759798137184523
3830.0,0.004803708402820517
3829.0,0.004803708402820517
3828.0,0.004759798137184523
3827.0,0.004628093971837721
3826.0,0.00458420145758498
3825.0,0.00458420145758498
3824.0,0.004671990922590297
3823.0,0.004715892310740433
3822.0,0.004803708402820517
3821.0,0.00489154225525934
3820.0,0.00489154225525934
3819.0,0.004759798137184523
3818.0,0.004540313378935901
3817.0,0.004408675747646695
3816.0,0.004408675747646695
3815.0,0.004540313378935901
3814.0,0.004671990922590297
3813.0,0.004671990922590297
3812.0,0.004671990922590297
3811.0,0.004628093971837721
3810.0,0.0044964297349936455
3809.0,0.0043648054024501
3808.0,0.004233220950025984
3807.0,0.0043648054024501
3806.0,0.00458420145758498
3805.0,0.004803708402820517
3804.0,0.00484762310854614
3803.0,0.004715892310740433
3802.0,0.00458420145758498
3801.0,0.004540313378935901
3800.0,0.004540313378935901
3799.0,0.0044964297349936455
3798.0,0.004408675747646695
3797.0,0.004277078004534696
3796.0,0.004189368323957332
3795.0,0.004189368323957332
3794.0,0.004145520125434121
3793.0,0.004189368323957332
3792.0,0.004189368323957332
3791.0,0.004233220950025984
3790.0,0.004233220950025984
3789.0,0.004277078004534696
3788.0,0.004320939488377862
3787.0,0.0043648054024501
3786.0,0.0043648054024501
3785.0,0.0043648054024501
3784.0,0.004320939488377862
3783.0,0.004320939488377862
3782.0,0.004277078004534696
3781.0,0.004277078004534696
3780.0,0.004277078004534696
3779.0,0.004277078004534696
3778.0,0.004277078004534696
3777.0,0.004189368323957332
3776.0,0.004145520125434121
3775.0,0.004145520125434121
3774.0,0.004233220950025984
3773.0,0.0043648054024501
3772.0,0.0044964297349936455
3771.0,0.004628093971837721
3770.0,0.004671990922590297
3769.0,0.004671990922590297
3768.0,0.004628093971837721
3767.0,0.0044964297349936455
3766.0,0.004452550524862486
3765.0,0.004540313378935901
3764.0,0.004628093971837721
3763.0,0.004715892310740433
3762.0,0.004671990922590297
3761.0,0.004540313378935901
3760.0,0.004408675747646695
3759.0,0.0043648054024501
3758.0,0.004452550524862486
3757.0,0.004540313378935901
3756.0,0.004671990922590297
3755.0,0.004803708402820517
3754.0,0.00484762310854614
3753.0,0.00484762310854614
3752.0,0.004759798137184523
3751.0,0.004671990922590297
3750.0,0.004671990922590297
3749.0,0.004628093971837721
3748.0,0.00458420145758498
3747.0,0.004540313378935901
3746.0,0.004452550524862486
3745.0,0.004408675747646695
3744.0,0.004408675747646695
3743.0,0.0043648054024501
3742.0,0.004277078004534696
3741.0,0.004189368323957332
3740.0,0.004189368323957332
3739.0,0.004277078004534696
3738.0,0.004452550524862486
3737.0,0.00458420145758498
3736.0,0.004628093971837721
3735.0,0.0044964297349936455
3734.0,0.004320939488377862
3733.0,0.004189368323957332
3732.0,0.004145520125434121
3731.0,0.004145520125434121
3730.0,0.004145520125434121
3729.0,0.0040578370074493275
3728.0,0.003926345514724705
3727.0,0.0038825238627120395
3726.0,0.00401400208620073
3725.0,0.004277078004534696
3724.0,0.004540313378935901
3723.0,0.004715892310740433
3722.0,0.004803708402820517
3721.0,0.004715892310740433
3720.0,0.004540313378935901
3719.0,0.004408675747646695
3718.0,0.004277078004534696
3717.0,0.004277078004534696
3716.0,0.004277078004534696
3715.0,0.004320939488377862
3714.0,0.004320939488377862
3713.0,0.0043648054024501
3712.0,0.004452550524862486
3711.0,0.00458420145758498
3710.0,0.004671990922590297
3709.0,0.004628093971837721
3708.0,0.004540313378935901
3707.0,0.0044964297349936455
3706.0,0.004452550524862486
3705.0,0.0043648054024501
3704.0,0.004233220950025984
3703.0,0.004145520125434121
3702.0,0.004101676353562844
3701.0,0.004145520125434121
3700.0,0.004233220950025984
3699.0,0.004320939488377862
3698.0,0.004320939488377862
3697.0,0.004320939488377862
3696.0,0.004320939488377862
3695.0,0.004408675747646695
3694.0,0.004540313378935901
3693.0,0.004715892310740433
3692.0,0.004803708402820517
3691.0,0.00484762310854614
3690.0,0.00484762310854614
3689.0,0.00484762310854614
3688.0,0.004803708402820517
3687.0,0.004715892310740433
3686.0,0.004628093971837721
3685.0,0.004540313378935901
3684.0,0.004408675747646695
3683.0,0.004320939488377862
3682.0,0.004277078004534696
3681.0,0.0043648054024501
3680.0,0.0044964297349936455
3679.0,0.004671990922590297
3678.0,0.00484762310854614
3677.0,0.005023326350308999
3676.0,0.005111204635089406
3675.0,0.005111204635089406
3674.0,0.004935465843858511
3673.0,0.004628093971837721
3672.0,0.0043648054024501
3671.0,0.004189368323957332
3670.0,0.004277078004534696
3669.0,0.0044964297349936455
3668.0,0.004628093971837721
3667.0,0.004628093971837721
3666.0,0.004540313378935901
3665.0,0.0044964297349936455
3664.0,0.004452550524862486
3663.0,0.004408675747646695
3662.0,0.004452550524862486
3661.0,0.0044964297349936455
3660.0,0.004540313378935901
3659.0,0.00458420145758498
3658.0,0.00458420145758498
3657.0,0.004671990922590297
3656.0,0.004803708402820517
3655.0,0.005023326350308999
3654.0,0.005243055412371911
3653.0,0.00537494623139545
3652.0,0.0052870145684298375
3651.0,0.004935465843858511
3650.0,0.004671990922590297
3649.0,0.004671990922590297
3648.0,0.00484762310854614
3647.0,0.004979393875242044
3646.0,0.004935465843858511
3645.0,0.004803708402820517
3644.0,0.004628093971837721
3643.0,0.0044964297349936455
3642.0,0.004452550524862486
3641.0,0.0043648054024501
3640.0,0.0043648054024501
3639.0,0.004320939488377862
3638.0,0.0043648054024501
3637.0,0.004452550524862486
3636.0,0.004540313378935901
3635.0,0.00458420145758498
3634.0,0.004628093971837721
3633.0,0.004671990922590297
3632.0,0.004715892310740433
3631.0,0.004671990922590297
3630.0,0.004715892310740433
3629.0,0.00489154225525934
3628.0,0.005023326350308999
3627.0,0.004935465843858511
3626.0,0.004715892310740433
3625.0,0.0044964297349936455
3624.0,0.0043648054024501
3623.0,0.0043648054024501
3622.0,0.004408675747646695
3621.0,0.004452550524862486
3620.0,0.00458420145758498
3619.0,0.004759798137184523
3618.0,0.004979393875242044
3617.0,0.005067263269958211
3616.0,0.005067263269958211
3615.0,0.005023326350308999
3614.0,0.005023326350308999
3613.0,0.005067263269958211
3612.0,0.005155150446602086
3611.0,0.005111204635089406
3610.0,0.005067263269958211
3609.0,0.005067263269958211
3608.0,0.005155150446602086
3607.0,0.005199100705396198
3606.0,0.005243055412371911
3605.0,0.0052870145684298375
3604.0,0.00541891874010525
3603.0,0.005550862985963967
3602.0,0.005638848091999105
3601.0,0.005594853310833647
3600.0,0.005462895701502157
3599.0,0.0052870145684298375
3598.0,0.005155150446602086
3597.0,0.005111204635089406
3596.0,0.005023326350308999
3595.0,0.004979393875242044
3594.0,0.00489154225525934
3593.0,0.00489154225525934
3592.0,0.004935465843858511
3591.0,0.005067263269958211
3590.0,0.005243055412371911
3589.0,0.0052870145684298375
3588.0,0.005243055412371911
3587.0,0.005199100705396198
3586.0,0.005155150446602086
3585.0,0.005111204635089406
3584.0,0.005067263269958211
3583.0,0.005023326350308999
3582.0,0.004979393875242044
3581.0,0.004979393875242044
3580.0,0.004979393875242044
3579.0,0.005023326350308999
3578.0,0.005067263269958211
3577.0,0.005111204635089406
3576.0,0.005111204635089406
3575.0,0.005067263269958211
3574.0,0.005023326350308999
3573.0,0.005023326350308999
3572.0,0.005067263269958211
3571.0,0.005111204635089406
3570.0,0.005111204635089406
3569.0,0.005067263269958211
3568.0,0.005023326350308999
3567.0,0.005067263269958211
3566.0,0.005199100705396198
3565.0,0.005330978174470591
3564.0,0.00537494623139545
3563.0,0.005330978174470591
3562.0,0.0052870145684298375
3561.0,0.0052870145684298375
3560.0,0.005330978174470591
3559.0,0.00537494623139545
3558.0,0.005462895701502157
3557.0,0.005506877116487674
3556.0,0.005506877116487674
3555.0,0.005550862985963967
3554.0,0.005550862985963967
3553.0,0.005594853310833647
3552.0,0.005594853310833647
3551.0,0.005594853310833647
3550.0,0.005550862985963967
3549.0,0.005506877116487674
3548.0,0.00541891874010525
3547.0,0.005330978174470591
3546.0,0.0052870145684298375
3545.0,0.005199100705396198
3544.0,0.005155150446602086
3543.0,0.005199100705396198
3542.0,0.0052870145684298375
3541.0,0.00541891874010525
3540.0,0.005594853310833647
3539.0,0.005726851026829571
3538.0,0.005814871797682919
3537.0,0.005858888873877532
3536.0,0.00577085918230158
3535.0,0.005726851026829571
3534.0,0.005726851026829571
3533.0,0.005726851026829571
3532.0,0.005682847330363394
3531.0,0.005594853310833647
3530.0,0.005506877116487674
3529.0,0.005462895701502157
3528.0,0.005506877116487674
3527.0,0.005550862985963967
3526.0,0.005594853310833647
3525.0,0.005682847330363394
3524.0,0.00577085918230158
3523.0,0.005858888873877532
3522.0,0.00590291041179003
3521.0,0.005858888873877532
3520.0,0.005814871797682919
3519.0,0.00577085918230158
3518.0,0.005726851026829571
3517.0,0.00577085918230158
3516.0,0.005858888873877532
3515.0,0.00590291041179003
3514.0,0.00590291041179003
3513.0,0.005858888873877532
3512.0,0.00577085918230158
3511.0,0.00577085918230158
3510.0,0.00577085918230158
3509.0,0.00577085918230158
3508.0,0.005682847330363394
3507.0,0.005594853310833647
3506.0,0.005506877116487674
3505.0,0.00541891874010525
3504.0,0.00541891874010525
3503.0,0.005506877116487674
3502.0,0.005682847330363394
3501.0,0.005858888873877532
3500.0,0.00590291041179003
3499.0,0.00590291041179003
3498.0,0.005814871797682919
3497.0,0.005726851026829571
3496.0,0.005682847330363394
3495.0,0.005638848091999105
3494.0,0.005594853310833647
3493.0,0.005594853310833647
3492.0,0.005682847330363394
3491.0,0.005814871797682919
3490.0,0.005990966876386672
3489.0,0.006035001804881146
3488.0,0.005946936412324799
3487.0,0.00590291041179003
3486.0,0.00590291041179003
3485.0,0.005990966876386672
3484.0,0.00612308505878878
3483.0,0.006167133386013823
3482.0,0.006167133386013823
3481.0,0.006079041198713275
3480.0,0.006035001804881146
3479.0,0.006035001804881146
3478.0,0.006035001804881146
3477.0,0.006079041198713275
3476.0,0.00612308505878878
3475.0,0.00612308505878878
3474.0,0.006079041198713275
3473.0,0.006079041198713275
3472.0,0.006079041198713275
3471.0,0.006079041198713275
3470.0,0.006079041198713275
3469.0,0.006079041198713275
3468.0,0.00612308505878878
3467.0,0.006167133386013823
3466.0,0.00625524344553785
3465.0,0.006387442061109638
3464.0,0.006519680930003435
3463.0,0.006607862550997545
3462.0,0.006651960076740071
3461.0,0.006519680930003435
3460.0,0.006387442061109638
3459.0,0.00621118618129457
3458.0,0.006167133386013823
3457.0,0.006167133386013823
3456.0,0.00621118618129457
3455.0,0.00621118618129457
3454.0,0.00621118618129457
3453.0,0.006167133386013823
3452.0,0.00612308505878878
3451.0,0.00612308505878878
3450.0,0.00612308505878878
3449.0,0.006167133386013823
3448.0,0.00621118618129457
3447.0,0.00625524344553785
3446.0,0.006343371384537999
3445.0,0.006387442061109638
3444.0,0.006387442061109638
3443.0,0.006387442061109638
3442.0,0.006431517210272464
3441.0,0.006431517210272464
3440.0,0.006387442061109638
3439.0,0.006343371384537999
3438.0,0.00625524344553785
3437.0,0.006299305179649828
3436.0,0.006387442061109638
3435.0,0.006519680930003435
3434.0,0.006651960076740071
3433.0,0.006651960076740071
3432.0,0.006607862550997545
3431.0,0.006475596832934416
3430.0,0.006343371384537999
3429.0,0.00625524344553785
3428.0,0.006167133386013823
3427.0,0.006167133386013823
3426.0,0.00621118618129457
3425.0,0.006299305179649828
3424.0,0.006387442061109638
3423.0,0.006519680930003435
3422.0,0.006519680930003435
3421.0,0.006475596832934416
3420.0,0.006387442061109638
3419.0,0.006343371384537999
3418.0,0.006387442061109638
3417.0,0.006387442061109638
3416.0,0.006431517210272464
3415.0,0.006431517210272464
3414.0,0.006387442061109638
3413.0,0.006387442061109638
3412.0,0.006387442061109638
3411.0,0.006343371384537999
3410.0,0.006299305179649828
3409.0,0.00625524344553785
3408.0,0.00621118618129457
3407.0,0.006167133386013823
3406.0,0.00612308505878878
3405.0,0.006079041198713275
3404.0,0.005990966876386672
3403.0,0.005946936412324799
3402.0,0.005990966876386672
3401.0,0.006035001804881146
3400.0,0.00612308505878878
3399.0,0.006167133386013823
3398.0,0.00621118618129457
3397.0,0.006299305179649828
3396.0,0.006431517210272464
3395.0,0.006651960076740071
3394.0,0.006784279525863024
3393.0,0.006784279525863024
3392.0,0.006696062080525422
3391.0,0.00656376950238835
3390.0,0.006475596832934416
3389.0,0.006475596832934416
3388.0,0.006431517210272464
3387.0,0.006387442061109638
3386.0,0.00625524344553785
3385.0,0.00612308505878878
3384.0,0.006035001804881146
3383.0,0.006035001804881146
3382.0,0.00612308505878878
3381.0,0.00625524344553785
3380.0,0.006387442061109638
3379.0,0.006519680930003435
3378.0,0.006651960076740071
3377.0,0.006740168563263094
3376.0,0.006784279525863024
3375.0,0.006740168563263094
3374.0,0.00656376950238835
3373.0,0.006299305179649828
3372.0,0.006079041198713275
3371.0,0.005990966876386672
3370.0,0.006035001804881146
3369.0,0.006167133386013823
3368.0,0.00621118618129457
3367.0,0.006167133386013823
3366.0,0.006079041198713275
3365.0,0.006035001804881146
3364.0,0.006079041198713275
3363.0,0.006167133386013823
3362.0,0.006343371384537999
3361.0,0.006475596832934416
3360.0,0.006607862550997545
3359.0,0.006607862550997545
3358.0,0.006519680930003435
3357.0,0.006431517210272464
3356.0,0.006387442061109638
3355.0,0.006431517210272464
3354.0,0.006431517210272464
3353.0,0.006431517210272464
3352.0,0.006343371384537999
3351.0,0.006167133386013823
3350.0,0.005990966876386672
3349.0,0.005858888873877532
3348.0,0.005814871797682919
3347.0,0.005858888873877532
3346.0,0.005990966876386672
3345.0,0.006079041198713275
3344.0,0.00612308505878878
3343.0,0.00612308505878878
3342.0,0.006079041198713275
3341.0,0.00612308505878878
3340.0,0.006167133386013823
3339.0,0.00625524344553785
3338.0,0.00625524344553785
3337.0,0.00621118618129457
3336.0,0.006167133386013823
3335.0,0.006167133386013823
3334.0,0.00625524344553785
3333.0,0.006343371384537999
3332.0,0.006431517210272464
3331.0,0.006431517210272464
3330.0,0.006431517210272464
3329.0,0.006387442061109638
3328.0,0.00625524344553785
3327.0,0.006167133386013823
3326.0,0.006079041198713275
3325.0,0.006079041198713275
3324.0,0.00612308505878878
3323.0,0.006167133386013823
3322.0,0.00612308505878878
3321.0,0.006079041198713275
3320.0,0.005946936412324799
3319.0,0.00590291041179003
3318.0,0.005946936412324799
3317.0,0.006079041198713275
3316.0,0.00625524344553785
3315.0,0.006299305179649828
3314.0,0.00625524344553785
3313.0,0.00612308505878878
3312.0,0.005990966876386672
3311.0,0.00590291041179003
3310.0,0.005858888873877532
3309.0,0.005814871797682919
3308.0,0.005726851026829571
3307.0,0.005638848091999105
3306.0,0.005594853310833647
3305.0,0.005594853310833647
3304.0,0.005638848091999105
3303.0,0.005682847330363394
3302.0,0.005682847330363394
3301.0,0.005638848091999105
3300.0,0.005550862985963967
3299.0,0.005506877116487674
3298.0,0.005462895701502157
3297.0,0.00537494623139545
3296.0,0.00537494623139545
3295.0,0.005462895701502157
3294.0,0.005594853310833647
3293.0,0.00577085918230158
3292.0,0.00590291041179003
3291.0,0.005990966876386672
3290.0,0.005946936412324799
3289.0,0.005858888873877532
3288.0,0.00577085918230158
3287.0,0.005682847330363394
3286.0,0.005638848091999105
3285.0,0.005682847330363394
3284.0,0.005682847330363394
3283.0,0.005726851026829571
3282.0,0.00577085918230158
3281.0,0.005814871797682919
3280.0,0.005858888873877532
3279.0,0.005946936412324799
3278.0,0.006079041198713275
3277.0,0.00625524344553785
3276.0,0.006343371384537999
3275.0,0.00621118618129457
3274.0,0.005990966876386672
3273.0,0.005726851026829571
3272.0,0.005550862985963967
3271.0,0.005462895701502157
3270.0,0.00541891874010525
3269.0,0.005462895701502157
3268.0,0.005550862985963967
3267.0,0.005638848091999105
3266.0,0.00577085918230158
3265.0,0.005858888873877532
3264.0,0.005946936412324799
3263.0,0.00590291041179003
3262.0,0.00577085918230158
3261.0,0.005550862985963967
3260.0,0.005330978174470591
3259.0,0.005199100705396198
3258.0,0.005199100705396198
3257.0,0.005330978174470591
3256.0,0.00541891874010525
3255.0,0.005462895701502157
3254.0,0.005462895701502157
3253.0,0.005462895701502157
3252.0,0.005550862985963967
3251.0,0.005594853310833647
3250.0,0.005638848091999105
3249.0,0.005594853310833647
3248.0,0.005550862985963967
3247.0,0.005462895701502157
3246.0,0.005330978174470591
3245.0,0.005155150446602086
3244.0,0.004979393875242044
3243.0,0.004803708402820517
3242.0,0.004759798137184523
3241.0,0.00484762310854614
3240.0,0.005023326350308999
3239.0,0.0052870145684298375
3238.0,0.005506877116487674
3237.0,0.005550862985963967
3236.0,0.005462895701502157
3235.0,0.0052870145684298375
3234.0,0.005155150446602086
3233.0,0.005067263269958211
3232.0,0.005023326350308999
3231.0,0.005023326350308999
3230.0,0.005111204635089406
3229.0,0.005155150446602086
3228.0,0.005067263269958211
3227.0,0.004935465843858511
3226.0,0.004759798137184523
3225.0,0.00458420145758498
3224.0,0.004540313378935901
3223.0,0.00458420145758498
3222.0,0.004671990922590297
3221.0,0.004715892310740433
3220.0,0.004759798137184523
3219.0,0.004715892310740433
3218.0,0.004628093971837721
3217.0,0.004540313378935901
3216.0,0.004452550524862486
3215.0,0.0044964297349936455
3214.0,0.00458420145758498
3213.0,0.004759798137184523
3212.0,0.004803708402820517
3211.0,0.004759798137184523
3210.0,0.004715892310740433
3209.0,0.004715892310740433
3208.0,0.00484762310854614
3207.0,0.004935465843858511
3206.0,0.004979393875242044
3205.0,0.005023326350308999
3204.0,0.005067263269958211
3203.0,0.005023326350308999
3202.0,0.004979393875242044
3201.0,0.00489154225525934
3200.0,0.00489154225525934
3199.0,0.00489154225525934
3198.0,0.004935465843858511
3197.0,0.00489154225525934
3196.0,0.004759798137184523
3195.0,0.00458420145758498
3194.0,0.0044964297349936455
3193.0,0.004452550524862486
3192.0,0.0044964297349936455
3191.0,0.00458420145758498
3190.0,0.004671990922590297
3189.0,0.004715892310740433
3188.0,0.004759798137184523
3187.0,0.004803708402820517
3186.0,0.004803708402820517
3185.0,0.00484762310854614
3184.0,0.00484762310854614
3183.0,0.00484762310854614
3182.0,0.004803708402820517
3181.0,0.004759798137184523
3180.0,0.004715892310740433
3179.0,0.004759798137184523
3178.0,0.004803708402820517
3177.0,0.004759798137184523
3176.0,0.004715892310740433
3175.0,0.00458420145758498
3174.0,0.0044964297349936455
3173.0,0.004408675747646695
3172.0,0.0043648054024501
3171.0,0.0043648054024501
3170.0,0.004320939488377862
3169.0,0.004277078004534696
3168.0,0.004233220950025984
3167.0,0.004320939488377862
3166.0,0.004408675747646695
3165.0,0.0044964297349936455
3164.0,0.0044964297349936455
3163.0,0.0043648054024501
3162.0,0.004233220950025984
3161.0,0.004101676353562844
3160.0,0.00401400208620073
3159.0,0.003970171588923321
3158.0,0.00401400208620073
3157.0,0.004101676353562844
3156.0,0.004145520125434121
3155.0,0.004145520125434121
3154.0,0.004145520125434121
3153.0,0.004145520125434121
3152.0,0.004101676353562844
3151.0,0.00401400208620073
3150.0,0.0038387066319929275
3149.0,0.003707281458678491
3148.0,0.003707281458678491
3147.0,0.003794893821675638
3146.0,0.0038825238627120395
3145.0,0.003970171588923321
3144.0,0.00401400208620073
3143.0,0.003970171588923321
3142.0,0.0038825238627120395
3141.0,0.003794893821675638
3140.0,0.003794893821675638
3139.0,0.003794893821675638
3138.0,0.0038387066319929275
3137.0,0.0038387066319929275
3136.0,0.0038825238627120395
3135.0,0.0038825238627120395
3134.0,0.0038825238627120395
3133.0,0.003794893821675638
3132.0,0.003707281458678491
3131.0,0.003619686766589858
3130.0,0.0036634819042162814
3129.0,0.003707281458678491
3128.0,0.003794893821675638
3127.0,0.003794893821675638
3126.0,0.0037510854308679953
3125.0,0.0036634819042162814
3124.0,0.003619686766589858
3123.0,0.0035321097382827737
3122.0,0.003488327845821315
3121.0,0.0034445503666347133
3120.0,0.003488327845821315
3119.0,0.0035758960449088217
3118.0,0.0037510854308679953
3117.0,0.0038387066319929275
3116.0,0.0038387066319929275
3115.0,0.0037510854308679953
3114.0,0.0035758960449088217
3113.0,0.0034007772998332353
3112.0,0.0033570086445275926
3111.0,0.0033570086445275926
3110.0,0.0034007772998332353
3109.0,0.0034445503666347133
3108.0,0.003488327845821315
3107.0,0.003488327845821315
3106.0,0.0034445503666347133
3105.0,0.0034007772998332353
3104.0,0.0033570086445275926
3103.0,0.0032694845648473247
3102.0,0.0032694845648473247
3101.0,0.0032694845648473247
3100.0,0.0033132443998284966
3099.0,0.0033132443998284966
3098.0,0.0033570086445275926
3097.0,0.003488327845821315
3096.0,0.0036634819042162814
3095.0,0.003794893821675638
3094.0,0.0038825238627120395
3093.0,0.0038387066319929275
3092.0,0.0037510854308679953
3091.0,0.003619686766589858
3090.0,0.0035321097382827737
3089.0,0.0034445503666347133
3088.0,0.0034007772998332353
3087.0,0.0034007772998332353
3086.0,0.0034445503666347133
3085.0,0.0034445503666347133
3084.0,0.003488327845821315
3083.0,0.003488327845821315
3082.0,0.0034445503666347133
3081.0,0.0033570086445275926
3080.0,0.0032694845648473247
3079.0,0.0032257291386954545
3078.0,0.0032257291386954545
3077.0,0.0032257291386954545
3076.0,0.0032257291386954545
3075.0,0.0032257291386954545
3074.0,0.0032257291386954545
3073.0,0.0032257291386954545
3072.0,0.0032257291386954545
3071.0,0.0032694845648473247
3070.0,0.0033570086445275926
3069.0,0.0034007772998332353
3068.0,0.0033570086445275926
3067.0,0.0032694845648473247
3066.0,0.0031819781204844855
3065.0,0.0030944893043338695
3064.0,0.0030944893043338695
3063.0,0.0031382315093266833
3062.0,0.0031819781204844855
3061.0,0.0031382315093266833
3060.0,0.003050751504618754
3059.0,0.0029632891174733444
3058.0,0.0029195645282691363
3057.0,0.0029195645282691363
3056.0,0.0030070181092942683
3055.0,0.0030944893043338695
3054.0,0.0031819781204844855
3053.0,0.0032257291386954545
3052.0,0.0031819781204844855
3051.0,0.0031382315093266833
3050.0,0.003050751504618754
3049.0,0.0029632891174733444
3048.0,0.0029632891174733444
3047.0,0.0030070181092942683
3046.0,0.0030070181092942683
3045.0,0.0030070181092942683
3044.0,0.0030070181092942683
3043.0,0.0029632891174733444
3042.0,0.0029195645282691363
3041.0,0.0029195645282691363
3040.0,0.0029632891174733444
3039.0,0.003050751504618754
3038.0,0.0030944893043338695
3037.0,0.0030944893043338695
3036.0,0.003050751504618754
3035.0,0.0030070181092942683
3034.0,0.0030070181092942683
3033.0,0.003050751504618754
3032.0,0.0031382315093266833
3031.0,0.0032257291386954545
3030.0,0.0032694845648473247
3029.0,0.0032257291386954545
3028.0,0.0031819781204844855
3027.0,0.0031382315093266833
3026.0,0.0031382315093266833
3025.0,0.0031382315093266833
3024.0,0.0031382315093266833
3023.0,0.0030944893043338695
3022.0,0.0030070181092942683
3021.0,0.0029195645282691363
3020.0,0.0028321285541661467
3019.0,0.0027884171674950053
3018.0,0.0027884171674950053
3017.0,0.0027884171674950053
3016.0,0.0027884171674950053
3015.0,0.0027884171674950053
3014.0,0.0027884171674950053
3013.0,0.0027884171674950053
3012.0,0.0028321285541661467
3011.0,0.0029195645282691363
3010.0,0.003050751504618754
3009.0,0.0031382315093266833
3008.0,0.0031382315093266833
3007.0,0.003050751504618754
3006.0,0.0029195645282691363
3005.0,0.0027884171674950053
3004.0,0.002701007590486082
3003.0,0.0026573093983774942
3002.0,0.0027447101798967477
3001.0,0.0028758443407954637
3000.0,0.0030070181092942683
2999.0,0.0030944893043338695
2998.0,0.0030944893043338695
2997.0,0.0030944893043338695
2996.0,0.003050751504618754
2995.0,0.003050751504618754
2994.0,0.0031382315093266833
2993.0,0.0032257291386954545
2992.0,0.0033570086445275926
2991.0,0.003488327845821315
2990.0,0.0035758960449088217
2989.0,0.0036634819042162814
2988.0,0.003794893821675638
2987.0,0.003926345514724705
2986.0,0.004101676353562844
2985.0,0.004277078004534696
2984.0,0.0043648054024501
2983.0,0.004452550524862486
2982.0,0.00458420145758498
2981.0,0.004759798137184523
2980.0,0.005023326350308999
2979.0,0.00537494623139545
2978.0,0.00577085918230158
2977.0,0.00625524344553785
2976.0,0.006740168563263094
2975.0,0.007313960837872058
2974.0,0.007888512213050314
2973.0,0.008552401996197112
2972.0,0.009217308196862062
2971.0,0.009927665307847056
2970.0,0.010728208358306901
2969.0,0.011485634166333858
2968.0,0.012289056869694281
2967.0,0.013138729709955221
2966.0,0.013945219230304673
2965.0,0.014843078722943437
2964.0,0.015697768020096703
2963.0,0.016554142658660398
2962.0,0.017367005605150476
2961.0,0.01809082990920774
2960.0,0.018770512579999288
2959.0,0.01940584422377989
2958.0,0.01995115493504329
2957.0,0.02045162529590483
2956.0,0.020861530453190058
2955.0,0.0211806132671577
2954.0,0.021499930688540836
2953.0,0.021773818325474092
2952.0,0.02200219004126036
2951.0,0.022322112326006227
2950.0,0.022871099419317753
2949.0,0.02365002099672653
2948.0,0.02475205875931885
2947.0,0.026087429580295085
2946.0,0.027658283674251827
2945.0,0.02960662792039992
2944.0,0.03189079887180224
2943.0,0.034469056377139484
2942.0,0.037346595106788616
2941.0,0.04038628892895613
2940.0,0.04368746915880539
2939.0,0.04725597598510167
2938.0,0.05119595406718891
2937.0,0.05546797900801881
2936.0,0.06003170944866376
2935.0,0.06494641076893504
2934.0,0.07017251876930874
2933.0,0.07577241873988227
2932.0,0.08181233864107451
2931.0,0.08836306687055773
2930.0,0.09544673702322726
2929.0,0.10314322726279568
2928.0,0.11153968196461372
2927.0,0.12067469921519258
2926.0,0.13076828026902376
2925.0,0.14182386201765573
2924.0,0.15391041964201602
2923.0,0.16710805524020933
2922.0,0.18137827362411096
2921.0,0.19640633522865558
2920.0,0.21161948468043668
2919.0,0.2259942697417905
2918.0,0.23799703062488464
2917.0,0.24595761321456378
2916.0,0.24864390027460637
2915.0,0.2458811057745871
2914.0,0.23837281543841726
2913.0,0.2277516600281464
2912.0,0.2158107946190393
2911.0,0.2037726859705613
2910.0,0.19239733008350535
2909.0,0.1821703002543944
2908.0,0.1730186630880064
2907.0,0.16513442009996204
2906.0,0.1582027011256446
2905.0,0.15224231160766877
2904.0,0.14697138528701026
2903.0,0.1423660148499919
2902.0,0.13822670328130693
2901.0,0.13448148092522594
2900.0,0.13100309751286465
2899.0,0.1276688787697493
2898.0,0.12459143992293642
2897.0,0.12159311241900439
2896.0,0.11861534322942724
2895.0,0.11565785235294102
2894.0,0.11260778102815316
2893.0,0.10952309103982927
2892.0,0.10646015643533868
2891.0,0.1033635694704158
2890.0,0.10023419805561384
2889.0,0.09712721455392082
2888.0,0.09393445524476318
2887.0,0.0908185240221473
2886.0,0.08772478950118767
2885.0,0.08470571697731355
2884.0,0.08170748724464438
2883.0,0.07883394936226118
2882.0,0.0759792995259323
2881.0,0.07314329105030759
2880.0,0.07037674848475972
2879.0,0.06777998612288094
2878.0,0.0653500770992892
2877.0,0.06318476880236723
2876.0,0.06123017721688262
2875.0,0.05943371350990989
2874.0,0.05789269101064454
2873.0,0.05660442349104544
2872.0,0.05551732784983132
2871.0,0.05462990550969615
2870.0,0.053842605077627725
2869.0,0.05330216275425803
2868.0,0.05305672930217464
2867.0,0.05325306496641513
2866.0,0.05399011523423525
2865.0,0.05531996611868961
2864.0,0.05734718830678798
2863.0,0.060131455540490375
2862.0,0.0636873663378068
2861.0,0.06813548650796819
2860.0,0.07360609973031784
2859.0,0.08029446545087904
2858.0,0.08841629901892434
2857.0,0.09816040794877057
2856.0,0.10991447328367476
2855.0,0.12407101507707297
2854.0,0.1409217752530305
2853.0,0.1602706247936121
2852.0,0.1812464095022832
2851.0,0.20169471797802352
2850.0,0.21802932608744796
2849.0,0.2267256516625462
2848.0,0.22577509513108107
2847.0,0.2160964207272651
2846.0,0.20086630669793704
2845.0,0.18329481633348466
2844.0,0.16596098184053343
2843.0,0.1499667423102311
2842.0,0.13590442657575252
2841.0,0.12360893818081231
2840.0,0.11311464101399138
2839.0,0.10419084983086901
2838.0,0.09658441423091357
2837.0,0.09012318200960712
2836.0,0.08465293767580806
2835.0,0.07992887570247587
2834.0,0.07582412969807906
2833.0,0.07227044022834539
2832.0,0.06905096883247697
2831.0,0.06615853710127872
2830.0,0.06363708040225546
2829.0,0.061380218497318895
2828.0,0.05933412752417122
2827.0,0.05749589383191922
2826.0,0.05571477931124735
2825.0,0.054088483180726676
2824.0,0.05256627811294923
2823.0,0.05114709380028648
2822.0,0.049927370249842395
2821.0,0.04875964967565971
2820.0,0.047643522676209304
2819.0,0.04657860031896477
2818.0,0.045612749855485024
2817.0,0.04469717723830824
2816.0,0.04383156952463674
2815.0,0.04301563225723992
2814.0,0.04215336629184985
2813.0,0.041340572947066834
2812.0,0.04057697805689475
2811.0,0.03981472339538916
2810.0,0.03910132267333921
2809.0,0.038436537637930535
2808.0,0.03786753070176463
2807.0,0.03739392707587297
2806.0,0.036873558918095295
2805.0,0.03630659476198117
2804.0,0.035740369803151095
2803.0,0.03522197797762394
2802.0,0.03465716443937783
2801.0,0.03414006319292828
2800.0,0.03367050483612166
2799.0,0.033201453616638954
2798.0,0.03282657704446046
2797.0,0.03245202378113787
2796.0,0.032124554451966825
2795.0,0.03170388495374454
2794.0,0.03128362253321426
2793.0,0.030863766403287585
2792.0,0.030397735151460825
2791.0,0.029978734171634214
2790.0,0.02960662792039992
2789.0,0.029281296279810798
2788.0,0.02890978686288448
2787.0,0.028538594975413334
2786.0,0.028167720075074953
2785.0,0.027843464140506313
2784.0,0.02751945012352408
2783.0,0.02724191609646076
2782.0,0.027010773144651168
2781.0,0.026733563891471412
2780.0,0.026410376572743033
2779.0,0.02613355016462182
2778.0,0.025810808881832736
2777.0,0.02553436426275746
2776.0,0.025304128090317013
2775.0,0.02512002699306959
2774.0,0.02498200236711723
2773.0,0.02475205875931885
2772.0,0.024430342106337877
2771.0,0.02406295751688936
2770.0,0.023787622882622816
2769.0,0.023604163388120325
2768.0,0.023466619608062178
2767.0,0.023329119375188556
2766.0,0.02314585342378117
2765.0,0.02300845469384938
2764.0,0.022871099419317753
2763.0,0.022688026603074007
2762.0,0.02255077261765881
2761.0,0.02227639471115217
2760.0,0.02204787879853809
2759.0,0.021819483062586187
2758.0,0.021636852916117055
2757.0,0.021499930688540836
2756.0,0.02140867317992523
2755.0,0.021271822861508305
2754.0,0.021135015652343103
2753.0,0.021089422824428272
2752.0,0.021043834782408455
2751.0,0.021043834782408455
2750.0,0.0209982515252789
2749.0,0.0209982515252789
2748.0,0.020952673052035298
2747.0,0.020861530453190058
2746.0,0.020770406977844713
2745.0,0.020633757603838898
2744.0,0.020497151212598652
2743.0,0.020406104151069693
2742.0,0.02026956933771462
2741.0,0.020178569969774962
2740.0,0.02004210665933459
2739.0,0.01990568621470623
2738.0,0.019814763052665052
2737.0,0.019678413991243593
2736.0,0.01958753839310856
2735.0,0.01954210772389997
2734.0,0.01954210772389997
2733.0,0.01954210772389997
2732.0,0.01954210772389997
2731.0,0.019451260640229506
2730.0,0.019360432556262852
2729.0,0.019315025636685412
2728.0,0.019269623464054586
2727.0,0.0192242260373785
2726.0,0.019133445417920836
2725.0,0.01899731005860028
2724.0,0.018861217359339655
2723.0,0.018725167293411005
2722.0,0.01858915983411169
2721.0,0.018498511851753108
2720.0,0.01840788278591865
2719.0,0.01831727262871463
2718.0,0.018271974638383703
2717.0,0.018136109008649592
2716.0,0.01800028587012159
2715.0,0.017909760704207134
2714.0,0.017864505196230507
2713.0,0.017864505196230507
2712.0,0.017864505196230507
2711.0,0.017864505196230507
2710.0,0.017774008325325275
2709.0,0.01768353030793479
2708.0,0.017547848615010242
2707.0,0.017502630802287644
2706.0,0.017502630802287644
2705.0,0.017457417697056554
2704.0,0.017412209298337533
2703.0,0.017321806616515723
2702.0,0.017231422748988034
2701.0,0.017095882207371904
2700.0,0.017050711425501408
2699.0,0.017005545341335804
2698.0,0.017005545341335804
2697.0,0.016915227262211507
2696.0,0.016824927962187042
2695.0,0.016734647433454652
2694.0,0.016689514205884493
2693.0,0.016599261819461697
2692.0,0.016599261819461697
2691.0,0.016554142658660398
2690.0,0.016554142658660398
2689.0,0.016554142658660398
2688.0,0.016554142658660398
2687.0,0.016554142658660398
2686.0,0.016509028184833463
2685.0,0.01646391839700767
2684.0,0.01632861713980338
2683.0,0.01628352608625061
2682.0,0.01628352608625061
2681.0,0.016373712875465518
2680.0,0.016509028184833463
2679.0,0.016644385668211692
2678.0,0.016689514205884493
2677.0,0.016644385668211692
2676.0,0.016554142658660398
2675.0,0.01646391839700767
2674.0,0.01646391839700767
2673.0,0.016554142658660398
2672.0,0.016644385668211692
2671.0,0.016644385668211692
2670.0,0.016644385668211692
2669.0,0.016644385668211692
2668.0,0.016599261819461697
2667.0,0.016554142658660398
2666.0,0.016554142658660398
2665.0,0.016509028184833463
2664.0,0.01646391839700767
2663.0,0.01646391839700767
2662.0,0.016418813294209356
2661.0,0.01632861713980338
2660.0,0.016238439713835096
2659.0,0.016193358021584725
2658.0,0.016148281008528276
2657.0,0.016103208673694303
2656.0,0.016058141016111804
2655.0,0.016058141016111804
2654.0,0.016058141016111804
2653.0,0.016103208673694303
2652.0,0.016058141016111804
2651.0,0.016013078034810446
2650.0,0.01596801972881945
2649.0,0.015922966097169144
2648.0,0.015832872853011715
2647.0,0.015832872853011715
2646.0,0.015832872853011715
2645.0,0.01578783323856614
2644.0,0.015742798294583915
2643.0,0.015652742414136167
2642.0,0.015607721475734415
2641.0,0.015562705203923999
2640.0,0.015562705203923999
2639.0,0.015607721475734415
2638.0,0.015697768020096703
2637.0,0.015742798294583915
2636.0,0.015697768020096703
2635.0,0.015607721475734415
2634.0,0.01547268665620738
2633.0,0.01538268676325183
2632.0,0.015292705517326866
2631.0,0.015292705517326866
2630.0,0.015292705517326866
2629.0,0.015292705517326866
2628.0,0.015292705517326866
2627.0,0.015247721884586563
2626.0,0.015202742910707112
2625.0,0.015157768594724175
2624.0,0.015067833932588037
2623.0,0.015022873584506602
2622.0,0.014932966849499074
2621.0,0.014843078722943437
2620.0,0.014753209197138295
2619.0,0.014663358264387139
2618.0,0.014573525916998342
2617.0,0.01452861671041239
2616.0,0.0144837121472845
2615.0,0.014438812226654996
2614.0,0.014393916947563534
2613.0,0.014304140310157809
2612.0,0.014214382227394795
2611.0,0.014124642691606404
2610.0,0.01403492169512921
2609.0,0.013990068146738865
2608.0,0.013990068146738865
2607.0,0.013990068146738865
2606.0,0.013945219230304673
2605.0,0.013945219230304673
2604.0,0.01385553528947936
2603.0,0.01381070026317599
2602.0,0.01381070026317599
2601.0,0.01385553528947936
2600.0,0.013900374944870508
2599.0,0.01381070026317599
2598.0,0.013765869865004277
2597.0,0.013676222949234651
2596.0,0.013631406429727155
2595.0,0.013541787262693505
2594.0,0.013496984613259544
2593.0,0.013452186585275916
2592.0,0.013407393177789162
2591.0,0.013362604389846044
2590.0,0.013273040668781544
2589.0,0.01318349541446362
2588.0,0.013093968619278806
2587.0,0.013049212141483357
2586.0,0.013004460275618523
2585.0,0.012914970375878188
2584.0,0.012870232340102872
2583.0,0.012825498912458322
2582.0,0.012780770091995297
2581.0,0.012736045877764557
2580.0,0.01264661126420652
2579.0,0.01260190086298274
2578.0,0.01260190086298274
2577.0,0.012691326268817527
2576.0,0.012691326268817527
2575.0,0.01264661126420652
2574.0,0.012557195064198723
2573.0,0.012467797270160563
2572.0,0.012467797270160563
2571.0,0.012423105273012602
2570.0,0.012378417874516323
2569.0,0.012333735073725371
2568.0,0.012289056869694281
2567.0,0.012244383261476699
2566.0,0.012244383261476699
2565.0,0.012199714248127602
2564.0,0.01215504982870197
2563.0,0.01215504982870197
2562.0,0.01215504982870197
2561.0,0.012110390002254778
2560.0,0.012110390002254778
2559.0,0.012110390002254778
2558.0,0.01215504982870197
2557.0,0.01215504982870197
2556.0,0.012110390002254778
2555.0,0.012065734767841452
2554.0,0.012065734767841452
2553.0,0.012065734767841452
2552.0,0.012021084124518078
2551.0,0.012021084124518078
2550.0,0.011931796607364653
2549.0,0.011887159731648111
2548.0,0.011797899741219142
2547.0,0.011708658092512314
2546.0,0.011664044143949504
2545.0,0.011619434777991433
2544.0,0.011574829993696856
2543.0,0.011530229790124524
2542.0,0.011530229790124524
2541.0,0.011530229790124524
2540.0,0.011530229790124524
2539.0,0.011530229790124524
2538.0,0.011530229790124524
2537.0,0.011485634166333858
2536.0,0.011441043121384498
2535.0,0.011396456654336085
2534.0,0.011396456654336085
2533.0,0.011441043121384498
2532.0,0.011485634166333858
2531.0,0.011530229790124524
2530.0,0.011530229790124524
2529.0,0.011485634166333858
2528.0,0.011441043121384498
2527.0,0.011351874764248926
2526.0,0.011262724711199823
2525.0,0.011218156546359825
2524.0,0.01117359295472431
2523.0,0.011129033935354915
2522.0,0.011084479487313281
2521.0,0.011084479487313281
2520.0,0.011084479487313281
2519.0,0.011039929609661936
2518.0,0.010950843561779777
2517.0,0.010906307389674463
2516.0,0.01086177578421088
2515.0,0.010817248744452446
2514.0,0.010817248744452446
2513.0,0.010817248744452446
2512.0,0.01077272626946324
2511.0,0.010683695010048622
2510.0,0.010639186223752484
2509.0,0.010594681998483901
2508.0,0.010639186223752484
2507.0,0.010639186223752484
2506.0,0.010639186223752484
2505.0,0.010683695010048622
2504.0,0.010728208358306901
2503.0,0.01077272626946324
2502.0,0.010817248744452446
2501.0,0.01077272626946324
2500.0,0.010728208358306901
2499.0,0.010639186223752484
2498.0,0.010594681998483901
2497.0,0.010550182333308289
2496.0,0.010505687227290839
2495.0,0.010505687227290839
2494.0,0.010505687227290839
2493.0,0.010550182333308289
2492.0,0.010550182333308289
2491.0,0.010550182333308289
2490.0,0.010550182333308289
2489.0,0.010505687227290839
2488.0,0.01046119667949763
2487.0,0.01037222925484893
2486.0,0.010327752376126709
2485.0,0.010283280051895272
2484.0,0.010327752376126709
2483.0,0.01037222925484893
2482.0,0.010416710688994968
2481.0,0.010416710688994968
2480.0,0.010283280051895272
2479.0,0.010149890396819572
2478.0,0.010105436281226954
2477.0,0.010105436281226954
2476.0,0.010194349063173958
2475.0,0.010283280051895272
2474.0,0.010327752376126709
2473.0,0.010283280051895272
2472.0,0.01023881228122181
2471.0,0.010194349063173958
2470.0,0.010194349063173958
2469.0,0.01023881228122181
2468.0,0.010283280051895272
2467.0,0.010283280051895272
2466.0,0.010194349063173958
2465.0,0.010149890396819572
2464.0,0.010060986715464404
2463.0,0.010060986715464404
2462.0,0.010105436281226954
2461.0,0.010194349063173958
2460.0,0.010194349063173958
2459.0,0.010194349063173958
2458.0,0.010149890396819572
2457.0,0.010060986715464404
2456.0,0.009972101229705377
2455.0,0.009883233932095559
2454.0,0.009883233932095559
2453.0,0.009883233932095559
2452.0,0.009838807101520963
2451.0,0.009838807101520963
2450.0,0.009838807101520963
2449.0,0.009838807101520963
2448.0,0.009794384815193347
2447.0,0.009794384815193347
2446.0,0.009838807101520963
2445.0,0.009838807101520963
2444.0,0.009794384815193347
2443.0,0.00974996707218323
2442.0,0.009705553871561357
2441.0,0.00966114521239847
2440.0,0.00966114521239847
2439.0,0.009705553871561357
2438.0,0.009705553871561357
2437.0,0.00974996707218323
2436.0,0.009794384815193347
2435.0,0.009794384815193347
2434.0,0.00974996707218323
2433.0,0.00966114521239847
2432.0,0.009572341514736404
2431.0,0.009527946474380489
2430.0,0.009527946474380489
2429.0,0.009527946474380489
2428.0,0.009572341514736404
2427.0,0.009616741093766423
2426.0,0.009705553871561357
2425.0,0.00974996707218323
2424.0,0.00974996707218323
2423.0,0.009705553871561357
2422.0,0.00966114521239847
2421.0,0.00966114521239847
2420.0,0.00966114521239847
2419.0,0.00966114521239847
2418.0,0.009705553871561357
2417.0,0.009705553871561357
2416.0,0.009705553871561357
2415.0,0.009616741093766423
2414.0,0.009616741093766423
2413.0,0.009616741093766423
2412.0,0.00966114521239847
2411.0,0.00966114521239847
2410.0,0.009616741093766423
2409.0,0.009572341514736404
2408.0,0.009572341514736404
2407.0,0.009572341514736404
2406.0,0.009616741093766423
2405.0,0.009616741093766423
2404.0,0.009616741093766423
2403.0,0.009616741093766423
2402.0,0.009616741093766423
2401.0,0.009616741093766423
2400.0,0.009572341514736404
2399.0,0.009527946474380489
2398.0,0.009483555971770974
2397.0,0.009527946474380489
2396.0,0.009572341514736404
2395.0,0.009572341514736404
2394.0,0.009527946474380489
2393.0,0.009483555971770974
2392.0,0.00939478857608056
2391.0,0.009306039320248427
2390.0,0.009306039320248427
2389.0,0.009261671492462709
2388.0,0.009172949432521227
2387.0,0.00908424549391551
2386.0,0.008995559669244813
2385.0,0.008906891951112605
2384.0,0.008862564879688284
2383.0,0.008773924307505121
2382.0,0.008818242332126802
2381.0,0.008862564879688284
2380.0,0.008951223547323472
2379.0,0.008995559669244813
2378.0,0.008951223547323472
2377.0,0.008818242332126802
2376.0,0.008596697419959609
2375.0,0.008375265465994541
2374.0,0.008198201155356077
2373.0,0.008242460465651913
2372.0,0.00850811108984062
2371.0,0.0087296108049002
2370.0,0.008862564879688284
2369.0,0.008818242332126802
2368.0,0.0087296108049002
2367.0,0.008596697419959609
2366.0,0.00850811108984062
2365.0,0.008552401996197112
2364.0,0.008685301823389224
2363.0,0.008419542825660153
2362.0,0.0075790439479759275
2361.0,0.006607862550997545
2360.0,0.006299305179649828
2359.0,0.007049039429553483
2358.0,0.008419542825660153
2357.0,0.009350411681145587
2356.0,0.009217308196862062
2355.0,0.00850811108984062
2354.0,0.008109696063975047
2353.0,0.008330992620051436
2352.0,0.0087296108049002
2351.0,0.008862564879688284
2350.0,0.0087296108049002
2349.0,0.008463824699968647
2348.0,0.008286724286910463
2347.0,0.008286724286910463
2346.0,0.008596697419959609
2345.0,0.009261671492462709
2344.0,0.009927665307847056
2343.0,0.010194349063173958
2342.0,0.009972101229705377
2341.0,0.00939478857608056
2340.0,0.0087296108049002
2339.0,0.008198201155356077
2338.0,0.008109696063975047
2337.0,0.008419542825660153
2336.0,0.008951223547323472
2335.0,0.009439170005980158
2334.0,0.009794384815193347
2333.0,0.009972101229705377
2332.0,0.009794384815193347
2331.0,0.009350411681145587
2330.0,0.0087296108049002
2329.0,0.008021209005416363
2328.0,0.007269796045857202
2327.0,0.006651960076740071
2326.0,0.006607862550997545
2325.0,0.007137328610972382
2324.0,0.007932739972333236
2323.0,0.008640997362049818
2322.0,0.008951223547323472
2321.0,0.008951223547323472
2320.0,0.008773924307505121
2319.0,0.008640997362049818
2318.0,0.008552401996197112
2317.0,0.008552401996197112
2316.0,0.00850811108984062
2315.0,0.008463824699968647
2314.0,0.008463824699968647
2313.0,0.008463824699968647
2312.0,0.008552401996197112
2311.0,0.008640997362049818
2310.0,0.0087296108049002
2309.0,0.008773924307505121
2308.0,0.008773924307505121
2307.0,0.008773924307505121
2306.0,0.008818242332126802
2305.0,0.008818242332126802
2304.0,0.008685301823389224
2303.0,0.00850811108984062
2302.0,0.008286724286910463
2301.0,0.008198201155356077
2300.0,0.008153946355103248
2299.0,0.008198201155356077
2298.0,0.008330992620051436
2297.0,0.008463824699968647
2296.0,0.008552401996197112
2295.0,0.008596697419959609
2294.0,0.008640997362049818
2293.0,0.008685301823389224
2292.0,0.0087296108049002
2291.0,0.008773924307505121
2290.0,0.0087296108049002
2289.0,0.008685301823389224
2288.0,0.008596697419959609
2287.0,0.008552401996197112
2286.0,0.008596697419959609
2285.0,0.008685301823389224
2284.0,0.008818242332126802
2283.0,0.008862564879688284
2282.0,0.008906891951112605
2281.0,0.008906891951112605
2280.0,0.008906891951112605
2279.0,0.008862564879688284
2278.0,0.008862564879688284
2277.0,0.008862564879688284
2276.0,0.008818242332126802
2275.0,0.008818242332126802
2274.0,0.008773924307505121
2273.0,0.008773924307505121
2272.0,0.0087296108049002
2271.0,0.008596697419959609
2270.0,0.008552401996197112
2269.0,0.00850811108984062
2268.0,0.008463824699968647
2267.0,0.008463824699968647
2266.0,0.008419542825660153
2265.0,0.008463824699968647
2264.0,0.00850811108984062
2263.0,0.008596697419959609
2262.0,0.008640997362049818
2261.0,0.008685301823389224
2260.0,0.008685301823389224
2259.0,0.008640997362049818
2258.0,0.008640997362049818
2257.0,0.008640997362049818
2256.0,0.0087296108049002
2255.0,0.0087296108049002
2254.0,0.0087296108049002
2253.0,0.008685301823389224
2252.0,0.008685301823389224
2251.0,0.008685301823389224
2250.0,0.008685301823389224
2249.0,0.008685301823389224
2248.0,0.0087296108049002
2247.0,0.0087296108049002
2246.0,0.008685301823389224
2245.0,0.008685301823389224
2244.0,0.008640997362049818
2243.0,0.008596697419959609
2242.0,0.00850811108984062
2241.0,0.008463824699968647
2240.0,0.008419542825660153
2239.0,0.008375265465994541
2238.0,0.008375265465994541
2237.0,0.008419542825660153
2236.0,0.008463824699968647
2235.0,0.00850811108984062
2234.0,0.008552401996197112
2233.0,0.008552401996197112
2232.0,0.008552401996197112
2231.0,0.00850811108984062
2230.0,0.00850811108984062
2229.0,0.00850811108984062
2228.0,0.00850811108984062
2227.0,0.00850811108984062
2226.0,0.00850811108984062
2225.0,0.008463824699968647
2224.0,0.008463824699968647
2223.0,0.008419542825660153
2222.0,0.008419542825660153
2221.0,0.008419542825660153
2220.0,0.008419542825660153
2219.0,0.008463824699968647
2218.0,0.008552401996197112
2217.0,0.008640997362049818
2216.0,0.008685301823389224
2215.0,0.008640997362049818
2214.0,0.008552401996197112
2213.0,0.00850811108984062
2212.0,0.008463824699968647
2211.0,0.008463824699968647
2210.0,0.008463824699968647
2209.0,0.00850811108984062
2208.0,0.00850811108984062
2207.0,0.00850811108984062
2206.0,0.00850811108984062
2205.0,0.008552401996197112
2204.0,0.00850811108984062
2203.0,0.00850811108984062
2202.0,0.008463824699968647
2201.0,0.008419542825660153
2200.0,0.008375265465994541
2199.0,0.008286724286910463
2198.0,0.008286724286910463
2197.0,0.008286724286910463
2196.0,0.008286724286910463
2195.0,0.008330992620051436
2194.0,0.008330992620051436
2193.0,0.008286724286910463
2192.0,0.008242460465651913
2191.0,0.008198201155356077
2190.0,0.008198201155356077
2189.0,0.008242460465651913
2188.0,0.008286724286910463
2187.0,0.008286724286910463
2186.0,0.008286724286910463
2185.0,0.008330992620051436
2184.0,0.008330992620051436
2183.0,0.008330992620051436
2182.0,0.008242460465651913
2181.0,0.008198201155356077
2180.0,0.008153946355103248
2179.0,0.008153946355103248
2178.0,0.008198201155356077
2177.0,0.008242460465651913
2176.0,0.008286724286910463
2175.0,0.008242460465651913
2174.0,0.008242460465651913
2173.0,0.008198201155356077
2172.0,0.008242460465651913
2171.0,0.008242460465651913
2170.0,0.008242460465651913
2169.0,0.008286724286910463
2168.0,0.008330992620051436
2167.0,0.008330992620051436
2166.0,0.008330992620051436
2165.0,0.008330992620051436
2164.0,0.008375265465994541
2163.0,0.008375265465994541
2162.0,0.008375265465994541
2161.0,0.008375265465994541
2160.0,0.008375265465994541
2159.0,0.008375265465994541
2158.0,0.008330992620051436
2157.0,0.008330992620051436
2156.0,0.008286724286910463
2155.0,0.008242460465651913
2154.0,0.008242460465651913
2153.0,0.008286724286910463
2152.0,0.008375265465994541
2151.0,0.008419542825660153
2150.0,0.008419542825660153
2149.0,0.008375265465994541
2148.0,0.008375265465994541
2147.0,0.008330992620051436
2146.0,0.008286724286910463
2145.0,0.008286724286910463
2144.0,0.008242460465651913
2143.0,0.008242460465651913
2142.0,0.008242460465651913
2141.0,0.008198201155356077
2140.0,0.008153946355103248
2139.0,0.008153946355103248
2138.0,0.008153946355103248
2137.0,0.008198201155356077
2136.0,0.008198201155356077
2135.0,0.008153946355103248
2134.0,0.008109696063975047
2133.0,0.008065450281052211
2132.0,0.008065450281052211
2131.0,0.008065450281052211
2130.0,0.008065450281052211
2129.0,0.008021209005416363
2128.0,0.007976972236149349
2127.0,0.007888512213050314
2126.0,0.007844288957383316
2125.0,0.007844288957383316
2124.0,0.007888512213050314
2123.0,0.007932739972333236
2122.0,0.007932739972333236
2121.0,0.007932739972333236
2120.0,0.007976972236149349
2119.0,0.008065450281052211
2118.0,0.008153946355103248
2117.0,0.008153946355103248
2116.0,0.008109696063975047
2115.0,0.008065450281052211
2114.0,0.008065450281052211
2113.0,0.008065450281052211
2112.0,0.008065450281052211
2111.0,0.008021209005416363
2110.0,0.007976972236149349
2109.0,0.007932739972333236
2108.0,0.007932739972333236
2107.0,0.007976972236149349
2106.0,0.008021209005416363
2105.0,0.008021209005416363
2104.0,0.007976972236149349
2103.0,0.007932739972333236
2102.0,0.007888512213050314
2101.0,0.007888512213050314
2100.0,0.007888512213050314
2099.0,0.007932739972333236
2098.0,0.008021209005416363
2097.0,0.008065450281052211
2096.0,0.008109696063975047
2095.0,0.008065450281052211
2094.0,0.007976972236149349
2093.0,0.007932739972333236
2092.0,0.007844288957383316
2091.0,0.007800070204414977
2090.0,0.007800070204414977
2089.0,0.007888512213050314
2088.0,0.007932739972333236
2087.0,0.007932739972333236
2086.0,0.007932739972333236
2085.0,0.007976972236149349
2084.0,0.007932739972333236
2083.0,0.007932739972333236
2082.0,0.007888512213050314
2081.0,0.007888512213050314
2080.0,0.007932739972333236
2079.0,0.007976972236149349
2078.0,0.007976972236149349
2077.0,0.007976972236149349
2076.0,0.007976972236149349
2075.0,0.007976972236149349
2074.0,0.007932739972333236
2073.0,0.007844288957383316
2072.0,0.007800070204414977
2071.0,0.007800070204414977
2070.0,0.007844288957383316
2069.0,0.007976972236149349
2068.0,0.008065450281052211
2067.0,0.008065450281052211
2066.0,0.008109696063975047
2065.0,0.008109696063975047
2064.0,0.008065450281052211
2063.0,0.008021209005416363
2062.0,0.007976972236149349
2061.0,0.007932739972333236
2060.0,0.007932739972333236
2059.0,0.007888512213050314
2058.0,0.007844288957383316
2057.0,0.007844288957383316
2056.0,0.007844288957383316
2055.0,0.007888512213050314
2054.0,0.007888512213050314
2053.0,0.007932739972333236
2052.0,0.007932739972333236
2051.0,0.007976972236149349
2050.0,0.008021209005416363
2049.0,0.008065450281052211
2048.0,0.008153946355103248
2047.0,0.008153946355103248
2046.0,0.008109696063975047
2045.0,0.008109696063975047
2044.0,0.008109696063975047
2043.0,0.008109696063975047
2042.0,0.008109696063975047
2041.0,0.008153946355103248
2040.0,0.008153946355103248
2039.0,0.008198201155356077
2038.0,0.008198201155356077
2037.0,0.008198201155356077
2036.0,0.008153946355103248
2035.0,0.008109696063975047
2034.0,0.008109696063975047
2033.0,0.008153946355103248
2032.0,0.008198201155356077
2031.0,0.008242460465651913
2030.0,0.008242460465651913
2029.0,0.008242460465651913
2028.0,0.008242460465651913
2027.0,0.008242460465651913
2026.0,0.008286724286910463
2025.0,0.008330992620051436
2024.0,0.008419542825660153
2023.0,0.008463824699968647
2022.0,0.008463824699968647
2021.0,0.008463824699968647
2020.0,0.008419542825660153
2019.0,0.008419542825660153
2018.0,0.008375265465994541
2017.0,0.008330992620051436
2016.0,0.008330992620051436
2015.0,0.008286724286910463
2014.0,0.008242460465651913
2013.0,0.008198201155356077
2012.0,0.008109696063975047
2011.0,0.008021209005416363
2010.0,0.007932739972333236
2009.0,0.007932739972333236
2008.0,0.007976972236149349
2007.0,0.007976972236149349
2006.0,0.007976972236149349
2005.0,0.007844288957383316
2004.0,0.007755855953228474
2003.0,0.007711646202907652
2002.0,0.007667440952535687
2001.0,0.007711646202907652
2000.0,0.007711646202907652
1999.0,0.007711646202907652
1998.0,0.007711646202907652
1997.0,0.007711646202907652
1996.0,0.007667440952535687
1995.0,0.00762324020119709
1994.0,0.00762324020119709
1993.0,0.00762324020119709
1992.0,0.007711646202907652
1991.0,0.007755855953228474
1990.0,0.007800070204414977
1989.0,0.007800070204414977
1988.0,0.007755855953228474
1987.0,0.007755855953228474
1986.0,0.007800070204414977
1985.0,0.007844288957383316
1984.0,0.007888512213050314
1983.0,0.007844288957383316
1982.0,0.007800070204414977
1981.0,0.007800070204414977
1980.0,0.007755855953228474
1979.0,0.007800070204414977
1978.0,0.007800070204414977
1977.0,0.007844288957383316
1976.0,0.007888512213050314
1975.0,0.007888512213050314
1974.0,0.007844288957383316
1973.0,0.007800070204414977
1972.0,0.007755855953228474
1971.0,0.007711646202907652
1970.0,0.007711646202907652
1969.0,0.007755855953228474
1968.0,0.007800070204414977
1967.0,0.007755855953228474
1966.0,0.007711646202907652
1965.0,0.007667440952535687
1964.0,0.007667440952535687
1963.0,0.007711646202907652
1962.0,0.007755855953228474
1961.0,0.007755855953228474
1960.0,0.007800070204414977
1959.0,0.007800070204414977
1958.0,0.007844288957383316
1957.0,0.007888512213050314
1956.0,0.007888512213050314
1955.0,0.007888512213050314
1954.0,0.007844288957383316
1953.0,0.007800070204414977
1952.0,0.007755855953228474
1951.0,0.007755855953228474
1950.0,0.007711646202907652
1949.0,0.007667440952535687
1948.0,0.0075790439479759275
1947.0,0.007534852191956709
1946.0,0.007490664932224611
1945.0,0.007490664932224611
1944.0,0.007490664932224611
1943.0,0.007534852191956709
1942.0,0.0075790439479759275
1941.0,0.0075790439479759275
1940.0,0.00762324020119709
1939.0,0.0075790439479759275
1938.0,0.007534852191956709
1937.0,0.007490664932224611
1936.0,0.007402303897961815
1935.0,0.007402303897961815
1934.0,0.0074464821678643656
1933.0,0.007490664932224611
1932.0,0.007534852191956709
1931.0,0.00762324020119709
1930.0,0.00762324020119709
1929.0,0.00762324020119709
1928.0,0.0075790439479759275
1927.0,0.0075790439479759275
1926.0,0.00762324020119709
1925.0,0.007711646202907652
1924.0,0.007755855953228474
1923.0,0.007800070204414977
1922.0,0.007800070204414977
1921.0,0.007844288957383316
1920.0,0.007888512213050314
1919.0,0.007888512213050314
1918.0,0.007844288957383316
1917.0,0.007800070204414977
1916.0,0.007755855953228474
1915.0,0.007800070204414977
1914.0,0.007800070204414977
1913.0,0.007800070204414977
1912.0,0.007711646202907652
1911.0,0.007667440952535687
1910.0,0.00762324020119709
1909.0,0.00762324020119709
1908.0,0.007667440952535687
1907.0,0.007667440952535687
1906.0,0.007711646202907652
1905.0,0.007711646202907652
1904.0,0.007755855953228474
1903.0,0.007755855953228474
1902.0,0.007844288957383316
1901.0,0.007932739972333236
1900.0,0.007932739972333236
1899.0,0.007932739972333236
1898.0,0.007976972236149349
1897.0,0.008065450281052211
1896.0,0.008109696063975047
1895.0,0.008109696063975047
1894.0,0.008065450281052211
1893.0,0.008021209005416363
1892.0,0.007976972236149349
1891.0,0.007932739972333236
1890.0,0.007888512213050314
1889.0,0.007755855953228474
1888.0,0.007667440952535687
1887.0,0.0075790439479759275
1886.0,0.007490664932224611
1885.0,0.0074464821678643656
1884.0,0.0074464821678643656
1883.0,0.007490664932224611
1882.0,0.007490664932224611
1881.0,0.007490664932224611
1880.0,0.007490664932224611
1879.0,0.007490664932224611
1878.0,0.007490664932224611
1877.0,0.007490664932224611
1876.0,0.007490664932224611
1875.0,0.007490664932224611
1874.0,0.0074464821678643656
1873.0,0.0074464821678643656
1872.0,0.0074464821678643656
1871.0,0.007490664932224611
1870.0,0.007534852191956709
1869.0,0.007534852191956709
1868.0,0.007490664932224611
1867.0,0.007490664932224611
1866.0,0.0074464821678643656
1865.0,0.0074464821678643656
1864.0,0.0074464821678643656
1863.0,0.0074464821678643656
1862.0,0.007490664932224611
1861.0,0.007490664932224611
1860.0,0.007490664932224611
1859.0,0.0074464821678643656
1858.0,0.007402303897961815
1857.0,0.007358130121602358
1856.0,0.007358130121602358
1855.0,0.007358130121602358
1854.0,0.007358130121602358
1853.0,0.007402303897961815
1852.0,0.0074464821678643656
1851.0,0.0074464821678643656
1850.0,0.0074464821678643656
1849.0,0.0074464821678643656
1848.0,0.0074464821678643656
1847.0,0.0074464821678643656
1846.0,0.007402303897961815
1845.0,0.007313960837872058
1844.0,0.007313960837872058
1843.0,0.007313960837872058
1842.0,0.007313960837872058
1841.0,0.007358130121602358
1840.0,0.007358130121602358
1839.0,0.007358130121602358
1838.0,0.007313960837872058
1837.0,0.007313960837872058
1836.0,0.007269796045857202
1835.0,0.007269796045857202
1834.0,0.007269796045857202
1833.0,0.007269796045857202
1832.0,0.007313960837872058
1831.0,0.007313960837872058
1830.0,0.007269796045857202
1829.0,0.007225635744644521
1828.0,0.007181479933320523
1827.0,0.007137328610972382
1826.0,0.007181479933320523
1825.0,0.007225635744644521
1824.0,0.007269796045857202
1823.0,0.007269796045857202
1822.0,0.007181479933320523
1821.0,0.007137328610972382
1820.0,0.007137328610972382
1819.0,0.007137328610972382
1818.0,0.007225635744644521
1817.0,0.007269796045857202
1816.0,0.007313960837872058
1815.0,0.007358130121602358
1814.0,0.007402303897961815
1813.0,0.007490664932224611
1812.0,0.007490664932224611
1811.0,0.0074464821678643656
1810.0,0.007358130121602358
1809.0,0.007313960837872058
1808.0,0.007269796045857202
1807.0,0.007269796045857202
1806.0,0.007269796045857202
1805.0,0.007313960837872058
1804.0,0.007313960837872058
1803.0,0.007313960837872058
1802.0,0.007269796045857202
1801.0,0.007269796045857202
1800.0,0.007269796045857202
1799.0,0.007269796045857202
1798.0,0.007269796045857202
1797.0,0.007269796045857202
1796.0,0.007225635744644521
1795.0,0.007225635744644521
1794.0,0.007181479933320523
1793.0,0.007181479933320523
1792.0,0.007181479933320523
1791.0,0.007225635744644521
1790.0,0.007269796045857202
1789.0,0.007313960837872058
1788.0,0.007402303897961815
1787.0,0.0074464821678643656
1786.0,0.007490664932224611
1785.0,0.007534852191956709
1784.0,0.0075790439479759275
1783.0,0.007534852191956709
1782.0,0.007534852191956709
1781.0,0.007490664932224611
1780.0,0.007490664932224611
1779.0,0.007402303897961815
1778.0,0.007358130121602358
1777.0,0.007313960837872058
1776.0,0.007313960837872058
1775.0,0.007402303897961815
1774.0,0.007490664932224611
1773.0,0.0075790439479759275
1772.0,0.00762324020119709
1771.0,0.007534852191956709
1770.0,0.007402303897961815
1769.0,0.007402303897961815
1768.0,0.007490664932224611
1767.0,0.0075790439479759275
1766.0,0.00762324020119709
1765.0,0.007667440952535687
1764.0,0.00762324020119709
1763.0,0.0075790439479759275
1762.0,0.007490664932224611
1761.0,0.007490664932224611
1760.0,0.007490664932224611
1759.0,0.007490664932224611
1758.0,0.0075790439479759275
1757.0,0.007711646202907652
1756.0,0.007844288957383316
1755.0,0.007932739972333236
1754.0,0.007976972236149349
1753.0,0.008021209005416363
1752.0,0.008065450281052211
1751.0,0.008153946355103248
1750.0,0.008330992620051436
1749.0,0.008463824699968647
1748.0,0.008552401996197112
1747.0,0.00850811108984062
1746.0,0.008463824699968647
1745.0,0.008375265465994541
1744.0,0.008419542825660153
1743.0,0.008463824699968647
1742.0,0.00850811108984062
1741.0,0.008552401996197112
1740.0,0.008640997362049818
1739.0,0.008640997362049818
1738.0,0.008596697419959609
1737.0,0.008552401996197112
1736.0,0.008552401996197112
1735.0,0.00850811108984062
1734.0,0.008596697419959609
1733.0,0.008685301823389224
1732.0,0.0087296108049002
1731.0,0.008818242332126802
1730.0,0.008906891951112605
1729.0,0.008995559669244813
1728.0,0.009128595198514056
1727.0,0.009261671492462709
1726.0,0.009439170005980158
1725.0,0.00966114521239847
1724.0,0.009838807101520963
1723.0,0.01001654169860089
1722.0,0.010149890396819572
1721.0,0.010327752376126709
1720.0,0.010416710688994968
1719.0,0.01037222925484893
1718.0,0.010283280051895272
1717.0,0.01023881228122181
1716.0,0.010194349063173958
1715.0,0.01023881228122181
1714.0,0.010283280051895272
1713.0,0.010283280051895272
1712.0,0.010283280051895272
1711.0,0.010194349063173958
1710.0,0.010105436281226954
1709.0,0.009972101229705377
1708.0,0.009794384815193347
1707.0,0.009572341514736404
1706.0,0.009350411681145587
1705.0,0.009261671492462709
1704.0,0.009261671492462709
1703.0,0.009217308196862062
1702.0,0.009172949432521227
1701.0,0.009039900317800775
1700.0,0.008951223547323472
1699.0,0.008906891951112605
1698.0,0.008951223547323472
1697.0,0.009039900317800775
1696.0,0.008995559669244813
1695.0,0.008773924307505121
1694.0,0.008596697419959609
1693.0,0.00850811108984062
1692.0,0.00850811108984062
1691.0,0.008463824699968647
1690.0,0.008419542825660153
1689.0,0.008419542825660153
1688.0,0.008419542825660153
1687.0,0.008463824699968647
1686.0,0.008463824699968647
1685.0,0.008419542825660153
1684.0,0.008463824699968647
1683.0,0.008463824699968647
1682.0,0.00850811108984062
1681.0,0.008552401996197112
1680.0,0.008552401996197112
1679.0,0.00850811108984062
1678.0,0.008419542825660153
1677.0,0.008419542825660153
1676.0,0.008463824699968647
1675.0,0.00850811108984062
1674.0,0.008552401996197112
1673.0,0.008552401996197112
1672.0,0.00850811108984062
1671.0,0.008419542825660153
1670.0,0.008330992620051436
1669.0,0.008242460465651913
1668.0,0.008198201155356077
1667.0,0.008153946355103248
1666.0,0.008109696063975047
1665.0,0.008153946355103248
1664.0,0.008198201155356077
1663.0,0.008242460465651913
1662.0,0.008330992620051436
1661.0,0.008375265465994541
1660.0,0.008419542825660153
1659.0,0.008419542825660153
1658.0,0.008463824699968647
1657.0,0.008463824699968647
1656.0,0.008552401996197112
1655.0,0.008685301823389224
1654.0,0.008818242332126802
1653.0,0.008951223547323472
1652.0,0.008685301823389224
1651.0,0.008375265465994541
1650.0,0.008242460465651913
1649.0,0.008286724286910463
1648.0,0.008419542825660153
1647.0,0.008640997362049818
1646.0,0.008818242332126802
1645.0,0.008818242332126802
1644.0,0.0087296108049002
1643.0,0.008640997362049818
1642.0,0.008552401996197112
1641.0,0.00850811108984062
1640.0,0.00850811108984062
1639.0,0.008463824699968647
1638.0,0.008419542825660153
1637.0,0.008419542825660153
1636.0,0.008419542825660153
1635.0,0.008463824699968647
1634.0,0.008463824699968647
1633.0,0.008463824699968647
1632.0,0.00850811108984062
1631.0,0.008463824699968647
1630.0,0.008419542825660153
1629.0,0.008286724286910463
1628.0,0.008198201155356077
1627.0,0.008065450281052211
1626.0,0.008021209005416363
1625.0,0.007932739972333236
1624.0,0.007888512213050314
1623.0,0.007932739972333236
1622.0,0.007932739972333236
1621.0,0.007932739972333236
1620.0,0.007888512213050314
1619.0,0.007844288957383316
1618.0,0.007800070204414977
1617.0,0.007800070204414977
1616.0,0.007844288957383316
1615.0,0.007888512213050314
1614.0,0.007888512213050314
1613.0,0.007932739972333236
1612.0,0.007932739972333236
1611.0,0.007888512213050314
1610.0,0.007888512213050314
1609.0,0.007888512213050314
1608.0,0.007888512213050314
1607.0,0.007888512213050314
1606.0,0.007888512213050314
1605.0,0.007932739972333236
1604.0,0.007888512213050314
1603.0,0.007844288957383316
1602.0,0.007844288957383316
1601.0,0.007844288957383316
1600.0,0.007844288957383316
1599.0,0.007844288957383316
1598.0,0.007888512213050314
1597.0,0.007888512213050314
1596.0,0.007844288957383316
1595.0,0.007800070204414977
1594.0,0.007755855953228474
1593.0,0.007755855953228474
1592.0,0.007800070204414977
1591.0,0.007844288957383316
1590.0,0.007844288957383316
1589.0,0.007888512213050314
1588.0,0.007932739972333236
1587.0,0.007932739972333236
1586.0,0.007932739972333236
1585.0,0.007932739972333236
1584.0,0.007888512213050314
1583.0,0.007800070204414977
1582.0,0.007711646202907652
1581.0,0.007667440952535687
1580.0,0.00762324020119709
1579.0,0.00762324020119709
1578.0,0.0075790439479759275
1577.0,0.007534852191956709
1576.0,0.007490664932224611
1575.0,0.007402303897961815
1574.0,0.007313960837872058
1573.0,0.007313960837872058
1572.0,0.007358130121602358
1571.0,0.007358130121602358
1570.0,0.007313960837872058
1569.0,0.007313960837872058
1568.0,0.007313960837872058
1567.0,0.007269796045857202
1566.0,0.007269796045857202
1565.0,0.007269796045857202
1564.0,0.007269796045857202
1563.0,0.007269796045857202
1562.0,0.007313960837872058
1561.0,0.007358130121602358
1560.0,0.007313960837872058
1559.0,0.007313960837872058
1558.0,0.007358130121602358
1557.0,0.007313960837872058
1556.0,0.007313960837872058
1555.0,0.007269796045857202
1554.0,0.007225635744644521
1553.0,0.007225635744644521
1552.0,0.007269796045857202
1551.0,0.007269796045857202
1550.0,0.007269796045857202
1549.0,0.007313960837872058
1548.0,0.007358130121602358
1547.0,0.007402303897961815
1546.0,0.0074464821678643656
1545.0,0.0075790439479759275
1544.0,0.007667440952535687
1543.0,0.0075790439479759275
1542.0,0.007358130121602358
1541.0,0.007269796045857202
1540.0,0.007269796045857202
1539.0,0.007137328610972382
1538.0,0.00696076819309055
1537.0,0.006916639301937977
1536.0,0.006916639301937977
1535.0,0.006872514894289861
1534.0,0.006740168563263094
1533.0,0.006740168563263094
1532.0,0.006784279525863024
1531.0,0.006828394969235152
1530.0,0.006872514894289861
1529.0,0.00696076819309055
1528.0,0.007004901568658406
1527.0,0.00696076819309055
1526.0,0.006784279525863024
1525.0,0.006651960076740071
1524.0,0.006519680930003435
1523.0,0.006343371384537999
1522.0,0.00621118618129457
1521.0,0.00621118618129457
1520.0,0.00625524344553785
1519.0,0.006299305179649828
1518.0,0.006343371384537999
1517.0,0.006475596832934416
1516.0,0.006475596832934416
1515.0,0.006343371384537999
1514.0,0.00621118618129457
1513.0,0.006167133386013823
1512.0,0.00621118618129457
1511.0,0.006167133386013823
1510.0,0.00612308505878878
1509.0,0.00621118618129457
1508.0,0.00625524344553785
1507.0,0.00621118618129457
1506.0,0.006079041198713275
1505.0,0.005990966876386672
1504.0,0.005990966876386672
1503.0,0.005946936412324799
1502.0,0.005946936412324799
1501.0,0.005990966876386672
1500.0,0.006079041198713275
1499.0,0.006079041198713275
1498.0,0.005990966876386672
1497.0,0.005990966876386672
1496.0,0.006079041198713275
1495.0,0.006035001804881146
1494.0,0.006035001804881146
1493.0,0.00621118618129457
1492.0,0.006387442061109638
1491.0,0.006475596832934416
1490.0,0.006519680930003435
1489.0,0.006696062080525422
1488.0,0.006872514894289861
1487.0,0.006828394969235152
1486.0,0.006872514894289861
1485.0,0.007093181776687496
1484.0,0.007402303897961815
1483.0,0.007755855953228474
1482.0,0.008286724286910463
1481.0,0.009217308196862062
1480.0,0.01046119667949763
1479.0,0.012244383261476699
1478.0,0.015562705203923999
1477.0,0.021865152601710403
1476.0,0.03161045815293173
1475.0,0.04421607108308856
1474.0,0.05868737463933793
1473.0,0.07124579782334672
1472.0,0.07613452481449845
1471.0,0.07463633264589853
1470.0,0.0720140529005715
1469.0,0.07052998382251041
1468.0,0.0702746216219956
1467.0,0.07155293679081787
1466.0,0.07551395626608493
1465.0,0.08212704480115218
1464.0,0.08772478950118767
1463.0,0.0885227828938977
1462.0,0.08465293767580806
1461.0,0.07779372256098371
1460.0,0.06966236426227002
1459.0,0.061780582187257016
1458.0,0.05541863577307371
1457.0,0.051049389754451946
1456.0,0.04803141550708934
1455.0,0.0454680573730859
1454.0,0.04291974034210022
1453.0,0.040243327009005014
1452.0,0.037583306554248797
1451.0,0.035363296211498474
1450.0,0.03357665405630694
1449.0,0.032031037121307726
1448.0,0.0307239045110681
1447.0,0.02969962459782227
1446.0,0.02890978686288448
1445.0,0.028214062120885508
1444.0,0.02747318213414429
1443.0,0.026872146400301444
1442.0,0.026318081496016443
1441.0,0.025718641122169483
1440.0,0.02516604495145991
1439.0,0.024660115394541604
1438.0,0.024154774532432866
1437.0,0.023466619608062178
1436.0,0.022688026603074007
1435.0,0.02200219004126036
1434.0,0.021317434843055594
1433.0,0.020542681902151694
1432.0,0.019678413991243593
1431.0,0.018861217359339655
1430.0,0.018045555530026514
1429.0,0.01727661233145472
1428.0,0.016509028184833463
1427.0,0.015922966097169144
1426.0,0.015427684378367834
1425.0,0.014888020460646079
1424.0,0.014393916947563534
1423.0,0.01403492169512921
1422.0,0.01381070026317599
1421.0,0.013496984613259544
1420.0,0.013138729709955221
1419.0,0.012914970375878188
1418.0,0.012736045877764557
1417.0,0.01260190086298274
1416.0,0.012512493866907004
1415.0,0.012423105273012602
1414.0,0.012289056869694281
1413.0,0.012110390002254778
1412.0,0.011931796607364653
1411.0,0.011842527443247208
1410.0,0.011708658092512314
1409.0,0.011574829993696856
1408.0,0.011396456654336085
1407.0,0.011262724711199823
1406.0,0.011129033935354915
1405.0,0.010995384301463185
1404.0,0.010817248744452446
1403.0,0.010728208358306901
1402.0,0.010639186223752484
1401.0,0.010550182333308289
1400.0,0.010416710688994968
1399.0,0.010327752376126709
1398.0,0.010283280051895272
1397.0,0.010194349063173958
1396.0,0.010149890396819572
1395.0,0.010149890396819572
1394.0,0.010194349063173958
1393.0,0.010105436281226954
1392.0,0.009972101229705377
1391.0,0.009972101229705377
1390.0,0.01001654169860089
1389.0,0.010105436281226954
1388.0,0.01023881228122181
1387.0,0.010505687227290839
1386.0,0.010817248744452446
1385.0,0.01117359295472431
1384.0,0.011708658092512314
1383.0,0.012467797270160563
1382.0,0.013496984613259544
1381.0,0.01452861671041239
1380.0,0.015562705203923999
1379.0,0.01646391839700767
1378.0,0.016960383953898095
1377.0,0.017005545341335804
1376.0,0.01677978535189717
1375.0,0.016418813294209356
1374.0,0.016148281008528276
1373.0,0.016013078034810446
1372.0,0.01596801972881945
1371.0,0.016103208673694303
1370.0,0.01628352608625061
1369.0,0.01632861713980338
1368.0,0.016238439713835096
1367.0,0.016013078034810446
1366.0,0.015742798294583915
1365.0,0.015427684378367834
1364.0,0.015112798935672522
1363.0,0.014798141635428141
1362.0,0.0144837121472845
1361.0,0.014124642691606404
1360.0,0.01385553528947936
1359.0,0.013676222949234651
1358.0,0.013586594534531482
1357.0,0.013586594534531482
1356.0,0.013631406429727155
1355.0,0.01372104409400876
1354.0,0.013765869865004277
1353.0,0.013765869865004277
1352.0,0.01372104409400876
1351.0,0.013631406429727155
1350.0,0.013496984613259544
1349.0,0.013362604389846044
1348.0,0.013138729709955221
1347.0,0.012914970375878188
1346.0,0.012736045877764557
1345.0,0.012512493866907004
1344.0,0.012289056869694281
1343.0,0.01215504982870197
1342.0,0.0119764380713403
1341.0,0.011797899741219142
1340.0,0.011664044143949504
1339.0,0.011530229790124524
1338.0,0.011396456654336085
1337.0,0.011129033935354915
1336.0,0.010817248744452446
1335.0,0.010550182333308289
1334.0,0.01037222925484893
1333.0,0.010194349063173958
1332.0,0.010105436281226954
1331.0,0.01001654169860089
1330.0,0.009972101229705377
1329.0,0.009972101229705377
1328.0,0.009927665307847056
1327.0,0.009972101229705377
1326.0,0.01001654169860089
1325.0,0.010105436281226954
1324.0,0.010149890396819572
1323.0,0.010194349063173958
1322.0,0.01023881228122181
1321.0,0.010327752376126709
1320.0,0.01037222925484893
1319.0,0.010505687227290839
1318.0,0.010639186223752484
1317.0,0.010817248744452446
1316.0,0.010995384301463185
1315.0,0.011218156546359825
1314.0,0.011396456654336085
1313.0,0.011530229790124524
1312.0,0.011574829993696856
1311.0,0.011664044143949504
1310.0,0.011797899741219142
1309.0,0.011887159731648111
1308.0,0.0119764380713403
1307.0,0.012021084124518078
1306.0,0.012110390002254778
1305.0,0.01215504982870197
1304.0,0.012199714248127602
1303.0,0.012199714248127602
1302.0,0.01215504982870197
1301.0,0.012110390002254778
1300.0,0.012065734767841452
1299.0,0.012021084124518078
1298.0,0.0119764380713403
1297.0,0.011887159731648111
1296.0,0.011708658092512314
1295.0,0.011530229790124524
1294.0,0.011307297450183107
1293.0,0.01117359295472431
1292.0,0.011039929609661936
1291.0,0.010950843561779777
1290.0,0.010817248744452446
1289.0,0.010683695010048622
1288.0,0.010594681998483901
1287.0,0.010505687227290839
1286.0,0.010416710688994968
1285.0,0.01037222925484893
1284.0,0.010283280051895272
1283.0,0.010149890396819572
1282.0,0.01001654169860089
1281.0,0.009883233932095559
1280.0,0.00974996707218323
1279.0,0.00966114521239847
1278.0,0.00966114521239847
1277.0,0.009705553871561357
1276.0,0.00974996707218323
1275.0,0.009794384815193347
1274.0,0.009794384815193347
1273.0,0.009794384815193347
1272.0,0.009705553871561357
1271.0,0.009616741093766423
1270.0,0.009572341514736404
1269.0,0.009527946474380489
1268.0,0.009527946474380489
1267.0,0.009616741093766423
1266.0,0.009705553871561357
1265.0,0.00974996707218323
1264.0,0.00974996707218323
1263.0,0.00974996707218323
1262.0,0.00974996707218323
1261.0,0.009705553871561357
1260.0,0.00966114521239847
1259.0,0.009616741093766423
1258.0,0.009572341514736404
1257.0,0.009527946474380489
1256.0,0.009483555971770974
1255.0,0.009439170005980158
1254.0,0.009350411681145587
1253.0,0.009306039320248427
1252.0,0.009261671492462709
1251.0,0.009306039320248427
1250.0,0.009306039320248427
1249.0,0.009306039320248427
1248.0,0.009217308196862062
1247.0,0.009128595198514056
1246.0,0.00908424549391551
1245.0,0.008995559669244813
1244.0,0.008951223547323472
1243.0,0.008862564879688284
1242.0,0.008862564879688284
1241.0,0.008862564879688284
1240.0,0.008862564879688284
1239.0,0.008862564879688284
1238.0,0.008862564879688284
1237.0,0.008862564879688284
1236.0,0.008818242332126802
1235.0,0.008773924307505121
1234.0,0.0087296108049002
1233.0,0.008685301823389224
1232.0,0.008640997362049818
1231.0,0.008596697419959609
1230.0,0.008552401996197112
1229.0,0.00850811108984062
1228.0,0.008375265465994541
1227.0,0.008286724286910463
1226.0,0.008242460465651913
1225.0,0.008198201155356077
1224.0,0.008198201155356077
1223.0,0.008242460465651913
1222.0,0.008198201155356077
1221.0,0.008153946355103248
1220.0,0.008065450281052211
1219.0,0.008021209005416363
1218.0,0.008021209005416363
1217.0,0.008021209005416363
1216.0,0.008021209005416363
1215.0,0.008065450281052211
1214.0,0.008065450281052211
1213.0,0.008065450281052211
1212.0,0.008021209005416363
1211.0,0.008021209005416363
1210.0,0.008065450281052211
1209.0,0.008065450281052211
1208.0,0.008065450281052211
1207.0,0.008065450281052211
1206.0,0.008065450281052211
1205.0,0.008021209005416363
1204.0,0.007976972236149349
1203.0,0.007932739972333236
1202.0,0.007888512213050314
1201.0,0.007888512213050314
1200.0,0.007888512213050314
1199.0,0.007888512213050314
1198.0,0.007932739972333236
1197.0,0.007932739972333236
1196.0,0.007932739972333236
1195.0,0.007844288957383316
1194.0,0.007755855953228474
1193.0,0.007711646202907652
1192.0,0.007711646202907652
1191.0,0.007844288957383316
1190.0,0.007932739972333236
1189.0,0.008021209005416363
1188.0,0.008065450281052211
1187.0,0.008109696063975047
1186.0,0.008153946355103248
1185.0,0.008198201155356077
1184.0,0.008242460465651913
1183.0,0.008242460465651913
1182.0,0.008242460465651913
1181.0,0.008286724286910463
1180.0,0.008330992620051436
1179.0,0.008330992620051436
1178.0,0.008330992620051436
1177.0,0.008286724286910463
1176.0,0.008153946355103248
1175.0,0.008065450281052211
1174.0,0.008021209005416363
1173.0,0.007976972236149349
1172.0,0.007976972236149349
1171.0,0.008021209005416363
1170.0,0.008021209005416363
1169.0,0.008021209005416363
1168.0,0.008065450281052211
1167.0,0.008109696063975047
1166.0,0.008153946355103248
1165.0,0.008198201155356077
1164.0,0.008198201155356077
1163.0,0.008198201155356077
1162.0,0.008198201155356077
1161.0,0.008198201155356077
1160.0,0.008198201155356077
1159.0,0.008242460465651913
1158.0,0.008330992620051436
1157.0,0.008375265465994541
1156.0,0.008375265465994541
1155.0,0.008419542825660153
1154.0,0.00850811108984062
1153.0,0.008552401996197112
1152.0,0.00850811108984062
1151.0,0.008463824699968647
1150.0,0.008375265465994541
1149.0,0.008330992620051436
1148.0,0.008330992620051436
1147.0,0.008330992620051436
1146.0,0.008330992620051436
1145.0,0.008286724286910463
1144.0,0.008198201155356077
1143.0,0.008153946355103248
1142.0,0.008153946355103248
1141.0,0.008153946355103248
1140.0,0.008198201155356077
1139.0,0.008198201155356077
1138.0,0.008198201155356077
1137.0,0.008153946355103248
1136.0,0.008109696063975047
1135.0,0.008109696063975047
1134.0,0.008109696063975047
1133.0,0.008065450281052211
1132.0,0.008021209005416363
1131.0,0.007932739972333236
1130.0,0.007844288957383316
1129.0,0.007755855953228474
1128.0,0.007711646202907652
1127.0,0.007755855953228474
1126.0,0.007800070204414977
1125.0,0.007844288957383316
1124.0,0.007800070204414977
1123.0,0.007844288957383316
1122.0,0.007888512213050314
1121.0,0.007976972236149349
1120.0,0.008065450281052211
1119.0,0.008153946355103248
1118.0,0.008153946355103248
1117.0,0.008109696063975047
1116.0,0.008065450281052211
1115.0,0.008065450281052211
1114.0,0.008065450281052211
1113.0,0.008021209005416363
1112.0,0.007976972236149349
1111.0,0.007932739972333236
1110.0,0.007976972236149349
1109.0,0.008021209005416363
1108.0,0.008065450281052211
1107.0,0.008109696063975047
1106.0,0.008198201155356077
1105.0,0.008198201155356077
1104.0,0.008242460465651913
1103.0,0.008330992620051436
1102.0,0.008463824699968647
1101.0,0.008552401996197112
1100.0,0.008640997362049818
1099.0,0.008685301823389224
1098.0,0.008685301823389224
1097.0,0.0087296108049002
1096.0,0.008773924307505121
1095.0,0.008773924307505121
1094.0,0.008818242332126802
1093.0,0.008906891951112605
1092.0,0.009039900317800775
1091.0,0.009172949432521227
1090.0,0.009306039320248427
1089.0,0.00939478857608056
1088.0,0.00939478857608056
1087.0,0.009350411681145587
1086.0,0.009306039320248427
1085.0,0.009306039320248427
1084.0,0.009483555971770974
1083.0,0.00966114521239847
1082.0,0.009883233932095559
1081.0,0.009927665307847056
1080.0,0.009794384815193347
1079.0,0.00966114521239847
1078.0,0.009527946474380489
1077.0,0.00939478857608056
1076.0,0.009350411681145587
1075.0,0.009306039320248427
1074.0,0.009261671492462709
1073.0,0.009261671492462709
1072.0,0.009128595198514056
1071.0,0.008995559669244813
1070.0,0.008818242332126802
1069.0,0.0087296108049002
1068.0,0.0087296108049002
1067.0,0.008773924307505121
1066.0,0.008818242332126802
1065.0,0.008862564879688284
1064.0,0.008862564879688284
1063.0,0.008773924307505121
1062.0,0.008685301823389224
1061.0,0.008552401996197112
1060.0,0.008463824699968647
1059.0,0.008463824699968647
1058.0,0.00850811108984062
1057.0,0.008552401996197112
1056.0,0.008640997362049818
1055.0,0.008685301823389224
1054.0,0.008685301823389224
1053.0,0.008596697419959609
1052.0,0.00850811108984062
1051.0,0.008419542825660153
1050.0,0.008463824699968647
1049.0,0.00850811108984062
1048.0,0.008552401996197112
1047.0,0.00850811108984062
1046.0,0.008463824699968647
1045.0,0.008375265465994541
1044.0,0.008286724286910463
1043.0,0.008286724286910463
1042.0,0.008242460465651913
1041.0,0.008198201155356077
1040.0,0.008153946355103248
1039.0,0.008153946355103248
1038.0,0.008286724286910463
1037.0,0.008419542825660153
1036.0,0.00850811108984062
1035.0,0.00850811108984062
1034.0,0.00850811108984062
1033.0,0.00850811108984062
1032.0,0.008552401996197112
1031.0,0.008552401996197112
1030.0,0.008552401996197112
1029.0,0.008552401996197112
1028.0,0.008552401996197112
1027.0,0.008463824699968647
1026.0,0.008330992620051436
1025.0,0.008242460465651913
1024.0,0.008286724286910463
1023.0,0.008375265465994541
1022.0,0.008419542825660153
1021.0,0.008419542825660153
1020.0,0.008330992620051436
1019.0,0.008330992620051436
1018.0,0.008286724286910463
1017.0,0.008242460465651913
1016.0,0.008109696063975047
1015.0,0.007976972236149349
1014.0,0.007888512213050314
1013.0,0.007800070204414977
1012.0,0.007711646202907652
1011.0,0.007667440952535687
1010.0,0.0075790439479759275
1009.0,0.007534852191956709
1008.0,0.007402303897961815
1007.0,0.007313960837872058
1006.0,0.007181479933320523
1005.0,0.007137328610972382
1004.0,0.007049039429553483
1003.0,0.007004901568658406
1002.0,0.006872514894289861
1001.0,0.006828394969235152
1000.0,0.006828394969235152
999.0,0.006916639301937977
998.0,0.00696076819309055
997.0,0.006916639301937977
996.0,0.006828394969235152
995.0,0.006784279525863024
994.0,0.006784279525863024
993.0,0.006784279525863024
992.0,0.006828394969235152
991.0,0.006828394969235152
990.0,0.006828394969235152
989.0,0.006784279525863024
988.0,0.006651960076740071
987.0,0.00656376950238835
986.0,0.006519680930003435
985.0,0.00656376950238835
984.0,0.006651960076740071
983.0,0.006696062080525422
982.0,0.006740168563263094
981.0,0.006651960076740071
980.0,0.006519680930003435
979.0,0.006343371384537999
978.0,0.00625524344553785
977.0,0.00621118618129457
976.0,0.006167133386013823
975.0,0.006167133386013823
974.0,0.006167133386013823
973.0,0.00621118618129457
972.0,0.006299305179649828
971.0,0.006299305179649828
970.0,0.006343371384537999
969.0,0.006299305179649828
968.0,0.00621118618129457
967.0,0.006079041198713275
966.0,0.005946936412324799
965.0,0.005858888873877532
964.0,0.005814871797682919
963.0,0.00577085918230158
962.0,0.005726851026829571
961.0,0.005638848091999105
960.0,0.005550862985963967
959.0,0.005506877116487674
958.0,0.005550862985963967
957.0,0.005638848091999105
956.0,0.005682847330363394
955.0,0.005638848091999105
954.0,0.005550862985963967
953.0,0.005550862985963967
952.0,0.005594853310833647
951.0,0.00577085918230158
950.0,0.005858888873877532
949.0,0.005814871797682919
948.0,0.005682847330363394
947.0,0.005550862985963967
946.0,0.005462895701502157
945.0,0.005462895701502157
944.0,0.005462895701502157
943.0,0.005462895701502157
942.0,0.005506877116487674
941.0,0.005506877116487674
940.0,0.005550862985963967
939.0,0.005550862985963967
938.0,0.005550862985963967
937.0,0.005506877116487674
936.0,0.00541891874010525
935.0,0.00537494623139545
934.0,0.00541891874010525
933.0,0.005506877116487674
932.0,0.005638848091999105
931.0,0.00577085918230158
930.0,0.005858888873877532
929.0,0.005858888873877532
928.0,0.005858888873877532
927.0,0.005858888873877532
926.0,0.005858888873877532
925.0,0.005858888873877532
924.0,0.00590291041179003
923.0,0.00590291041179003
922.0,0.005990966876386672
921.0,0.006079041198713275
920.0,0.006167133386013823
919.0,0.00625524344553785
918.0,0.00625524344553785
917.0,0.00621118618129457
916.0,0.00621118618129457
915.0,0.00621118618129457
914.0,0.00621118618129457
913.0,0.00625524344553785
912.0,0.00625524344553785
911.0,0.006299305179649828
910.0,0.00625524344553785
909.0,0.006167133386013823
908.0,0.006079041198713275
907.0,0.006035001804881146
906.0,0.00612308505878878
905.0,0.00621118618129457
904.0,0.006299305179649828
903.0,0.00625524344553785
902.0,0.006167133386013823
901.0,0.006035001804881146
900.0,0.00590291041179003
899.0,0.00590291041179003
898.0,0.005990966876386672
897.0,0.006079041198713275
896.0,0.00621118618129457
895.0,0.00625524344553785
894.0,0.006299305179649828
893.0,0.006299305179649828
892.0,0.006343371384537999
891.0,0.006387442061109638
890.0,0.006431517210272464
889.0,0.006431517210272464
888.0,0.006387442061109638
887.0,0.006343371384537999
886.0,0.00621118618129457
885.0,0.00612308505878878
884.0,0.005990966876386672
883.0,0.005990966876386672
882.0,0.005990966876386672
881.0,0.005990966876386672
880.0,0.005858888873877532
879.0,0.005682847330363394
878.0,0.005594853310833647
877.0,0.005550862985963967
876.0,0.005550862985963967
875.0,0.005594853310833647
874.0,0.005638848091999105
873.0,0.005638848091999105
872.0,0.005594853310833647
871.0,0.005594853310833647
870.0,0.005638848091999105
869.0,0.005726851026829571
868.0,0.005858888873877532
867.0,0.005990966876386672
866.0,0.006035001804881146
865.0,0.005990966876386672
864.0,0.00590291041179003
863.0,0.00590291041179003
862.0,0.006035001804881146
861.0,0.00621118618129457
860.0,0.006343371384537999
859.0,0.006387442061109638
858.0,0.006431517210272464
857.0,0.006519680930003435
856.0,0.006519680930003435
855.0,0.006519680930003435
854.0,0.00656376950238835
853.0,0.006607862550997545
852.0,0.006696062080525422
851.0,0.006740168563263094
850.0,0.006651960076740071
849.0,0.006519680930003435
848.0,0.006387442061109638
847.0,0.006299305179649828
846.0,0.006299305179649828
845.0,0.006299305179649828
844.0,0.006299305179649828
843.0,0.00621118618129457
842.0,0.00612308505878878
841.0,0.005946936412324799
840.0,0.005638848091999105
839.0,0.005330978174470591
838.0,0.005111204635089406
837.0,0.004979393875242044
836.0,0.00489154225525934
835.0,0.004935465843858511
834.0,0.005067263269958211
833.0,0.005199100705396198
832.0,0.005243055412371911
831.0,0.005199100705396198
830.0,0.005111204635089406
829.0,0.005023326350308999
828.0,0.004979393875242044
827.0,0.004979393875242044
826.0,0.005023326350308999
825.0,0.005067263269958211
824.0,0.005243055412371911
823.0,0.00541891874010525
822.0,0.005550862985963967
821.0,0.005638848091999105
820.0,0.005594853310833647
819.0,0.005550862985963967
818.0,0.005506877116487674
817.0,0.00541891874010525
816.0,0.0052870145684298375
815.0,0.005199100705396198
814.0,0.005199100705396198
813.0,0.0052870145684298375
812.0,0.00541891874010525
811.0,0.005462895701502157
810.0,0.005462895701502157
809.0,0.005462895701502157
808.0,0.005550862985963967
807.0,0.005682847330363394
806.0,0.00577085918230158
805.0,0.005814871797682919
804.0,0.00590291041179003
803.0,0.00612308505878878
802.0,0.006343371384537999
801.0,0.006431517210272464
800.0,0.006387442061109638
799.0,0.006299305179649828
798.0,0.00625524344553785
797.0,0.006343371384537999
796.0,0.006475596832934416
795.0,0.006651960076740071
794.0,0.006828394969235152
793.0,0.00696076819309055
792.0,0.007004901568658406
791.0,0.007049039429553483
790.0,0.007049039429553483
789.0,0.007004901568658406
788.0,0.006872514894289861
787.0,0.006784279525863024
786.0,0.006740168563263094
785.0,0.006828394969235152
784.0,0.00696076819309055
783.0,0.007181479933320523
782.0,0.007358130121602358
781.0,0.0074464821678643656
780.0,0.007402303897961815
779.0,0.007358130121602358
778.0,0.007313960837872058
777.0,0.007225635744644521
776.0,0.007004901568658406
775.0,0.006740168563263094
774.0,0.006607862550997545
773.0,0.006607862550997545
772.0,0.006651960076740071
771.0,0.006607862550997545
770.0,0.006519680930003435
769.0,0.006387442061109638
768.0,0.006167133386013823
767.0,0.005946936412324799
766.0,0.005858888873877532
765.0,0.005814871797682919
764.0,0.005814871797682919
763.0,0.005858888873877532
762.0,0.005990966876386672
761.0,0.006167133386013823
760.0,0.006299305179649828
759.0,0.006299305179649828
758.0,0.006299305179649828
757.0,0.006343371384537999
756.0,0.006431517210272464
755.0,0.006475596832934416
754.0,0.00656376950238835
753.0,0.006696062080525422
752.0,0.006872514894289861
751.0,0.007049039429553483
750.0,0.007313960837872058
749.0,0.007711646202907652
748.0,0.008021209005416363
747.0,0.008153946355103248
746.0,0.008153946355103248
745.0,0.008153946355103248
744.0,0.008330992620051436
743.0,0.008685301823389224
742.0,0.00908424549391551
741.0,0.009527946474380489
740.0,0.009927665307847056
739.0,0.01037222925484893
738.0,0.010995384301463185
737.0,0.012199714248127602
736.0,0.014304140310157809
735.0,0.01800028587012159
734.0,0.02406295751688936
733.0,0.033060836978886954
732.0,0.04411991377462465
731.0,0.054186873412661596
730.0,0.05978244440026481
729.0,0.0595831353183347
728.0,0.05546797900801881
727.0,0.050902874887084115
726.0,0.048565334467987054
725.0,0.04919717703534143
724.0,0.05295859474477971
723.0,0.05993198626064755
722.0,0.07052998382251041
721.0,0.08344078069888616
720.0,0.09496007192378841
719.0,0.10023419805561384
718.0,0.09739886933346864
717.0,0.08836306687055773
716.0,0.07623803917129979
715.0,0.0636873663378068
714.0,0.05237025261564554
713.0,0.04291974034210022
712.0,0.03550466044490741
711.0,0.03002526987828502
710.0,0.026225806029419818
709.0,0.02355831062115543
708.0,0.021545566634771474
707.0,0.019723858922159776
706.0,0.018136109008649592
705.0,0.016734647433454652
704.0,0.015652742414136167
703.0,0.014888020460646079
702.0,0.014349026309051105
701.0,0.01372104409400876
700.0,0.012870232340102872
699.0,0.011842527443247208
698.0,0.010995384301463185
697.0,0.010505687227290839
696.0,0.010327752376126709
695.0,0.010327752376126709
694.0,0.010416710688994968
693.0,0.010505687227290839
692.0,0.010505687227290839
691.0,0.01037222925484893
690.0,0.01023881228122181
689.0,0.010194349063173958
688.0,0.010327752376126709
687.0,0.010594681998483901
686.0,0.010594681998483901
685.0,0.010149890396819572
684.0,0.009483555971770974
683.0,0.008951223547323472
682.0,0.0087296108049002
681.0,0.008818242332126802
680.0,0.009172949432521227
679.0,0.009572341514736404
678.0,0.00939478857608056
677.0,0.008242460465651913
676.0,0.006607862550997545
675.0,0.005330978174470591
674.0,0.004979393875242044
673.0,0.00537494623139545
672.0,0.006299305179649828
671.0,0.007755855953228474
670.0,0.00966114521239847
669.0,0.011351874764248926
668.0,0.011084479487313281
667.0,0.009039900317800775
666.0,0.007313960837872058
665.0,0.00612308505878878
664.0,0.005243055412371911
663.0,0.004540313378935901
662.0,0.004145520125434121
661.0,0.00401400208620073
660.0,0.0040578370074493275
659.0,0.004233220950025984
658.0,0.004408675747646695
657.0,0.0043648054024501
656.0,0.004101676353562844
655.0,0.003970171588923321
654.0,0.004101676353562844
653.0,0.00458420145758498
652.0,0.005199100705396198
651.0,0.005946936412324799
650.0,0.006607862550997545
649.0,0.006784279525863024
648.0,0.006343371384537999
647.0,0.00537494623139545
646.0,0.004233220950025984
645.0,0.0033132443998284966
644.0,0.0029195645282691363
643.0,0.0031819781204844855
642.0,0.003619686766589858
641.0,0.003794893821675638
640.0,0.003794893821675638
639.0,0.004101676353562844
638.0,0.004935465843858511
637.0,0.006079041198713275
636.0,0.007137328610972382
635.0,0.008109696063975047
634.0,0.009039900317800775
633.0,0.009794384815193347
632.0,0.009927665307847056
631.0,0.009306039320248427
630.0,0.008198201155356077
629.0,0.007358130121602358
628.0,0.007402303897961815
627.0,0.008330992620051436
626.0,0.009527946474380489
625.0,0.01001654169860089
624.0,0.009483555971770974
623.0,0.008463824699968647
622.0,0.007800070204414977
621.0,0.007711646202907652
620.0,0.008021209005416363
619.0,0.008375265465994541
618.0,0.008463824699968647
617.0,0.008198201155356077
616.0,0.008065450281052211
615.0,0.008419542825660153
614.0,0.0087296108049002
613.0,0.008109696063975047
612.0,0.006651960076740071
611.0,0.005462895701502157
610.0,0.005594853310833647
609.0,0.006872514894289861
608.0,0.008286724286910463
607.0,0.008995559669244813
606.0,0.008951223547323472
605.0,0.008773924307505121
604.0,0.009128595198514056
603.0,0.01001654169860089
602.0,0.01046119667949763
601.0,0.009705553871561357
600.0,0.008242460465651913
