cm-1,A
4000.0,-0.001776967077439462
3999.0,-0.001733712809000476
3998.0,-0.0016904542321527494
3997.0,-0.0016904542321527494
3996.0,-0.0016904542321527494
3995.0,-0.001733712809000476
3994.0,-0.0018202170383281313
3993.0,-0.0018634626925240205
3992.0,-0.0018634626925240205
3991.0,-0.0018202170383281313
3990.0,-0.0016904542321527494
3989.0,-0.0016471913460383014
3988.0,-0.0016471913460383014
3987.0,-0.0016904542321527494
3986.0,-0.001776967077439462
3985.0,-0.0018634626925240205
3984.0,-0.0019067040408846658
3983.0,-0.0019067040408846658
3982.0,-0.0018634626925240205
3981.0,-0.001776967077439462
3980.0,-0.0016904542321527494
3979.0,-0.0016039241497978196
3978.0,-0.0016471913460383014
3977.0,-0.0016904542321527494
3976.0,-0.0018202170383281313
3975.0,-0.0019067040408846658
3974.0,-0.0018634626925240205
3973.0,-0.001776967077439462
3972.0,-0.0016039241497978196
3971.0,-0.001474096691732818
3970.0,-0.0014308122463981832
3969.0,-0.001474096691732818
3968.0,-0.0016039241497978196
3967.0,-0.001733712809000476
3966.0,-0.0018634626925240205
3965.0,-0.0019067040408846658
3964.0,-0.0018202170383281313
3963.0,-0.0016471913460383014
3962.0,-0.0015606526425728795
3961.0,-0.0015606526425728795
3960.0,-0.0016904542321527494
3959.0,-0.0018634626925240205
3958.0,-0.0019499410842680476
3957.0,-0.0019499410842680476
3956.0,-0.0019067040408846658
3955.0,-0.0018634626925240205
3954.0,-0.0018634626925240205
3953.0,-0.0018634626925240205
3952.0,-0.0018634626925240205
3951.0,-0.0018202170383281313
3950.0,-0.0018202170383281313
3949.0,-0.0018202170383281313
3948.0,-0.0019067040408846658
3947.0,-0.0019931738235303698
3946.0,-0.0020796263931210923
3945.0,-0.0021228462251614566
3944.0,-0.0020364022595291686
3943.0,-0.0019067040408846658
3942.0,-0.0018634626925240205
3941.0,-0.0018634626925240205
3940.0,-0.0019067040408846658
3939.0,-0.0018634626925240205
3938.0,-0.001776967077439462
3937.0,-0.001733712809000476
3936.0,-0.0018202170383281313
3935.0,-0.0019499410842680476
3934.0,-0.0020796263931210923
3933.0,-0.0021660617565077978
3932.0,-0.0021660617565077978
3931.0,-0.0021660617565077978
3930.0,-0.0022956825549340643
3929.0,-0.0024684501283323
3928.0,-0.0025548081484823015
3927.0,-0.0025116312849080558
3926.0,-0.0022092729880145434
3925.0,-0.0018634626925240205
3924.0,-0.0015606526425728795
3923.0,-0.001474096691732818
3922.0,-0.0016471913460383014
3921.0,-0.0019067040408846658
3920.0,-0.0022092729880145434
3919.0,-0.0023820749327607693
3918.0,-0.0023820749327607693
3917.0,-0.0022524799205383417
3916.0,-0.0020364022595291686
3915.0,-0.0019067040408846658
3914.0,-0.0018634626925240205
3913.0,-0.0018634626925240205
3912.0,-0.0018202170383281313
3911.0,-0.001776967077439462
3910.0,-0.001776967077439462
3909.0,-0.001776967077439462
3908.0,-0.0018202170383281313
3907.0,-0.0019499410842680476
3906.0,-0.0021228462251614566
3905.0,-0.0022956825549340643
3904.0,-0.0024252646779014952
3903.0,-0.0025548081484823015
3902.0,-0.002597980719908577
3901.0,-0.002597980719908577
3900.0,-0.0025548081484823015
3899.0,-0.0024684501283323
3898.0,-0.0023820749327607693
3897.0,-0.0022524799205383417
3896.0,-0.0021660617565077978
3895.0,-0.0021228462251614566
3894.0,-0.0021228462251614566
3893.0,-0.0020796263931210923
3892.0,-0.0019499410842680476
3891.0,-0.0019067040408846658
3890.0,-0.0020796263931210923
3889.0,-0.0022524799205383417
3888.0,-0.002338880892056583
3887.0,-0.0022956825549340643
3886.0,-0.0022092729880145434
3885.0,-0.0021660617565077978
3884.0,-0.0022524799205383417
3883.0,-0.002338880892056583
3882.0,-0.0022524799205383417
3881.0,-0.0020796263931210923
3880.0,-0.0020364022595291686
3879.0,-0.0020796263931210923
3878.0,-0.0021660617565077978
3877.0,-0.0021228462251614566
3876.0,-0.0020364022595291686
3875.0,-0.0019931738235303698
3874.0,-0.0021228462251614566
3873.0,-0.002338880892056583
3872.0,-0.0024684501283323
3871.0,-0.0025116312849080558
3870.0,-0.0025548081484823015
3869.0,-0.0027274726898296464
3868.0,-0.002900068611387585
3867.0,-0.0029432068763250996
3866.0,-0.0027706281011936618
3865.0,-0.0024684501283323
3864.0,-0.0021660617565077978
3863.0,-0.0020796263931210923
3862.0,-0.0021228462251614566
3861.0,-0.0021660617565077978
3860.0,-0.0021228462251614566
3859.0,-0.0020796263931210923
3858.0,-0.0020364022595291686
3857.0,-0.0021228462251614566
3856.0,-0.0022524799205383417
3855.0,-0.0022956825549340643
3854.0,-0.0020796263931210923
3853.0,-0.0019499410842680476
3852.0,-0.0019931738235303698
3851.0,-0.0020364022595291686
3850.0,-0.0019067040408846658
3849.0,-0.001776967077439462
3848.0,-0.001733712809000476
3847.0,-0.0018202170383281313
3846.0,-0.0019499410842680476
3845.0,-0.0020796263931210923
3844.0,-0.0022956825549340643
3843.0,-0.0025116312849080558
3842.0,-0.002684312989729598
3841.0,-0.0027274726898296464
3840.0,-0.0027274726898296464
3839.0,-0.002684312989729598
3838.0,-0.002684312989729598
3837.0,-0.002684312989729598
3836.0,-0.0025548081484823015
3835.0,-0.0024252646779014952
3834.0,-0.0022524799205383417
3833.0,-0.0022092729880145434
3832.0,-0.0021660617565077978
3831.0,-0.0022092729880145434
3830.0,-0.0021660617565077978
3829.0,-0.0020364022595291686
3828.0,-0.0019067040408846658
3827.0,-0.001776967077439462
3826.0,-0.0018634626925240205
3825.0,-0.0021228462251614566
3824.0,-0.002338880892056583
3823.0,-0.0023820749327607693
3822.0,-0.0021660617565077978
3821.0,-0.0019067040408846658
3820.0,-0.0019499410842680476
3819.0,-0.0021228462251614566
3818.0,-0.0021228462251614566
3817.0,-0.0019067040408846658
3816.0,-0.001733712809000476
3815.0,-0.001733712809000476
3814.0,-0.0018634626925240205
3813.0,-0.0019067040408846658
3812.0,-0.0019067040408846658
3811.0,-0.0019931738235303698
3810.0,-0.0021660617565077978
3809.0,-0.0022956825549340643
3808.0,-0.002338880892056583
3807.0,-0.0022524799205383417
3806.0,-0.0022524799205383417
3805.0,-0.002338880892056583
3804.0,-0.002338880892056583
3803.0,-0.0022524799205383417
3802.0,-0.0019931738235303698
3801.0,-0.0019067040408846658
3800.0,-0.0020796263931210923
3799.0,-0.0022524799205383417
3798.0,-0.0022524799205383417
3797.0,-0.0020796263931210923
3796.0,-0.0019067040408846658
3795.0,-0.001776967077439462
3794.0,-0.0016904542321527494
3793.0,-0.0016039241497978196
3792.0,-0.0015173768235041685
3791.0,-0.0014308122463981832
3790.0,-0.001474096691732818
3789.0,-0.0016039241497978196
3788.0,-0.001776967077439462
3787.0,-0.0018634626925240205
3786.0,-0.0019067040408846658
3785.0,-0.0018634626925240205
3784.0,-0.001776967077439462
3783.0,-0.001776967077439462
3782.0,-0.001776967077439462
3781.0,-0.001776967077439462
3780.0,-0.001776967077439462
3779.0,-0.001733712809000476
3778.0,-0.0018202170383281313
3777.0,-0.0018634626925240205
3776.0,-0.0019067040408846658
3775.0,-0.0018634626925240205
3774.0,-0.0018202170383281313
3773.0,-0.0018202170383281313
3772.0,-0.0018202170383281313
3771.0,-0.0018634626925240205
3770.0,-0.0019067040408846658
3769.0,-0.0019067040408846658
3768.0,-0.0019067040408846658
3767.0,-0.0018634626925240205
3766.0,-0.0018202170383281313
3765.0,-0.0018202170383281313
3764.0,-0.0018634626925240205
3763.0,-0.0019499410842680476
3762.0,-0.0019931738235303698
3761.0,-0.0020364022595291686
3760.0,-0.0020796263931210923
3759.0,-0.0021228462251614566
3758.0,-0.0022092729880145434
3757.0,-0.002338880892056583
3756.0,-0.002597980719908577
3755.0,-0.0028137792246734072
3754.0,-0.0030725959676747294
3753.0,-0.0032450548131470747
3752.0,-0.0032881588260753603
3751.0,-0.003158833950862139
3750.0,-0.003029470553618019
3749.0,-0.002900068611387585
3748.0,-0.0028137792246734072
3747.0,-0.0026411490000399773
3746.0,-0.002338880892056583
3745.0,-0.0019931738235303698
3744.0,-0.0019067040408846658
3743.0,-0.0021228462251614566
3742.0,-0.002338880892056583
3741.0,-0.0023820749327607693
3740.0,-0.0024252646779014952
3739.0,-0.0026411490000399773
3738.0,-0.002900068611387585
3737.0,-0.0030725959676747294
3736.0,-0.003158833950862139
3735.0,-0.003201946521692367
3734.0,-0.003158833950862139
3733.0,-0.0030725959676747294
3732.0,-0.002856926061120646
3731.0,-0.0026411490000399773
3730.0,-0.0025116312849080558
3729.0,-0.0024684501283323
3728.0,-0.0025116312849080558
3727.0,-0.0025548081484823015
3726.0,-0.002597980719908577
3725.0,-0.0026411490000399773
3724.0,-0.0027274726898296464
3723.0,-0.0027274726898296464
3722.0,-0.002684312989729598
3721.0,-0.0025116312849080558
3720.0,-0.0022956825549340643
3719.0,-0.0020796263931210923
3718.0,-0.0019067040408846658
3717.0,-0.0019067040408846658
3716.0,-0.0020796263931210923
3715.0,-0.002338880892056583
3714.0,-0.0026411490000399773
3713.0,-0.0028137792246734072
3712.0,-0.0028137792246734072
3711.0,-0.0027274726898296464
3710.0,-0.0027274726898296464
3709.0,-0.0027274726898296464
3708.0,-0.002684312989729598
3707.0,-0.0025548081484823015
3706.0,-0.0024252646779014952
3705.0,-0.002338880892056583
3704.0,-0.0022956825549340643
3703.0,-0.0022524799205383417
3702.0,-0.0022524799205383417
3701.0,-0.0022956825549340643
3700.0,-0.0023820749327607693
3699.0,-0.0023820749327607693
3698.0,-0.0022956825549340643
3697.0,-0.0021660617565077978
3696.0,-0.0021228462251614566
3695.0,-0.0021228462251614566
3694.0,-0.0021228462251614566
3693.0,-0.0021228462251614566
3692.0,-0.0019499410842680476
3691.0,-0.0016471913460383014
3690.0,-0.0013875234866409514
3689.0,-0.0014308122463981832
3688.0,-0.0016904542321527494
3687.0,-0.0019931738235303698
3686.0,-0.0021228462251614566
3685.0,-0.0021228462251614566
3684.0,-0.0020796263931210923
3683.0,-0.0021228462251614566
3682.0,-0.0022092729880145434
3681.0,-0.002338880892056583
3680.0,-0.0025116312849080558
3679.0,-0.0027274726898296464
3678.0,-0.002900068611387585
3677.0,-0.0029432068763250996
3676.0,-0.002900068611387585
3675.0,-0.0029432068763250996
3674.0,-0.003115717099805959
3673.0,-0.003201946521692367
3672.0,-0.0029863408567849525
3671.0,-0.0026411490000399773
3670.0,-0.0022524799205383417
3669.0,-0.0020796263931210923
3668.0,-0.0019931738235303698
3667.0,-0.0018634626925240205
3666.0,-0.0016904542321527494
3665.0,-0.0016039241497978196
3664.0,-0.0015606526425728795
3663.0,-0.0016471913460383014
3662.0,-0.001733712809000476
3661.0,-0.0018634626925240205
3660.0,-0.0020364022595291686
3659.0,-0.0021660617565077978
3658.0,-0.0022524799205383417
3657.0,-0.0021228462251614566
3656.0,-0.0020364022595291686
3655.0,-0.0020364022595291686
3654.0,-0.0021660617565077978
3653.0,-0.0023820749327607693
3652.0,-0.0025548081484823015
3651.0,-0.0027274726898296464
3650.0,-0.0028137792246734072
3649.0,-0.002900068611387585
3648.0,-0.0029432068763250996
3647.0,-0.0029432068763250996
3646.0,-0.0027274726898296464
3645.0,-0.0023820749327607693
3644.0,-0.0020796263931210923
3643.0,-0.0018202170383281313
3642.0,-0.0016904542321527494
3641.0,-0.001733712809000476
3640.0,-0.001776967077439462
3639.0,-0.0018202170383281313
3638.0,-0.0018634626925240205
3637.0,-0.0018634626925240205
3636.0,-0.0019067040408846658
3635.0,-0.0020364022595291686
3634.0,-0.0021660617565077978
3633.0,-0.0023820749327607693
3632.0,-0.002597980719908577
3631.0,-0.0027274726898296464
3630.0,-0.002684312989729598
3629.0,-0.0024684501283323
3628.0,-0.0023820749327607693
3627.0,-0.0024684501283323
3626.0,-0.0024252646779014952
3625.0,-0.002338880892056583
3624.0,-0.002338880892056583
3623.0,-0.0024252646779014952
3622.0,-0.0025548081484823015
3621.0,-0.0025548081484823015
3620.0,-0.0023820749327607693
3619.0,-0.0021660617565077978
3618.0,-0.0020364022595291686
3617.0,-0.0021228462251614566
3616.0,-0.0022524799205383417
3615.0,-0.0022956825549340643
3614.0,-0.0022956825549340643
3613.0,-0.0022092729880145434
3612.0,-0.0021660617565077978
3611.0,-0.0021228462251614566
3610.0,-0.0021228462251614566
3609.0,-0.0020796263931210923
3608.0,-0.0020796263931210923
3607.0,-0.0021660617565077978
3606.0,-0.0022956825549340643
3605.0,-0.002338880892056583
3604.0,-0.0023820749327607693
3603.0,-0.0024684501283323
3602.0,-0.0024684501283323
3601.0,-0.0024252646779014952
3600.0,-0.0022956825549340643
3599.0,-0.0021228462251614566
3598.0,-0.0019931738235303698
3597.0,-0.0019067040408846658
3596.0,-0.0019067040408846658
3595.0,-0.0019499410842680476
3594.0,-0.0019931738235303698
3593.0,-0.0019931738235303698
3592.0,-0.0019931738235303698
3591.0,-0.0020364022595291686
3590.0,-0.0021660617565077978
3589.0,-0.0022956825549340643
3588.0,-0.0024252646779014952
3587.0,-0.0024684501283323
3586.0,-0.0025116312849080558
3585.0,-0.0023820749327607693
3584.0,-0.0021228462251614566
3583.0,-0.0018202170383281313
3582.0,-0.0016471913460383014
3581.0,-0.0016471913460383014
3580.0,-0.001776967077439462
3579.0,-0.0018634626925240205
3578.0,-0.0018634626925240205
3577.0,-0.001776967077439462
3576.0,-0.0016471913460383014
3575.0,-0.0015173768235041685
3574.0,-0.0014308122463981832
3573.0,-0.0013875234866409514
3572.0,-0.0015173768235041685
3571.0,-0.001733712809000476
3570.0,-0.0019931738235303698
3569.0,-0.0021228462251614566
3568.0,-0.0020364022595291686
3567.0,-0.0019067040408846658
3566.0,-0.0019067040408846658
3565.0,-0.0020796263931210923
3564.0,-0.0022524799205383417
3563.0,-0.0022956825549340643
3562.0,-0.0020796263931210923
3561.0,-0.001776967077439462
3560.0,-0.0013875234866409514
3559.0,-0.0011277002770349043
3558.0,-0.001041057986093552
3557.0,-0.0011710149414008164
3556.0,-0.0013875234866409514
3555.0,-0.0016039241497978196
3554.0,-0.001776967077439462
3553.0,-0.0018202170383281313
3552.0,-0.0018634626925240205
3551.0,-0.0019067040408846658
3550.0,-0.0020364022595291686
3549.0,-0.0022092729880145434
3548.0,-0.0022956825549340643
3547.0,-0.0022956825549340643
3546.0,-0.0021660617565077978
3545.0,-0.0019931738235303698
3544.0,-0.0018202170383281313
3543.0,-0.0016904542321527494
3542.0,-0.0015606526425728795
3541.0,-0.001474096691732818
3540.0,-0.0014308122463981832
3539.0,-0.001474096691732818
3538.0,-0.0015606526425728795
3537.0,-0.0015606526425728795
3536.0,-0.001474096691732818
3535.0,-0.0013009330204178937
3534.0,-0.0011277002770349043
3533.0,-0.0010843812922201046
3532.0,-0.0011710149414008164
3531.0,-0.001344230411601366
3530.0,-0.0015173768235041685
3529.0,-0.0016471913460383014
3528.0,-0.0016471913460383014
3527.0,-0.0015173768235041685
3526.0,-0.001344230411601366
3525.0,-0.001257631312230778
3524.0,-0.0013009330204178937
3523.0,-0.0014308122463981832
3522.0,-0.0015606526425728795
3521.0,-0.0016471913460383014
3520.0,-0.0016904542321527494
3519.0,-0.0016904542321527494
3518.0,-0.001733712809000476
3517.0,-0.001776967077439462
3516.0,-0.001776967077439462
3515.0,-0.0016904542321527494
3514.0,-0.0015173768235041685
3513.0,-0.001344230411601366
3512.0,-0.001257631312230778
3511.0,-0.001257631312230778
3510.0,-0.001344230411601366
3509.0,-0.0014308122463981832
3508.0,-0.001474096691732818
3507.0,-0.001474096691732818
3506.0,-0.0013875234866409514
3505.0,-0.0013875234866409514
3504.0,-0.001344230411601366
3503.0,-0.001344230411601366
3502.0,-0.001344230411601366
3501.0,-0.001344230411601366
3500.0,-0.001344230411601366
3499.0,-0.0013875234866409514
3498.0,-0.0013875234866409514
3497.0,-0.0013875234866409514
3496.0,-0.001344230411601366
3495.0,-0.001257631312230778
3494.0,-0.0011277002770349043
3493.0,-0.001041057986093552
3492.0,-0.001041057986093552
3491.0,-0.0010843812922201046
3490.0,-0.00121432528617893
3489.0,-0.001257631312230778
3488.0,-0.0013009330204178937
3487.0,-0.0013009330204178937
3486.0,-0.0013009330204178937
3485.0,-0.001344230411601366
3484.0,-0.0013875234866409514
3483.0,-0.001474096691732818
3482.0,-0.0015173768235041685
3481.0,-0.001474096691732818
3480.0,-0.0014308122463981832
3479.0,-0.0013875234866409514
3478.0,-0.0013009330204178937
3477.0,-0.00121432528617893
3476.0,-0.0011710149414008164
3475.0,-0.0010843812922201046
3474.0,-0.001041057986093552
3473.0,-0.0009977303577937136
3472.0,-0.001041057986093552
3471.0,-0.0010843812922201046
3470.0,-0.0011277002770349043
3469.0,-0.0011710149414008164
3468.0,-0.0011710149414008164
3467.0,-0.0010843812922201046
3466.0,-0.001041057986093552
3465.0,-0.0009977303577937136
3464.0,-0.0009977303577937136
3463.0,-0.0010843812922201046
3462.0,-0.0011277002770349043
3461.0,-0.0011710149414008164
3460.0,-0.0011277002770349043
3459.0,-0.0010843812922201046
3458.0,-0.0010843812922201046
3457.0,-0.0011710149414008164
3456.0,-0.0013875234866409514
3455.0,-0.0015606526425728795
3454.0,-0.0016904542321527494
3453.0,-0.0016471913460383014
3452.0,-0.0015606526425728795
3451.0,-0.001474096691732818
3450.0,-0.001474096691732818
3449.0,-0.001474096691732818
3448.0,-0.0015606526425728795
3447.0,-0.0016471913460383014
3446.0,-0.0016904542321527494
3445.0,-0.0016471913460383014
3444.0,-0.0015173768235041685
3443.0,-0.001344230411601366
3442.0,-0.001257631312230778
3441.0,-0.001257631312230778
3440.0,-0.0013009330204178937
3439.0,-0.0013009330204178937
3438.0,-0.001257631312230778
3437.0,-0.001257631312230778
3436.0,-0.0013009330204178937
3435.0,-0.0014308122463981832
3434.0,-0.0015173768235041685
3433.0,-0.0015173768235041685
3432.0,-0.001344230411601366
3431.0,-0.0010843812922201046
3430.0,-0.0009543984064577238
3429.0,-0.0009543984064577238
3428.0,-0.0010843812922201046
3427.0,-0.001257631312230778
3426.0,-0.0013875234866409514
3425.0,-0.001344230411601366
3424.0,-0.0011277002770349043
3423.0,-0.0008677215312267172
3422.0,-0.0006943158663546001
3421.0,-0.0006075870628903246
3420.0,-0.0007376737740329986
3419.0,-0.0009110621312231615
3418.0,-0.001041057986093552
3417.0,-0.0010843812922201046
3416.0,-0.0009977303577937136
3415.0,-0.0009110621312231615
3414.0,-0.0008677215312267172
3413.0,-0.0009543984064577238
3412.0,-0.0011277002770349043
3411.0,-0.0013009330204178937
3410.0,-0.001344230411601366
3409.0,-0.001257631312230778
3408.0,-0.0011710149414008164
3407.0,-0.0011277002770349043
3406.0,-0.0011710149414008164
3405.0,-0.001257631312230778
3404.0,-0.0013875234866409514
3403.0,-0.0014308122463981832
3402.0,-0.0014308122463981832
3401.0,-0.0013875234866409514
3400.0,-0.0013875234866409514
3399.0,-0.001474096691732818
3398.0,-0.0016039241497978196
3397.0,-0.0016471913460383014
3396.0,-0.0016039241497978196
3395.0,-0.0014308122463981832
3394.0,-0.00121432528617893
3393.0,-0.001041057986093552
3392.0,-0.0009977303577937136
3391.0,-0.001041057986093552
3390.0,-0.0010843812922201046
3389.0,-0.0011710149414008164
3388.0,-0.001257631312230778
3387.0,-0.001344230411601366
3386.0,-0.0014308122463981832
3385.0,-0.0014308122463981832
3384.0,-0.0013875234866409514
3383.0,-0.001344230411601366
3382.0,-0.001344230411601366
3381.0,-0.001344230411601366
3380.0,-0.001344230411601366
3379.0,-0.001257631312230778
3378.0,-0.0011710149414008164
3377.0,-0.0011277002770349043
3376.0,-0.0010843812922201046
3375.0,-0.0010843812922201046
3374.0,-0.0011277002770349043
3373.0,-0.0011710149414008164
3372.0,-0.0013009330204178937
3371.0,-0.0013875234866409514
3370.0,-0.0014308122463981832
3369.0,-0.0014308122463981832
3368.0,-0.0014308122463981832
3367.0,-0.0013875234866409514
3366.0,-0.001344230411601366
3365.0,-0.001344230411601366
3364.0,-0.0013009330204178937
3363.0,-0.0013009330204178937
3362.0,-0.0013009330204178937
3361.0,-0.0013009330204178937
3360.0,-0.001257631312230778
3359.0,-0.00121432528617893
3358.0,-0.0011710149414008164
3357.0,-0.00121432528617893
3356.0,-0.00121432528617893
3355.0,-0.00121432528617893
3354.0,-0.001257631312230778
3353.0,-0.0013009330204178937
3352.0,-0.0013875234866409514
3351.0,-0.0013875234866409514
3350.0,-0.0013009330204178937
3349.0,-0.00121432528617893
3348.0,-0.0011710149414008164
3347.0,-0.0011710149414008164
3346.0,-0.0011277002770349043
3345.0,-0.001041057986093552
3344.0,-0.0009543984064577238
3343.0,-0.0009543984064577238
3342.0,-0.0009977303577937136
3341.0,-0.0010843812922201046
3340.0,-0.00121432528617893
3339.0,-0.0013009330204178937
3338.0,-0.001344230411601366
3337.0,-0.001344230411601366
3336.0,-0.001257631312230778
3335.0,-0.0011277002770349043
3334.0,-0.0010843812922201046
3333.0,-0.0010843812922201046
3332.0,-0.00121432528617893
3331.0,-0.0013875234866409514
3330.0,-0.0014308122463981832
3329.0,-0.0013875234866409514
3328.0,-0.001257631312230778
3327.0,-0.0011277002770349043
3326.0,-0.0010843812922201046
3325.0,-0.0010843812922201046
3324.0,-0.0011277002770349043
3323.0,-0.0011277002770349043
3322.0,-0.0011277002770349043
3321.0,-0.0010843812922201046
3320.0,-0.0010843812922201046
3319.0,-0.0010843812922201046
3318.0,-0.0010843812922201046
3317.0,-0.001041057986093552
3316.0,-0.0010843812922201046
3315.0,-0.0011710149414008164
3314.0,-0.0013009330204178937
3313.0,-0.0013875234866409514
3312.0,-0.0014308122463981832
3311.0,-0.0014308122463981832
3310.0,-0.001344230411601366
3309.0,-0.0013009330204178937
3308.0,-0.00121432528617893
3307.0,-0.0011710149414008164
3306.0,-0.0011710149414008164
3305.0,-0.0011710149414008164
3304.0,-0.0011710149414008164
3303.0,-0.00121432528617893
3302.0,-0.0013009330204178937
3301.0,-0.001344230411601366
3300.0,-0.0014308122463981832
3299.0,-0.0014308122463981832
3298.0,-0.0013875234866409514
3297.0,-0.001344230411601366
3296.0,-0.001344230411601366
3295.0,-0.001344230411601366
3294.0,-0.001344230411601366
3293.0,-0.0013875234866409514
3292.0,-0.0013875234866409514
3291.0,-0.0014308122463981832
3290.0,-0.0014308122463981832
3289.0,-0.0013875234866409514
3288.0,-0.0013009330204178937
3287.0,-0.0011710149414008164
3286.0,-0.001041057986093552
3285.0,-0.001041057986093552
3284.0,-0.0011710149414008164
3283.0,-0.0014308122463981832
3282.0,-0.0016039241497978196
3281.0,-0.0016039241497978196
3280.0,-0.0014308122463981832
3279.0,-0.001257631312230778
3278.0,-0.0011277002770349043
3277.0,-0.0011710149414008164
3276.0,-0.001257631312230778
3275.0,-0.0014308122463981832
3274.0,-0.0015173768235041685
3273.0,-0.0015606526425728795
3272.0,-0.0015173768235041685
3271.0,-0.001474096691732818
3270.0,-0.0013875234866409514
3269.0,-0.001344230411601366
3268.0,-0.001344230411601366
3267.0,-0.0013009330204178937
3266.0,-0.0013009330204178937
3265.0,-0.001344230411601366
3264.0,-0.0013875234866409514
3263.0,-0.0014308122463981832
3262.0,-0.0014308122463981832
3261.0,-0.0014308122463981832
3260.0,-0.0015173768235041685
3259.0,-0.0016471913460383014
3258.0,-0.001776967077439462
3257.0,-0.0018202170383281313
3256.0,-0.001776967077439462
3255.0,-0.001733712809000476
3254.0,-0.0016904542321527494
3253.0,-0.0016039241497978196
3252.0,-0.001474096691732818
3251.0,-0.00121432528617893
3250.0,-0.0009977303577937136
3249.0,-0.0008677215312267172
3248.0,-0.0007810273534953893
3247.0,-0.0007810273534953893
3246.0,-0.0008243766056055257
3245.0,-0.0009110621312231615
3244.0,-0.001041057986093552
3243.0,-0.0011277002770349043
3242.0,-0.00121432528617893
3241.0,-0.001257631312230778
3240.0,-0.00121432528617893
3239.0,-0.0011710149414008164
3238.0,-0.0011277002770349043
3237.0,-0.0011710149414008164
3236.0,-0.0011710149414008164
3235.0,-0.0011710149414008164
3234.0,-0.0010843812922201046
3233.0,-0.001041057986093552
3232.0,-0.001041057986093552
3231.0,-0.0010843812922201046
3230.0,-0.0011710149414008164
3229.0,-0.0011710149414008164
3228.0,-0.0011277002770349043
3227.0,-0.001041057986093552
3226.0,-0.0009543984064577238
3225.0,-0.0009110621312231615
3224.0,-0.0009110621312231615
3223.0,-0.001041057986093552
3222.0,-0.0011277002770349043
3221.0,-0.00121432528617893
3220.0,-0.001257631312230778
3219.0,-0.001257631312230778
3218.0,-0.001257631312230778
3217.0,-0.00121432528617893
3216.0,-0.00121432528617893
3215.0,-0.001257631312230778
3214.0,-0.0013009330204178937
3213.0,-0.001344230411601366
3212.0,-0.0013009330204178937
3211.0,-0.00121432528617893
3210.0,-0.0011710149414008164
3209.0,-0.00121432528617893
3208.0,-0.001257631312230778
3207.0,-0.0013009330204178937
3206.0,-0.001344230411601366
3205.0,-0.0013875234866409514
3204.0,-0.0014308122463981832
3203.0,-0.001474096691732818
3202.0,-0.001474096691732818
3201.0,-0.0013875234866409514
3200.0,-0.0013009330204178937
3199.0,-0.0013009330204178937
3198.0,-0.001344230411601366
3197.0,-0.0014308122463981832
3196.0,-0.001474096691732818
3195.0,-0.0015173768235041685
3194.0,-0.0015173768235041685
3193.0,-0.0014308122463981832
3192.0,-0.001344230411601366
3191.0,-0.001257631312230778
3190.0,-0.001257631312230778
3189.0,-0.0013009330204178937
3188.0,-0.0013009330204178937
3187.0,-0.0013009330204178937
3186.0,-0.001257631312230778
3185.0,-0.00121432528617893
3184.0,-0.00121432528617893
3183.0,-0.0013009330204178937
3182.0,-0.001344230411601366
3181.0,-0.0013875234866409514
3180.0,-0.001344230411601366
3179.0,-0.001257631312230778
3178.0,-0.0011710149414008164
3177.0,-0.0011710149414008164
3176.0,-0.0013009330204178937
3175.0,-0.0015173768235041685
3174.0,-0.0016904542321527494
3173.0,-0.001776967077439462
3172.0,-0.0016904542321527494
3171.0,-0.0015173768235041685
3170.0,-0.0013009330204178937
3169.0,-0.0011710149414008164
3168.0,-0.00121432528617893
3167.0,-0.0013009330204178937
3166.0,-0.001474096691732818
3165.0,-0.0015606526425728795
3164.0,-0.0015606526425728795
3163.0,-0.0015173768235041685
3162.0,-0.001474096691732818
3161.0,-0.0014308122463981832
3160.0,-0.0014308122463981832
3159.0,-0.001344230411601366
3158.0,-0.0013009330204178937
3157.0,-0.00121432528617893
3156.0,-0.0011277002770349043
3155.0,-0.0011710149414008164
3154.0,-0.001257631312230778
3153.0,-0.0013875234866409514
3152.0,-0.0014308122463981832
3151.0,-0.0014308122463981832
3150.0,-0.001474096691732818
3149.0,-0.0015173768235041685
3148.0,-0.0015173768235041685
3147.0,-0.0015173768235041685
3146.0,-0.0015173768235041685
3145.0,-0.0016039241497978196
3144.0,-0.001733712809000476
3143.0,-0.001733712809000476
3142.0,-0.0016904542321527494
3141.0,-0.0015606526425728795
3140.0,-0.0015173768235041685
3139.0,-0.0015606526425728795
3138.0,-0.0015606526425728795
3137.0,-0.0015606526425728795
3136.0,-0.001474096691732818
3135.0,-0.001344230411601366
3134.0,-0.001257631312230778
3133.0,-0.001257631312230778
3132.0,-0.0013009330204178937
3131.0,-0.0013009330204178937
3130.0,-0.0013009330204178937
3129.0,-0.00121432528617893
3128.0,-0.0011710149414008164
3127.0,-0.0010843812922201046
3126.0,-0.001041057986093552
3125.0,-0.0009543984064577238
3124.0,-0.0009110621312231615
3123.0,-0.0009110621312231615
3122.0,-0.0009543984064577238
3121.0,-0.0009543984064577238
3120.0,-0.0009110621312231615
3119.0,-0.0009110621312231615
3118.0,-0.0009543984064577238
3117.0,-0.0010843812922201046
3116.0,-0.00121432528617893
3115.0,-0.0013009330204178937
3114.0,-0.001344230411601366
3113.0,-0.0013009330204178937
3112.0,-0.001257631312230778
3111.0,-0.001257631312230778
3110.0,-0.001344230411601366
3109.0,-0.0014308122463981832
3108.0,-0.0015173768235041685
3107.0,-0.0015606526425728795
3106.0,-0.0015173768235041685
3105.0,-0.0014308122463981832
3104.0,-0.0013875234866409514
3103.0,-0.001344230411601366
3102.0,-0.001344230411601366
3101.0,-0.001344230411601366
3100.0,-0.0013009330204178937
3099.0,-0.00121432528617893
3098.0,-0.001041057986093552
3097.0,-0.0009110621312231615
3096.0,-0.0008677215312267172
3095.0,-0.0009110621312231615
3094.0,-0.0010843812922201046
3093.0,-0.001257631312230778
3092.0,-0.001344230411601366
3091.0,-0.0014308122463981832
3090.0,-0.001474096691732818
3089.0,-0.0015606526425728795
3088.0,-0.0015606526425728795
3087.0,-0.0015606526425728795
3086.0,-0.001474096691732818
3085.0,-0.0013875234866409514
3084.0,-0.0013009330204178937
3083.0,-0.001257631312230778
3082.0,-0.001257631312230778
3081.0,-0.001344230411601366
3080.0,-0.0015173768235041685
3079.0,-0.0016471913460383014
3078.0,-0.001776967077439462
3077.0,-0.001776967077439462
3076.0,-0.001733712809000476
3075.0,-0.0016039241497978196
3074.0,-0.0015173768235041685
3073.0,-0.001474096691732818
3072.0,-0.0015173768235041685
3071.0,-0.0015606526425728795
3070.0,-0.0015173768235041685
3069.0,-0.0014308122463981832
3068.0,-0.001344230411601366
3067.0,-0.001257631312230778
3066.0,-0.001257631312230778
3065.0,-0.001257631312230778
3064.0,-0.001344230411601366
3063.0,-0.0013875234866409514
3062.0,-0.0013875234866409514
3061.0,-0.0013875234866409514
3060.0,-0.001344230411601366
3059.0,-0.0013009330204178937
3058.0,-0.001344230411601366
3057.0,-0.0014308122463981832
3056.0,-0.0015606526425728795
3055.0,-0.0016471913460383014
3054.0,-0.0016904542321527494
3053.0,-0.0016471913460383014
3052.0,-0.0016039241497978196
3051.0,-0.0015173768235041685
3050.0,-0.0015173768235041685
3049.0,-0.0015173768235041685
3048.0,-0.0015606526425728795
3047.0,-0.0015606526425728795
3046.0,-0.0015173768235041685
3045.0,-0.0014308122463981832
3044.0,-0.0013009330204178937
3043.0,-0.00121432528617893
3042.0,-0.0011710149414008164
3041.0,-0.0011277002770349043
3040.0,-0.0011277002770349043
3039.0,-0.00121432528617893
3038.0,-0.001344230411601366
3037.0,-0.001474096691732818
3036.0,-0.0015173768235041685
3035.0,-0.0015173768235041685
3034.0,-0.0015173768235041685
3033.0,-0.001474096691732818
3032.0,-0.001474096691732818
3031.0,-0.001474096691732818
3030.0,-0.0013875234866409514
3029.0,-0.0013009330204178937
3028.0,-0.001257631312230778
3027.0,-0.00121432528617893
3026.0,-0.0013009330204178937
3025.0,-0.0014308122463981832
3024.0,-0.0015606526425728795
3023.0,-0.0016039241497978196
3022.0,-0.0016039241497978196
3021.0,-0.0015606526425728795
3020.0,-0.0015173768235041685
3019.0,-0.0015173768235041685
3018.0,-0.001474096691732818
3017.0,-0.001474096691732818
3016.0,-0.0013875234866409514
3015.0,-0.0013009330204178937
3014.0,-0.001257631312230778
3013.0,-0.00121432528617893
3012.0,-0.0011710149414008164
3011.0,-0.0011710149414008164
3010.0,-0.0011277002770349043
3009.0,-0.0011277002770349043
3008.0,-0.0011710149414008164
3007.0,-0.00121432528617893
3006.0,-0.001257631312230778
3005.0,-0.0013009330204178937
3004.0,-0.0013009330204178937
3003.0,-0.001257631312230778
3002.0,-0.001257631312230778
3001.0,-0.001257631312230778
3000.0,-0.001257631312230778
2999.0,-0.001257631312230778
2998.0,-0.00121432528617893
2997.0,-0.00121432528617893
2996.0,-0.001257631312230778
2995.0,-0.0013009330204178937
2994.0,-0.0013009330204178937
2993.0,-0.001344230411601366
2992.0,-0.001344230411601366
2991.0,-0.0013875234866409514
2990.0,-0.001474096691732818
2989.0,-0.0015173768235041685
2988.0,-0.0015606526425728795
2987.0,-0.0016471913460383014
2986.0,-0.0016904542321527494
2985.0,-0.0016471913460383014
2984.0,-0.0016039241497978196
2983.0,-0.0015606526425728795
2982.0,-0.0015606526425728795
2981.0,-0.0016471913460383014
2980.0,-0.001733712809000476
2979.0,-0.0018202170383281313
2978.0,-0.0019067040408846658
2977.0,-0.0019499410842680476
2976.0,-0.0019499410842680476
2975.0,-0.0019067040408846658
2974.0,-0.0018202170383281313
2973.0,-0.0016904542321527494
2972.0,-0.0016471913460383014
2971.0,-0.001733712809000476
2970.0,-0.0018202170383281313
2969.0,-0.0019067040408846658
2968.0,-0.0019067040408846658
2967.0,-0.0019067040408846658
2966.0,-0.0018202170383281313
2965.0,-0.001776967077439462
2964.0,-0.001733712809000476
2963.0,-0.0016904542321527494
2962.0,-0.0016471913460383014
2961.0,-0.0016471913460383014
2960.0,-0.0016039241497978196
2959.0,-0.0015606526425728795
2958.0,-0.001474096691732818
2957.0,-0.0013875234866409514
2956.0,-0.001344230411601366
2955.0,-0.001344230411601366
2954.0,-0.0013009330204178937
2953.0,-0.001257631312230778
2952.0,-0.00121432528617893
2951.0,-0.00121432528617893
2950.0,-0.001257631312230778
2949.0,-0.0013009330204178937
2948.0,-0.0013875234866409514
2947.0,-0.0014308122463981832
2946.0,-0.0014308122463981832
2945.0,-0.0013875234866409514
2944.0,-0.001344230411601366
2943.0,-0.001344230411601366
2942.0,-0.001474096691732818
2941.0,-0.0016039241497978196
2940.0,-0.0016904542321527494
2939.0,-0.0016039241497978196
2938.0,-0.0014308122463981832
2937.0,-0.0013009330204178937
2936.0,-0.00121432528617893
2935.0,-0.001257631312230778
2934.0,-0.0013875234866409514
2933.0,-0.0015173768235041685
2932.0,-0.0015606526425728795
2931.0,-0.0015173768235041685
2930.0,-0.0014308122463981832
2929.0,-0.0013875234866409514
2928.0,-0.0013875234866409514
2927.0,-0.001474096691732818
2926.0,-0.001474096691732818
2925.0,-0.001474096691732818
2924.0,-0.0014308122463981832
2923.0,-0.0014308122463981832
2922.0,-0.0015606526425728795
2921.0,-0.001733712809000476
2920.0,-0.0019067040408846658
2919.0,-0.0019499410842680476
2918.0,-0.0019499410842680476
2917.0,-0.0019067040408846658
2916.0,-0.0018634626925240205
2915.0,-0.0018202170383281313
2914.0,-0.001776967077439462
2913.0,-0.001733712809000476
2912.0,-0.0016471913460383014
2911.0,-0.0015173768235041685
2910.0,-0.0013875234866409514
2909.0,-0.0013009330204178937
2908.0,-0.001344230411601366
2907.0,-0.0014308122463981832
2906.0,-0.0016039241497978196
2905.0,-0.001733712809000476
2904.0,-0.0018202170383281313
2903.0,-0.0019067040408846658
2902.0,-0.0019067040408846658
2901.0,-0.0019067040408846658
2900.0,-0.0018634626925240205
2899.0,-0.0018202170383281313
2898.0,-0.001776967077439462
2897.0,-0.001733712809000476
2896.0,-0.001733712809000476
2895.0,-0.0018202170383281313
2894.0,-0.0019067040408846658
2893.0,-0.0019067040408846658
2892.0,-0.0019067040408846658
2891.0,-0.0018634626925240205
2890.0,-0.0018202170383281313
2889.0,-0.001776967077439462
2888.0,-0.001776967077439462
2887.0,-0.001776967077439462
2886.0,-0.001776967077439462
2885.0,-0.001776967077439462
2884.0,-0.001733712809000476
2883.0,-0.0016471913460383014
2882.0,-0.0016471913460383014
2881.0,-0.0016471913460383014
2880.0,-0.0016904542321527494
2879.0,-0.001733712809000476
2878.0,-0.0016904542321527494
2877.0,-0.0016039241497978196
2876.0,-0.0015606526425728795
2875.0,-0.0016039241497978196
2874.0,-0.0016471913460383014
2873.0,-0.001733712809000476
2872.0,-0.001733712809000476
2871.0,-0.0016904542321527494
2870.0,-0.0016904542321527494
2869.0,-0.0016471913460383014
2868.0,-0.0016471913460383014
2867.0,-0.0016471913460383014
2866.0,-0.0016471913460383014
2865.0,-0.0016904542321527494
2864.0,-0.001733712809000476
2863.0,-0.001733712809000476
2862.0,-0.001733712809000476
2861.0,-0.0016904542321527494
2860.0,-0.0016039241497978196
2859.0,-0.0014308122463981832
2858.0,-0.0013009330204178937
2857.0,-0.0011277002770349043
2856.0,-0.0011277002770349043
2855.0,-0.00121432528617893
2854.0,-0.001344230411601366
2853.0,-0.0014308122463981832
2852.0,-0.0014308122463981832
2851.0,-0.0013875234866409514
2850.0,-0.0013875234866409514
2849.0,-0.0013875234866409514
2848.0,-0.0014308122463981832
2847.0,-0.0013875234866409514
2846.0,-0.0013875234866409514
2845.0,-0.0013875234866409514
2844.0,-0.0014308122463981832
2843.0,-0.0015173768235041685
2842.0,-0.0016039241497978196
2841.0,-0.0016471913460383014
2840.0,-0.0016904542321527494
2839.0,-0.0016904542321527494
2838.0,-0.0016471913460383014
2837.0,-0.0016039241497978196
2836.0,-0.0016039241497978196
2835.0,-0.0016471913460383014
2834.0,-0.0016471913460383014
2833.0,-0.0016039241497978196
2832.0,-0.001474096691732818
2831.0,-0.001344230411601366
2830.0,-0.00121432528617893
2829.0,-0.0011277002770349043
2828.0,-0.0011710149414008164
2827.0,-0.0013009330204178937
2826.0,-0.0013875234866409514
2825.0,-0.0015173768235041685
2824.0,-0.0015606526425728795
2823.0,-0.0015606526425728795
2822.0,-0.001474096691732818
2821.0,-0.0014308122463981832
2820.0,-0.0013875234866409514
2819.0,-0.0013875234866409514
2818.0,-0.0013875234866409514
2817.0,-0.0013875234866409514
2816.0,-0.001344230411601366
2815.0,-0.0013009330204178937
2814.0,-0.001257631312230778
2813.0,-0.0011710149414008164
2812.0,-0.00121432528617893
2811.0,-0.001257631312230778
2810.0,-0.0013875234866409514
2809.0,-0.0014308122463981832
2808.0,-0.0013875234866409514
2807.0,-0.001344230411601366
2806.0,-0.001257631312230778
2805.0,-0.001257631312230778
2804.0,-0.0013009330204178937
2803.0,-0.0013009330204178937
2802.0,-0.001344230411601366
2801.0,-0.001344230411601366
2800.0,-0.0013875234866409514
2799.0,-0.0013875234866409514
2798.0,-0.001344230411601366
2797.0,-0.001344230411601366
2796.0,-0.0013009330204178937
2795.0,-0.001257631312230778
2794.0,-0.001257631312230778
2793.0,-0.00121432528617893
2792.0,-0.00121432528617893
2791.0,-0.001257631312230778
2790.0,-0.0013875234866409514
2789.0,-0.0016039241497978196
2788.0,-0.001733712809000476
2787.0,-0.0018202170383281313
2786.0,-0.001733712809000476
2785.0,-0.0016039241497978196
2784.0,-0.0014308122463981832
2783.0,-0.0013009330204178937
2782.0,-0.00121432528617893
2781.0,-0.00121432528617893
2780.0,-0.001257631312230778
2779.0,-0.001344230411601366
2778.0,-0.0013875234866409514
2777.0,-0.0014308122463981832
2776.0,-0.0014308122463981832
2775.0,-0.0013875234866409514
2774.0,-0.001257631312230778
2773.0,-0.0011710149414008164
2772.0,-0.0011277002770349043
2771.0,-0.0011710149414008164
2770.0,-0.001257631312230778
2769.0,-0.0013009330204178937
2768.0,-0.0013875234866409514
2767.0,-0.0014308122463981832
2766.0,-0.0015173768235041685
2765.0,-0.0015606526425728795
2764.0,-0.0016039241497978196
2763.0,-0.0016904542321527494
2762.0,-0.0016904542321527494
2761.0,-0.0016904542321527494
2760.0,-0.0016039241497978196
2759.0,-0.001474096691732818
2758.0,-0.001344230411601366
2757.0,-0.001257631312230778
2756.0,-0.00121432528617893
2755.0,-0.00121432528617893
2754.0,-0.0011710149414008164
2753.0,-0.0011277002770349043
2752.0,-0.0010843812922201046
2751.0,-0.0011277002770349043
2750.0,-0.00121432528617893
2749.0,-0.0013009330204178937
2748.0,-0.0013875234866409514
2747.0,-0.0013875234866409514
2746.0,-0.0013875234866409514
2745.0,-0.0013875234866409514
2744.0,-0.0013875234866409514
2743.0,-0.0014308122463981832
2742.0,-0.0014308122463981832
2741.0,-0.0013875234866409514
2740.0,-0.0013875234866409514
2739.0,-0.0014308122463981832
2738.0,-0.001474096691732818
2737.0,-0.0015606526425728795
2736.0,-0.0016039241497978196
2735.0,-0.0016039241497978196
2734.0,-0.0015173768235041685
2733.0,-0.0013875234866409514
2732.0,-0.0013009330204178937
2731.0,-0.001257631312230778
2730.0,-0.001257631312230778
2729.0,-0.0013009330204178937
2728.0,-0.0014308122463981832
2727.0,-0.0015173768235041685
2726.0,-0.0015606526425728795
2725.0,-0.001474096691732818
2724.0,-0.0013875234866409514
2723.0,-0.001344230411601366
2722.0,-0.0013875234866409514
2721.0,-0.0014308122463981832
2720.0,-0.0014308122463981832
2719.0,-0.0013875234866409514
2718.0,-0.001257631312230778
2717.0,-0.0011710149414008164
2716.0,-0.0010843812922201046
2715.0,-0.0010843812922201046
2714.0,-0.0011277002770349043
2713.0,-0.0011710149414008164
2712.0,-0.0013009330204178937
2711.0,-0.0013875234866409514
2710.0,-0.0014308122463981832
2709.0,-0.0013875234866409514
2708.0,-0.0013875234866409514
2707.0,-0.001344230411601366
2706.0,-0.001257631312230778
2705.0,-0.00121432528617893
2704.0,-0.0011710149414008164
2703.0,-0.0011710149414008164
2702.0,-0.00121432528617893
2701.0,-0.0013009330204178937
2700.0,-0.0013009330204178937
2699.0,-0.001344230411601366
2698.0,-0.001344230411601366
2697.0,-0.001344230411601366
2696.0,-0.0013875234866409514
2695.0,-0.0013875234866409514
2694.0,-0.0013875234866409514
2693.0,-0.0013875234866409514
2692.0,-0.0014308122463981832
2691.0,-0.0015173768235041685
2690.0,-0.0016471913460383014
2689.0,-0.001733712809000476
2688.0,-0.001776967077439462
2687.0,-0.001733712809000476
2686.0,-0.0016904542321527494
2685.0,-0.0015606526425728795
2684.0,-0.001474096691732818
2683.0,-0.0013875234866409514
2682.0,-0.001344230411601366
2681.0,-0.001344230411601366
2680.0,-0.001344230411601366
2679.0,-0.0013875234866409514
2678.0,-0.001474096691732818
2677.0,-0.0015173768235041685
2676.0,-0.001474096691732818
2675.0,-0.0013875234866409514
2674.0,-0.001344230411601366
2673.0,-0.001344230411601366
2672.0,-0.0013875234866409514
2671.0,-0.0013875234866409514
2670.0,-0.001344230411601366
2669.0,-0.001257631312230778
2668.0,-0.00121432528617893
2667.0,-0.001257631312230778
2666.0,-0.001344230411601366
2665.0,-0.0014308122463981832
2664.0,-0.0014308122463981832
2663.0,-0.0013875234866409514
2662.0,-0.0013009330204178937
2661.0,-0.0013009330204178937
2660.0,-0.0013009330204178937
2659.0,-0.0013009330204178937
2658.0,-0.00121432528617893
2657.0,-0.0011277002770349043
2656.0,-0.0011277002770349043
2655.0,-0.0011710149414008164
2654.0,-0.0013009330204178937
2653.0,-0.0013875234866409514
2652.0,-0.0014308122463981832
2651.0,-0.0014308122463981832
2650.0,-0.0013875234866409514
2649.0,-0.001344230411601366
2648.0,-0.001344230411601366
2647.0,-0.0013009330204178937
2646.0,-0.00121432528617893
2645.0,-0.0011710149414008164
2644.0,-0.00121432528617893
2643.0,-0.0013009330204178937
2642.0,-0.0013875234866409514
2641.0,-0.001474096691732818
2640.0,-0.0015173768235041685
2639.0,-0.0015173768235041685
2638.0,-0.0015173768235041685
2637.0,-0.001474096691732818
2636.0,-0.0015173768235041685
2635.0,-0.0015606526425728795
2634.0,-0.0016471913460383014
2633.0,-0.001733712809000476
2632.0,-0.001733712809000476
2631.0,-0.0016904542321527494
2630.0,-0.0016039241497978196
2629.0,-0.0015606526425728795
2628.0,-0.0015173768235041685
2627.0,-0.0015173768235041685
2626.0,-0.001474096691732818
2625.0,-0.001474096691732818
2624.0,-0.001474096691732818
2623.0,-0.001474096691732818
2622.0,-0.001474096691732818
2621.0,-0.0014308122463981832
2620.0,-0.0014308122463981832
2619.0,-0.0014308122463981832
2618.0,-0.0013875234866409514
2617.0,-0.0014308122463981832
2616.0,-0.001474096691732818
2615.0,-0.0015173768235041685
2614.0,-0.0015606526425728795
2613.0,-0.0015606526425728795
2612.0,-0.0015606526425728795
2611.0,-0.0015606526425728795
2610.0,-0.0015173768235041685
2609.0,-0.0014308122463981832
2608.0,-0.0014308122463981832
2607.0,-0.0014308122463981832
2606.0,-0.0014308122463981832
2605.0,-0.0014308122463981832
2604.0,-0.0014308122463981832
2603.0,-0.0014308122463981832
2602.0,-0.001474096691732818
2601.0,-0.0015173768235041685
2600.0,-0.001474096691732818
2599.0,-0.001474096691732818
2598.0,-0.0014308122463981832
2597.0,-0.0014308122463981832
2596.0,-0.0014308122463981832
2595.0,-0.0014308122463981832
2594.0,-0.0014308122463981832
2593.0,-0.0014308122463981832
2592.0,-0.0014308122463981832
2591.0,-0.001474096691732818
2590.0,-0.0015173768235041685
2589.0,-0.0016039241497978196
2588.0,-0.0016039241497978196
2587.0,-0.0016039241497978196
2586.0,-0.0015606526425728795
2585.0,-0.0015606526425728795
2584.0,-0.0015606526425728795
2583.0,-0.0015606526425728795
2582.0,-0.0015173768235041685
2581.0,-0.0015173768235041685
2580.0,-0.0015606526425728795
2579.0,-0.0016904542321527494
2578.0,-0.0018202170383281313
2577.0,-0.0018634626925240205
2576.0,-0.0018202170383281313
2575.0,-0.0016904542321527494
2574.0,-0.0015173768235041685
2573.0,-0.0014308122463981832
2572.0,-0.0014308122463981832
2571.0,-0.0014308122463981832
2570.0,-0.0013875234866409514
2569.0,-0.0013009330204178937
2568.0,-0.00121432528617893
2567.0,-0.0011710149414008164
2566.0,-0.00121432528617893
2565.0,-0.001257631312230778
2564.0,-0.0013009330204178937
2563.0,-0.001344230411601366
2562.0,-0.0014308122463981832
2561.0,-0.0015173768235041685
2560.0,-0.0015606526425728795
2559.0,-0.001474096691732818
2558.0,-0.0013875234866409514
2557.0,-0.001257631312230778
2556.0,-0.001257631312230778
2555.0,-0.0013009330204178937
2554.0,-0.0014308122463981832
2553.0,-0.0015173768235041685
2552.0,-0.0015173768235041685
2551.0,-0.0015173768235041685
2550.0,-0.0015173768235041685
2549.0,-0.0015173768235041685
2548.0,-0.0015173768235041685
2547.0,-0.001474096691732818
2546.0,-0.001474096691732818
2545.0,-0.0014308122463981832
2544.0,-0.0014308122463981832
2543.0,-0.001474096691732818
2542.0,-0.0016039241497978196
2541.0,-0.0016471913460383014
2540.0,-0.0016904542321527494
2539.0,-0.0016471913460383014
2538.0,-0.0015606526425728795
2537.0,-0.001474096691732818
2536.0,-0.0013875234866409514
2535.0,-0.0013009330204178937
2534.0,-0.0013009330204178937
2533.0,-0.001344230411601366
2532.0,-0.0013875234866409514
2531.0,-0.0013875234866409514
2530.0,-0.001344230411601366
2529.0,-0.0013009330204178937
2528.0,-0.001257631312230778
2527.0,-0.00121432528617893
2526.0,-0.00121432528617893
2525.0,-0.001257631312230778
2524.0,-0.001257631312230778
2523.0,-0.0013009330204178937
2522.0,-0.0013875234866409514
2521.0,-0.0015173768235041685
2520.0,-0.0015606526425728795
2519.0,-0.0015173768235041685
2518.0,-0.0014308122463981832
2517.0,-0.001344230411601366
2516.0,-0.001344230411601366
2515.0,-0.0014308122463981832
2514.0,-0.0015173768235041685
2513.0,-0.0015173768235041685
2512.0,-0.001474096691732818
2511.0,-0.001344230411601366
2510.0,-0.001344230411601366
2509.0,-0.0013875234866409514
2508.0,-0.0015173768235041685
2507.0,-0.0016039241497978196
2506.0,-0.0016039241497978196
2505.0,-0.0015606526425728795
2504.0,-0.0015173768235041685
2503.0,-0.0015173768235041685
2502.0,-0.0015173768235041685
2501.0,-0.001474096691732818
2500.0,-0.0014308122463981832
2499.0,-0.001344230411601366
2498.0,-0.001257631312230778
2497.0,-0.001257631312230778
2496.0,-0.001257631312230778
2495.0,-0.001344230411601366
2494.0,-0.0014308122463981832
2493.0,-0.0015173768235041685
2492.0,-0.0015606526425728795
2491.0,-0.0015606526425728795
2490.0,-0.0016039241497978196
2489.0,-0.0016039241497978196
2488.0,-0.0016039241497978196
2487.0,-0.0015173768235041685
2486.0,-0.0014308122463981832
2485.0,-0.001344230411601366
2484.0,-0.0013009330204178937
2483.0,-0.001344230411601366
2482.0,-0.0013875234866409514
2481.0,-0.0013875234866409514
2480.0,-0.0014308122463981832
2479.0,-0.001474096691732818
2478.0,-0.0015606526425728795
2477.0,-0.0016039241497978196
2476.0,-0.0015606526425728795
2475.0,-0.001474096691732818
2474.0,-0.0013875234866409514
2473.0,-0.0013009330204178937
2472.0,-0.001344230411601366
2471.0,-0.0013875234866409514
2470.0,-0.0014308122463981832
2469.0,-0.001474096691732818
2468.0,-0.0015173768235041685
2467.0,-0.0015173768235041685
2466.0,-0.0015173768235041685
2465.0,-0.0015173768235041685
2464.0,-0.001474096691732818
2463.0,-0.001474096691732818
2462.0,-0.001474096691732818
2461.0,-0.0015173768235041685
2460.0,-0.0015606526425728795
2459.0,-0.0015606526425728795
2458.0,-0.0015173768235041685
2457.0,-0.0014308122463981832
2456.0,-0.001344230411601366
2455.0,-0.0013009330204178937
2454.0,-0.001344230411601366
2453.0,-0.001344230411601366
2452.0,-0.0014308122463981832
2451.0,-0.001474096691732818
2450.0,-0.0015606526425728795
2449.0,-0.0016039241497978196
2448.0,-0.0016039241497978196
2447.0,-0.0016039241497978196
2446.0,-0.0015606526425728795
2445.0,-0.001474096691732818
2444.0,-0.0013875234866409514
2443.0,-0.0013009330204178937
2442.0,-0.001257631312230778
2441.0,-0.001257631312230778
2440.0,-0.00121432528617893
2439.0,-0.001257631312230778
2438.0,-0.001344230411601366
2437.0,-0.001474096691732818
2436.0,-0.0015606526425728795
2435.0,-0.0016039241497978196
2434.0,-0.0016039241497978196
2433.0,-0.0016471913460383014
2432.0,-0.0016471913460383014
2431.0,-0.0016471913460383014
2430.0,-0.0015606526425728795
2429.0,-0.0014308122463981832
2428.0,-0.001257631312230778
2427.0,-0.0011277002770349043
2426.0,-0.0011277002770349043
2425.0,-0.00121432528617893
2424.0,-0.001344230411601366
2423.0,-0.0014308122463981832
2422.0,-0.0015173768235041685
2421.0,-0.0015606526425728795
2420.0,-0.001474096691732818
2419.0,-0.0014308122463981832
2418.0,-0.0013875234866409514
2417.0,-0.0014308122463981832
2416.0,-0.0015173768235041685
2415.0,-0.0015606526425728795
2414.0,-0.0015173768235041685
2413.0,-0.001474096691732818
2412.0,-0.0014308122463981832
2411.0,-0.0013875234866409514
2410.0,-0.0013875234866409514
2409.0,-0.0013875234866409514
2408.0,-0.0013875234866409514
2407.0,-0.0013009330204178937
2406.0,-0.001257631312230778
2405.0,-0.00121432528617893
2404.0,-0.001257631312230778
2403.0,-0.001344230411601366
2402.0,-0.0014308122463981832
2401.0,-0.0015173768235041685
2400.0,-0.0016039241497978196
2399.0,-0.0016039241497978196
2398.0,-0.0016039241497978196
2397.0,-0.0015606526425728795
2396.0,-0.0015173768235041685
2395.0,-0.0014308122463981832
2394.0,-0.0013875234866409514
2393.0,-0.0013875234866409514
2392.0,-0.001474096691732818
2391.0,-0.0015606526425728795
2390.0,-0.0016471913460383014
2389.0,-0.0016904542321527494
2388.0,-0.001733712809000476
2387.0,-0.0018202170383281313
2386.0,-0.0019067040408846658
2385.0,-0.0019931738235303698
2384.0,-0.0020796263931210923
2383.0,-0.0021660617565077978
2382.0,-0.0022524799205383417
2381.0,-0.002338880892056583
2380.0,-0.002338880892056583
2379.0,-0.0022092729880145434
2378.0,-0.0020796263931210923
2377.0,-0.0020796263931210923
2376.0,-0.0022524799205383417
2375.0,-0.002597980719908577
2374.0,-0.002856926061120646
2373.0,-0.002900068611387585
2372.0,-0.002856926061120646
2371.0,-0.0028137792246734072
2370.0,-0.0027706281011936618
2369.0,-0.0025548081484823015
2368.0,-0.0022524799205383417
2367.0,-0.002338880892056583
2366.0,-0.003115717099805959
2365.0,-0.0042353663594676405
2364.0,-0.004922949296525481
2363.0,-0.004407364176330919
2362.0,-0.0029863408567849525
2361.0,-0.0015606526425728795
2360.0,-0.0008677215312267172
2359.0,-0.0006075870628903246
2358.0,-8.685021164911433e-05
2357.0,0.000521466320689834
2356.0,0.0005649501236701937
2355.0,-0.00013026880522692963
2354.0,-0.0011277002770349043
2353.0,-0.0019931738235303698
2352.0,-0.0024252646779014952
2351.0,-0.0025116312849080558
2350.0,-0.0024684501283323
2349.0,-0.0024684501283323
2348.0,-0.0027706281011936618
2347.0,-0.0034174452021935586
2346.0,-0.004020273253241502
2345.0,-0.004407364176330919
2344.0,-0.004321373782642635
2343.0,-0.0039772418455368275
2342.0,-0.0034174452021935586
2341.0,-0.0029432068763250996
2340.0,-0.002856926061120646
2339.0,-0.0029863408567849525
2338.0,-0.002900068611387585
2337.0,-0.0025116312849080558
2336.0,-0.0022092729880145434
2335.0,-0.0022092729880145434
2334.0,-0.0022092729880145434
2333.0,-0.0019499410842680476
2332.0,-0.001733712809000476
2331.0,-0.0020796263931210923
2330.0,-0.002900068611387585
2329.0,-0.003503614742536687
2328.0,-0.0033743540197499478
2327.0,-0.0025548081484823015
2326.0,-0.0015606526425728795
2325.0,-0.0009977303577937136
2324.0,-0.0009110621312231615
2323.0,-0.00121432528617893
2322.0,-0.0015173768235041685
2321.0,-0.0015173768235041685
2320.0,-0.001344230411601366
2319.0,-0.0013009330204178937
2318.0,-0.0015173768235041685
2317.0,-0.0018634626925240205
2316.0,-0.0020796263931210923
2315.0,-0.0021660617565077978
2314.0,-0.0021228462251614566
2313.0,-0.0020796263931210923
2312.0,-0.0021660617565077978
2311.0,-0.002338880892056583
2310.0,-0.0025548081484823015
2309.0,-0.0026411490000399773
2308.0,-0.0025548081484823015
2307.0,-0.002338880892056583
2306.0,-0.0020796263931210923
2305.0,-0.0019499410842680476
2304.0,-0.0019499410842680476
2303.0,-0.0020364022595291686
2302.0,-0.0020796263931210923
2301.0,-0.0021228462251614566
2300.0,-0.0021660617565077978
2299.0,-0.0022524799205383417
2298.0,-0.002338880892056583
2297.0,-0.0024252646779014952
2296.0,-0.0024252646779014952
2295.0,-0.002338880892056583
2294.0,-0.0022092729880145434
2293.0,-0.0020796263931210923
2292.0,-0.0019931738235303698
2291.0,-0.0019931738235303698
2290.0,-0.0019931738235303698
2289.0,-0.0019499410842680476
2288.0,-0.0018634626925240205
2287.0,-0.001776967077439462
2286.0,-0.001733712809000476
2285.0,-0.0016904542321527494
2284.0,-0.0016471913460383014
2283.0,-0.0015606526425728795
2282.0,-0.0015606526425728795
2281.0,-0.0016039241497978196
2280.0,-0.001733712809000476
2279.0,-0.0018202170383281313
2278.0,-0.0018202170383281313
2277.0,-0.0018202170383281313
2276.0,-0.001733712809000476
2275.0,-0.001733712809000476
2274.0,-0.001776967077439462
2273.0,-0.0018202170383281313
2272.0,-0.0018634626925240205
2271.0,-0.0018634626925240205
2270.0,-0.0018634626925240205
2269.0,-0.0018202170383281313
2268.0,-0.001776967077439462
2267.0,-0.001733712809000476
2266.0,-0.0018634626925240205
2265.0,-0.0019931738235303698
2264.0,-0.0020796263931210923
2263.0,-0.0021228462251614566
2262.0,-0.0020364022595291686
2261.0,-0.0019499410842680476
2260.0,-0.0018202170383281313
2259.0,-0.001733712809000476
2258.0,-0.0016471913460383014
2257.0,-0.0016039241497978196
2256.0,-0.0016471913460383014
2255.0,-0.0016904542321527494
2254.0,-0.001733712809000476
2253.0,-0.001776967077439462
2252.0,-0.001733712809000476
2251.0,-0.0016471913460383014
2250.0,-0.0016471913460383014
2249.0,-0.0016039241497978196
2248.0,-0.0016039241497978196
2247.0,-0.0016039241497978196
2246.0,-0.0015173768235041685
2245.0,-0.0014308122463981832
2244.0,-0.0013875234866409514
2243.0,-0.001344230411601366
2242.0,-0.0013875234866409514
2241.0,-0.001474096691732818
2240.0,-0.0015173768235041685
2239.0,-0.0015173768235041685
2238.0,-0.0014308122463981832
2237.0,-0.001344230411601366
2236.0,-0.001257631312230778
2235.0,-0.0013009330204178937
2234.0,-0.0013875234866409514
2233.0,-0.0014308122463981832
2232.0,-0.0014308122463981832
2231.0,-0.0013875234866409514
2230.0,-0.0013875234866409514
2229.0,-0.0013875234866409514
2228.0,-0.0014308122463981832
2227.0,-0.0014308122463981832
2226.0,-0.0014308122463981832
2225.0,-0.0013875234866409514
2224.0,-0.0013875234866409514
2223.0,-0.0014308122463981832
2222.0,-0.0015173768235041685
2221.0,-0.0016039241497978196
2220.0,-0.0016039241497978196
2219.0,-0.0015606526425728795
2218.0,-0.0015173768235041685
2217.0,-0.001474096691732818
2216.0,-0.0015173768235041685
2215.0,-0.0015173768235041685
2214.0,-0.0015173768235041685
2213.0,-0.0015173768235041685
2212.0,-0.0015173768235041685
2211.0,-0.0015606526425728795
2210.0,-0.0016039241497978196
2209.0,-0.0016471913460383014
2208.0,-0.0016904542321527494
2207.0,-0.0016904542321527494
2206.0,-0.0016471913460383014
2205.0,-0.0016039241497978196
2204.0,-0.0015606526425728795
2203.0,-0.0015173768235041685
2202.0,-0.001474096691732818
2201.0,-0.0014308122463981832
2200.0,-0.001474096691732818
2199.0,-0.0015606526425728795
2198.0,-0.0016471913460383014
2197.0,-0.0016904542321527494
2196.0,-0.0016471913460383014
2195.0,-0.0016471913460383014
2194.0,-0.0016471913460383014
2193.0,-0.0016039241497978196
2192.0,-0.0015173768235041685
2191.0,-0.001474096691732818
2190.0,-0.0014308122463981832
2189.0,-0.0015173768235041685
2188.0,-0.0016039241497978196
2187.0,-0.0016471913460383014
2186.0,-0.0016039241497978196
2185.0,-0.0015606526425728795
2184.0,-0.0015173768235041685
2183.0,-0.0015173768235041685
2182.0,-0.001474096691732818
2181.0,-0.0014308122463981832
2180.0,-0.001344230411601366
2179.0,-0.001344230411601366
2178.0,-0.0013875234866409514
2177.0,-0.0014308122463981832
2176.0,-0.0014308122463981832
2175.0,-0.0014308122463981832
2174.0,-0.001474096691732818
2173.0,-0.0015606526425728795
2172.0,-0.0016039241497978196
2171.0,-0.0016039241497978196
2170.0,-0.0015606526425728795
2169.0,-0.0015606526425728795
2168.0,-0.0016039241497978196
2167.0,-0.0016471913460383014
2166.0,-0.0016904542321527494
2165.0,-0.0016471913460383014
2164.0,-0.0015606526425728795
2163.0,-0.001474096691732818
2162.0,-0.0013875234866409514
2161.0,-0.0013875234866409514
2160.0,-0.0014308122463981832
2159.0,-0.001474096691732818
2158.0,-0.0015173768235041685
2157.0,-0.0015173768235041685
2156.0,-0.001474096691732818
2155.0,-0.0013875234866409514
2154.0,-0.0013875234866409514
2153.0,-0.0013875234866409514
2152.0,-0.001474096691732818
2151.0,-0.0015606526425728795
2150.0,-0.0015606526425728795
2149.0,-0.0015173768235041685
2148.0,-0.0013875234866409514
2147.0,-0.0013009330204178937
2146.0,-0.001257631312230778
2145.0,-0.0013009330204178937
2144.0,-0.001344230411601366
2143.0,-0.0013875234866409514
2142.0,-0.0014308122463981832
2141.0,-0.001474096691732818
2140.0,-0.0015173768235041685
2139.0,-0.0015173768235041685
2138.0,-0.0015173768235041685
2137.0,-0.0015173768235041685
2136.0,-0.0014308122463981832
2135.0,-0.0013875234866409514
2134.0,-0.001344230411601366
2133.0,-0.0013875234866409514
2132.0,-0.001474096691732818
2131.0,-0.0015173768235041685
2130.0,-0.0015606526425728795
2129.0,-0.0015606526425728795
2128.0,-0.0016039241497978196
2127.0,-0.0016039241497978196
2126.0,-0.0016039241497978196
2125.0,-0.0015606526425728795
2124.0,-0.0015606526425728795
2123.0,-0.0014308122463981832
2122.0,-0.0013009330204178937
2121.0,-0.00121432528617893
2120.0,-0.00121432528617893
2119.0,-0.0013009330204178937
2118.0,-0.0013875234866409514
2117.0,-0.001474096691732818
2116.0,-0.001474096691732818
2115.0,-0.0014308122463981832
2114.0,-0.0014308122463981832
2113.0,-0.0014308122463981832
2112.0,-0.0015173768235041685
2111.0,-0.0016039241497978196
2110.0,-0.0016039241497978196
2109.0,-0.001474096691732818
2108.0,-0.001344230411601366
2107.0,-0.0013009330204178937
2106.0,-0.0013009330204178937
2105.0,-0.0013009330204178937
2104.0,-0.001344230411601366
2103.0,-0.0013875234866409514
2102.0,-0.0013875234866409514
2101.0,-0.0014308122463981832
2100.0,-0.001474096691732818
2099.0,-0.001474096691732818
2098.0,-0.0015173768235041685
2097.0,-0.0015173768235041685
2096.0,-0.0015606526425728795
2095.0,-0.0015606526425728795
2094.0,-0.0015606526425728795
2093.0,-0.0015606526425728795
2092.0,-0.0015606526425728795
2091.0,-0.0015173768235041685
2090.0,-0.0015173768235041685
2089.0,-0.0015173768235041685
2088.0,-0.0015173768235041685
2087.0,-0.0015173768235041685
2086.0,-0.0015173768235041685
2085.0,-0.0015173768235041685
2084.0,-0.0015606526425728795
2083.0,-0.0015606526425728795
2082.0,-0.0015606526425728795
2081.0,-0.0015606526425728795
2080.0,-0.0015173768235041685
2079.0,-0.001474096691732818
2078.0,-0.001474096691732818
2077.0,-0.0015606526425728795
2076.0,-0.0015606526425728795
2075.0,-0.0015606526425728795
2074.0,-0.0015173768235041685
2073.0,-0.0013875234866409514
2072.0,-0.0013009330204178937
2071.0,-0.0013009330204178937
2070.0,-0.001344230411601366
2069.0,-0.0014308122463981832
2068.0,-0.001474096691732818
2067.0,-0.001474096691732818
2066.0,-0.001474096691732818
2065.0,-0.0015173768235041685
2064.0,-0.0015606526425728795
2063.0,-0.0015606526425728795
2062.0,-0.0015606526425728795
2061.0,-0.0015173768235041685
2060.0,-0.001474096691732818
2059.0,-0.0014308122463981832
2058.0,-0.001474096691732818
2057.0,-0.0015173768235041685
2056.0,-0.0015173768235041685
2055.0,-0.0015173768235041685
2054.0,-0.001474096691732818
2053.0,-0.001474096691732818
2052.0,-0.0014308122463981832
2051.0,-0.001474096691732818
2050.0,-0.001474096691732818
2049.0,-0.001474096691732818
2048.0,-0.001474096691732818
2047.0,-0.0013875234866409514
2046.0,-0.001344230411601366
2045.0,-0.0013009330204178937
2044.0,-0.001257631312230778
2043.0,-0.001257631312230778
2042.0,-0.0013009330204178937
2041.0,-0.0013009330204178937
2040.0,-0.001344230411601366
2039.0,-0.001344230411601366
2038.0,-0.0013875234866409514
2037.0,-0.0013875234866409514
2036.0,-0.0014308122463981832
2035.0,-0.001474096691732818
2034.0,-0.0015606526425728795
2033.0,-0.0015606526425728795
2032.0,-0.0015606526425728795
2031.0,-0.0015606526425728795
2030.0,-0.0016039241497978196
2029.0,-0.0016039241497978196
2028.0,-0.0016039241497978196
2027.0,-0.0015606526425728795
2026.0,-0.0015173768235041685
2025.0,-0.0015173768235041685
2024.0,-0.0015606526425728795
2023.0,-0.0016471913460383014
2022.0,-0.001733712809000476
2021.0,-0.001776967077439462
2020.0,-0.001776967077439462
2019.0,-0.0016904542321527494
2018.0,-0.0016039241497978196
2017.0,-0.0015606526425728795
2016.0,-0.0015173768235041685
2015.0,-0.0015173768235041685
2014.0,-0.0015173768235041685
2013.0,-0.001474096691732818
2012.0,-0.001474096691732818
2011.0,-0.0014308122463981832
2010.0,-0.0014308122463981832
2009.0,-0.001474096691732818
2008.0,-0.001474096691732818
2007.0,-0.0015173768235041685
2006.0,-0.0015606526425728795
2005.0,-0.0016471913460383014
2004.0,-0.0016904542321527494
2003.0,-0.001733712809000476
2002.0,-0.0016904542321527494
2001.0,-0.0016039241497978196
2000.0,-0.0015606526425728795
1999.0,-0.0015173768235041685
1998.0,-0.001474096691732818
1997.0,-0.0014308122463981832
1996.0,-0.0013875234866409514
1995.0,-0.0014308122463981832
1994.0,-0.001474096691732818
1993.0,-0.001474096691732818
1992.0,-0.0015173768235041685
1991.0,-0.0015173768235041685
1990.0,-0.0015173768235041685
1989.0,-0.0015173768235041685
1988.0,-0.0015173768235041685
1987.0,-0.001474096691732818
1986.0,-0.001474096691732818
1985.0,-0.0014308122463981832
1984.0,-0.0013875234866409514
1983.0,-0.0013875234866409514
1982.0,-0.0014308122463981832
1981.0,-0.0015173768235041685
1980.0,-0.0015173768235041685
1979.0,-0.0015173768235041685
1978.0,-0.0014308122463981832
1977.0,-0.0014308122463981832
1976.0,-0.0014308122463981832
1975.0,-0.001474096691732818
1974.0,-0.001474096691732818
1973.0,-0.0015173768235041685
1972.0,-0.001474096691732818
1971.0,-0.0014308122463981832
1970.0,-0.001474096691732818
1969.0,-0.0015173768235041685
1968.0,-0.0016039241497978196
1967.0,-0.0016471913460383014
1966.0,-0.0016471913460383014
1965.0,-0.0016039241497978196
1964.0,-0.0015173768235041685
1963.0,-0.0014308122463981832
1962.0,-0.0013875234866409514
1961.0,-0.0014308122463981832
1960.0,-0.0014308122463981832
1959.0,-0.001474096691732818
1958.0,-0.0015173768235041685
1957.0,-0.0015173768235041685
1956.0,-0.001474096691732818
1955.0,-0.0013875234866409514
1954.0,-0.001344230411601366
1953.0,-0.0013875234866409514
1952.0,-0.0014308122463981832
1951.0,-0.0015606526425728795
1950.0,-0.0016471913460383014
1949.0,-0.0016471913460383014
1948.0,-0.0016471913460383014
1947.0,-0.0016039241497978196
1946.0,-0.0016039241497978196
1945.0,-0.0016039241497978196
1944.0,-0.0016039241497978196
1943.0,-0.0016471913460383014
1942.0,-0.001733712809000476
1941.0,-0.0018202170383281313
1940.0,-0.0018202170383281313
1939.0,-0.001776967077439462
1938.0,-0.0016904542321527494
1937.0,-0.0016039241497978196
1936.0,-0.0015606526425728795
1935.0,-0.0016039241497978196
1934.0,-0.0016471913460383014
1933.0,-0.0016904542321527494
1932.0,-0.001776967077439462
1931.0,-0.001776967077439462
1930.0,-0.0016904542321527494
1929.0,-0.0015606526425728795
1928.0,-0.0013875234866409514
1927.0,-0.001344230411601366
1926.0,-0.0014308122463981832
1925.0,-0.0015173768235041685
1924.0,-0.0016039241497978196
1923.0,-0.0016039241497978196
1922.0,-0.0016039241497978196
1921.0,-0.0016039241497978196
1920.0,-0.0016039241497978196
1919.0,-0.0016039241497978196
1918.0,-0.0015606526425728795
1917.0,-0.0015173768235041685
1916.0,-0.001474096691732818
1915.0,-0.0015173768235041685
1914.0,-0.0015606526425728795
1913.0,-0.0016471913460383014
1912.0,-0.0016904542321527494
1911.0,-0.001733712809000476
1910.0,-0.001776967077439462
1909.0,-0.001776967077439462
1908.0,-0.001733712809000476
1907.0,-0.0016904542321527494
1906.0,-0.0016471913460383014
1905.0,-0.0016039241497978196
1904.0,-0.0015606526425728795
1903.0,-0.0015606526425728795
1902.0,-0.0015606526425728795
1901.0,-0.0016039241497978196
1900.0,-0.0016039241497978196
1899.0,-0.0016039241497978196
1898.0,-0.0016471913460383014
1897.0,-0.0016471913460383014
1896.0,-0.0016471913460383014
1895.0,-0.0016471913460383014
1894.0,-0.0016039241497978196
1893.0,-0.0016039241497978196
1892.0,-0.0016039241497978196
1891.0,-0.0016471913460383014
1890.0,-0.0016039241497978196
1889.0,-0.0015606526425728795
1888.0,-0.0015173768235041685
1887.0,-0.0015173768235041685
1886.0,-0.0016039241497978196
1885.0,-0.0016904542321527494
1884.0,-0.0016904542321527494
1883.0,-0.0016039241497978196
1882.0,-0.0015606526425728795
1881.0,-0.0015173768235041685
1880.0,-0.0015173768235041685
1879.0,-0.0015606526425728795
1878.0,-0.0015606526425728795
1877.0,-0.0015606526425728795
1876.0,-0.0015173768235041685
1875.0,-0.001474096691732818
1874.0,-0.0015173768235041685
1873.0,-0.0015173768235041685
1872.0,-0.0015606526425728795
1871.0,-0.0016039241497978196
1870.0,-0.0016471913460383014
1869.0,-0.0016471913460383014
1868.0,-0.0016471913460383014
1867.0,-0.0016471913460383014
1866.0,-0.0016471913460383014
1865.0,-0.0016471913460383014
1864.0,-0.0016039241497978196
1863.0,-0.0015606526425728795
1862.0,-0.0015606526425728795
1861.0,-0.0015606526425728795
1860.0,-0.0015606526425728795
1859.0,-0.0015606526425728795
1858.0,-0.0015606526425728795
1857.0,-0.0016039241497978196
1856.0,-0.0015606526425728795
1855.0,-0.0015606526425728795
1854.0,-0.0015173768235041685
1853.0,-0.0015606526425728795
1852.0,-0.0016039241497978196
1851.0,-0.0016039241497978196
1850.0,-0.0015606526425728795
1849.0,-0.0015606526425728795
1848.0,-0.0015606526425728795
1847.0,-0.0015606526425728795
1846.0,-0.0015173768235041685
1845.0,-0.001474096691732818
1844.0,-0.0015173768235041685
1843.0,-0.0016039241497978196
1842.0,-0.0016471913460383014
1841.0,-0.0016471913460383014
1840.0,-0.0015606526425728795
1839.0,-0.0015173768235041685
1838.0,-0.0015173768235041685
1837.0,-0.001474096691732818
1836.0,-0.0013875234866409514
1835.0,-0.0013875234866409514
1834.0,-0.0014308122463981832
1833.0,-0.001474096691732818
1832.0,-0.0015606526425728795
1831.0,-0.0015606526425728795
1830.0,-0.0015606526425728795
1829.0,-0.001474096691732818
1828.0,-0.0014308122463981832
1827.0,-0.001344230411601366
1826.0,-0.001344230411601366
1825.0,-0.001257631312230778
1824.0,-0.00121432528617893
1823.0,-0.0011710149414008164
1822.0,-0.0011710149414008164
1821.0,-0.00121432528617893
1820.0,-0.001257631312230778
1819.0,-0.001257631312230778
1818.0,-0.001257631312230778
1817.0,-0.0011710149414008164
1816.0,-0.0011277002770349043
1815.0,-0.0010843812922201046
1814.0,-0.0011277002770349043
1813.0,-0.0011710149414008164
1812.0,-0.00121432528617893
1811.0,-0.001257631312230778
1810.0,-0.001257631312230778
1809.0,-0.00121432528617893
1808.0,-0.0010843812922201046
1807.0,-0.0009977303577937136
1806.0,-0.0009977303577937136
1805.0,-0.0009543984064577238
1804.0,-0.0009110621312231615
1803.0,-0.0008243766056055257
1802.0,-0.0007376737740329986
1801.0,-0.0006509536295951079
1800.0,-0.0006509536295951079
1799.0,-0.0006509536295951079
1798.0,-0.0006943158663546001
1797.0,-0.0006943158663546001
1796.0,-0.0006509536295951079
1795.0,-0.0006075870628903246
1794.0,-0.0006075870628903246
1793.0,-0.0005642161653756084
1792.0,-0.0003906892499099257
1791.0,-0.00021709297223004853
1790.0,4.343161980746579e-05
1789.0,0.00026065489343207737
1788.0,0.000521466320689834
1787.0,0.0007824344698965646
1786.0,0.0010435595295137379
1785.0,0.001348404001626502
1784.0,0.0016534626036355249
1783.0,0.0020023635919956817
1782.0,0.002351545103793873
1781.0,0.0027447101798967477
1780.0,0.0031382315093266833
1779.0,0.0035321097382827737
1778.0,0.0038825238627120395
1777.0,0.004189368323957332
1776.0,0.004540313378935901
1775.0,0.00489154225525934
1774.0,0.005199100705396198
1773.0,0.005726851026829571
1772.0,0.006431517210272464
1771.0,0.007181479933320523
1770.0,0.007844288957383316
1769.0,0.00850811108984062
1768.0,0.009217308196862062
1767.0,0.009927665307847056
1766.0,0.01046119667949763
1765.0,0.010995384301463185
1764.0,0.011664044143949504
1763.0,0.012557195064198723
1762.0,0.013586594534531482
1761.0,0.01452861671041239
1760.0,0.015202742910707112
1759.0,0.015697768020096703
1758.0,0.016193358021584725
1757.0,0.01677978535189717
1756.0,0.017321806616515723
1755.0,0.01759307113620534
1754.0,0.017638298366853045
1753.0,0.017638298366853045
1752.0,0.017774008325325275
1751.0,0.017955020928509757
1750.0,0.018136109008649592
1749.0,0.018271974638383703
1748.0,0.018271974638383703
1747.0,0.018181392829336396
1746.0,0.017955020928509757
1745.0,0.01759307113620534
1744.0,0.017095882207371904
1743.0,0.016599261819461697
1742.0,0.016013078034810446
1741.0,0.015337693809893471
1740.0,0.0144837121472845
1739.0,0.013586594534531482
1738.0,0.012870232340102872
1737.0,0.012244383261476699
1736.0,0.011574829993696856
1735.0,0.010639186223752484
1734.0,0.009616741093766423
1733.0,0.0087296108049002
1732.0,0.008153946355103248
1731.0,0.007755855953228474
1730.0,0.007402303897961815
1729.0,0.007049039429553483
1728.0,0.006607862550997545
1727.0,0.00621118618129457
1726.0,0.00577085918230158
1725.0,0.005330978174470591
1724.0,0.004979393875242044
1723.0,0.004715892310740433
1722.0,0.00458420145758498
1721.0,0.004452550524862486
1720.0,0.004320939488377862
1719.0,0.004145520125434121
1718.0,0.0038825238627120395
1717.0,0.003619686766589858
1716.0,0.0033570086445275926
1715.0,0.0031382315093266833
1714.0,0.0030070181092942683
1713.0,0.0029195645282691363
1712.0,0.0027447101798967477
1711.0,0.0025262411970197185
1710.0,0.0023078820582733695
1709.0,0.0020459959305969555
1708.0,0.0017842676290416026
1707.0,0.0015662811355310335
1706.0,0.0014355417390583547
1705.0,0.0013919706849057079
1704.0,0.0014355417390583547
1703.0,0.0015662811355310335
1702.0,0.0016534626036355249
1701.0,0.001609869681952425
1700.0,0.001348404001626502
1699.0,0.0010435595295137379
1698.0,0.0009565003968372565
1697.0,0.0010435595295137379
1696.0,0.0010000277816797354
1695.0,0.0008259444115150671
1694.0,0.0006084382809090627
1693.0,0.000521466320689834
1692.0,0.00043451177401765406
1691.0,0.0003910410285830057
1690.0,0.00030411258916074324
1689.0,0.00030411258916074324
1688.0,0.00030411258916074324
1687.0,0.0003475746339209884
1686.0,0.0003910410285830057
1685.0,0.000521466320689834
1684.0,0.0005649501236701937
1683.0,0.0003910410285830057
1682.0,0.00021720154586435392
1681.0,0.0001303078917322953
1680.0,0.0
1679.0,-4.3427276862573194e-05
1678.0,-8.685021164911433e-05
1677.0,-0.00013026880522692963
1676.0,-0.00013026880522692963
1675.0,-8.685021164911433e-05
1674.0,-8.685021164911433e-05
1673.0,-8.685021164911433e-05
1672.0,-8.685021164911433e-05
1671.0,-0.00013026880522692963
1670.0,-0.00017368305846510168
1669.0,-0.00017368305846510168
1668.0,-0.00017368305846510168
1667.0,-0.00017368305846510168
1666.0,-0.00013026880522692963
1665.0,-8.685021164911433e-05
1664.0,-8.685021164911433e-05
1663.0,-0.00013026880522692963
1662.0,-0.00021709297223004853
1661.0,-0.00030389978481260016
1660.0,-0.0003472966853634851
1659.0,-0.0003472966853634851
1658.0,-0.0003906892499099257
1657.0,-0.00043407747931878404
1656.0,-0.0004774613744551459
1655.0,-0.0005208409361854294
1654.0,-0.0005642161653756084
1653.0,-0.0006075870628903246
1652.0,-0.0007376737740329986
1651.0,-0.0007376737740329986
1650.0,-0.0006075870628903246
1649.0,-0.0004774613744551459
1648.0,-0.0003906892499099257
1647.0,-0.00030389978481260016
1646.0,-0.0003472966853634851
1645.0,-0.00043407747931878404
1644.0,-0.0005642161653756084
1643.0,-0.0006075870628903246
1642.0,-0.0005642161653756084
1641.0,-0.0004774613744551459
1640.0,-0.0003906892499099257
1639.0,-0.0002604985473904087
1638.0,-0.00017368305846510168
1637.0,-0.00017368305846510168
1636.0,-0.0002604985473904087
1635.0,-0.0004774613744551459
1634.0,-0.0005642161653756084
1633.0,-0.0005208409361854294
1632.0,-0.00043407747931878404
1631.0,-0.0003472966853634851
1630.0,-0.0003906892499099257
1629.0,-0.0004774613744551459
1628.0,-0.0006075870628903246
1627.0,-0.0006943158663546001
1626.0,-0.0006943158663546001
1625.0,-0.0006509536295951079
1624.0,-0.0005642161653756084
1623.0,-0.0005208409361854294
1622.0,-0.0005642161653756084
1621.0,-0.0006509536295951079
1620.0,-0.0006943158663546001
1619.0,-0.0007376737740329986
1618.0,-0.0007376737740329986
1617.0,-0.0007810273534953893
1616.0,-0.0008243766056055257
1615.0,-0.0007810273534953893
1614.0,-0.0006943158663546001
1613.0,-0.0006509536295951079
1612.0,-0.0006943158663546001
1611.0,-0.0007376737740329986
1610.0,-0.0007810273534953893
1609.0,-0.0007376737740329986
1608.0,-0.0006943158663546001
1607.0,-0.0006943158663546001
1606.0,-0.0006943158663546001
1605.0,-0.0007376737740329986
1604.0,-0.0007810273534953893
1603.0,-0.0007810273534953893
1602.0,-0.0007810273534953893
1601.0,-0.0007810273534953893
1600.0,-0.0008677215312267172
1599.0,-0.0009110621312231615
1598.0,-0.0009543984064577238
1597.0,-0.0009110621312231615
1596.0,-0.0008677215312267172
1595.0,-0.0008677215312267172
1594.0,-0.0008677215312267172
1593.0,-0.0009543984064577238
1592.0,-0.001041057986093552
1591.0,-0.0010843812922201046
1590.0,-0.001041057986093552
1589.0,-0.0009110621312231615
1588.0,-0.0008243766056055257
1587.0,-0.0007810273534953893
1586.0,-0.0007376737740329986
1585.0,-0.0007376737740329986
1584.0,-0.0007376737740329986
1583.0,-0.0007810273534953893
1582.0,-0.0007810273534953893
1581.0,-0.0008243766056055257
1580.0,-0.0008677215312267172
1579.0,-0.0009543984064577238
1578.0,-0.0009977303577937136
1577.0,-0.001041057986093552
1576.0,-0.001041057986093552
1575.0,-0.001041057986093552
1574.0,-0.001041057986093552
1573.0,-0.0009977303577937136
1572.0,-0.001041057986093552
1571.0,-0.001041057986093552
1570.0,-0.001041057986093552
1569.0,-0.0009977303577937136
1568.0,-0.0009977303577937136
1567.0,-0.0009977303577937136
1566.0,-0.001041057986093552
1565.0,-0.0011277002770349043
1564.0,-0.0011710149414008164
1563.0,-0.00121432528617893
1562.0,-0.0011710149414008164
1561.0,-0.00121432528617893
1560.0,-0.00121432528617893
1559.0,-0.0011277002770349043
1558.0,-0.00121432528617893
1557.0,-0.0013009330204178937
1556.0,-0.0013009330204178937
1555.0,-0.0013009330204178937
1554.0,-0.0013009330204178937
1553.0,-0.0013009330204178937
1552.0,-0.001257631312230778
1551.0,-0.0011277002770349043
1550.0,-0.0009543984064577238
1549.0,-0.0008243766056055257
1548.0,-0.0008243766056055257
1547.0,-0.0008243766056055257
1546.0,-0.0009110621312231615
1545.0,-0.001041057986093552
1544.0,-0.001257631312230778
1543.0,-0.0014308122463981832
1542.0,-0.0015606526425728795
1541.0,-0.001474096691732818
1540.0,-0.00121432528617893
1539.0,-0.0011710149414008164
1538.0,-0.00121432528617893
1537.0,-0.00121432528617893
1536.0,-0.0011710149414008164
1535.0,-0.00121432528617893
1534.0,-0.001257631312230778
1533.0,-0.0013009330204178937
1532.0,-0.001257631312230778
1531.0,-0.00121432528617893
1530.0,-0.00121432528617893
1529.0,-0.0013009330204178937
1528.0,-0.001344230411601366
1527.0,-0.001344230411601366
1526.0,-0.0013009330204178937
1525.0,-0.00121432528617893
1524.0,-0.001041057986093552
1523.0,-0.0008677215312267172
1522.0,-0.0006509536295951079
1521.0,-0.0006509536295951079
1520.0,-0.0008243766056055257
1519.0,-0.0009110621312231615
1518.0,-0.0009110621312231615
1517.0,-0.0009110621312231615
1516.0,-0.0009543984064577238
1515.0,-0.001041057986093552
1514.0,-0.0010843812922201046
1513.0,-0.0010843812922201046
1512.0,-0.0011277002770349043
1511.0,-0.00121432528617893
1510.0,-0.0013875234866409514
1509.0,-0.0015606526425728795
1508.0,-0.0016039241497978196
1507.0,-0.0014308122463981832
1506.0,-0.0013009330204178937
1505.0,-0.0013009330204178937
1504.0,-0.001257631312230778
1503.0,-0.001257631312230778
1502.0,-0.001257631312230778
1501.0,-0.001257631312230778
1500.0,-0.0013009330204178937
1499.0,-0.0013009330204178937
1498.0,-0.0011710149414008164
1497.0,-0.0009977303577937136
1496.0,-0.0009977303577937136
1495.0,-0.0011277002770349043
1494.0,-0.00121432528617893
1493.0,-0.0013009330204178937
1492.0,-0.001344230411601366
1491.0,-0.0014308122463981832
1490.0,-0.0014308122463981832
1489.0,-0.0013009330204178937
1488.0,-0.00121432528617893
1487.0,-0.0011710149414008164
1486.0,-0.0011710149414008164
1485.0,-0.0011710149414008164
1484.0,-0.0011277002770349043
1483.0,-0.0010843812922201046
1482.0,-0.0009977303577937136
1481.0,-0.0009110621312231615
1480.0,-0.0008243766056055257
1479.0,-0.0007810273534953893
1478.0,-0.0007810273534953893
1477.0,-0.0007376737740329986
1476.0,-0.0007376737740329986
1475.0,-0.0007376737740329986
1474.0,-0.0007810273534953893
1473.0,-0.0007376737740329986
1472.0,-0.0006075870628903246
1471.0,-0.00043407747931878404
1470.0,-0.00021709297223004853
1469.0,-4.3427276862573194e-05
1468.0,0.0001303078917322953
1467.0,0.0003475746339209884
1466.0,0.0006519307932786322
1465.0,0.0012177301682640973
1464.0,0.0018714928717336043
1463.0,0.002351545103793873
1462.0,0.002701007590486082
1461.0,0.0029632891174733444
1460.0,0.0032257291386954545
1459.0,0.0035321097382827737
1458.0,0.00401400208620073
1457.0,0.004759798137184523
1456.0,0.005243055412371911
1455.0,0.005462895701502157
1454.0,0.005506877116487674
1453.0,0.005506877116487674
1452.0,0.005462895701502157
1451.0,0.00541891874010525
1450.0,0.0052870145684298375
1449.0,0.005199100705396198
1448.0,0.005023326350308999
1447.0,0.00484762310854614
1446.0,0.00458420145758498
1445.0,0.004145520125434121
1444.0,0.0036634819042162814
1443.0,0.0030944893043338695
1442.0,0.0025262411970197185
1441.0,0.0020459959305969555
1440.0,0.001609869681952425
1439.0,0.001304841688344327
1438.0,0.0010435595295137379
1437.0,0.0008259444115150671
1436.0,0.0006519307932786322
1435.0,0.0003910410285830057
1434.0,0.0001303078917322953
1433.0,-0.00013026880522692963
1432.0,-0.00030389978481260016
1431.0,-0.00043407747931878404
1430.0,-0.0005208409361854294
1429.0,-0.0005642161653756084
1428.0,-0.0006075870628903246
1427.0,-0.0006943158663546001
1426.0,-0.0007810273534953893
1425.0,-0.0009110621312231615
1424.0,-0.0009543984064577238
1423.0,-0.0009110621312231615
1422.0,-0.0008677215312267172
1421.0,-0.0008243766056055257
1420.0,-0.0008243766056055257
1419.0,-0.0008243766056055257
1418.0,-0.0008243766056055257
1417.0,-0.0008677215312267172
1416.0,-0.0009543984064577238
1415.0,-0.001041057986093552
1414.0,-0.0011277002770349043
1413.0,-0.0011710149414008164
1412.0,-0.0011277002770349043
1411.0,-0.0009977303577937136
1410.0,-0.0008677215312267172
1409.0,-0.0008243766056055257
1408.0,-0.0008677215312267172
1407.0,-0.0009977303577937136
1406.0,-0.001041057986093552
1405.0,-0.0009977303577937136
1404.0,-0.0009543984064577238
1403.0,-0.0009110621312231615
1402.0,-0.0008677215312267172
1401.0,-0.0007810273534953893
1400.0,-0.0005642161653756084
1399.0,-0.00030389978481260016
1398.0,-8.685021164911433e-05
1397.0,4.343161980746579e-05
1396.0,0.00017375254558760211
1395.0,0.0003475746339209884
1394.0,0.0006954276616513155
1393.0,0.0011306361176557367
1392.0,0.001609869681952425
1391.0,0.0020459959305969555
1390.0,0.002482560585275184
1389.0,0.0029195645282691363
1388.0,0.0034007772998332353
1387.0,0.0038825238627120395
1386.0,0.004277078004534696
1385.0,0.004540313378935901
1384.0,0.004759798137184523
1383.0,0.00489154225525934
1382.0,0.00489154225525934
1381.0,0.004803708402820517
1380.0,0.00458420145758498
1379.0,0.004320939488377862
1378.0,0.00401400208620073
1377.0,0.003707281458678491
1376.0,0.0034445503666347133
1375.0,0.0033132443998284966
1374.0,0.0033570086445275926
1373.0,0.0035321097382827737
1372.0,0.0036634819042162814
1371.0,0.003794893821675638
1370.0,0.003970171588923321
1369.0,0.004233220950025984
1368.0,0.004540313378935901
1367.0,0.004759798137184523
1366.0,0.00484762310854614
1365.0,0.00484762310854614
1364.0,0.00489154225525934
1363.0,0.005023326350308999
1362.0,0.005199100705396198
1361.0,0.005330978174470591
1360.0,0.00537494623139545
1359.0,0.00537494623139545
1358.0,0.005330978174470591
1357.0,0.0052870145684298375
1356.0,0.005155150446602086
1355.0,0.004979393875242044
1354.0,0.004759798137184523
1353.0,0.00458420145758498
1352.0,0.004452550524862486
1351.0,0.004277078004534696
1350.0,0.004101676353562844
1349.0,0.003926345514724705
1348.0,0.0036634819042162814
1347.0,0.003488327845821315
1346.0,0.0033132443998284966
1345.0,0.0031819781204844855
1344.0,0.0030070181092942683
1343.0,0.0028321285541661467
1342.0,0.0026573093983774942
1341.0,0.0024388843664115978
1340.0,0.0022642234021015284
1339.0,0.0021769192542746563
1338.0,0.002089632653256679
1337.0,0.0020459959305969555
1336.0,0.0020023635919956817
1335.0,0.0019587356365717845
1334.0,0.0018714928717336043
1333.0,0.0018278780605593958
1332.0,0.0018278780605593958
1331.0,0.0017842676290416026
1330.0,0.0017406615763013722
1329.0,0.0016970599014589638
1328.0,0.0016534626036355249
1327.0,0.001609869681952425
1326.0,0.001609869681952425
1325.0,0.0015662811355310335
1324.0,0.0015226969634936083
1323.0,0.0014791171649619628
1322.0,0.0014791171649619628
1321.0,0.0014791171649619628
1320.0,0.0015226969634936083
1319.0,0.0015662811355310335
1318.0,0.0015662811355310335
1317.0,0.0015662811355310335
1316.0,0.0015662811355310335
1315.0,0.001609869681952425
1314.0,0.0016534626036355249
1313.0,0.0016970599014589638
1312.0,0.0017406615763013722
1311.0,0.0017842676290416026
1310.0,0.0017842676290416026
1309.0,0.0017842676290416026
1308.0,0.0017842676290416026
1307.0,0.0018278780605593958
1306.0,0.0018714928717336043
1305.0,0.001915112063444413
1304.0,0.001915112063444413
1303.0,0.001915112063444413
1302.0,0.0018714928717336043
1301.0,0.0018278780605593958
1300.0,0.0017842676290416026
1299.0,0.0017842676290416026
1298.0,0.0017406615763013722
1297.0,0.0016970599014589638
1296.0,0.0015662811355310335
1295.0,0.0014355417390583547
1294.0,0.001304841688344327
1293.0,0.0012177301682640973
1292.0,0.0011741809597138886
1291.0,0.0011741809597138886
1290.0,0.0012177301682640973
1289.0,0.001304841688344327
1288.0,0.0014355417390583547
1287.0,0.001609869681952425
1286.0,0.0018278780605593958
1285.0,0.002089632653256679
1284.0,0.0023078820582733695
1283.0,0.0025262411970197185
1282.0,0.002701007590486082
1281.0,0.0029195645282691363
1280.0,0.0031819781204844855
1279.0,0.0035321097382827737
1278.0,0.003926345514724705
1277.0,0.004320939488377862
1276.0,0.004628093971837721
1275.0,0.004803708402820517
1274.0,0.004935465843858511
1273.0,0.005111204635089406
1272.0,0.0052870145684298375
1271.0,0.005550862985963967
1270.0,0.005726851026829571
1269.0,0.005858888873877532
1268.0,0.005858888873877532
1267.0,0.00577085918230158
1266.0,0.005682847330363394
1265.0,0.005638848091999105
1264.0,0.005594853310833647
1263.0,0.005506877116487674
1262.0,0.005462895701502157
1261.0,0.00537494623139545
1260.0,0.0052870145684298375
1259.0,0.005199100705396198
1258.0,0.005111204635089406
1257.0,0.004979393875242044
1256.0,0.00484762310854614
1255.0,0.004715892310740433
1254.0,0.004628093971837721
1253.0,0.00458420145758498
1252.0,0.00458420145758498
1251.0,0.00458420145758498
1250.0,0.004540313378935901
1249.0,0.0044964297349936455
1248.0,0.004408675747646695
1247.0,0.004320939488377862
1246.0,0.004233220950025984
1245.0,0.004233220950025984
1244.0,0.004277078004534696
1243.0,0.004320939488377862
1242.0,0.004452550524862486
1241.0,0.00458420145758498
1240.0,0.004715892310740433
1239.0,0.004803708402820517
1238.0,0.004935465843858511
1237.0,0.005111204635089406
1236.0,0.0052870145684298375
1235.0,0.005462895701502157
1234.0,0.005638848091999105
1233.0,0.005814871797682919
1232.0,0.006035001804881146
1231.0,0.006343371384537999
1230.0,0.006651960076740071
1229.0,0.00696076819309055
1228.0,0.007358130121602358
1227.0,0.007800070204414977
1226.0,0.008330992620051436
1225.0,0.008906891951112605
1224.0,0.009483555971770974
1223.0,0.010060986715464404
1222.0,0.010594681998483901
1221.0,0.011129033935354915
1220.0,0.011708658092512314
1219.0,0.012333735073725371
1218.0,0.012914970375878188
1217.0,0.013496984613259544
1216.0,0.01403492169512921
1215.0,0.01452861671041239
1214.0,0.014977917890464765
1213.0,0.01538268676325183
1212.0,0.015697768020096703
1211.0,0.015922966097169144
1210.0,0.016103208673694303
1209.0,0.01628352608625061
1208.0,0.01646391839700767
1207.0,0.016599261819461697
1206.0,0.016689514205884493
1205.0,0.016734647433454652
1204.0,0.01677978535189717
1203.0,0.016870075265299933
1202.0,0.017005545341335804
1201.0,0.017231422748988034
1200.0,0.017547848615010242
1199.0,0.017909760704207134
1198.0,0.018362575344230914
1197.0,0.018815862601645694
1196.0,0.019315025636685412
1195.0,0.019860222254245663
1194.0,0.020406104151069693
1193.0,0.0209982515252789
1192.0,0.02168250325324883
1191.0,0.02245929405346514
1190.0,0.023374947949272418
1189.0,0.02438440203310499
1188.0,0.02539620791296726
1187.0,0.026410376572743033
1186.0,0.027334407733889066
1185.0,0.02826040911222183
1184.0,0.029188389127482228
1183.0,0.029978734171634214
1182.0,0.03058408764601861
1181.0,0.03081714076773867
1180.0,0.03067729388779794
1179.0,0.030071810571884017
1178.0,0.029095501846216454
1177.0,0.0277045713888604
1176.0,0.026041313893296225
1175.0,0.024154774532432866
1174.0,0.022139270735302752
1173.0,0.020178569969774962
1172.0,0.018271974638383703
1171.0,0.01646391839700767
1170.0,0.014843078722943437
1169.0,0.013407393177789162
1168.0,0.012110390002254778
1167.0,0.010906307389674463
1166.0,0.009838807101520963
1165.0,0.008906891951112605
1164.0,0.008065450281052211
1163.0,0.007313960837872058
1162.0,0.006651960076740071
1161.0,0.00612308505878878
1160.0,0.005726851026829571
1159.0,0.00541891874010525
1158.0,0.005155150446602086
1157.0,0.00489154225525934
1156.0,0.004759798137184523
1155.0,0.004628093971837721
1154.0,0.00458420145758498
1153.0,0.00458420145758498
1152.0,0.004671990922590297
1151.0,0.004803708402820517
1150.0,0.005067263269958211
1149.0,0.00541891874010525
1148.0,0.005946936412324799
1147.0,0.006651960076740071
1146.0,0.007490664932224611
1145.0,0.008375265465994541
1144.0,0.009350411681145587
1143.0,0.01046119667949763
1142.0,0.011708658092512314
1141.0,0.013093968619278806
1140.0,0.01452861671041239
1139.0,0.015922966097169144
1138.0,0.01727661233145472
1137.0,0.018498511851753108
1136.0,0.01958753839310856
1135.0,0.020542681902151694
1134.0,0.021317434843055594
1133.0,0.021910826943857264
1132.0,0.022413561996148967
1131.0,0.02277955336461468
1130.0,0.02300845469384938
1129.0,0.023054249440757957
1128.0,0.02296266477531872
1127.0,0.02277955336461468
1126.0,0.02255077261765881
1125.0,0.022230681908425698
1124.0,0.021773818325474092
1123.0,0.021135015652343103
1122.0,0.02045162529590483
1121.0,0.019860222254245663
1120.0,0.019360432556262852
1119.0,0.01899731005860028
1118.0,0.018679826740892747
1117.0,0.018498511851753108
1116.0,0.01840788278591865
1115.0,0.01840788278591865
1114.0,0.018543833477873584
1113.0,0.018861217359339655
1112.0,0.019360432556262852
1111.0,0.01995115493504329
1110.0,0.020633757603838898
1109.0,0.0214542995372613
1108.0,0.022367834754000393
1107.0,0.023374947949272418
1106.0,0.024430342106337877
1105.0,0.025488307262671706
1104.0,0.026595025589939425
1103.0,0.027750864037404455
1102.0,0.028816959143838528
1101.0,0.029932203450862893
1100.0,0.031003673351687855
1099.0,0.031984286006358165
1098.0,0.032873418923587305
1097.0,0.03367050483612166
1096.0,0.03442204208947208
1095.0,0.03517488211661135
1094.0,0.03592902944204468
1093.0,0.036779013477011624
1092.0,0.03767802727041558
1091.0,0.03848398855105106
1090.0,0.03929144831144349
1089.0,0.0400527842915015
1088.0,0.04076775094900409
1087.0,0.04138834223512067
1086.0,0.041914151478914974
1085.0,0.042392712939904875
1084.0,0.04282386959515394
1083.0,0.04320747962950522
1082.0,0.04344740808260106
1081.0,0.04359142880416744
1080.0,0.04368746915880539
1079.0,0.043735497301724546
1078.0,0.04363944632667782
1077.0,0.0433514207947967
1076.0,0.04287180232318688
1075.0,0.04224908912272074
1074.0,0.041483896576958834
1073.0,0.04057697805689475
1072.0,0.03952922246570112
1071.0,0.03838909190871931
1070.0,0.037062711569998186
1069.0,0.035693217696063595
1068.0,0.034187046963396917
1067.0,0.032686081712916426
1066.0,0.031190286087141805
1065.0,0.029839156962686353
1064.0,0.02872415126189476
1063.0,0.027797161620935595
1062.0,0.027010773144651168
1061.0,0.026410376572743033
1060.0,0.026041313893296225
1059.0,0.025764722556973707
1058.0,0.025672564576383117
1057.0,0.025718641122169483
1056.0,0.025856900097785074
1055.0,0.026041313893296225
1054.0,0.026225806029419818
1053.0,0.026410376572743033
1052.0,0.026595025589939425
1051.0,0.02682594731702781
1050.0,0.02724191609646076
1049.0,0.027843464140506313
1048.0,0.02849221828874393
1047.0,0.029095501846216454
1046.0,0.029560137048236124
1045.0,0.03002526987828502
1044.0,0.030444315779156517
1043.0,0.030770520137356927
1042.0,0.030957032694186815
1041.0,0.031003673351687855
1040.0,0.030863766403287585
1039.0,0.030537492025363155
1038.0,0.03002526987828502
1037.0,0.029467170231675777
1036.0,0.02890978686288448
1035.0,0.028353117935693284
1034.0,0.027797161620935595
1033.0,0.027195677663422346
1032.0,0.026502691267936695
1031.0,0.025810808881832736
1030.0,0.02516604495145991
1029.0,0.02461415101053266
1028.0,0.024292536462819925
1027.0,0.02406295751688936
1026.0,0.023879381700184332
1025.0,0.023695883447997224
1024.0,0.023329119375188556
1023.0,0.02291687968414724
1022.0,0.022413561996148967
1021.0,0.021910826943857264
1020.0,0.0214542995372613
1019.0,0.020952673052035298
1018.0,0.02045162529590483
1017.0,0.01990568621470623
1016.0,0.019315025636685412
1015.0,0.018770512579999288
1014.0,0.018271974638383703
1013.0,0.01781925440359733
1012.0,0.017321806616515723
1011.0,0.016824927962187042
1010.0,0.016373712875465518
1009.0,0.016013078034810446
1008.0,0.015607721475734415
1007.0,0.015202742910707112
1006.0,0.014708281407112
1005.0,0.014259258949925524
1004.0,0.013945219230304673
1003.0,0.01381070026317599
1002.0,0.01372104409400876
1001.0,0.013676222949234651
1000.0,0.013631406429727155
999.0,0.013496984613259544
998.0,0.013273040668781544
997.0,0.013049212141483357
996.0,0.012736045877764557
995.0,0.012467797270160563
994.0,0.012289056869694281
993.0,0.012199714248127602
992.0,0.012110390002254778
991.0,0.012065734767841452
990.0,0.0119764380713403
989.0,0.011842527443247208
988.0,0.011753276624621556
987.0,0.011619434777991433
986.0,0.011485634166333858
985.0,0.011351874764248926
984.0,0.011218156546359825
983.0,0.011039929609661936
982.0,0.010906307389674463
981.0,0.010683695010048622
980.0,0.010505687227290839
979.0,0.010283280051895272
978.0,0.010149890396819572
977.0,0.010105436281226954
976.0,0.010060986715464404
975.0,0.009972101229705377
974.0,0.009883233932095559
973.0,0.009794384815193347
972.0,0.009794384815193347
971.0,0.009705553871561357
970.0,0.009572341514736404
969.0,0.00939478857608056
968.0,0.009261671492462709
967.0,0.009128595198514056
966.0,0.008995559669244813
965.0,0.008906891951112605
964.0,0.008862564879688284
963.0,0.008906891951112605
962.0,0.009128595198514056
961.0,0.00939478857608056
960.0,0.009616741093766423
959.0,0.009838807101520963
958.0,0.009927665307847056
957.0,0.010060986715464404
956.0,0.010194349063173958
955.0,0.010327752376126709
954.0,0.010416710688994968
953.0,0.010327752376126709
952.0,0.010105436281226954
951.0,0.009794384815193347
950.0,0.009616741093766423
949.0,0.009572341514736404
948.0,0.009527946474380489
947.0,0.009439170005980158
946.0,0.009261671492462709
945.0,0.00908424549391551
944.0,0.008995559669244813
943.0,0.008906891951112605
942.0,0.008773924307505121
941.0,0.008640997362049818
940.0,0.008596697419959609
939.0,0.008596697419959609
938.0,0.008640997362049818
937.0,0.008685301823389224
936.0,0.008640997362049818
935.0,0.008552401996197112
934.0,0.008463824699968647
933.0,0.008419542825660153
932.0,0.008330992620051436
931.0,0.008286724286910463
930.0,0.008286724286910463
929.0,0.008375265465994541
928.0,0.008419542825660153
927.0,0.00850811108984062
926.0,0.00850811108984062
925.0,0.008596697419959609
924.0,0.008685301823389224
923.0,0.008773924307505121
922.0,0.008906891951112605
921.0,0.009039900317800775
920.0,0.009128595198514056
919.0,0.009172949432521227
918.0,0.00908424549391551
917.0,0.008951223547323472
916.0,0.008818242332126802
915.0,0.008818242332126802
914.0,0.008906891951112605
913.0,0.008995559669244813
912.0,0.008995559669244813
911.0,0.008906891951112605
910.0,0.008818242332126802
909.0,0.008818242332126802
908.0,0.008773924307505121
907.0,0.008596697419959609
906.0,0.008419542825660153
905.0,0.008286724286910463
904.0,0.008330992620051436
903.0,0.008552401996197112
902.0,0.0087296108049002
901.0,0.008773924307505121
900.0,0.008685301823389224
899.0,0.008596697419959609
898.0,0.008552401996197112
897.0,0.008596697419959609
896.0,0.0087296108049002
895.0,0.008862564879688284
894.0,0.008862564879688284
893.0,0.008862564879688284
892.0,0.008818242332126802
891.0,0.008818242332126802
890.0,0.008685301823389224
889.0,0.008463824699968647
888.0,0.008242460465651913
887.0,0.008109696063975047
886.0,0.008153946355103248
885.0,0.008198201155356077
884.0,0.008242460465651913
883.0,0.008286724286910463
882.0,0.008375265465994541
881.0,0.008596697419959609
880.0,0.008862564879688284
879.0,0.009261671492462709
878.0,0.009794384815193347
877.0,0.01046119667949763
876.0,0.011129033935354915
875.0,0.011797899741219142
874.0,0.012467797270160563
873.0,0.013138729709955221
872.0,0.01372104409400876
871.0,0.014214382227394795
870.0,0.01452861671041239
869.0,0.014753209197138295
868.0,0.014843078722943437
867.0,0.014932966849499074
866.0,0.015022873584506602
865.0,0.015157768594724175
864.0,0.015202742910707112
863.0,0.015112798935672522
862.0,0.015022873584506602
861.0,0.014843078722943437
860.0,0.014618439768003144
859.0,0.014124642691606404
858.0,0.013496984613259544
857.0,0.012870232340102872
856.0,0.012378417874516323
855.0,0.012021084124518078
854.0,0.011753276624621556
853.0,0.011574829993696856
852.0,0.011485634166333858
851.0,0.011396456654336085
850.0,0.011129033935354915
849.0,0.01077272626946324
848.0,0.01046119667949763
847.0,0.010194349063173958
846.0,0.009972101229705377
845.0,0.009705553871561357
844.0,0.00939478857608056
843.0,0.009172949432521227
842.0,0.009039900317800775
841.0,0.008995559669244813
840.0,0.008995559669244813
839.0,0.008906891951112605
838.0,0.008773924307505121
837.0,0.00850811108984062
836.0,0.008198201155356077
835.0,0.007888512213050314
834.0,0.007755855953228474
833.0,0.007711646202907652
832.0,0.007711646202907652
831.0,0.007667440952535687
830.0,0.00762324020119709
829.0,0.007667440952535687
828.0,0.007711646202907652
827.0,0.007800070204414977
826.0,0.007844288957383316
825.0,0.007888512213050314
824.0,0.007800070204414977
823.0,0.0074464821678643656
822.0,0.006872514894289861
821.0,0.006343371384537999
820.0,0.005990966876386672
819.0,0.00590291041179003
818.0,0.006079041198713275
817.0,0.006343371384537999
816.0,0.006519680930003435
815.0,0.006519680930003435
814.0,0.006475596832934416
813.0,0.00656376950238835
812.0,0.006651960076740071
811.0,0.006696062080525422
810.0,0.00656376950238835
809.0,0.006431517210272464
808.0,0.006343371384537999
807.0,0.006343371384537999
806.0,0.006387442061109638
805.0,0.006387442061109638
804.0,0.006299305179649828
803.0,0.00621118618129457
802.0,0.006079041198713275
801.0,0.006035001804881146
800.0,0.00612308505878878
799.0,0.00625524344553785
798.0,0.006299305179649828
797.0,0.00625524344553785
796.0,0.006167133386013823
795.0,0.006079041198713275
794.0,0.00612308505878878
793.0,0.00625524344553785
792.0,0.006431517210272464
791.0,0.006519680930003435
790.0,0.006431517210272464
789.0,0.006299305179649828
788.0,0.00621118618129457
787.0,0.00625524344553785
786.0,0.006387442061109638
785.0,0.006607862550997545
784.0,0.006784279525863024
783.0,0.006916639301937977
782.0,0.007093181776687496
781.0,0.007358130121602358
780.0,0.007667440952535687
779.0,0.007888512213050314
778.0,0.007888512213050314
777.0,0.007800070204414977
776.0,0.007800070204414977
775.0,0.007976972236149349
774.0,0.008375265465994541
773.0,0.008862564879688284
772.0,0.00939478857608056
771.0,0.009794384815193347
770.0,0.009927665307847056
769.0,0.009883233932095559
768.0,0.009883233932095559
767.0,0.010194349063173958
766.0,0.01077272626946324
765.0,0.011619434777991433
764.0,0.012512493866907004
763.0,0.013317820220494436
762.0,0.01385553528947936
761.0,0.014214382227394795
760.0,0.01452861671041239
759.0,0.014977917890464765
758.0,0.015697768020096703
757.0,0.016554142658660398
756.0,0.01727661233145472
755.0,0.01759307113620534
754.0,0.017457417697056554
753.0,0.017186237868137555
752.0,0.017005545341335804
751.0,0.016870075265299933
750.0,0.016689514205884493
749.0,0.016418813294209356
748.0,0.01628352608625061
747.0,0.01632861713980338
746.0,0.016418813294209356
745.0,0.016418813294209356
744.0,0.01628352608625061
743.0,0.016148281008528276
742.0,0.015922966097169144
741.0,0.015652742414136167
740.0,0.01538268676325183
739.0,0.015067833932588037
738.0,0.014753209197138295
737.0,0.014438812226654996
736.0,0.014124642691606404
735.0,0.013631406429727155
734.0,0.013049212141483357
733.0,0.012467797270160563
732.0,0.012021084124518078
731.0,0.011664044143949504
730.0,0.011307297450183107
729.0,0.01086177578421088
728.0,0.010505687227290839
727.0,0.01023881228122181
726.0,0.010105436281226954
725.0,0.009972101229705377
724.0,0.009794384815193347
723.0,0.009705553871561357
722.0,0.009883233932095559
721.0,0.01046119667949763
720.0,0.011307297450183107
719.0,0.01215504982870197
718.0,0.012691326268817527
717.0,0.012914970375878188
716.0,0.012914970375878188
715.0,0.013004460275618523
714.0,0.013452186585275916
713.0,0.014124642691606404
712.0,0.014618439768003144
711.0,0.014663358264387139
710.0,0.014349026309051105
709.0,0.013990068146738865
708.0,0.01381070026317599
707.0,0.013900374944870508
706.0,0.014169510141607944
705.0,0.014573525916998342
704.0,0.015022873584506602
703.0,0.015247721884586563
702.0,0.015202742910707112
701.0,0.015157768594724175
700.0,0.015292705517326866
699.0,0.015517693597737248
698.0,0.015562705203923999
697.0,0.015427684378367834
696.0,0.01538268676325183
695.0,0.015607721475734415
694.0,0.016013078034810446
693.0,0.016418813294209356
692.0,0.016599261819461697
691.0,0.016418813294209356
690.0,0.016148281008528276
689.0,0.016058141016111804
688.0,0.016238439713835096
687.0,0.01646391839700767
686.0,0.01632861713980338
685.0,0.01578783323856614
684.0,0.014977917890464765
683.0,0.014349026309051105
682.0,0.014079779876432497
681.0,0.014259258949925524
680.0,0.01452861671041239
679.0,0.014663358264387139
678.0,0.014843078722943437
677.0,0.01547268665620738
676.0,0.016554142658660398
675.0,0.017457417697056554
674.0,0.017412209298337533
673.0,0.01646391839700767
672.0,0.01547268665620738
671.0,0.015427684378367834
670.0,0.017050711425501408
669.0,0.019860222254245663
668.0,0.02140867317992523
667.0,0.019814763052665052
666.0,0.01677978535189717
665.0,0.014259258949925524
664.0,0.013093968619278806
663.0,0.013452186585275916
662.0,0.014618439768003144
661.0,0.015697768020096703
660.0,0.01632861713980338
659.0,0.016373712875465518
658.0,0.016058141016111804
657.0,0.015742798294583915
656.0,0.015652742414136167
655.0,0.015742798294583915
654.0,0.015517693597737248
653.0,0.01452861671041239
652.0,0.012870232340102872
651.0,0.011441043121384498
650.0,0.011039929609661936
649.0,0.011753276624621556
648.0,0.013049212141483357
647.0,0.014259258949925524
646.0,0.014888020460646079
645.0,0.014888020460646079
644.0,0.014573525916998342
643.0,0.014618439768003144
642.0,0.01538268676325183
641.0,0.016103208673694303
640.0,0.015697768020096703
639.0,0.014079779876432497
638.0,0.012378417874516323
637.0,0.011619434777991433
636.0,0.011797899741219142
635.0,0.012199714248127602
634.0,0.012512493866907004
633.0,0.012691326268817527
632.0,0.012825498912458322
631.0,0.012959713020733288
630.0,0.013541787262693505
629.0,0.014753209197138295
628.0,0.015877917138889863
627.0,0.016193358021584725
626.0,0.015652742414136167
625.0,0.014753209197138295
624.0,0.01385553528947936
623.0,0.012959713020733288
622.0,0.012423105273012602
621.0,0.012423105273012602
620.0,0.012557195064198723
619.0,0.012289056869694281
618.0,0.011574829993696856
617.0,0.010995384301463185
616.0,0.010728208358306901
615.0,0.010327752376126709
614.0,0.00974996707218323
613.0,0.009306039320248427
612.0,0.009439170005980158
611.0,0.010149890396819572
610.0,0.011708658092512314
609.0,0.014079779876432497
608.0,0.016644385668211692
607.0,0.018181392829336396
606.0,0.017728766960431575
605.0,0.015157768594724175
604.0,0.011039929609661936
603.0,0.006828394969235152
602.0,0.004408675747646695
601.0,0.004979393875242044
600.0,0.007711646202907652
