cm-1,A
4000.0,0.036873558918095295
3999.0,0.036731748473764814
3998.0,0.03663723389626394
3997.0,0.03649550058570927
3996.0,0.03635381351515665
3995.0,0.03621217265444465
3994.0,0.03616496929785207
3993.0,0.03621217265444465
3992.0,0.03616496929785207
3991.0,0.03635381351515665
3990.0,0.03649550058570927
3989.0,0.03649550058570927
3988.0,0.03644826642590382
3987.0,0.03630659476198117
3986.0,0.03616496929785207
3985.0,0.036117771071222604
3984.0,0.036117771071222604
3983.0,0.03625938114211591
3982.0,0.036401037402758574
3981.0,0.03644826642590382
3980.0,0.03644826642590382
3979.0,0.03644826642590382
3978.0,0.03644826642590382
3977.0,0.036542739883292485
3976.0,0.03668448861388862
3975.0,0.03682628362474838
3974.0,0.036873558918095295
3973.0,0.03682628362474838
3972.0,0.03663723389626394
3971.0,0.03644826642590382
3970.0,0.03630659476198117
3969.0,0.03621217265444465
3968.0,0.03621217265444465
3967.0,0.03625938114211591
3966.0,0.03625938114211591
3965.0,0.03616496929785207
3964.0,0.03597620715996652
3963.0,0.03583468937826462
3962.0,0.03588185684851508
3961.0,0.036117771071222604
3960.0,0.03649550058570927
3959.0,0.03682628362474838
3958.0,0.03701541568300293
3957.0,0.037062711569998186
3956.0,0.03692083935817303
3955.0,0.036779013477011624
3954.0,0.03668448861388862
3953.0,0.03668448861388862
3952.0,0.03668448861388862
3951.0,0.03668448861388862
3950.0,0.03668448861388862
3949.0,0.03663723389626394
3948.0,0.036542739883292485
3947.0,0.03625938114211591
3946.0,0.03597620715996652
3945.0,0.03583468937826462
3944.0,0.03597620715996652
3943.0,0.03625938114211591
3942.0,0.036542739883292485
3941.0,0.03663723389626394
3940.0,0.036731748473764814
3939.0,0.0369681249461018
3938.0,0.0371573187987575
3937.0,0.03720463014276687
3936.0,0.0369681249461018
3935.0,0.03668448861388862
3934.0,0.036542739883292485
3933.0,0.036542739883292485
3932.0,0.03668448861388862
3931.0,0.03682628362474838
3930.0,0.03692083935817303
3929.0,0.03682628362474838
3928.0,0.03663723389626394
3927.0,0.036401037402758574
3926.0,0.03630659476198117
3925.0,0.03625938114211591
3924.0,0.03621217265444465
3923.0,0.0360705779734416
3922.0,0.03592902944204468
3921.0,0.03592902944204468
3920.0,0.03597620715996652
3919.0,0.03597620715996652
3918.0,0.03597620715996652
3917.0,0.0360705779734416
3916.0,0.03621217265444465
3915.0,0.03625938114211591
3914.0,0.03644826642590382
3913.0,0.03682628362474838
3912.0,0.037346595106788616
3911.0,0.03767802727041558
3910.0,0.03782014709123227
3909.0,0.03763066432997886
3908.0,0.037251946641359446
3907.0,0.036779013477011624
3906.0,0.036401037402758574
3905.0,0.03621217265444465
3904.0,0.03616496929785207
3903.0,0.03602339000339416
3902.0,0.035740369803151095
3901.0,0.035740369803151095
3900.0,0.03616496929785207
3899.0,0.036779013477011624
3898.0,0.0371100126082089
3897.0,0.0371100126082089
3896.0,0.037062711569998186
3895.0,0.037062711569998186
3894.0,0.0371100126082089
3893.0,0.03720463014276687
3892.0,0.037488606492403154
3891.0,0.03772539537668518
3890.0,0.037488606492403154
3889.0,0.036779013477011624
3888.0,0.03644826642590382
3887.0,0.03682628362474838
3886.0,0.037346595106788616
3885.0,0.03739392707587297
3884.0,0.03692083935817303
3883.0,0.03644826642590382
3882.0,0.03658998431977123
3881.0,0.03720463014276687
3880.0,0.03767802727041558
3879.0,0.03767802727041558
3878.0,0.037346595106788616
3877.0,0.0371573187987575
3876.0,0.037346595106788616
3875.0,0.03744126420403626
3874.0,0.03692083935817303
3873.0,0.03592902944204468
3872.0,0.03517488211661135
3871.0,0.03522197797762394
3870.0,0.03588185684851508
3869.0,0.03616496929785207
3868.0,0.03583468937826462
3867.0,0.03559892883726867
3866.0,0.03616496929785207
3865.0,0.036779013477011624
3864.0,0.036779013477011624
3863.0,0.03649550058570927
3862.0,0.03649550058570927
3861.0,0.03668448861388862
3860.0,0.03682628362474838
3859.0,0.036731748473764814
3858.0,0.03644826642590382
3857.0,0.036117771071222604
3856.0,0.03578752703018084
3855.0,0.035693217696063595
3854.0,0.03621217265444465
3853.0,0.037346595106788616
3852.0,0.03786753070176463
3851.0,0.037251946641359446
3850.0,0.037251946641359446
3849.0,0.038057116858612794
3848.0,0.03838909190871931
3847.0,0.038057116858612794
3846.0,0.03753595394209874
3845.0,0.037251946641359446
3844.0,0.037062711569998186
3843.0,0.03682628362474838
3842.0,0.036401037402758574
3841.0,0.03588185684851508
3840.0,0.03555179208333925
3839.0,0.03550466044490741
3838.0,0.035646070707806565
3837.0,0.035740369803151095
3836.0,0.03578752703018084
3835.0,0.03592902944204468
3834.0,0.03630659476198117
3833.0,0.036873558918095295
3832.0,0.037346595106788616
3831.0,0.037583306554248797
3830.0,0.03753595394209874
3829.0,0.037488606492403154
3828.0,0.037488606492403154
3827.0,0.03744126420403626
3826.0,0.037062711569998186
3825.0,0.03630659476198117
3824.0,0.03578752703018084
3823.0,0.03597620715996652
3822.0,0.03668448861388862
3821.0,0.0371573187987575
3820.0,0.03682628362474838
3819.0,0.03578752703018084
3818.0,0.03559892883726867
3817.0,0.036731748473764814
3816.0,0.03796231343498735
3815.0,0.03810452633214956
3814.0,0.03744126420403626
3813.0,0.03720463014276687
3812.0,0.03786753070176463
3811.0,0.038436537637930535
3810.0,0.038436537637930535
3809.0,0.03810452633214956
3808.0,0.03800971255993524
3807.0,0.03810452633214956
3806.0,0.03777276864991497
3805.0,0.03682628362474838
3804.0,0.03621217265444465
3803.0,0.03663723389626394
3802.0,0.037583306554248797
3801.0,0.03824678581321739
3800.0,0.03800971255993524
3799.0,0.03720463014276687
3798.0,0.0371100126082089
3797.0,0.03772539537668518
3796.0,0.038151940981675736
3795.0,0.038199360808321536
3794.0,0.038151940981675736
3793.0,0.03838909190871931
3792.0,0.038816290187564384
3791.0,0.03905380426616856
3790.0,0.03905380426616856
3789.0,0.038958783046687984
3788.0,0.038958783046687984
3787.0,0.039006291057664066
3786.0,0.03919637508823026
3785.0,0.03938654235209116
3784.0,0.039338992729018196
3783.0,0.038958783046687984
3782.0,0.03848398855105106
3781.0,0.03829421599749461
3780.0,0.038341651362284734
3779.0,0.03838909190871931
3778.0,0.03829421599749461
3777.0,0.038151940981675736
3776.0,0.038341651362284734
3775.0,0.03876880295533702
3774.0,0.039006291057664066
3773.0,0.038958783046687984
3772.0,0.038816290187564384
3771.0,0.039006291057664066
3770.0,0.03924390909822728
3769.0,0.03914884628031379
3768.0,0.038673844065289176
3767.0,0.03838909190871931
3766.0,0.038673844065289176
3765.0,0.03914884628031379
3764.0,0.03924390909822728
3763.0,0.038958783046687984
3762.0,0.038673844065289176
3761.0,0.03862637240519895
3760.0,0.03857890593355173
3759.0,0.03848398855105106
3758.0,0.038436537637930535
3757.0,0.038341651362284734
3756.0,0.038057116858612794
3755.0,0.03782014709123227
3754.0,0.03767802727041558
3753.0,0.037583306554248797
3752.0,0.03739392707587297
3751.0,0.037346595106788616
3750.0,0.03763066432997886
3749.0,0.03763066432997886
3748.0,0.0371100126082089
3747.0,0.037062711569998186
3746.0,0.038151940981675736
3745.0,0.03986232513620536
3744.0,0.04105406750606355
3743.0,0.040529297924893015
3742.0,0.039006291057664066
3741.0,0.038436537637930535
3740.0,0.038721320914956836
3739.0,0.03848398855105106
3738.0,0.03777276864991497
3737.0,0.037251946641359446
3736.0,0.03720463014276687
3735.0,0.037346595106788616
3734.0,0.03739392707587297
3733.0,0.037583306554248797
3732.0,0.03796231343498735
3731.0,0.038199360808321536
3730.0,0.03824678581321739
3729.0,0.03829421599749461
3728.0,0.038531444649213764
3727.0,0.038721320914956836
3726.0,0.03857890593355173
3725.0,0.03829421599749461
3724.0,0.038199360808321536
3723.0,0.03838909190871931
3722.0,0.03848398855105106
3721.0,0.038341651362284734
3720.0,0.03810452633214956
3719.0,0.03810452633214956
3718.0,0.03838909190871931
3717.0,0.03857890593355173
3716.0,0.038531444649213764
3715.0,0.038341651362284734
3714.0,0.03829421599749461
3713.0,0.038199360808321536
3712.0,0.03810452633214956
3711.0,0.03796231343498735
3710.0,0.03786753070176463
3709.0,0.03767802727041558
3708.0,0.03767802727041558
3707.0,0.03782014709123227
3706.0,0.03786753070176463
3705.0,0.03782014709123227
3704.0,0.03782014709123227
3703.0,0.03800971255993524
3702.0,0.038341651362284734
3701.0,0.03862637240519895
3700.0,0.038673844065289176
3699.0,0.03857890593355173
3698.0,0.038673844065289176
3697.0,0.038911280232103884
3696.0,0.038911280232103884
3695.0,0.03862637240519895
3694.0,0.03824678581321739
3693.0,0.03796231343498735
3692.0,0.03763066432997886
3691.0,0.037346595106788616
3690.0,0.03744126420403626
3689.0,0.03800971255993524
3688.0,0.03857890593355173
3687.0,0.03862637240519895
3686.0,0.038721320914956836
3685.0,0.03929144831144349
3684.0,0.040005161671583744
3683.0,0.0402909757535701
3682.0,0.04010041213405646
3681.0,0.039767126871487646
3680.0,0.03952922246570112
3679.0,0.03910132267333921
3678.0,0.038531444649213764
3677.0,0.03829421599749461
3676.0,0.038721320914956836
3675.0,0.039338992729018196
3674.0,0.03910132267333921
3673.0,0.03829421599749461
3672.0,0.038436537637930535
3671.0,0.03938654235209116
3670.0,0.040005161671583744
3669.0,0.040243327009005014
3668.0,0.040243327009005014
3667.0,0.040529297924893015
3666.0,0.04129280891271536
3665.0,0.04200982159316968
3664.0,0.042344833056508824
3663.0,0.042392712939904875
3662.0,0.042344833056508824
3661.0,0.04224908912272074
3660.0,0.042057664554595586
3659.0,0.04186632432376469
3658.0,0.04181850243505214
3657.0,0.04196198390166317
3656.0,0.04215336629184985
3655.0,0.042057664554595586
3654.0,0.04153168163305643
3653.0,0.04105406750606355
3652.0,0.040672354027829094
3651.0,0.04014804520039483
3650.0,0.039719535563357944
3649.0,0.0402909757535701
3648.0,0.041579471947481794
3647.0,0.042344833056508824
3646.0,0.04253638427006878
3645.0,0.04272802000705722
3644.0,0.04301563225723992
3643.0,0.043303435105349175
3642.0,0.04339941178682327
3641.0,0.04325545471730896
3640.0,0.043063586155803746
3639.0,0.04291974034210022
3638.0,0.04282386959515394
3637.0,0.04263219156847242
3636.0,0.04248848854552012
3635.0,0.04248848854552012
3634.0,0.04248848854552012
3633.0,0.04210551278710151
3632.0,0.041579471947481794
3631.0,0.04124505013091051
3630.0,0.041340572947066834
3629.0,0.04186632432376469
3628.0,0.042344833056508824
3627.0,0.042057664554595586
3626.0,0.041627267521392675
3625.0,0.04186632432376469
3624.0,0.04224908912272074
3623.0,0.04210551278710151
3622.0,0.04167506835594681
3621.0,0.041197296600497646
3620.0,0.04086316882962593
3619.0,0.040529297924893015
3618.0,0.040243327009005014
3617.0,0.040005161671583744
3616.0,0.04010041213405646
3615.0,0.04062466342415694
3614.0,0.04124505013091051
3613.0,0.04167506835594681
3612.0,0.0417706858116178
3611.0,0.04172287445230238
3610.0,0.04186632432376469
3609.0,0.04224908912272074
3608.0,0.04263219156847242
3607.0,0.04282386959515394
3606.0,0.04268010314465909
3605.0,0.04248848854552012
3604.0,0.042344833056508824
3603.0,0.04224908912272074
3602.0,0.04210551278710151
3601.0,0.04196198390166317
3600.0,0.04181850243505214
3599.0,0.041579471947481794
3598.0,0.04124505013091051
3597.0,0.04105406750606355
3596.0,0.041101805289228244
3595.0,0.041436116778032606
3594.0,0.04196198390166317
3593.0,0.042344833056508824
3592.0,0.042392712939904875
3591.0,0.04229695845116854
3590.0,0.04229695845116854
3589.0,0.04244059810252043
3588.0,0.04272802000705722
3587.0,0.043063586155803746
3586.0,0.04315950984076644
3585.0,0.04301563225723992
3584.0,0.0431115453499229
3583.0,0.04344740808260106
3582.0,0.04383156952463674
3581.0,0.044167989767578186
3580.0,0.044456557540257124
3579.0,0.04474531717982
3578.0,0.04488976902944808
3577.0,0.04488976902944808
3576.0,0.044793462458058375
3575.0,0.04469717723830824
3574.0,0.04464904263234004
3573.0,0.04460091336073302
3572.0,0.04440844959427559
3571.0,0.044071843103049346
3570.0,0.04359142880416744
3569.0,0.043063586155803746
3568.0,0.04268010314465909
3567.0,0.04268010314465909
3566.0,0.0431115453499229
3565.0,0.04363944632667782
3564.0,0.044071843103049346
3563.0,0.04455278942230456
3562.0,0.04508244626504121
3561.0,0.045516282844447975
3560.0,0.04580574818413763
3559.0,0.04599883231842972
3558.0,0.046047116768076934
3557.0,0.046143701775014145
3556.0,0.04633693625290869
3555.0,0.04643358574299339
3554.0,0.04643358574299339
3553.0,0.04643358574299339
3552.0,0.04638525830935958
3551.0,0.04638525830935958
3550.0,0.04638525830935958
3549.0,0.04628861957244457
3548.0,0.046192002334692894
3547.0,0.046047116768076934
3546.0,0.04580574818413763
3545.0,0.045660991397539874
3544.0,0.045660991397539874
3543.0,0.04575749056067524
3542.0,0.04595055323640551
3541.0,0.04609540658654021
3540.0,0.046192002334692894
3539.0,0.04638525830935958
3538.0,0.04657860031896477
3537.0,0.04686877481655505
3536.0,0.04715914332429838
3535.0,0.04740126547022694
3534.0,0.047595060422975566
3533.0,0.04778894189133087
3532.0,0.04803141550708934
3531.0,0.04817696468408794
3530.0,0.04817696468408794
3529.0,0.04803141550708934
3528.0,0.0478374257855374
3527.0,0.04778894189133087
3526.0,0.047934409814949674
3525.0,0.048225491918274965
3524.0,0.0486139051197072
3523.0,0.04900266601119507
3522.0,0.04939177521576932
3521.0,0.04963514562387683
3520.0,0.04982994019179987
3519.0,0.04997609347667353
3518.0,0.050171041064686284
3517.0,0.050414848673348
3516.0,0.0506099933550872
3515.0,0.050707598587974356
3514.0,0.0506099933550872
3513.0,0.050463626623857394
3512.0,0.050463626623857394
3511.0,0.05075640943173498
3510.0,0.051244819831730126
3509.0,0.05173378011970464
3508.0,0.05212534510230182
3507.0,0.05227227303668425
3506.0,0.052419250695677544
3505.0,0.05256627811294923
3504.0,0.052762392129333646
3503.0,0.05290953578037816
3502.0,0.05300765925162776
3501.0,0.05300765925162776
3500.0,0.05295859474477971
3499.0,0.05290953578037816
3498.0,0.05281143447390635
3497.0,0.052762392129333646
3496.0,0.05271335532220167
3495.0,0.05261529831525902
3494.0,0.052419250695677544
3493.0,0.05222329153526162
3492.0,0.05207638016827354
3491.0,0.05192951848105887
3490.0,0.05178270644002936
3489.0,0.05148923116234294
3488.0,0.05114709380028648
3487.0,0.050902874887084115
3486.0,0.050805225762017736
3485.0,0.05075640943173498
3484.0,0.050707598587974356
3483.0,0.05051241005349638
3482.0,0.050317309204795935
3481.0,0.05021979163799939
3480.0,0.050317309204795935
3479.0,0.050463626623857394
3478.0,0.05056119896349576
3477.0,0.05065879322950262
3476.0,0.050805225762017736
3475.0,0.05095170768433621
3474.0,0.051049389754451946
3473.0,0.05100054597304693
3472.0,0.05075640943173498
3471.0,0.050463626623857394
3470.0,0.050171041064686284
3469.0,0.04997609347667353
3468.0,0.04982994019179987
3467.0,0.04982994019179987
3466.0,0.04987865248862655
3465.0,0.04987865248862655
3464.0,0.04987865248862655
3463.0,0.04973253198641148
3462.0,0.04953778109440221
3461.0,0.04939177521576932
3460.0,0.04948910701400333
3459.0,0.04968383607539972
3458.0,0.04987865248862655
3457.0,0.049927370249842395
3456.0,0.04973253198641148
3455.0,0.04953778109440221
3454.0,0.04944043838819989
3453.0,0.04958646063061889
3452.0,0.04973253198641148
3451.0,0.04978123335813667
3450.0,0.04963514562387683
3449.0,0.04948910701400333
3448.0,0.04939177521576932
3447.0,0.04939177521576932
3446.0,0.049294465226138895
3445.0,0.04905128560059957
3444.0,0.04875964967565971
3443.0,0.048565334467987054
3442.0,0.048565334467987054
3441.0,0.048808242065293994
3440.0,0.049148541111453614
3439.0,0.04939177521576932
3438.0,0.04953778109440221
3437.0,0.04963514562387683
3436.0,0.04978123335813667
3435.0,0.04987865248862655
3434.0,0.04987865248862655
3433.0,0.04978123335813667
3432.0,0.04968383607539972
3431.0,0.04968383607539972
3430.0,0.04978123335813667
3429.0,0.049927370249842395
3428.0,0.050073556332087765
3427.0,0.050171041064686284
3426.0,0.050171041064686284
3425.0,0.05012229596312534
3424.0,0.05002482217034632
3423.0,0.049927370249842395
3422.0,0.04982994019179987
3421.0,0.04978123335813667
3420.0,0.04968383607539972
3419.0,0.04963514562387683
3418.0,0.04968383607539972
3417.0,0.04968383607539972
3416.0,0.04963514562387683
3415.0,0.04958646063061889
3414.0,0.04953778109440221
3413.0,0.04958646063061889
3412.0,0.04963514562387683
3411.0,0.04958646063061889
3410.0,0.04948910701400333
3409.0,0.04944043838819989
3408.0,0.04948910701400333
3407.0,0.04953778109440221
3406.0,0.04958646063061889
3405.0,0.04968383607539972
3404.0,0.04978123335813667
3403.0,0.049927370249842395
3402.0,0.049927370249842395
3401.0,0.04982994019179987
3400.0,0.04973253198641148
3399.0,0.04968383607539972
3398.0,0.04968383607539972
3397.0,0.04973253198641148
3396.0,0.04973253198641148
3395.0,0.04968383607539972
3394.0,0.04963514562387683
3393.0,0.04953778109440221
3392.0,0.04948910701400333
3391.0,0.04948910701400333
3390.0,0.04963514562387683
3389.0,0.04987865248862655
3388.0,0.05002482217034632
3387.0,0.05002482217034632
3386.0,0.04978123335813667
3385.0,0.04953778109440221
3384.0,0.04939177521576932
3383.0,0.04934311749548925
3382.0,0.04939177521576932
3381.0,0.04948910701400333
3380.0,0.04953778109440221
3379.0,0.04958646063061889
3378.0,0.04963514562387683
3377.0,0.04978123335813667
3376.0,0.04997609347667353
3375.0,0.05021979163799939
3374.0,0.05036607620073763
3373.0,0.05036607620073763
3372.0,0.050171041064686284
3371.0,0.05002482217034632
3370.0,0.04987865248862655
3369.0,0.04982994019179987
3368.0,0.04982994019179987
3367.0,0.04978123335813667
3366.0,0.04978123335813667
3365.0,0.04978123335813667
3364.0,0.04982994019179987
3363.0,0.04987865248862655
3362.0,0.049927370249842395
3361.0,0.04997609347667353
3360.0,0.050073556332087765
3359.0,0.050171041064686284
3358.0,0.05021979163799939
3357.0,0.050317309204795935
3356.0,0.05036607620073763
3355.0,0.050317309204795935
3354.0,0.05021979163799939
3353.0,0.050171041064686284
3352.0,0.050171041064686284
3351.0,0.05026854768429301
3350.0,0.05036607620073763
3349.0,0.050414848673348
3348.0,0.05056119896349576
3347.0,0.05085404758005607
3346.0,0.05119595406718891
3345.0,0.05139145012356372
3344.0,0.05129369109514803
3343.0,0.05100054597304693
3342.0,0.05065879322950262
3341.0,0.05036607620073763
3340.0,0.050171041064686284
3339.0,0.05012229596312534
3338.0,0.050171041064686284
3337.0,0.05036607620073763
3336.0,0.05056119896349576
3335.0,0.05075640943173498
3334.0,0.05085404758005607
3333.0,0.05100054597304693
3332.0,0.051098239029786274
3331.0,0.051244819831730126
3330.0,0.05134256785867963
3329.0,0.05134256785867963
3328.0,0.05119595406718891
3327.0,0.05095170768433621
3326.0,0.05065879322950262
3325.0,0.05051241005349638
3324.0,0.0506099933550872
3323.0,0.05085404758005607
3322.0,0.05119595406718891
3321.0,0.05144033789103841
3320.0,0.05163594401163074
3319.0,0.05178270644002936
3318.0,0.05188057561946402
3317.0,0.05178270644002936
3316.0,0.0515870342213991
3315.0,0.05134256785867963
3314.0,0.05114709380028648
3313.0,0.051098239029786274
3312.0,0.05114709380028648
3311.0,0.051098239029786274
3310.0,0.051098239029786274
3309.0,0.051049389754451946
3308.0,0.051049389754451946
3307.0,0.051098239029786274
3306.0,0.051244819831730126
3305.0,0.05144033789103841
3304.0,0.0515870342213991
3303.0,0.051684859310652254
3302.0,0.051684859310652254
3301.0,0.05173378011970464
3300.0,0.05188057561946402
3299.0,0.05197846685889629
3298.0,0.05197846685889629
3297.0,0.05178270644002936
3296.0,0.05153812993871654
3295.0,0.05134256785867963
3294.0,0.05114709380028648
3293.0,0.05100054597304693
3292.0,0.051098239029786274
3291.0,0.05134256785867963
3290.0,0.05163594401163074
3289.0,0.05188057561946402
3288.0,0.05197846685889629
3287.0,0.0518316382728683
3286.0,0.05153812993871654
3285.0,0.05114709380028648
3284.0,0.05085404758005607
3283.0,0.05065879322950262
3282.0,0.05065879322950262
3281.0,0.050805225762017736
3280.0,0.051098239029786274
3279.0,0.05139145012356372
3278.0,0.05153812993871654
3277.0,0.05153812993871654
3276.0,0.05148923116234294
3275.0,0.05148923116234294
3274.0,0.05139145012356372
3273.0,0.05129369109514803
3272.0,0.05129369109514803
3271.0,0.05148923116234294
3270.0,0.0518316382728683
3269.0,0.05212534510230182
3268.0,0.05217431555754937
3267.0,0.05197846685889629
3266.0,0.05163594401163074
3265.0,0.05144033789103841
3264.0,0.05148923116234294
3263.0,0.05163594401163074
3262.0,0.05173378011970464
3261.0,0.05178270644002936
3260.0,0.05188057561946402
3259.0,0.05212534510230182
3258.0,0.05222329153526162
3257.0,0.05217431555754937
3256.0,0.05197846685889629
3255.0,0.05178270644002936
3254.0,0.05178270644002936
3253.0,0.0518316382728683
3252.0,0.0518316382728683
3251.0,0.05173378011970464
3250.0,0.0515870342213991
3249.0,0.05153812993871654
3248.0,0.05148923116234294
3247.0,0.05139145012356372
3246.0,0.05129369109514803
3245.0,0.051244819831730126
3244.0,0.05134256785867963
3243.0,0.05153812993871654
3242.0,0.05178270644002936
3241.0,0.052027420754219955
3240.0,0.05222329153526162
3239.0,0.05232126006306337
3238.0,0.05232126006306337
3237.0,0.05227227303668425
3236.0,0.05217431555754937
3235.0,0.05212534510230182
3234.0,0.05207638016827354
3233.0,0.05207638016827354
3232.0,0.05197846685889629
3231.0,0.05178270644002936
3230.0,0.05153812993871654
3229.0,0.05134256785867963
3228.0,0.05139145012356372
3227.0,0.05163594401163074
3226.0,0.05178270644002936
3225.0,0.05178270644002936
3224.0,0.05163594401163074
3223.0,0.05153812993871654
3222.0,0.0515870342213991
3221.0,0.0518316382728683
3220.0,0.05222329153526162
3219.0,0.05256627811294923
3218.0,0.052762392129333646
3217.0,0.05271335532220167
3216.0,0.052419250695677544
3215.0,0.05207638016827354
3214.0,0.05178270644002936
3213.0,0.0515870342213991
3212.0,0.05148923116234294
3211.0,0.05153812993871654
3210.0,0.051684859310652254
3209.0,0.05188057561946402
3208.0,0.05207638016827354
3207.0,0.05217431555754937
3206.0,0.05217431555754937
3205.0,0.05222329153526162
3204.0,0.05232126006306337
3203.0,0.05232126006306337
3202.0,0.05222329153526162
3201.0,0.05197846685889629
3200.0,0.05173378011970464
3199.0,0.05163594401163074
3198.0,0.05163594401163074
3197.0,0.05178270644002936
3196.0,0.0518316382728683
3195.0,0.05178270644002936
3194.0,0.05163594401163074
3193.0,0.05148923116234294
3192.0,0.05144033789103841
3191.0,0.05148923116234294
3190.0,0.05163594401163074
3189.0,0.0518316382728683
3188.0,0.05197846685889629
3187.0,0.05207638016827354
3186.0,0.05197846685889629
3185.0,0.05178270644002936
3184.0,0.0515870342213991
3183.0,0.05144033789103841
3182.0,0.05144033789103841
3181.0,0.05163594401163074
3180.0,0.05192951848105887
3179.0,0.05217431555754937
3178.0,0.05222329153526162
3177.0,0.05212534510230182
3176.0,0.05192951848105887
3175.0,0.05178270644002936
3174.0,0.051684859310652254
3173.0,0.05163594401163074
3172.0,0.05163594401163074
3171.0,0.05178270644002936
3170.0,0.05197846685889629
3169.0,0.052027420754219955
3168.0,0.05197846685889629
3167.0,0.05178270644002936
3166.0,0.051684859310652254
3165.0,0.05163594401163074
3164.0,0.05173378011970464
3163.0,0.05188057561946402
3162.0,0.05197846685889629
3161.0,0.052027420754219955
3160.0,0.052027420754219955
3159.0,0.05197846685889629
3158.0,0.05188057561946402
3157.0,0.05188057561946402
3156.0,0.05207638016827354
3155.0,0.05227227303668425
3154.0,0.052468254304406825
3153.0,0.05256627811294923
3152.0,0.05256627811294923
3151.0,0.05261529831525902
3150.0,0.05256627811294923
3149.0,0.05237025261564554
3148.0,0.05212534510230182
3147.0,0.052027420754219955
3146.0,0.05212534510230182
3145.0,0.05227227303668425
3144.0,0.052419250695677544
3143.0,0.05237025261564554
3142.0,0.05222329153526162
3141.0,0.05207638016827354
3140.0,0.05197846685889629
3139.0,0.05188057561946402
3138.0,0.05178270644002936
3137.0,0.05163594401163074
3136.0,0.05153812993871654
3135.0,0.0515870342213991
3134.0,0.05173378011970464
3133.0,0.052027420754219955
3132.0,0.05227227303668425
3131.0,0.052419250695677544
3130.0,0.05237025261564554
3129.0,0.05217431555754937
3128.0,0.052027420754219955
3127.0,0.052027420754219955
3126.0,0.05217431555754937
3125.0,0.05232126006306337
3124.0,0.052468254304406825
3123.0,0.052468254304406825
3122.0,0.05232126006306337
3121.0,0.05212534510230182
3120.0,0.05188057561946402
3119.0,0.051684859310652254
3118.0,0.05153812993871654
3117.0,0.05148923116234294
3116.0,0.05153812993871654
3115.0,0.051684859310652254
3114.0,0.05192951848105887
3113.0,0.05207638016827354
3112.0,0.05207638016827354
3111.0,0.05192951848105887
3110.0,0.05178270644002936
3109.0,0.05173378011970464
3108.0,0.05188057561946402
3107.0,0.05207638016827354
3106.0,0.05217431555754937
3105.0,0.05222329153526162
3104.0,0.05222329153526162
3103.0,0.05217431555754937
3102.0,0.05212534510230182
3101.0,0.05207638016827354
3100.0,0.05207638016827354
3099.0,0.05212534510230182
3098.0,0.05212534510230182
3097.0,0.05207638016827354
3096.0,0.05197846685889629
3095.0,0.05197846685889629
3094.0,0.05212534510230182
3093.0,0.05237025261564554
3092.0,0.05261529831525902
3091.0,0.05261529831525902
3090.0,0.052468254304406825
3089.0,0.05217431555754937
3088.0,0.05192951848105887
3087.0,0.05178270644002936
3086.0,0.0518316382728683
3085.0,0.05197846685889629
3084.0,0.05217431555754937
3083.0,0.05222329153526162
3082.0,0.05212534510230182
3081.0,0.05192951848105887
3080.0,0.05163594401163074
3079.0,0.05134256785867963
3078.0,0.05114709380028648
3077.0,0.051049389754451946
3076.0,0.05114709380028648
3075.0,0.05134256785867963
3074.0,0.0515870342213991
3073.0,0.05178270644002936
3072.0,0.0518316382728683
3071.0,0.05188057561946402
3070.0,0.05188057561946402
3069.0,0.05197846685889629
3068.0,0.05227227303668425
3067.0,0.0525172634430815
3066.0,0.05261529831525902
3065.0,0.052468254304406825
3064.0,0.05222329153526162
3063.0,0.05197846685889629
3062.0,0.0518316382728683
3061.0,0.0518316382728683
3060.0,0.0518316382728683
3059.0,0.05188057561946402
3058.0,0.05188057561946402
3057.0,0.0518316382728683
3056.0,0.05173378011970464
3055.0,0.051684859310652254
3054.0,0.05173378011970464
3053.0,0.0518316382728683
3052.0,0.05192951848105887
3051.0,0.05197846685889629
3050.0,0.0518316382728683
3049.0,0.0515870342213991
3048.0,0.05129369109514803
3047.0,0.05114709380028648
3046.0,0.05119595406718891
3045.0,0.05129369109514803
3044.0,0.05129369109514803
3043.0,0.051098239029786274
3042.0,0.05085404758005607
3041.0,0.050707598587974356
3040.0,0.05065879322950262
3039.0,0.050707598587974356
3038.0,0.050902874887084115
3037.0,0.051098239029786274
3036.0,0.051244819831730126
3035.0,0.05114709380028648
3034.0,0.05095170768433621
3033.0,0.050902874887084115
3032.0,0.05100054597304693
3031.0,0.051244819831730126
3030.0,0.05148923116234294
3029.0,0.051684859310652254
3028.0,0.051684859310652254
3027.0,0.051684859310652254
3026.0,0.051684859310652254
3025.0,0.051684859310652254
3024.0,0.0518316382728683
3023.0,0.05217431555754937
3022.0,0.052762392129333646
3021.0,0.0534986094304124
3020.0,0.05433450056786593
3019.0,0.0549747987575373
3018.0,0.05546797900801881
3017.0,0.05586292684190197
3016.0,0.05635711724787096
3015.0,0.056950888991593285
3014.0,0.057743849580535134
3013.0,0.058737090681050264
3012.0,0.05978244440026481
3011.0,0.06093025007657582
3010.0,0.062131203436140536
3009.0,0.06343599486473406
3008.0,0.06484555278383164
3007.0,0.06646209802829528
3006.0,0.06803388527182741
3005.0,0.06956040523329987
3004.0,0.0710411591191702
3003.0,0.07262963696097646
3002.0,0.07427547306393745
3001.0,0.07613452481449845
3000.0,0.07805354577058976
2999.0,0.07998108397108505
2998.0,0.08175990977858505
2997.0,0.08333553545860273
2996.0,0.08460016478773014
2995.0,0.08549817717268593
2994.0,0.08602728844902896
2993.0,0.08602728844902896
2992.0,0.08555105930144569
2991.0,0.08454739831152125
2990.0,0.08312512146131668
2989.0,0.08149786036382611
2988.0,0.07987667370927598
2987.0,0.07820951434181311
2986.0,0.07660053384128362
2985.0,0.07499749231902242
2984.0,0.07355465218161061
2983.0,0.07232173586200852
2982.0,0.07129697256940304
2981.0,0.07047889936889606
2980.0,0.06981534770138009
2979.0,0.0692037370166998
2978.0,0.06864384953207203
2977.0,0.06823711151882228
2976.0,0.06788152797087754
2975.0,0.06752623532284674
2974.0,0.06722192993944942
2973.0,0.06686717627326577
2972.0,0.06656333217371957
2971.0,0.0665127121512945
2970.0,0.06671522765130522
2969.0,0.06712054217620067
2968.0,0.06752623532284674
2967.0,0.06788152797087754
2966.0,0.06823711151882228
2965.0,0.06864384953207203
2964.0,0.06905096883247697
2963.0,0.06950943469373039
2962.0,0.0699173666076287
2961.0,0.07037674848475972
2960.0,0.07088774334533943
2959.0,0.07145053299833615
2958.0,0.07206531825882068
2957.0,0.07268097504034388
2956.0,0.07329750581735506
2955.0,0.07386342893255127
2954.0,0.07448164182257
2953.0,0.07535895258283709
2952.0,0.07660053384128362
2951.0,0.07810552907089763
2950.0,0.07961575782164254
2949.0,0.08102656950704579
2948.0,0.0823369756726251
2947.0,0.08359869639612438
2946.0,0.08470571697731355
2945.0,0.08570974433405087
2944.0,0.08634506491338012
2943.0,0.08666307406737683
2942.0,0.08661005636824437
2941.0,0.08618614761628329
2940.0,0.08549817717268593
2939.0,0.08460016478773014
2938.0,0.08344078069888616
2937.0,0.08228448344050654
2936.0,0.08118360963962057
2935.0,0.08029446545087904
2934.0,0.07961575782164254
2933.0,0.07914650387874067
2932.0,0.0788860261633193
2931.0,0.07878187880504961
2930.0,0.07867775641617802
2929.0,0.07857365898473456
2928.0,0.07841755960658348
2927.0,0.07826151631540124
2926.0,0.07805354577058976
2925.0,0.0777417765670334
2924.0,0.07727454200674
2923.0,0.07665234350217442
2922.0,0.07592757008963713
2921.0,0.07520400420208784
2920.0,0.07458476291575367
2919.0,0.07406940213152868
2918.0,0.07365755337434488
2917.0,0.07319468988839395
2916.0,0.07262963696097646
2915.0,0.07191154033502922
2914.0,0.07114346641808922
2913.0,0.07042782092345012
2912.0,0.06981534770138009
2911.0,0.06925467168888666
2910.0,0.06864384953207203
2909.0,0.06803388527182741
2908.0,0.06767846801070698
2907.0,0.06747550294945781
2906.0,0.06742477650170953
2905.0,0.06737405597821788
2904.0,0.06722192993944942
2903.0,0.06706985716921054
2902.0,0.06696850489759454
2901.0,0.06681652082538614
2900.0,0.06656333217371957
2899.0,0.06636088747507496
2898.0,0.06620911585658007
2897.0,0.06615853710127872
2896.0,0.06610796423578891
2895.0,0.0659562809644747
2894.0,0.06575411897692884
2893.0,0.0655520510510299
2892.0,0.06545105233385295
2891.0,0.0654005617819271
2890.0,0.06529959828457499
2889.0,0.06524912533642091
2888.0,0.06519865825346338
2887.0,0.06529959828457499
2886.0,0.06550154875643233
2885.0,0.06575411897692884
2884.0,0.06605739725873905
2883.0,0.06641148980334699
2882.0,0.06671522765130522
2881.0,0.06696850489759454
2880.0,0.0671712330991534
2879.0,0.06727263269847072
2878.0,0.06732334137759932
2877.0,0.06737405597821788
2876.0,0.06737405597821788
2875.0,0.06727263269847072
2874.0,0.06712054217620067
2873.0,0.06681652082538614
2872.0,0.06641148980334699
2871.0,0.0659562809644747
2870.0,0.0654005617819271
2869.0,0.06489597884855036
2868.0,0.06449273417528723
2867.0,0.06424089625468832
2866.0,0.06414020196211956
2865.0,0.06414020196211956
2864.0,0.06419054619006714
2863.0,0.06429125215733666
2862.0,0.06459351024765114
2861.0,0.06494641076893504
2860.0,0.06524912533642091
2859.0,0.06545105233385295
2858.0,0.06550154875643233
2857.0,0.06550154875643233
2856.0,0.0655520510510299
2855.0,0.06570359318059427
2854.0,0.0659562809644747
2853.0,0.06610796423578891
2852.0,0.06615853710127872
2851.0,0.06610796423578891
2850.0,0.0658551882075229
2849.0,0.06550154875643233
2848.0,0.06509774167768612
2847.0,0.06464390705442691
2846.0,0.06414020196211956
2845.0,0.06358680028852026
2844.0,0.06298389253518577
2843.0,0.06243196139961715
2842.0,0.06203099704854709
2841.0,0.061780582187257016
2840.0,0.06173051653708872
2839.0,0.06173051653708872
2838.0,0.061680456657844385
2837.0,0.06148027482350815
2836.0,0.06123017721688262
2835.0,0.060880282351513104
2834.0,0.06063052992534024
2833.0,0.060530669156469985
2832.0,0.06063052992534024
2831.0,0.060880282351513104
2830.0,0.06108018775522828
2829.0,0.06118017497378969
2828.0,0.06123017721688262
2827.0,0.06128018521761747
2826.0,0.06128018521761747
2825.0,0.06128018521761747
2824.0,0.06118017497378969
2823.0,0.0611301784870133
2822.0,0.0611301784870133
2821.0,0.0611301784870133
2820.0,0.06103020277710969
2819.0,0.06078036414518184
2818.0,0.060530669156469985
2817.0,0.06038092104330195
2816.0,0.060231224546650086
2815.0,0.06003170944866376
2814.0,0.05988213325228142
2813.0,0.05983228596592505
2812.0,0.05993198626064755
2811.0,0.060081579630943294
2810.0,0.060231224546650086
2809.0,0.06033101647767336
2808.0,0.06038092104330195
2807.0,0.06028111764589528
2806.0,0.0601813371786204
2805.0,0.060131455540490375
2804.0,0.06003170944866376
2803.0,0.05998184499233683
2802.0,0.05993198626064755
2801.0,0.05988213325228142
2800.0,0.05993198626064755
2799.0,0.05993198626064755
2798.0,0.05983228596592505
2797.0,0.05973260855398799
2796.0,0.05963295401433477
2795.0,0.05963295401433477
2794.0,0.05973260855398799
2793.0,0.05978244440026481
2792.0,0.05973260855398799
2791.0,0.0595831353183347
2790.0,0.05938391766259232
2789.0,0.05923456436878238
2788.0,0.059135024033278416
2787.0,0.059135024033278416
2786.0,0.059135024033278416
2785.0,0.05923456436878238
2784.0,0.05943371350990989
2783.0,0.05963295401433477
2782.0,0.05968277842578207
2781.0,0.05963295401433477
2780.0,0.05953332233647113
2779.0,0.05943371350990989
2778.0,0.05933412752417122
2777.0,0.05923456436878238
2776.0,0.05908526241971446
2775.0,0.058936011780097886
2774.0,0.058936011780097886
2773.0,0.059035506507200575
2772.0,0.05918479134919874
2771.0,0.05933412752417122
2770.0,0.05938391766259232
2769.0,0.05933412752417122
2768.0,0.05928434309333741
2767.0,0.05928434309333741
2766.0,0.05933412752417122
2765.0,0.05943371350990989
2764.0,0.05948351506743288
2763.0,0.05943371350990989
2762.0,0.05933412752417122
2761.0,0.05928434309333741
2760.0,0.05928434309333741
2759.0,0.05918479134919874
2758.0,0.05898575629443026
2757.0,0.058737090681050264
2756.0,0.05863766428823891
2755.0,0.058737090681050264
2754.0,0.058786812414678646
2753.0,0.058836539841526925
2752.0,0.0588862729628985
2751.0,0.058936011780097886
2750.0,0.059035506507200575
2749.0,0.059135024033278416
2748.0,0.05923456436878238
2747.0,0.05923456436878238
2746.0,0.05923456436878238
2745.0,0.05928434309333741
2744.0,0.05938391766259232
2743.0,0.05948351506743288
2742.0,0.05948351506743288
2741.0,0.05948351506743288
2740.0,0.05948351506743288
2739.0,0.05948351506743288
2738.0,0.05943371350990989
2737.0,0.05943371350990989
2736.0,0.05948351506743288
2735.0,0.05953332233647113
2734.0,0.0595831353183347
2733.0,0.05953332233647113
2732.0,0.05938391766259232
2731.0,0.05923456436878238
2730.0,0.059035506507200575
2729.0,0.059035506507200575
2728.0,0.05923456436878238
2727.0,0.05943371350990989
2726.0,0.05953332233647113
2725.0,0.05953332233647113
2724.0,0.05948351506743288
2723.0,0.05948351506743288
2722.0,0.05953332233647113
2721.0,0.05968277842578207
2720.0,0.05988213325228142
2719.0,0.06003170944866376
2718.0,0.05998184499233683
2717.0,0.05983228596592505
2716.0,0.05968277842578207
2715.0,0.05963295401433477
2714.0,0.05973260855398799
2713.0,0.05983228596592505
2712.0,0.05988213325228142
2711.0,0.05983228596592505
2710.0,0.05968277842578207
2709.0,0.0595831353183347
2708.0,0.05963295401433477
2707.0,0.05978244440026481
2706.0,0.05988213325228142
2705.0,0.05988213325228142
2704.0,0.05973260855398799
2703.0,0.0595831353183347
2702.0,0.05948351506743288
2701.0,0.05953332233647113
2700.0,0.05963295401433477
2699.0,0.05963295401433477
2698.0,0.05953332233647113
2697.0,0.05938391766259232
2696.0,0.05928434309333741
2695.0,0.05923456436878238
2694.0,0.05928434309333741
2693.0,0.05938391766259232
2692.0,0.05953332233647113
2691.0,0.05973260855398799
2690.0,0.05988213325228142
2689.0,0.05998184499233683
2688.0,0.06003170944866376
2687.0,0.06003170944866376
2686.0,0.06003170944866376
2685.0,0.06003170944866376
2684.0,0.05998184499233683
2683.0,0.05993198626064755
2682.0,0.05993198626064755
2681.0,0.05993198626064755
2680.0,0.05998184499233683
2679.0,0.060081579630943294
2678.0,0.060131455540490375
2677.0,0.060231224546650086
2676.0,0.06033101647767336
2675.0,0.060430831344098435
2674.0,0.060430831344098435
2673.0,0.06038092104330195
2672.0,0.06038092104330195
2671.0,0.060430831344098435
2670.0,0.060430831344098435
2669.0,0.060430831344098435
2668.0,0.06038092104330195
2667.0,0.060430831344098435
2666.0,0.06048074738138154
2665.0,0.060530669156469985
2664.0,0.06058059667068294
2663.0,0.06063052992534024
2662.0,0.06058059667068294
2661.0,0.060430831344098435
2660.0,0.06033101647767336
2659.0,0.06028111764589528
2658.0,0.06033101647767336
2657.0,0.06033101647767336
2656.0,0.06033101647767336
2655.0,0.06033101647767336
2654.0,0.060430831344098435
2653.0,0.06058059667068294
2652.0,0.060730413661268745
2651.0,0.060730413661268745
2650.0,0.06068046892176193
2649.0,0.06058059667068294
2648.0,0.06058059667068294
2647.0,0.06058059667068294
2646.0,0.06063052992534024
2645.0,0.06063052992534024
2644.0,0.06068046892176193
2643.0,0.06068046892176193
2642.0,0.06063052992534024
2641.0,0.06058059667068294
2640.0,0.06063052992534024
2639.0,0.060730413661268745
2638.0,0.06078036414518184
2637.0,0.060730413661268745
2636.0,0.06058059667068294
2635.0,0.06038092104330195
2634.0,0.06028111764589528
2633.0,0.06028111764589528
2632.0,0.06038092104330195
2631.0,0.060430831344098435
2630.0,0.06048074738138154
2629.0,0.060530669156469985
2628.0,0.06058059667068294
2627.0,0.060730413661268745
2626.0,0.06093025007657582
2625.0,0.06108018775522828
2624.0,0.0611301784870133
2623.0,0.0611301784870133
2622.0,0.06108018775522828
2621.0,0.06108018775522828
2620.0,0.06118017497378969
2619.0,0.06118017497378969
2618.0,0.06103020277710969
2617.0,0.06078036414518184
2616.0,0.06058059667068294
2615.0,0.060430831344098435
2614.0,0.06038092104330195
2613.0,0.06033101647767336
2612.0,0.06033101647767336
2611.0,0.06038092104330195
2610.0,0.06048074738138154
2609.0,0.06058059667068294
2608.0,0.060730413661268745
2607.0,0.060880282351513104
2606.0,0.06093025007657582
2605.0,0.06098022355133348
2604.0,0.06098022355133348
2603.0,0.06093025007657582
2602.0,0.060880282351513104
2601.0,0.06083032037482261
2600.0,0.060730413661268745
2599.0,0.06068046892176193
2598.0,0.06068046892176193
2597.0,0.06078036414518184
2596.0,0.060880282351513104
2595.0,0.06103020277710969
2594.0,0.06108018775522828
2593.0,0.06108018775522828
2592.0,0.0611301784870133
2591.0,0.0611301784870133
2590.0,0.06118017497378969
2589.0,0.0611301784870133
2588.0,0.06108018775522828
2587.0,0.06103020277710969
2586.0,0.06103020277710969
2585.0,0.06108018775522828
2584.0,0.06118017497378969
2583.0,0.0611301784870133
2582.0,0.06103020277710969
2581.0,0.060880282351513104
2580.0,0.060880282351513104
2579.0,0.06098022355133348
2578.0,0.06118017497378969
2577.0,0.06118017497378969
2576.0,0.06103020277710969
2575.0,0.060880282351513104
2574.0,0.06083032037482261
2573.0,0.06098022355133348
2572.0,0.0611301784870133
2571.0,0.06123017721688262
2570.0,0.0611301784870133
2569.0,0.06103020277710969
2568.0,0.06093025007657582
2567.0,0.06098022355133348
2566.0,0.06108018775522828
2565.0,0.06123017721688262
2564.0,0.06128018521761747
2563.0,0.06123017721688262
2562.0,0.0611301784870133
2561.0,0.06103020277710969
2560.0,0.06103020277710969
2559.0,0.06118017497378969
2558.0,0.06118017497378969
2557.0,0.06108018775522828
2556.0,0.06098022355133348
2555.0,0.06098022355133348
2554.0,0.06103020277710969
2553.0,0.06103020277710969
2552.0,0.06098022355133348
2551.0,0.06098022355133348
2550.0,0.06103020277710969
2549.0,0.06118017497378969
2548.0,0.06133019897732073
2547.0,0.06148027482350815
2546.0,0.06153031163235467
2545.0,0.06143024377893891
2544.0,0.06133019897732073
2543.0,0.06133019897732073
2542.0,0.06133019897732073
2541.0,0.061380218497318895
2540.0,0.061380218497318895
2539.0,0.06143024377893891
2538.0,0.06143024377893891
2537.0,0.06148027482350815
2536.0,0.06153031163235467
2535.0,0.06163040254819374
2534.0,0.06173051653708872
2533.0,0.061830653609679764
2532.0,0.061830653609679764
2531.0,0.061780582187257016
2530.0,0.061780582187257016
2529.0,0.06173051653708872
2528.0,0.061780582187257016
2527.0,0.061830653609679764
2526.0,0.061880730805688344
2525.0,0.06198090252378963
2524.0,0.06203099704854709
2523.0,0.06203099704854709
2522.0,0.06193081377661436
2521.0,0.061830653609679764
2520.0,0.06173051653708872
2519.0,0.06163040254819374
2518.0,0.06153031163235467
2517.0,0.06143024377893891
2516.0,0.06143024377893891
2515.0,0.06153031163235467
2514.0,0.06163040254819374
2513.0,0.061680456657844385
2512.0,0.06153031163235467
2511.0,0.061380218497318895
2510.0,0.06133019897732073
2509.0,0.06143024377893891
2508.0,0.06173051653708872
2507.0,0.06203099704854709
2506.0,0.06218131530164395
2505.0,0.06218131530164395
2504.0,0.06208109735221967
2503.0,0.06203099704854709
2502.0,0.06208109735221967
2501.0,0.06218131530164395
2500.0,0.06223143295006417
2499.0,0.062131203436140536
2498.0,0.06193081377661436
2497.0,0.061680456657844385
2496.0,0.06153031163235467
2495.0,0.06143024377893891
2494.0,0.06143024377893891
2493.0,0.06153031163235467
2492.0,0.06173051653708872
2491.0,0.061880730805688344
2490.0,0.06198090252378963
2489.0,0.06203099704854709
2488.0,0.06208109735221967
2487.0,0.062131203436140536
2486.0,0.06218131530164395
2485.0,0.062131203436140536
2484.0,0.06198090252378963
2483.0,0.061780582187257016
2482.0,0.06173051653708872
2481.0,0.06173051653708872
2480.0,0.061830653609679764
2479.0,0.06193081377661436
2478.0,0.061880730805688344
2477.0,0.06173051653708872
2476.0,0.06163040254819374
2475.0,0.061580354206806964
2474.0,0.061580354206806964
2473.0,0.061580354206806964
2472.0,0.061580354206806964
2471.0,0.061580354206806964
2470.0,0.06148027482350815
2469.0,0.061380218497318895
2468.0,0.06143024377893891
2467.0,0.061680456657844385
2466.0,0.06203099704854709
2465.0,0.062281556382736136
2464.0,0.062381820606176586
2463.0,0.062281556382736136
2462.0,0.06208109735221967
2461.0,0.061880730805688344
2460.0,0.061780582187257016
2459.0,0.061680456657844385
2458.0,0.061680456657844385
2457.0,0.061680456657844385
2456.0,0.061680456657844385
2455.0,0.06173051653708872
2454.0,0.06173051653708872
2453.0,0.06173051653708872
2452.0,0.06163040254819374
2451.0,0.06163040254819374
2450.0,0.061680456657844385
2449.0,0.061830653609679764
2448.0,0.06198090252378963
2447.0,0.06208109735221967
2446.0,0.06218131530164395
2445.0,0.062131203436140536
2444.0,0.06208109735221967
2443.0,0.06203099704854709
2442.0,0.06203099704854709
2441.0,0.062131203436140536
2440.0,0.06223143295006417
2439.0,0.062331685600995
2438.0,0.062331685600995
2437.0,0.062331685600995
2436.0,0.062381820606176586
2435.0,0.062381820606176586
2434.0,0.062331685600995
2433.0,0.062281556382736136
2432.0,0.062331685600995
2431.0,0.06248210798265341
2430.0,0.06263258248271053
2429.0,0.06278310913729457
2428.0,0.06298389253518577
2427.0,0.06318476880236723
2426.0,0.06343599486473406
2425.0,0.06363708040225546
2424.0,0.0636873663378068
2423.0,0.06358680028852026
2422.0,0.06333548699992453
2421.0,0.06313454102437754
2420.0,0.06293368798257193
2419.0,0.06288348923294618
2418.0,0.06288348923294618
2417.0,0.06293368798257193
2416.0,0.06303410289212974
2415.0,0.06313454102437754
2414.0,0.06328524178879635
2413.0,0.06348625752110681
2412.0,0.0636873663378068
2411.0,0.06383825908884244
2410.0,0.06398920428479049
2409.0,0.06408986356949264
2408.0,0.06408986356949264
2407.0,0.06398920428479049
2406.0,0.06383825908884244
2405.0,0.06373765809652254
2404.0,0.06373765809652254
2403.0,0.06373765809652254
2402.0,0.06378795567975115
2401.0,0.06383825908884244
2400.0,0.06398920428479049
2399.0,0.06408986356949264
2398.0,0.06414020196211956
2397.0,0.06403953101083348
2396.0,0.06403953101083348
2395.0,0.06408986356949264
2394.0,0.06419054619006714
2393.0,0.06424089625468832
2392.0,0.06424089625468832
2391.0,0.06419054619006714
2390.0,0.06419054619006714
2389.0,0.06424089625468832
2388.0,0.06429125215733666
2387.0,0.06434161389936577
2386.0,0.06424089625468832
2385.0,0.06403953101083348
2384.0,0.06373765809652254
2383.0,0.06328524178879635
2382.0,0.06278310913729457
2381.0,0.06218131530164395
2380.0,0.061380218497318895
2379.0,0.06048074738138154
2378.0,0.05963295401433477
2377.0,0.05918479134919874
2376.0,0.05928434309333741
2375.0,0.05978244440026481
2374.0,0.060231224546650086
2373.0,0.060430831344098435
2372.0,0.06028111764589528
2371.0,0.05983228596592505
2370.0,0.05898575629443026
2369.0,0.0582898510583536
2368.0,0.0582898510583536
2367.0,0.059135024033278416
2366.0,0.06033101647767336
2365.0,0.061580354206806964
2364.0,0.06263258248271053
2363.0,0.06258241852286206
2362.0,0.06048074738138154
2361.0,0.0575950591438934
2360.0,0.056456022846545606
2359.0,0.05744631966579017
2358.0,0.058190526991161784
2357.0,0.05729763111133224
2356.0,0.055912320584565744
2355.0,0.05551732784983132
2354.0,0.055961719945581745
2353.0,0.05620880107069848
2352.0,0.055912320584565744
2351.0,0.05546797900801881
2350.0,0.055764156206519866
2349.0,0.05680236993107379
2348.0,0.05764465029232335
2347.0,0.0575950591438934
2346.0,0.05650548409389744
2345.0,0.05546797900801881
2344.0,0.05571477931124735
2343.0,0.05709945885970602
2342.0,0.05848856736559682
2341.0,0.05863766428823891
2340.0,0.05794231615860479
2339.0,0.05709945885970602
2338.0,0.05670338543334519
2337.0,0.05670338543334519
2336.0,0.057049929922901255
2335.0,0.057396751157843484
2334.0,0.05734718830678798
2333.0,0.056950888991593285
2332.0,0.05665390164340933
2331.0,0.05660442349104544
2330.0,0.05685187064143715
2329.0,0.05729763111133224
2328.0,0.05784307153250956
2327.0,0.05843887976392925
2326.0,0.05868737463933793
2325.0,0.05863766428823891
2324.0,0.05814087347462649
2323.0,0.05754547365752294
2322.0,0.05729763111133224
2321.0,0.0575950591438934
2320.0,0.05843887976392925
2319.0,0.05953332233647113
2318.0,0.06063052992534024
2317.0,0.061580354206806964
2316.0,0.062331685600995
2315.0,0.06283329628496737
2314.0,0.06288348923294618
2313.0,0.06258241852286206
2312.0,0.061880730805688344
2311.0,0.06118017497378969
2310.0,0.06078036414518184
2309.0,0.06093025007657582
2308.0,0.061380218497318895
2307.0,0.061680456657844385
2306.0,0.061580354206806964
2305.0,0.06133019897732073
2304.0,0.06123017721688262
2303.0,0.061380218497318895
2302.0,0.061580354206806964
2301.0,0.061680456657844385
2300.0,0.061580354206806964
2299.0,0.06148027482350815
2298.0,0.06153031163235467
2297.0,0.061780582187257016
2296.0,0.062131203436140536
2295.0,0.06243196139961715
2294.0,0.06253226035662252
2293.0,0.06248210798265341
2292.0,0.062381820606176586
2291.0,0.062381820606176586
2290.0,0.06243196139961715
2289.0,0.06263258248271053
2288.0,0.06283329628496737
2287.0,0.06293368798257193
2286.0,0.06288348923294618
2285.0,0.06283329628496737
2284.0,0.06278310913729457
2283.0,0.06288348923294618
2282.0,0.06298389253518577
2281.0,0.06303410289212974
2280.0,0.0630843190547461
2279.0,0.06303410289212974
2278.0,0.06288348923294618
2277.0,0.06263258248271053
2276.0,0.06243196139961715
2275.0,0.062331685600995
2274.0,0.06223143295006417
2273.0,0.06218131530164395
2272.0,0.062281556382736136
2271.0,0.062381820606176586
2270.0,0.06248210798265341
2269.0,0.06263258248271053
2268.0,0.06278310913729457
2267.0,0.06288348923294618
2266.0,0.0627329277885873
2265.0,0.06248210798265341
2264.0,0.062281556382736136
2263.0,0.062281556382736136
2262.0,0.06248210798265341
2261.0,0.06268275223750575
2260.0,0.06283329628496737
2259.0,0.06283329628496737
2258.0,0.0627329277885873
2257.0,0.06263258248271053
2256.0,0.06268275223750575
2255.0,0.0627329277885873
2254.0,0.06278310913729457
2253.0,0.06278310913729457
2252.0,0.06283329628496737
2251.0,0.06288348923294618
2250.0,0.06293368798257193
2249.0,0.06293368798257193
2248.0,0.06288348923294618
2247.0,0.06278310913729457
2246.0,0.06278310913729457
2245.0,0.06278310913729457
2244.0,0.06278310913729457
2243.0,0.06283329628496737
2242.0,0.06283329628496737
2241.0,0.06278310913729457
2240.0,0.0627329277885873
2239.0,0.06268275223750575
2238.0,0.06263258248271053
2237.0,0.06258241852286206
2236.0,0.06258241852286206
2235.0,0.06263258248271053
2234.0,0.06268275223750575
2233.0,0.0627329277885873
2232.0,0.0627329277885873
2231.0,0.06268275223750575
2230.0,0.06253226035662252
2229.0,0.06243196139961715
2228.0,0.06243196139961715
2227.0,0.06248210798265341
2226.0,0.062381820606176586
2225.0,0.062131203436140536
2224.0,0.061880730805688344
2223.0,0.061780582187257016
2222.0,0.061830653609679764
2221.0,0.06198090252378963
2220.0,0.06218131530164395
2219.0,0.062331685600995
2218.0,0.062281556382736136
2217.0,0.06218131530164395
2216.0,0.06203099704854709
2215.0,0.06203099704854709
2214.0,0.06208109735221967
2213.0,0.06208109735221967
2212.0,0.06208109735221967
2211.0,0.06198090252378963
2210.0,0.061880730805688344
2209.0,0.061780582187257016
2208.0,0.061680456657844385
2207.0,0.061580354206806964
2206.0,0.06148027482350815
2205.0,0.06143024377893891
2204.0,0.061380218497318895
2203.0,0.06143024377893891
2202.0,0.06143024377893891
2201.0,0.06143024377893891
2200.0,0.06148027482350815
2199.0,0.06153031163235467
2198.0,0.06148027482350815
2197.0,0.061380218497318895
2196.0,0.06133019897732073
2195.0,0.061380218497318895
2194.0,0.06148027482350815
2193.0,0.06148027482350815
2192.0,0.06143024377893891
2191.0,0.061380218497318895
2190.0,0.06128018521761747
2189.0,0.0611301784870133
2188.0,0.06103020277710969
2187.0,0.06098022355133348
2186.0,0.06103020277710969
2185.0,0.0611301784870133
2184.0,0.06128018521761747
2183.0,0.061380218497318895
2182.0,0.06143024377893891
2181.0,0.06143024377893891
2180.0,0.06148027482350815
2179.0,0.06153031163235467
2178.0,0.06153031163235467
2177.0,0.06143024377893891
2176.0,0.06133019897732073
2175.0,0.06128018521761747
2174.0,0.06123017721688262
2173.0,0.06118017497378969
2172.0,0.06118017497378969
2171.0,0.06123017721688262
2170.0,0.06123017721688262
2169.0,0.06128018521761747
2168.0,0.06133019897732073
2167.0,0.06143024377893891
2166.0,0.06148027482350815
2165.0,0.06143024377893891
2164.0,0.06123017721688262
2163.0,0.06108018775522828
2162.0,0.06098022355133348
2161.0,0.06093025007657582
2160.0,0.06093025007657582
2159.0,0.06098022355133348
2158.0,0.06103020277710969
2157.0,0.0611301784870133
2156.0,0.06118017497378969
2155.0,0.06118017497378969
2154.0,0.0611301784870133
2153.0,0.06108018775522828
2152.0,0.06108018775522828
2151.0,0.06108018775522828
2150.0,0.06098022355133348
2149.0,0.06078036414518184
2148.0,0.06068046892176193
2147.0,0.06063052992534024
2146.0,0.06068046892176193
2145.0,0.06078036414518184
2144.0,0.06093025007657582
2143.0,0.06108018775522828
2142.0,0.0611301784870133
2141.0,0.0611301784870133
2140.0,0.06103020277710969
2139.0,0.06098022355133348
2138.0,0.06093025007657582
2137.0,0.060880282351513104
2136.0,0.060880282351513104
2135.0,0.06098022355133348
2134.0,0.06103020277710969
2133.0,0.06103020277710969
2132.0,0.0611301784870133
2131.0,0.06133019897732073
2130.0,0.06148027482350815
2129.0,0.06143024377893891
2128.0,0.06123017721688262
2127.0,0.06103020277710969
2126.0,0.06093025007657582
2125.0,0.06093025007657582
2124.0,0.06098022355133348
2123.0,0.06118017497378969
2122.0,0.061380218497318895
2121.0,0.06148027482350815
2120.0,0.061580354206806964
2119.0,0.06163040254819374
2118.0,0.06163040254819374
2117.0,0.061580354206806964
2116.0,0.06148027482350815
2115.0,0.06143024377893891
2114.0,0.061380218497318895
2113.0,0.061380218497318895
2112.0,0.06143024377893891
2111.0,0.06143024377893891
2110.0,0.06143024377893891
2109.0,0.061380218497318895
2108.0,0.061380218497318895
2107.0,0.061380218497318895
2106.0,0.061380218497318895
2105.0,0.06133019897732073
2104.0,0.06128018521761747
2103.0,0.06118017497378969
2102.0,0.06108018775522828
2101.0,0.06098022355133348
2100.0,0.06093025007657582
2099.0,0.06093025007657582
2098.0,0.06098022355133348
2097.0,0.06098022355133348
2096.0,0.06098022355133348
2095.0,0.06103020277710969
2094.0,0.06118017497378969
2093.0,0.06128018521761747
2092.0,0.06148027482350815
2091.0,0.061680456657844385
2090.0,0.061830653609679764
2089.0,0.06193081377661436
2088.0,0.06198090252378963
2087.0,0.06203099704854709
2086.0,0.06198090252378963
2085.0,0.061880730805688344
2084.0,0.061780582187257016
2083.0,0.061680456657844385
2082.0,0.061580354206806964
2081.0,0.06143024377893891
2080.0,0.061380218497318895
2079.0,0.06133019897732073
2078.0,0.06133019897732073
2077.0,0.061380218497318895
2076.0,0.06143024377893891
2075.0,0.06153031163235467
2074.0,0.06148027482350815
2073.0,0.061380218497318895
2072.0,0.06118017497378969
2071.0,0.06098022355133348
2070.0,0.060730413661268745
2069.0,0.06058059667068294
2068.0,0.06058059667068294
2067.0,0.06078036414518184
2066.0,0.06093025007657582
2065.0,0.06098022355133348
2064.0,0.060880282351513104
2063.0,0.06068046892176193
2062.0,0.06048074738138154
2061.0,0.06033101647767336
2060.0,0.060231224546650086
2059.0,0.060231224546650086
2058.0,0.0601813371786204
2057.0,0.060131455540490375
2056.0,0.05998184499233683
2055.0,0.05983228596592505
2054.0,0.05973260855398799
2053.0,0.05963295401433477
2052.0,0.05943371350990989
2051.0,0.05928434309333741
2050.0,0.059035506507200575
2049.0,0.0588862729628985
2048.0,0.058786812414678646
2047.0,0.058737090681050264
2046.0,0.05863766428823891
2045.0,0.05843887976392925
2044.0,0.05824018618530458
2043.0,0.05799194697768684
2042.0,0.05779345772290467
2041.0,0.05769424710410598
2040.0,0.05764465029232335
2039.0,0.057743849580535134
2038.0,0.05779345772290467
2037.0,0.057743849580535134
2036.0,0.05764465029232335
2035.0,0.05749589383191922
2034.0,0.05724807957018618
2033.0,0.057000406633959555
2032.0,0.05680236993107379
2031.0,0.05680236993107379
2030.0,0.05685187064143715
2029.0,0.05680236993107379
2028.0,0.05680236993107379
2027.0,0.0567528748621382
2026.0,0.0567528748621382
2025.0,0.05670338543334519
2024.0,0.05655495097496965
2023.0,0.056456022846545606
2022.0,0.05630767289398331
2021.0,0.05625823416868636
2020.0,0.05620880107069848
2019.0,0.05625823416868636
2018.0,0.05635711724787096
2017.0,0.056456022846545606
2016.0,0.056456022846545606
2015.0,0.056406567231630955
2014.0,0.05630767289398331
2013.0,0.056159373598738904
2012.0,0.05601112492622806
2011.0,0.055961719945581745
2010.0,0.055961719945581745
2009.0,0.05601112492622806
2008.0,0.056159373598738904
2007.0,0.05620880107069848
2006.0,0.05620880107069848
2005.0,0.05606053552778367
2004.0,0.05586292684190197
2003.0,0.05566540802921782
2002.0,0.05551732784983132
2001.0,0.05536929814372171
2000.0,0.05531996611868961
1999.0,0.05536929814372171
1998.0,0.05541863577307371
1997.0,0.05546797900801881
1996.0,0.05541863577307371
1995.0,0.05531996611868961
1994.0,0.055172003656783764
1993.0,0.05507339001378431
1992.0,0.05507339001378431
1991.0,0.05507339001378431
1990.0,0.0549747987575373
1989.0,0.05482695382609992
1988.0,0.054679159207724926
1987.0,0.05458065739693696
1986.0,0.05448217792216048
1985.0,0.05448217792216048
1984.0,0.05453141486818014
1983.0,0.054679159207724926
1982.0,0.054728418492290265
1981.0,0.05458065739693696
1980.0,0.05443294655761144
1979.0,0.05423607688882637
1978.0,0.05403929642243144
1977.0,0.053842605077627725
1976.0,0.05374429280060267
1975.0,0.05374429280060267
1974.0,0.05379344615721715
1973.0,0.05374429280060267
1972.0,0.053646002773725554
1971.0,0.0534986094304124
1970.0,0.05340037498486727
1969.0,0.05325306496641513
1968.0,0.05325306496641513
1967.0,0.053351266093323746
1966.0,0.05340037498486727
1965.0,0.053449489430144714
1964.0,0.053449489430144714
1963.0,0.053449489430144714
1962.0,0.053351266093323746
1961.0,0.0531548860393769
1960.0,0.05300765925162776
1959.0,0.05290953578037816
1958.0,0.05286048235717078
1957.0,0.05281143447390635
1956.0,0.05266432405126009
1955.0,0.0525172634430815
1954.0,0.05227227303668425
1953.0,0.052027420754219955
1952.0,0.0518316382728683
1951.0,0.051684859310652254
1950.0,0.05153812993871654
1949.0,0.05144033789103841
1948.0,0.05134256785867963
1947.0,0.05119595406718891
1946.0,0.05100054597304693
1945.0,0.05065879322950262
1944.0,0.05036607620073763
1943.0,0.05012229596312534
1942.0,0.04982994019179987
1941.0,0.04958646063061889
1940.0,0.04958646063061889
1939.0,0.04963514562387683
1938.0,0.04958646063061889
1937.0,0.04934311749548925
1936.0,0.04905128560059957
1935.0,0.048905443158337114
1934.0,0.048808242065293994
1933.0,0.048565334467987054
1932.0,0.04827402457540786
1931.0,0.04803141550708934
1930.0,0.047885915093007325
1929.0,0.04774046340917959
1928.0,0.047595060422975566
1927.0,0.04749815213697639
1926.0,0.047352830241056854
1925.0,0.04720755695590784
1924.0,0.047062332249019345
1923.0,0.04686877481655505
1922.0,0.04653025674659861
1921.0,0.04628861957244457
1920.0,0.04628861957244457
1919.0,0.04638525830935958
1918.0,0.04628861957244457
1917.0,0.04599883231842972
1916.0,0.04580574818413763
1915.0,0.04570923829887308
1914.0,0.045660991397539874
1913.0,0.0454680573730859
1912.0,0.04513062893352182
1911.0,0.04484161307420642
1910.0,0.04455278942230456
1909.0,0.04426415772233416
1908.0,0.044071843103049346
1907.0,0.0439276630048171
1906.0,0.04383156952463674
1905.0,0.043735497301724546
1904.0,0.04363944632667782
1903.0,0.0435434165901003
1902.0,0.043303435105349175
1901.0,0.04291974034210022
1900.0,0.042584285277331047
1899.0,0.04224908912272074
1898.0,0.04196198390166317
1897.0,0.0417706858116178
1896.0,0.041579471947481794
1895.0,0.04138834223512067
1894.0,0.041149548320321694
1893.0,0.040958607678906356
1892.0,0.04086316882962593
1891.0,0.040672354027829094
1890.0,0.040243327009005014
1889.0,0.03967194946985697
1888.0,0.03924390909822728
1887.0,0.03905380426616856
1886.0,0.038958783046687984
1885.0,0.038911280232103884
1884.0,0.038721320914956836
1883.0,0.038531444649213764
1882.0,0.03829421599749461
1881.0,0.03796231343498735
1880.0,0.03763066432997886
1879.0,0.037346595106788616
1878.0,0.037062711569998186
1877.0,0.036731748473764814
1876.0,0.03649550058570927
1875.0,0.03621217265444465
1874.0,0.03583468937826462
1873.0,0.03550466044490741
1872.0,0.035363296211498474
1871.0,0.03541041251009669
1870.0,0.03522197797762394
1869.0,0.03456310022373987
1868.0,0.03362357691107709
1867.0,0.03277974021703267
1866.0,0.03226486821611996
1865.0,0.032124554451966825
1864.0,0.032218091924200776
1863.0,0.03226486821611996
1862.0,0.03217132066984485
1861.0,0.03193753992355086
1860.0,0.03161045815293173
1859.0,0.03133029827960798
1858.0,0.031003673351687855
1857.0,0.03063068826647264
1856.0,0.03025802323714588
1855.0,0.029978734171634214
1854.0,0.029560137048236124
1853.0,0.029141943003497595
1852.0,0.028770552723758724
1851.0,0.028538594975413334
1850.0,0.02826040911222183
1849.0,0.027843464140506313
1848.0,0.027426919073445077
1847.0,0.02724191609646076
1846.0,0.027288159452933503
1845.0,0.02724191609646076
1844.0,0.02682594731702781
1843.0,0.02613355016462182
1842.0,0.02562649291857677
1841.0,0.02558042614771394
1840.0,0.025764722556973707
1839.0,0.025718641122169483
1838.0,0.025304128090317013
1837.0,0.02475205875931885
1836.0,0.024522236834125355
1835.0,0.024568191490736968
1834.0,0.02475205875931885
1833.0,0.02498200236711723
1832.0,0.02521206778644225
1831.0,0.025304128090317013
1830.0,0.024890010313838973
1829.0,0.024154774532432866
1828.0,0.023925268380126097
1827.0,0.024338466818941473
1826.0,0.024706084643793647
1825.0,0.024430342106337877
1824.0,0.023833499868024743
1823.0,0.02342078135989012
1822.0,0.023329119375188556
1821.0,0.023329119375188556
1820.0,0.023329119375188556
1819.0,0.023329119375188556
1818.0,0.023237476732539397
1817.0,0.023054249440757957
1816.0,0.022871099419317753
1815.0,0.02282532397981263
1814.0,0.02277955336461468
1813.0,0.022642270454698687
1812.0,0.022505030926963654
1811.0,0.022322112326006227
1810.0,0.021865152601710403
1809.0,0.021499930688540836
1808.0,0.02140867317992523
1807.0,0.021499930688540836
1806.0,0.021545566634771474
1805.0,0.021545566634771474
1804.0,0.021819483062586187
1803.0,0.022139270735302752
1802.0,0.022230681908425698
1801.0,0.021910826943857264
1800.0,0.02168250325324883
1799.0,0.021636852916117055
1798.0,0.021728158389364705
1797.0,0.02200219004126036
1796.0,0.022733787572707387
1795.0,0.023925268380126097
1794.0,0.02512002699306959
1793.0,0.02613355016462182
1792.0,0.027195677663422346
1791.0,0.02863136320857662
1790.0,0.030444315779156517
1789.0,0.032920265855503006
1788.0,0.03616496929785207
1787.0,0.03981472339538916
1786.0,0.0437835307566099
1785.0,0.04827402457540786
1784.0,0.0534986094304124
1783.0,0.05918479134919874
1782.0,0.06514819703433927
1781.0,0.0716553647351379
1780.0,0.07904229404455076
1779.0,0.08682216600953208
1778.0,0.09415017335768128
1777.0,0.10111034407341357
1776.0,0.10790539730951965
1775.0,0.11446916681190777
1774.0,0.12056003400478299
1773.0,0.12685384867174432
1772.0,0.1345998818206986
1771.0,0.14345235514325205
1770.0,0.15187248943212528
1769.0,0.16045910703103106
1768.0,0.1705032502798176
1767.0,0.18203819546800593
1766.0,0.19395576425191186
1765.0,0.20606999322731534
1764.0,0.2192507688964478
1763.0,0.23515164280658918
1762.0,0.25547232652743346
1761.0,0.2795099315499485
1760.0,0.3040807471686
1759.0,0.3264262035769485
1758.0,0.3470771124320582
1757.0,0.3682519256034307
1756.0,0.38933983691012
1755.0,0.40671393297954284
1754.0,0.4186193112900132
1753.0,0.4270122918017949
1752.0,0.43427021216887307
1751.0,0.4408118109952246
1750.0,0.44587441848698717
1749.0,0.449771646944906
1748.0,0.4528408786725824
1747.0,0.4539511335982658
1746.0,0.4527176920366969
1745.0,0.4494047925106721
1744.0,0.44430110528109856
1743.0,0.437231456983481
1742.0,0.428990327690695
1741.0,0.4203307064452797
1740.0,0.4102737437457631
1739.0,0.39848321634998984
1738.0,0.38732208168349813
1737.0,0.3790315643557103
1736.0,0.3719177390093207
1735.0,0.36221017063777095
1734.0,0.34794715175189506
1733.0,0.3332948638801012
1732.0,0.32275815405334596
1731.0,0.31506491735911046
1730.0,0.3075937651663696
1729.0,0.3000755972575233
1728.0,0.29302632382382177
1727.0,0.28650945690605756
1726.0,0.2807516015520539
1725.0,0.2754783728814374
1724.0,0.2704302736980302
1723.0,0.2654401784205238
1722.0,0.2609025538825249
1721.0,0.2571963415308345
1720.0,0.2536772349100471
1719.0,0.24956875133979795
1718.0,0.24473510858775338
1717.0,0.2404832405378119
1716.0,0.23702150913225695
1715.0,0.23373590934800448
1714.0,0.23054882059796222
1713.0,0.2277516600281464
1712.0,0.22475374025976347
1711.0,0.22134236805264473
1710.0,0.21752737583371373
1709.0,0.21402987486799052
1708.0,0.2107013888405589
1707.0,0.20725821416525125
1706.0,0.20370325994820848
1705.0,0.20038379551850105
1704.0,0.19749993223560658
1703.0,0.19497515557019485
1702.0,0.19273564472389304
1701.0,0.19057497120296585
1700.0,0.18842499412940672
1699.0,0.185819018959813
1698.0,0.18309616062433975
1697.0,0.18111458540599013
1696.0,0.17940450345550985
1695.0,0.17730898922394545
1694.0,0.1751585282462993
1693.0,0.17366599437777985
1692.0,0.17230771132555445
1691.0,0.1704389437006073
1690.0,0.16838614469090118
1689.0,0.16659787076814148
1688.0,0.165261481096159
1687.0,0.16411926818260536
1686.0,0.16272729749769965
1685.0,0.16127680996862814
1684.0,0.1602706247936121
1683.0,0.15901616267962204
1682.0,0.1576404266693252
1681.0,0.15664262156204445
1680.0,0.15558495952617557
1679.0,0.1542200328881107
1678.0,0.15310645668337486
1677.0,0.15218065270476067
1676.0,0.1513798825658661
1675.0,0.15051916275601385
1674.0,0.14941502364796855
1673.0,0.14813039927023364
1672.0,0.14697138528701026
1671.0,0.1459369881335788
1670.0,0.14526898278605782
1669.0,0.14514763758216587
1668.0,0.1447838052666366
1667.0,0.143996546002779
1666.0,0.1430899396992138
1665.0,0.14212497447643746
1664.0,0.14128238513970826
1663.0,0.14056146454494378
1662.0,0.14002155835797914
1661.0,0.13948232253825377
1660.0,0.1388241644869712
1659.0,0.13798794874978348
1658.0,0.13715334001706125
1657.0,0.13620146131949973
1656.0,0.13531096586314884
1655.0,0.13418561983203192
1654.0,0.13318119707395182
1653.0,0.13359450162194508
1652.0,0.1337717526203528
1651.0,0.13259144347720886
1650.0,0.13176713157753506
1649.0,0.1308856730206247
1648.0,0.12977172098820566
1647.0,0.12901118623942476
1646.0,0.12883586719705065
1645.0,0.1287190271420271
1644.0,0.12836869546244634
1643.0,0.12778543660241448
1642.0,0.12702836926155658
1641.0,0.1263307072932056
1640.0,0.12557616941349803
1639.0,0.12482294018529605
1638.0,0.12418661116024232
1637.0,0.12372441132212098
1636.0,0.12360893818081231
1635.0,0.12360893818081231
1634.0,0.1233203895807995
1633.0,0.12303203256741524
1632.0,0.12268625668776156
1631.0,0.12211057462851604
1630.0,0.12136332697348307
1629.0,0.12061736282565727
1628.0,0.1199871616332282
1627.0,0.11930071078129845
1626.0,0.11884367892443626
1625.0,0.11855827805860697
1624.0,0.1183871275216517
1623.0,0.11815903167507247
1622.0,0.11776015198117662
1621.0,0.11724784438692004
1620.0,0.11679296664760996
1619.0,0.1163953390777075
1618.0,0.11605480496572018
1617.0,0.11582793047608719
1616.0,0.11548784080960606
1615.0,0.1148084593931522
1614.0,0.11435612816423602
1613.0,0.11401718864502697
1612.0,0.11356568037106163
1611.0,0.11288929687511629
1610.0,0.11238269966426384
1609.0,0.11210151190312767
1608.0,0.11187669270209155
1607.0,0.11165198982195101
1606.0,0.11137127461477392
1605.0,0.11103465569966264
1604.0,0.11047420332880886
1603.0,0.10991447328367476
1602.0,0.10941133229451272
1601.0,0.10907622851098608
1600.0,0.10874138309586101
1599.0,0.10835105612944096
1598.0,0.10796107965870849
1597.0,0.10746019534136453
1596.0,0.10695988804288215
1595.0,0.10657115822045493
1594.0,0.1062937069352865
1593.0,0.1060718734573931
1592.0,0.10573933555301185
1591.0,0.1052410056281079
1590.0,0.10479852522110678
1589.0,0.10435649517592083
1588.0,0.10397008760377302
1587.0,0.10363915453068362
1586.0,0.1033635694704158
1585.0,0.10308815917397474
1584.0,0.10281292341984649
1583.0,0.10253786198693682
1582.0,0.10231793820358015
1581.0,0.10198826120249849
1580.0,0.10149421446564144
1579.0,0.10105553313349058
1578.0,0.10072681268239614
1577.0,0.10045306890913297
1576.0,0.10012480397898926
1575.0,0.09952362861074304
1574.0,0.09892328427374508
1573.0,0.09870518283443275
1572.0,0.09859617317474823
1571.0,0.09826930827078129
1570.0,0.09794268919153337
1569.0,0.09772507952549825
1568.0,0.09734452478207412
1567.0,0.09712721455392082
1566.0,0.09691001300805646
1565.0,0.09669292003582619
1564.0,0.0964759355287379
1563.0,0.09636748391576244
1562.0,0.0964759355287379
1561.0,0.09631326826349751
1560.0,0.09550084460218011
1559.0,0.0950141189006366
1558.0,0.09490603167212863
1557.0,0.09447395156495153
1556.0,0.09468993788391455
1555.0,0.09479797133768142
1554.0,0.09463593123310776
1553.0,0.09436599867304518
1552.0,0.09409623378338305
1551.0,0.09393445524476318
1550.0,0.09361107884716913
1549.0,0.09334178232840018
1548.0,0.09307265269104414
1547.0,0.09291125492570451
1546.0,0.09258863922541383
1545.0,0.0922125568893839
1544.0,0.09189045960744768
1543.0,0.0917831469106074
1542.0,0.09146136782804049
1541.0,0.09097914578884403
1540.0,0.0905509530187334
1539.0,0.08996287644694911
1538.0,0.08937559511079884
1537.0,0.08942895151874142
1536.0,0.08969583193143116
1535.0,0.08980263003399913
1534.0,0.08958906008531176
1533.0,0.08932224525729482
1532.0,0.08884239126002336
1531.0,0.08836306687055773
1530.0,0.08788427092114603
1529.0,0.08745911720936239
1528.0,0.0870343792958963
1527.0,0.08661005636824437
1526.0,0.08618614761628329
1525.0,0.08592141461088798
1524.0,0.08597434830367123
1523.0,0.0861331881037608
1522.0,0.08608023504853413
1521.0,0.08570974433405087
1520.0,0.08507535179485148
1519.0,0.08460016478773014
1518.0,0.08423093401631587
1517.0,0.0838620168928248
1516.0,0.08354605145007499
1515.0,0.0832303157168639
1514.0,0.0830725338870073
1513.0,0.08280969148843575
1512.0,0.08228448344050654
1511.0,0.08165507103772507
1510.0,0.0809742354126397
1509.0,0.08034671768963575
1508.0,0.07987667370927598
1507.0,0.07961575782164254
1506.0,0.07914650387874067
1505.0,0.07846958649875768
1504.0,0.07836553894629472
1503.0,0.07831352451639795
1502.0,0.07789763319239285
1501.0,0.07737832847680104
1500.0,0.07685964397479927
1499.0,0.0763933569825408
1498.0,0.07566901529132153
1497.0,0.07479107858799638
1496.0,0.07396640332115534
1495.0,0.07319468988839395
1494.0,0.07273231918911849
1493.0,0.07252697900472405
1492.0,0.07232173586200852
1491.0,0.0716553647351379
1490.0,0.07047889936889606
1489.0,0.06925467168888666
1488.0,0.068389593637038
1487.0,0.06772922410050963
1486.0,0.06706985716921054
1485.0,0.06656333217371957
1484.0,0.06620911585658007
1483.0,0.0658551882075229
1482.0,0.06524912533642091
1481.0,0.06459351024765114
1480.0,0.06408986356949264
1479.0,0.06373765809652254
1478.0,0.06333548699992453
1477.0,0.06283329628496737
1476.0,0.06248210798265341
1475.0,0.062281556382736136
1474.0,0.06223143295006417
1473.0,0.0627329277885873
1472.0,0.06429125215733666
1471.0,0.0665127121512945
1470.0,0.0691018855898955
1469.0,0.07221915065262552
1468.0,0.0760310351245288
1467.0,0.08045124103115198
1466.0,0.08608023504853413
1465.0,0.09393445524476318
1464.0,0.1038045895457893
1463.0,0.11350927482751816
1462.0,0.1219955297319748
1461.0,0.13006458935314003
1460.0,0.13828641242856565
1459.0,0.14709324120304634
1458.0,0.15745316350498495
1457.0,0.17095366314681737
1456.0,0.18349356295364294
1455.0,0.19044028536473223
1454.0,0.19409154492580294
1453.0,0.19681611146465805
1452.0,0.1990081387398286
1451.0,0.200521601162019
1450.0,0.20128031481499375
1449.0,0.20176382363206424
1448.0,0.20190206793751408
1447.0,0.2010042655561186
1446.0,0.19928292171761486
1445.0,0.19688444510997294
1444.0,0.19334527600813955
1443.0,0.18842499412940672
1442.0,0.18210424283820448
1441.0,0.1752235375244544
1440.0,0.16845014800424418
1439.0,0.16184381524785207
1438.0,0.15515019919336104
1437.0,0.1475810070629986
1436.0,0.13924287691845794
1435.0,0.13200248965504868
1434.0,0.12691201440971422
1433.0,0.12308968865537295
1432.0,0.11947222180119477
1431.0,0.1157145376603248
1430.0,0.1120452961911984
1429.0,0.10874138309586101
1428.0,0.10590557267730127
1427.0,0.10341867249426717
1426.0,0.10127481841050656
1425.0,0.09903237608087578
1424.0,0.09658441423091357
1423.0,0.09441997176475758
1422.0,0.09296504751658308
1421.0,0.0917295005042762
1420.0,0.09017663034908807
1419.0,0.08799062441302175
1418.0,0.08570974433405087
1417.0,0.0838620168928248
1416.0,0.08254700807033655
1415.0,0.08149786036382611
1414.0,0.08045124103115198
1413.0,0.07930286553008004
1412.0,0.07800156869172903
1411.0,0.07670415934449615
1410.0,0.07546228222451012
1409.0,0.07422394616325367
1408.0,0.07314329105030759
1407.0,0.07211658966929302
1406.0,0.07119462910671581
1405.0,0.07007043991541217
1404.0,0.06879647454924775
1403.0,0.06788152797087754
1402.0,0.06747550294945781
1401.0,0.06727263269847072
1400.0,0.0671712330991534
1399.0,0.0675769736232612
1398.0,0.06874559358358656
1397.0,0.07063217075990047
1396.0,0.07329750581735506
1395.0,0.07727454200674
1394.0,0.08254700807033655
1393.0,0.08836306687055773
1392.0,0.09436599867304518
1391.0,0.10089114180660053
1390.0,0.10801676914803293
1389.0,0.11582793047608719
1388.0,0.1248808345374317
1387.0,0.13501453934020602
1386.0,0.14448084433219988
1385.0,0.15187248943212528
1384.0,0.157390760389438
1383.0,0.16171775008531153
1382.0,0.16475346000368907
1381.0,0.16602462872009371
1380.0,0.16507090353942422
1379.0,0.1619068615544017
1378.0,0.15707887924001773
1377.0,0.15162611615539823
1376.0,0.14666689499766483
1375.0,0.14321071124668383
1374.0,0.14218522202899342
1373.0,0.143996546002779
1372.0,0.14800825203784274
1371.0,0.15279763601907614
1370.0,0.15757799664235028
1369.0,0.16171775008531153
1368.0,0.16500739626697003
1367.0,0.1673633724032968
1366.0,0.16915480769138846
1365.0,0.17076057185861093
1364.0,0.17276000049435458
1363.0,0.17561379768122598
1362.0,0.17933886535640453
1361.0,0.18342730397389695
1360.0,0.1872871332346313
1359.0,0.19050762306265812
1358.0,0.192938760082761
1357.0,0.19449914184159978
1356.0,0.19504320014250842
1355.0,0.19470308384201496
1354.0,0.19327749692381868
1353.0,0.19097927951632743
1352.0,0.1879561020697733
1351.0,0.18448866263723573
1350.0,0.18065351591954726
1349.0,0.1765909851074554
1348.0,0.17256610459922084
1347.0,0.1686422145579325
1346.0,0.16488040957545036
1345.0,0.16115090926274478
1344.0,0.15745316350498495
1343.0,0.15391041964201602
1342.0,0.15051916275601385
1341.0,0.1472760892087941
1340.0,0.1441175699639643
1339.0,0.14110204276799654
1338.0,0.1384058553561347
1337.0,0.1360826230421397
1336.0,0.13406733180681396
1335.0,0.13212021654162043
1334.0,0.13024040521758962
1333.0,0.1283103343144847
1332.0,0.12644690648638135
1331.0,0.12470717462899183
1330.0,0.12314735239865637
1329.0,0.12170805075020397
1328.0,0.1203880929341492
1327.0,0.11907213473291511
1326.0,0.11798803837334138
1325.0,0.11702034596270106
1324.0,0.11622503864474187
1323.0,0.11548784080960606
1322.0,0.114865033936566
1321.0,0.11418662533951118
1320.0,0.11350927482751816
1319.0,0.11272036546997688
1318.0,0.11193288659256306
1317.0,0.11114683301706374
1316.0,0.11058623595729111
1315.0,0.11008231656379408
1314.0,0.10974669484546551
1313.0,0.10957898119908571
1312.0,0.10957898119908571
1311.0,0.10963487855187593
1310.0,0.10980261378997125
1309.0,0.11019424813191447
1308.0,0.11081038795292675
1307.0,0.11159583226295333
1306.0,0.11238269966426384
1305.0,0.11305829401658474
1304.0,0.11350927482751816
1303.0,0.1136220932414278
1302.0,0.11328372588352176
1301.0,0.11266406960083297
1300.0,0.11182050608167504
1299.0,0.11097857790477517
1298.0,0.11019424813191447
1297.0,0.10957898119908571
1296.0,0.10885296955122903
1295.0,0.10801676914803293
1294.0,0.10690433390377163
1293.0,0.10529634739076998
1292.0,0.10319830233507843
1291.0,0.1005625457138224
1290.0,0.09772507952549825
1289.0,0.09506817260434741
1288.0,0.09280368972839836
1287.0,0.09124698081546634
1286.0,0.09060445403289452
1285.0,0.09076499663169257
1284.0,0.09167586072382083
1283.0,0.09318028453345462
1282.0,0.09512223303659528
1281.0,0.0975619438013351
1280.0,0.10028890542885538
1279.0,0.10314322726279568
1278.0,0.10612732120491852
1277.0,0.10924374808178183
1276.0,0.11232644754555254
1275.0,0.11526126223036814
1274.0,0.11787408022996826
1273.0,0.1202162199095842
1272.0,0.12222565000860186
1271.0,0.12401322857151209
1270.0,0.12540223129680017
1269.0,0.12644690648638135
1268.0,0.1270865583796048
1267.0,0.12737762097471172
1266.0,0.12743585690934855
1265.0,0.12737762097471172
1264.0,0.1270865583796048
1263.0,0.12650501774383094
1262.0,0.12546020292898974
1261.0,0.12407101507707297
1260.0,0.12245589228405596
1259.0,0.1207320431753871
1258.0,0.11912926746757657
1257.0,0.1175323851046286
1256.0,0.11594135290606156
1255.0,0.11407366019856902
1254.0,0.11215773489264302
1253.0,0.11025022473596224
1252.0,0.10840679565103484
1251.0,0.10679324694015202
1250.0,0.1052410056281079
1249.0,0.10385974855798041
1248.0,0.10259286033841963
1247.0,0.10138450258381404
1246.0,0.10028890542885538
1245.0,0.09935981601739963
1244.0,0.09859617317474823
1243.0,0.09783387072894878
1242.0,0.09718153191774648
1241.0,0.09658441423091357
1240.0,0.09620485725896466
1239.0,0.09598811640261173
1238.0,0.09598811640261173
1237.0,0.096150661903319
1236.0,0.09642170633694569
1235.0,0.09685572959046151
1234.0,0.09734452478207412
1233.0,0.09805153492691598
1232.0,0.0990869322623309
1231.0,0.1005625457138224
1230.0,0.10270287794050348
1229.0,0.10557316203581202
1228.0,0.10913206118855912
1227.0,0.11322735694556196
1226.0,0.11798803837334138
1225.0,0.12337808396572703
1224.0,0.12953756841108
1223.0,0.13626089265478303
1222.0,0.14345235514325205
1221.0,0.15088783381542248
1220.0,0.15857795559764076
1219.0,0.16647041824135633
1218.0,0.1745089701205691
1217.0,0.18269912160667867
1216.0,0.1911815749078758
1215.0,0.19976421067264605
1214.0,0.2081690523251638
1213.0,0.2160964207272651
1212.0,0.22322619758789308
1211.0,0.22929523178422073
1210.0,0.2341080235699846
1209.0,0.2377717157135255
1208.0,0.24063437834407142
1207.0,0.24298376526869947
1206.0,0.24488773360492888
1205.0,0.24687675531828734
1204.0,0.2491060796178748
1203.0,0.25173442733125917
1202.0,0.2548471049230996
1201.0,0.2585332382302452
1200.0,0.26272782346445656
1199.0,0.26744542014856787
1198.0,0.27245874297144357
1197.0,0.277942228668536
1196.0,0.2843308575990098
1195.0,0.2914941190447631
1194.0,0.2994693430214084
1193.0,0.3086532358651781
1192.0,0.31939257100821217
1191.0,0.33161408330999986
1190.0,0.3455346664798542
1189.0,0.36111157529492455
1188.0,0.3787198324495853
1187.0,0.39826585173989515
1186.0,0.41953121604899835
1185.0,0.44237251157317337
1184.0,0.4664821379830326
1183.0,0.4903942953884439
1182.0,0.5125787886405258
1181.0,0.5313573316084885
1180.0,0.5450027826905399
1179.0,0.5517575873655609
1178.0,0.550521600812635
1177.0,0.541966807503494
1176.0,0.5276824536831581
1175.0,0.5093393466438632
1174.0,0.4877159367181465
1173.0,0.46470587995722945
1172.0,0.44153143747620516
1171.0,0.41850545770910075
1170.0,0.3956659268970888
1169.0,0.3735569746687053
1168.0,0.3528127021040104
1167.0,0.3332948638801012
1166.0,0.3148855309534606
1165.0,0.29800052511036323
1164.0,0.2826624172761363
1163.0,0.2688142923659995
1162.0,0.25594183412116456
1161.0,0.24382048315619098
1160.0,0.23239893194966443
1159.0,0.22155931642876725
1158.0,0.21133678687914248
1157.0,0.20176382363206424
1156.0,0.192938760082761
1155.0,0.18468795647564096
1154.0,0.17704775945251838
1153.0,0.17005330405836405
1152.0,0.16399254087446846
1151.0,0.15895353459069628
1150.0,0.15515019919336104
1149.0,0.15261244897260462
1148.0,0.1515645446685292
1147.0,0.15242734085788778
1146.0,0.15546069787099204
1145.0,0.16077342598656452
1144.0,0.1683221508085333
1143.0,0.17776651976115598
1142.0,0.1887602272467106
1141.0,0.20128031481499375
1140.0,0.21516882187553077
1139.0,0.2303273359445075
1138.0,0.2465701584245772
1137.0,0.2638426247268679
1136.0,0.2819968317329824
1135.0,0.30042240860109093
1134.0,0.3182162335321186
1133.0,0.3347943715653994
1132.0,0.34988683555642863
1131.0,0.3629107264696696
1130.0,0.37335173152598977
1129.0,0.3810110796350663
1128.0,0.38605252321965033
1127.0,0.38806437495987733
1126.0,0.38679264789624024
1125.0,0.38226596463598206
1124.0,0.3749963989851366
1123.0,0.3656235059116322
1122.0,0.3547742884645839
1121.0,0.3433269541151498
1120.0,0.33217362104928894
1119.0,0.32175484807295796
1118.0,0.3122927203751811
1117.0,0.3039058400047767
1116.0,0.29696669526631414
1115.0,0.2915790998652872
1114.0,0.2881084501194211
1113.0,0.28676153845433827
1112.0,0.2874344721266917
1111.0,0.2902213981517747
1110.0,0.2946495371142881
1109.0,0.30068269897861777
1108.0,0.3083881257855836
1107.0,0.31713320433767533
1106.0,0.326610421811695
1105.0,0.3363932918754797
1104.0,0.34649805303706716
1103.0,0.356942316248547
1102.0,0.3678465164893674
1101.0,0.3791355247348789
1100.0,0.39093945006991304
1099.0,0.4030731856570293
1098.0,0.41544263947432514
1097.0,0.4286406072461604
1096.0,0.44273347113009587
1095.0,0.4576726172260257
1094.0,0.47262791717238817
1093.0,0.4874490070957893
1092.0,0.5023793502187122
1091.0,0.5174122304732325
1090.0,0.5322439487559671
1089.0,0.5469876088785448
1088.0,0.5622494371796121
1087.0,0.5775743236287953
1086.0,0.5919297141128146
1085.0,0.6048484084954575
1084.0,0.6158258611929666
1083.0,0.6245192853814276
1082.0,0.6305985863033756
1081.0,0.634137784597445
1080.0,0.6356366453842692
1079.0,0.6354490046460282
1078.0,0.6335770427740273
1077.0,0.6304131092636556
1076.0,0.6263525277907822
1075.0,0.6205131862827262
1074.0,0.612966298717637
1073.0,0.6044988756943741
1072.0,0.5960220363306452
1071.0,0.5870357280033371
1070.0,0.5772460586986519
1069.0,0.5668704824195145
1068.0,0.5561114532226281
1067.0,0.5451551399914898
1066.0,0.5338741295818008
1065.0,0.523023534240473
1064.0,0.512720183556931
1063.0,0.5023793502187122
1062.0,0.4918744639168007
1061.0,0.4820127969749217
1060.0,0.47340229089654784
1059.0,0.4663550212012373
1058.0,0.4604221166546909
1057.0,0.4556838582525726
1056.0,0.45247142354021785
1055.0,0.45038376048091466
1054.0,0.44928257653071735
1053.0,0.449038247701824
1052.0,0.449771646944906
1051.0,0.45099673797421214
1050.0,0.45247142354021785
1049.0,0.4546928835341759
1048.0,0.45804652554176384
1047.0,0.4625587165920524
1046.0,0.4675004139053376
1045.0,0.47262791717238817
1044.0,0.4778166823813137
1043.0,0.4828041020500258
1042.0,0.4866492011940431
1041.0,0.489454989793388
1040.0,0.4913356369470574
1039.0,0.4926839599235864
1038.0,0.4929541275726743
1037.0,0.4920092751803087
1036.0,0.4897231555826451
1035.0,0.48624984991817644
1034.0,0.4818810528568469
1033.0,0.47716468633947007
1032.0,0.47237009912866124
1031.0,0.4676278664321225
1030.0,0.46293685721838296
1029.0,0.4587953093167416
1028.0,0.45543590250395694
1027.0,0.45247142354021785
1026.0,0.4495270428934366
1025.0,0.44660248987612006
1024.0,0.44357687862871464
1023.0,0.44033272161194237
1022.0,0.43663759051339257
1021.0,0.43273830764612553
1020.0,0.42910696378160784
1019.0,0.4257371702929731
1018.0,0.4221636587072559
1017.0,0.4182778400509013
1016.0,0.4144264813772689
1015.0,0.4103854593687337
1014.0,0.40638169187046413
1013.0,0.40263394973397215
1012.0,0.3992448503603818
1011.0,0.3958819938079652
1010.0,0.3924377568164117
1009.0,0.38880793913156575
1008.0,0.3853136577179874
1007.0,0.3818472666214805
1006.0,0.37830453767072125
1005.0,0.3748934245965323
1004.0,0.37181549192658747
1003.0,0.36896230346325964
1002.0,0.3662286539174444
1001.0,0.363712747901487
1000.0,0.36121133284260165
999.0,0.3588234533868859
998.0,0.3562513145404742
997.0,0.3537923877933149
996.0,0.3515424057174774
995.0,0.3494982051216331
994.0,0.34756025241057986
993.0,0.3458234581220394
992.0,0.344093581819785
991.0,0.3423705686110481
990.0,0.3404640928457836
989.0,0.3384712598680175
988.0,0.3366760663717876
987.0,0.33488826292494855
986.0,0.3332948638801012
985.0,0.33170728955177897
984.0,0.3301254975101975
983.0,0.32845691473742633
982.0,0.32679471822095474
981.0,0.3252306859845737
980.0,0.3239468753481285
979.0,0.3226668485800983
978.0,0.3212995650016959
977.0,0.3196644865854368
976.0,0.31812587787135316
975.0,0.31659270086790503
974.0,0.3148855309534606
973.0,0.31327437892545795
972.0,0.31158017799728954
971.0,0.3098925605436693
970.0,0.30812317744066875
969.0,0.3064489144040865
968.0,0.30504399775018176
967.0,0.30373100325446734
966.0,0.3025091128289432
965.0,0.3012906505574131
964.0,0.30024896831048564
963.0,0.2994693430214084
962.0,0.29903682184045066
961.0,0.29903682184045066
960.0,0.29955589897224844
959.0,0.30033567979762665
958.0,0.3011168632474097
957.0,0.3015514619846711
956.0,0.30172542332563235
955.0,0.3015514619846711
954.0,0.30102999566398125
953.0,0.30033567979762665
952.0,0.29972906264356314
951.0,0.29912329162309637
950.0,0.2984320149440727
949.0,0.2975694635544748
948.0,0.29662263148765056
947.0,0.29533481454547084
946.0,0.2937944581180294
945.0,0.29242982390206373
944.0,0.291324207273463
943.0,0.2903061302722081
942.0,0.2891213823148271
941.0,0.28777133038046476
940.0,0.2864254622279303
939.0,0.2850837520064151
938.0,0.2839966563652008
937.0,0.2833290244398645
936.0,0.282995592959453
935.0,0.28249592523579814
934.0,0.28174749990224934
933.0,0.2807516015520539
932.0,0.27992342723185937
931.0,0.27926202298157476
930.0,0.2786016244784948
929.0,0.2781893847874535
928.0,0.277942228668536
927.0,0.2780245984140466
926.0,0.2780245984140466
925.0,0.27785987454258443
924.0,0.27744833799904156
923.0,0.2771193893130608
922.0,0.27687284120430844
921.0,0.27703719105751046
920.0,0.27728383251150523
919.0,0.2773660774661879
918.0,0.2771193893130608
917.0,0.2766264329810155
916.0,0.2761340355564963
915.0,0.27572413039921084
914.0,0.2753146117626406
913.0,0.274905478918531
912.0,0.2744967311406845
911.0,0.27400674107527756
910.0,0.2732727909734278
909.0,0.27270279719641266
908.0,0.272296116314646
907.0,0.2717274021049829
906.0,0.27083521030723
905.0,0.26978315943130604
904.0,0.2690563065722642
903.0,0.26841123481326123
902.0,0.2679280590001334
901.0,0.26728465965000714
900.0,0.26680273489343054
899.0,0.26616099930285064
898.0,0.26552021057442277
897.0,0.264880365918128
896.0,0.264480941184829
895.0,0.2641616656829262
894.0,0.26360349772335767
893.0,0.26272782346445656
892.0,0.2615365605380475
891.0,0.26026947143528245
890.0,0.2590849235187176
889.0,0.258060922270801
888.0,0.25703932978584754
887.0,0.25586354759875274
886.0,0.254534831329273
885.0,0.25328797748333964
884.0,0.2521222941802099
883.0,0.2511145599904834
882.0,0.2503409679051003
881.0,0.2500319164905971
880.0,0.2508049577803275
879.0,0.25266589038409504
878.0,0.25539412458576116
877.0,0.2587695889745292
876.0,0.26272782346445656
875.0,0.26744542014856787
874.0,0.27278417909150754
873.0,0.2785191452299507
872.0,0.28408018256642054
871.0,0.28903688100472436
870.0,0.2929410593724038
869.0,0.29584948316020077
868.0,0.2978280491422889
867.0,0.2989503692708604
866.0,0.2992097786256531
865.0,0.2989503692708604
864.0,0.2984320149440727
863.0,0.2977418368379059
862.0,0.2967086218813386
861.0,0.2955920726131591
860.0,0.29447838657733283
859.0,0.29319690296266177
858.0,0.291324207273463
857.0,0.28903688100472436
856.0,0.2864254622279303
855.0,0.28366271211045135
854.0,0.28108331398513897
853.0,0.2788491562503159
852.0,0.27703719105751046
851.0,0.2754783728814374
850.0,0.27400674107527756
849.0,0.27278417909150754
848.0,0.27180860141005336
847.0,0.27099729072781
846.0,0.2700257143004443
845.0,0.2688949487840795
844.0,0.26768667252875744
843.0,0.26656197290893857
842.0,0.26560025747943294
841.0,0.26472055193954325
840.0,0.2639223629960543
839.0,0.2628073572952627
838.0,0.26129869956529017
837.0,0.2597952644925503
836.0,0.2584544832237907
835.0,0.25743196563385795
834.0,0.2566470485904444
833.0,0.25594183412116456
832.0,0.2553159367231137
831.0,0.2546909400591719
830.0,0.25391095694379984
829.0,0.2530545903848953
828.0,0.252432837262375
827.0,0.2519671058698565
826.0,0.25150187338626306
825.0,0.25088233764367773
824.0,0.2501091587285782
823.0,0.2494144726589913
822.0,0.2487208960166578
821.0,0.24802842526367286
820.0,0.24741382125959088
819.0,0.24695343837347083
818.0,0.24680008580058388
817.0,0.24687675531828734
816.0,0.24687675531828734
815.0,0.2465701584245772
814.0,0.24595761321456378
813.0,0.24519314464557662
812.0,0.24458253718906375
811.0,0.2440489589958681
810.0,0.243439956993317
809.0,0.24275584897802993
808.0,0.24214865631442017
807.0,0.24176959154225042
806.0,0.2414665777627134
805.0,0.24108810760202637
804.0,0.2404832405378119
803.0,0.2395021247734732
802.0,0.23844801143581806
801.0,0.2376966367122315
800.0,0.23739645043319646
799.0,0.23709647150094293
798.0,0.23657200643706267
797.0,0.23589862352377122
796.0,0.23530093620163206
795.0,0.2347040703019434
794.0,0.23395913961861092
793.0,0.2330669061627162
792.0,0.23232477597203993
791.0,0.2316579413554667
790.0,0.2312139530919859
789.0,0.23077041826340627
788.0,0.2304749798289496
787.0,0.2301059641878309
786.0,0.22981097726400668
785.0,0.2296635589048508
784.0,0.2298847052128985
783.0,0.2303273359445075
782.0,0.2306965398109182
781.0,0.23077041826340627
780.0,0.2306226739238615
779.0,0.23040115161255348
778.0,0.2301059641878309
777.0,0.2298847052128985
776.0,0.22951619056889205
775.0,0.22922160383085233
774.0,0.2290743853610009
773.0,0.22922160383085233
772.0,0.22922160383085233
771.0,0.2290743853610009
770.0,0.22885365118501477
769.0,0.2290743853610009
768.0,0.2298847052128985
767.0,0.23136189875238555
766.0,0.23336411368973242
765.0,0.23582386760966934
764.0,0.23844801143581806
763.0,0.24086118371883347
762.0,0.24298376526869947
761.0,0.24542234395526963
760.0,0.24879790541164692
759.0,0.2534436385896308
758.0,0.25916379294268843
757.0,0.26552021057442277
756.0,0.2714838952402334
755.0,0.27605202356835656
754.0,0.2788491562503159
753.0,0.2801717137456652
752.0,0.2806687130162735
751.0,0.28050298338941837
750.0,0.27975798171294297
749.0,0.2786016244784948
748.0,0.2771193893130608
747.0,0.2756421957735735
746.0,0.2743333396858214
745.0,0.2735173032151703
744.0,0.27310985925817843
743.0,0.27278417909150754
742.0,0.27245874297144357
741.0,0.272296116314646
740.0,0.27262143054851107
739.0,0.273191317475036
738.0,0.27368038788922466
737.0,0.2737619531973625
736.0,0.273191317475036
735.0,0.2717274021049829
734.0,0.2692984557181548
733.0,0.26640153903866093
732.0,0.2636831920958911
731.0,0.26098175411651914
730.0,0.2582183038568333
729.0,0.2555505425532014
728.0,0.2530545903848953
727.0,0.2509597312965428
726.0,0.2490290155626811
725.0,0.24741382125959088
724.0,0.24634035271400134
723.0,0.24557521072274135
722.0,0.24511677174783242
721.0,0.24526953097624649
720.0,0.24618721643529784
719.0,0.24772101453988138
718.0,0.2494144726589913
717.0,0.2509597312965428
716.0,0.2523551806717519
715.0,0.25383303562271453
714.0,0.255237762934422
713.0,0.2566470485904444
712.0,0.2582183038568333
711.0,0.2598742630342694
710.0,0.2613779720820575
709.0,0.26272782346445656
708.0,0.2635238179723034
707.0,0.26376290109527134
706.0,0.2638426247268679
705.0,0.2641616656829262
704.0,0.26496029496627926
703.0,0.2656803191409931
702.0,0.2660808489876092
701.0,0.2660808489876092
700.0,0.2660808489876092
699.0,0.26616099930285064
698.0,0.26648174856551243
697.0,0.2670436304243753
696.0,0.2677671197795022
695.0,0.26800855098107057
694.0,0.2678475819347863
693.0,0.26768667252875744
692.0,0.26808905788312765
691.0,0.2688949487840795
690.0,0.2698639960033222
689.0,0.27083521030723
688.0,0.2717274021049829
687.0,0.2725400791420911
686.0,0.2730284163171235
685.0,0.27310985925817843
684.0,0.272214825817094
683.0,0.27026840471296465
682.0,0.26768667252875744
681.0,0.26536016101230064
680.0,0.2638426247268679
679.0,0.2624893093265239
678.0,0.26129869956529017
677.0,0.26082336808927
676.0,0.26145725907121475
675.0,0.26256879948541756
674.0,0.2634441528373641
673.0,0.2636831920958911
672.0,0.2626483041962855
671.0,0.26026947143528245
670.0,0.25703932978584754
669.0,0.2555505425532014
668.0,0.2597162803181208
667.0,0.26680273489343054
666.0,0.26913700795350604
665.0,0.26600071346161314
664.0,0.2623303726433581
663.0,0.26066503980392075
662.0,0.26034855629062315
661.0,0.2598742630342694
660.0,0.25798225285986165
659.0,0.25445679800197585
658.0,0.2505729008782511
657.0,0.24856691818065246
656.0,0.24949160514865376
655.0,0.25181197299379954
654.0,0.2530545903848953
653.0,0.25258819211357686
652.0,0.2512694439015055
651.0,0.2500319164905971
650.0,0.24918315735024543
649.0,0.24933735386594424
648.0,0.25026368443093894
647.0,0.25049557612385787
646.0,0.2491060796178748
645.0,0.24680008580058388
644.0,0.24496406623222855
643.0,0.2439727870265589
642.0,0.24321180123188202
641.0,0.24313577593945102
640.0,0.24526953097624649
639.0,0.2499546879882324
638.0,0.25586354759875274
637.0,0.2612194415156308
636.0,0.2656803191409931
635.0,0.2689756201843121
634.0,0.2704302736980302
633.0,0.2688949487840795
632.0,0.264880365918128
631.0,0.2596373105057561
630.0,0.2546128786799913
629.0,0.25049557612385787
628.0,0.24749059921115713
627.0,0.24542234395526963
626.0,0.2448114143916751
625.0,0.24572813131654092
624.0,0.24733705687902807
623.0,0.24795155218056153
622.0,0.24710684511540615
621.0,0.2454987706130829
620.0,0.24427755509654192
619.0,0.2432878398352285
618.0,0.24169381827469305
617.0,0.23965292147009354
616.0,0.23799703062488464
615.0,0.23754651763645307
614.0,0.23829763245858726
613.0,0.2397283394579368
612.0,0.24093681183951277
611.0,0.24040769135402518
610.0,0.2377717157135255
609.0,0.2347040703019434
608.0,0.23336411368973242
607.0,0.23403357521428614
606.0,0.23507701535011138
605.0,0.23537560214901854
604.0,0.23522628308895954
603.0,0.23455498190985002
602.0,0.23321548450214102
601.0,0.23143589048642665
600.0,0.2303273359445075
