cm-1,A
4000.0,0.00401400208620073
3999.0,0.00401400208620073
3998.0,0.00401400208620073
3997.0,0.00401400208620073
3996.0,0.0040578370074493275
3995.0,0.00401400208620073
3994.0,0.003970171588923321
3993.0,0.003926345514724705
3992.0,0.0038825238627120395
3991.0,0.003926345514724705
3990.0,0.0040578370074493275
3989.0,0.004189368323957332
3988.0,0.004233220950025984
3987.0,0.004189368323957332
3986.0,0.0040578370074493275
3985.0,0.0038825238627120395
3984.0,0.0038387066319929275
3983.0,0.0038387066319929275
3982.0,0.003970171588923321
3981.0,0.004101676353562844
3980.0,0.004277078004534696
3979.0,0.004320939488377862
3978.0,0.004320939488377862
3977.0,0.004233220950025984
3976.0,0.004101676353562844
3975.0,0.003926345514724705
3974.0,0.0037510854308679953
3973.0,0.003707281458678491
3972.0,0.0037510854308679953
3971.0,0.003926345514724705
3970.0,0.00401400208620073
3969.0,0.004101676353562844
3968.0,0.004101676353562844
3967.0,0.0040578370074493275
3966.0,0.00401400208620073
3965.0,0.00401400208620073
3964.0,0.00401400208620073
3963.0,0.00401400208620073
3962.0,0.00401400208620073
3961.0,0.0040578370074493275
3960.0,0.0040578370074493275
3959.0,0.004101676353562844
3958.0,0.004101676353562844
3957.0,0.0040578370074493275
3956.0,0.003970171588923321
3955.0,0.003926345514724705
3954.0,0.0038825238627120395
3953.0,0.003794893821675638
3952.0,0.003707281458678491
3951.0,0.003619686766589858
3950.0,0.0035321097382827737
3949.0,0.0035321097382827737
3948.0,0.003619686766589858
3947.0,0.0037510854308679953
3946.0,0.0038387066319929275
3945.0,0.003926345514724705
3944.0,0.003970171588923321
3943.0,0.003926345514724705
3942.0,0.0038825238627120395
3941.0,0.0038387066319929275
3940.0,0.0038825238627120395
3939.0,0.003970171588923321
3938.0,0.00401400208620073
3937.0,0.00401400208620073
3936.0,0.0038825238627120395
3935.0,0.003794893821675638
3934.0,0.003794893821675638
3933.0,0.0038825238627120395
3932.0,0.00401400208620073
3931.0,0.0040578370074493275
3930.0,0.00401400208620073
3929.0,0.0038825238627120395
3928.0,0.0037510854308679953
3927.0,0.003707281458678491
3926.0,0.003794893821675638
3925.0,0.0038825238627120395
3924.0,0.003926345514724705
3923.0,0.0038387066319929275
3922.0,0.003707281458678491
3921.0,0.0035758960449088217
3920.0,0.0034445503666347133
3919.0,0.0033570086445275926
3918.0,0.0033570086445275926
3917.0,0.0034007772998332353
3916.0,0.003488327845821315
3915.0,0.0035758960449088217
3914.0,0.003619686766589858
3913.0,0.003707281458678491
3912.0,0.003794893821675638
3911.0,0.0038825238627120395
3910.0,0.0038825238627120395
3909.0,0.0038387066319929275
3908.0,0.0037510854308679953
3907.0,0.0035758960449088217
3906.0,0.0034445503666347133
3905.0,0.0033132443998284966
3904.0,0.0031819781204844855
3903.0,0.0030944893043338695
3902.0,0.0031819781204844855
3901.0,0.0034007772998332353
3900.0,0.003707281458678491
3899.0,0.0038825238627120395
3898.0,0.003926345514724705
3897.0,0.0038825238627120395
3896.0,0.0038387066319929275
3895.0,0.0037510854308679953
3894.0,0.003619686766589858
3893.0,0.0035321097382827737
3892.0,0.003488327845821315
3891.0,0.003488327845821315
3890.0,0.0034007772998332353
3889.0,0.0034007772998332353
3888.0,0.003488327845821315
3887.0,0.003707281458678491
3886.0,0.0038387066319929275
3885.0,0.0038387066319929275
3884.0,0.003707281458678491
3883.0,0.003619686766589858
3882.0,0.003707281458678491
3881.0,0.003794893821675638
3880.0,0.0037510854308679953
3879.0,0.003619686766589858
3878.0,0.003488327845821315
3877.0,0.003488327845821315
3876.0,0.003488327845821315
3875.0,0.0033570086445275926
3874.0,0.003050751504618754
3873.0,0.0027447101798967477
3872.0,0.0026573093983774942
3871.0,0.0028758443407954637
3870.0,0.0031819781204844855
3869.0,0.0033132443998284966
3868.0,0.0032694845648473247
3867.0,0.0033132443998284966
3866.0,0.0035321097382827737
3865.0,0.0037510854308679953
3864.0,0.0038825238627120395
3863.0,0.0038825238627120395
3862.0,0.003794893821675638
3861.0,0.0036634819042162814
3860.0,0.0035321097382827737
3859.0,0.0034007772998332353
3858.0,0.0032694845648473247
3857.0,0.0031819781204844855
3856.0,0.0032257291386954545
3855.0,0.003488327845821315
3854.0,0.003926345514724705
3853.0,0.004101676353562844
3852.0,0.003926345514724705
3851.0,0.003970171588923321
3850.0,0.004233220950025984
3849.0,0.0043648054024501
3848.0,0.004189368323957332
3847.0,0.0038387066319929275
3846.0,0.0035321097382827737
3845.0,0.0033570086445275926
3844.0,0.0031819781204844855
3843.0,0.0030070181092942683
3842.0,0.0027884171674950053
3841.0,0.002613615602686581
3840.0,0.002569926202528716
3839.0,0.002613615602686581
3838.0,0.002701007590486082
3837.0,0.0027447101798967477
3836.0,0.0028321285541661467
3835.0,0.0029632891174733444
3834.0,0.0031819781204844855
3833.0,0.0033570086445275926
3832.0,0.0035321097382827737
3831.0,0.003619686766589858
3830.0,0.003707281458678491
3829.0,0.003707281458678491
3828.0,0.0036634819042162814
3827.0,0.003488327845821315
3826.0,0.0031382315093266833
3825.0,0.002701007590486082
3824.0,0.0024388843664115978
3823.0,0.002395212539545666
3822.0,0.0026573093983774942
3821.0,0.0027884171674950053
3820.0,0.0026573093983774942
3819.0,0.0025262411970197185
3818.0,0.0028321285541661467
3817.0,0.0034445503666347133
3816.0,0.003926345514724705
3815.0,0.0040578370074493275
3814.0,0.0040578370074493275
3813.0,0.004101676353562844
3812.0,0.004189368323957332
3811.0,0.004145520125434121
3810.0,0.003926345514724705
3809.0,0.0037510854308679953
3808.0,0.003619686766589858
3807.0,0.0034445503666347133
3806.0,0.003050751504618754
3805.0,0.002613615602686581
3804.0,0.0024388843664115978
3803.0,0.0026573093983774942
3802.0,0.0031819781204844855
3801.0,0.0035758960449088217
3800.0,0.003619686766589858
3799.0,0.0035758960449088217
3798.0,0.003707281458678491
3797.0,0.0038825238627120395
3796.0,0.0038387066319929275
3795.0,0.0037510854308679953
3794.0,0.0037510854308679953
3793.0,0.003926345514724705
3792.0,0.004145520125434121
3791.0,0.0043648054024501
3790.0,0.004408675747646695
3789.0,0.0043648054024501
3788.0,0.004233220950025984
3787.0,0.004189368323957332
3786.0,0.004145520125434121
3785.0,0.004145520125434121
3784.0,0.00401400208620073
3783.0,0.0038387066319929275
3782.0,0.003619686766589858
3781.0,0.0035758960449088217
3780.0,0.003619686766589858
3779.0,0.0036634819042162814
3778.0,0.0036634819042162814
3777.0,0.0037510854308679953
3776.0,0.0038387066319929275
3775.0,0.0038825238627120395
3774.0,0.003794893821675638
3773.0,0.0035758960449088217
3772.0,0.0034007772998332353
3771.0,0.0033570086445275926
3770.0,0.0034445503666347133
3769.0,0.0035321097382827737
3768.0,0.0035321097382827737
3767.0,0.003619686766589858
3766.0,0.0037510854308679953
3765.0,0.0038387066319929275
3764.0,0.003794893821675638
3763.0,0.003794893821675638
3762.0,0.003794893821675638
3761.0,0.003794893821675638
3760.0,0.003619686766589858
3759.0,0.0033570086445275926
3758.0,0.0031382315093266833
3757.0,0.003050751504618754
3756.0,0.0030070181092942683
3755.0,0.0028758443407954637
3754.0,0.0026573093983774942
3753.0,0.0025262411970197185
3752.0,0.0027447101798967477
3751.0,0.0032694845648473247
3750.0,0.003707281458678491
3749.0,0.0038387066319929275
3748.0,0.0038825238627120395
3747.0,0.00401400208620073
3746.0,0.004233220950025984
3745.0,0.004408675747646695
3744.0,0.004320939488377862
3743.0,0.003970171588923321
3742.0,0.003794893821675638
3741.0,0.003794893821675638
3740.0,0.003707281458678491
3739.0,0.0034007772998332353
3738.0,0.0030944893043338695
3737.0,0.0030070181092942683
3736.0,0.0030070181092942683
3735.0,0.0029195645282691363
3734.0,0.0027884171674950053
3733.0,0.0027447101798967477
3732.0,0.0028321285541661467
3731.0,0.0029195645282691363
3730.0,0.0030070181092942683
3729.0,0.0030944893043338695
3728.0,0.0031819781204844855
3727.0,0.0032694845648473247
3726.0,0.0033132443998284966
3725.0,0.0033570086445275926
3724.0,0.0034007772998332353
3723.0,0.0034007772998332353
3722.0,0.0033132443998284966
3721.0,0.0033132443998284966
3720.0,0.0034007772998332353
3719.0,0.0035758960449088217
3718.0,0.003794893821675638
3717.0,0.003794893821675638
3716.0,0.0036634819042162814
3715.0,0.0034445503666347133
3714.0,0.0032694845648473247
3713.0,0.0031819781204844855
3712.0,0.0031819781204844855
3711.0,0.0032257291386954545
3710.0,0.0032694845648473247
3709.0,0.0033570086445275926
3708.0,0.0035321097382827737
3707.0,0.003707281458678491
3706.0,0.0038387066319929275
3705.0,0.0038387066319929275
3704.0,0.0037510854308679953
3703.0,0.003619686766589858
3702.0,0.0034007772998332353
3701.0,0.0032257291386954545
3700.0,0.0031382315093266833
3699.0,0.0032257291386954545
3698.0,0.0034445503666347133
3697.0,0.0035758960449088217
3696.0,0.0035758960449088217
3695.0,0.003488327845821315
3694.0,0.0033132443998284966
3693.0,0.0032257291386954545
3692.0,0.0031819781204844855
3691.0,0.0032257291386954545
3690.0,0.0034445503666347133
3689.0,0.0035758960449088217
3688.0,0.003619686766589858
3687.0,0.0036634819042162814
3686.0,0.0038387066319929275
3685.0,0.003970171588923321
3684.0,0.003970171588923321
3683.0,0.0038387066319929275
3682.0,0.0036634819042162814
3681.0,0.0035321097382827737
3680.0,0.0033132443998284966
3679.0,0.003050751504618754
3678.0,0.0027884171674950053
3677.0,0.0028321285541661467
3676.0,0.0031382315093266833
3675.0,0.0032694845648473247
3674.0,0.0031382315093266833
3673.0,0.0031382315093266833
3672.0,0.003488327845821315
3671.0,0.003926345514724705
3670.0,0.004277078004534696
3669.0,0.004277078004534696
3668.0,0.004101676353562844
3667.0,0.0040578370074493275
3666.0,0.004145520125434121
3665.0,0.004277078004534696
3664.0,0.0043648054024501
3663.0,0.0043648054024501
3662.0,0.004277078004534696
3661.0,0.004101676353562844
3660.0,0.0038825238627120395
3659.0,0.003707281458678491
3658.0,0.0037510854308679953
3657.0,0.003926345514724705
3656.0,0.00401400208620073
3655.0,0.003926345514724705
3654.0,0.0037510854308679953
3653.0,0.0035758960449088217
3652.0,0.0033570086445275926
3651.0,0.0031382315093266833
3650.0,0.0030944893043338695
3649.0,0.0031819781204844855
3648.0,0.0032694845648473247
3647.0,0.0034445503666347133
3646.0,0.0036634819042162814
3645.0,0.0038825238627120395
3644.0,0.004101676353562844
3643.0,0.004233220950025984
3642.0,0.004233220950025984
3641.0,0.004189368323957332
3640.0,0.004101676353562844
3639.0,0.0040578370074493275
3638.0,0.003970171588923321
3637.0,0.0038825238627120395
3636.0,0.0038825238627120395
3635.0,0.0038825238627120395
3634.0,0.0038825238627120395
3633.0,0.0037510854308679953
3632.0,0.0035321097382827737
3631.0,0.0034007772998332353
3630.0,0.003619686766589858
3629.0,0.003970171588923321
3628.0,0.004101676353562844
3627.0,0.0040578370074493275
3626.0,0.004145520125434121
3625.0,0.004277078004534696
3624.0,0.004189368323957332
3623.0,0.0038825238627120395
3622.0,0.003619686766589858
3621.0,0.0034445503666347133
3620.0,0.0034445503666347133
3619.0,0.0034445503666347133
3618.0,0.0034445503666347133
3617.0,0.0034007772998332353
3616.0,0.0034007772998332353
3615.0,0.0034007772998332353
3614.0,0.0034007772998332353
3613.0,0.003488327845821315
3612.0,0.0036634819042162814
3611.0,0.003926345514724705
3610.0,0.004233220950025984
3609.0,0.004452550524862486
3608.0,0.004452550524862486
3607.0,0.004320939488377862
3606.0,0.004189368323957332
3605.0,0.004189368323957332
3604.0,0.004189368323957332
3603.0,0.004145520125434121
3602.0,0.004101676353562844
3601.0,0.0040578370074493275
3600.0,0.0040578370074493275
3599.0,0.0040578370074493275
3598.0,0.00401400208620073
3597.0,0.00401400208620073
3596.0,0.003970171588923321
3595.0,0.00401400208620073
3594.0,0.004101676353562844
3593.0,0.004145520125434121
3592.0,0.004101676353562844
3591.0,0.00401400208620073
3590.0,0.003970171588923321
3589.0,0.00401400208620073
3588.0,0.004189368323957332
3587.0,0.004320939488377862
3586.0,0.0043648054024501
3585.0,0.004408675747646695
3584.0,0.004540313378935901
3583.0,0.004715892310740433
3582.0,0.00484762310854614
3581.0,0.004935465843858511
3580.0,0.004979393875242044
3579.0,0.004979393875242044
3578.0,0.00489154225525934
3577.0,0.00484762310854614
3576.0,0.00484762310854614
3575.0,0.00489154225525934
3574.0,0.004935465843858511
3573.0,0.00489154225525934
3572.0,0.00484762310854614
3571.0,0.004715892310740433
3570.0,0.004628093971837721
3569.0,0.004628093971837721
3568.0,0.004671990922590297
3567.0,0.004715892310740433
3566.0,0.004671990922590297
3565.0,0.00458420145758498
3564.0,0.00458420145758498
3563.0,0.004759798137184523
3562.0,0.004935465843858511
3561.0,0.005155150446602086
3560.0,0.005330978174470591
3559.0,0.00537494623139545
3558.0,0.005243055412371911
3557.0,0.005111204635089406
3556.0,0.00489154225525934
3555.0,0.004759798137184523
3554.0,0.004715892310740433
3553.0,0.004759798137184523
3552.0,0.004803708402820517
3551.0,0.004803708402820517
3550.0,0.00484762310854614
3549.0,0.00489154225525934
3548.0,0.005023326350308999
3547.0,0.005199100705396198
3546.0,0.0052870145684298375
3545.0,0.005199100705396198
3544.0,0.005067263269958211
3543.0,0.004935465843858511
3542.0,0.00489154225525934
3541.0,0.00489154225525934
3540.0,0.004935465843858511
3539.0,0.004979393875242044
3538.0,0.004979393875242044
3537.0,0.005023326350308999
3536.0,0.005067263269958211
3535.0,0.005111204635089406
3534.0,0.005155150446602086
3533.0,0.005155150446602086
3532.0,0.005023326350308999
3531.0,0.004935465843858511
3530.0,0.00489154225525934
3529.0,0.004979393875242044
3528.0,0.005067263269958211
3527.0,0.005111204635089406
3526.0,0.005111204635089406
3525.0,0.005111204635089406
3524.0,0.005155150446602086
3523.0,0.005155150446602086
3522.0,0.005111204635089406
3521.0,0.005111204635089406
3520.0,0.005155150446602086
3519.0,0.0052870145684298375
3518.0,0.00537494623139545
3517.0,0.00541891874010525
3516.0,0.005330978174470591
3515.0,0.005243055412371911
3514.0,0.005111204635089406
3513.0,0.005023326350308999
3512.0,0.004935465843858511
3511.0,0.004935465843858511
3510.0,0.004979393875242044
3509.0,0.005023326350308999
3508.0,0.005111204635089406
3507.0,0.005199100705396198
3506.0,0.005243055412371911
3505.0,0.005155150446602086
3504.0,0.004935465843858511
3503.0,0.004759798137184523
3502.0,0.004803708402820517
3501.0,0.005067263269958211
3500.0,0.00537494623139545
3499.0,0.005638848091999105
3498.0,0.005726851026829571
3497.0,0.005638848091999105
3496.0,0.005506877116487674
3495.0,0.005506877116487674
3494.0,0.005594853310833647
3493.0,0.005682847330363394
3492.0,0.005682847330363394
3491.0,0.005638848091999105
3490.0,0.005550862985963967
3489.0,0.005506877116487674
3488.0,0.005506877116487674
3487.0,0.00541891874010525
3486.0,0.005330978174470591
3485.0,0.005243055412371911
3484.0,0.005243055412371911
3483.0,0.0052870145684298375
3482.0,0.00537494623139545
3481.0,0.005462895701502157
3480.0,0.005550862985963967
3479.0,0.005638848091999105
3478.0,0.005682847330363394
3477.0,0.005682847330363394
3476.0,0.005638848091999105
3475.0,0.005638848091999105
3474.0,0.005638848091999105
3473.0,0.005726851026829571
3472.0,0.005726851026829571
3471.0,0.005682847330363394
3470.0,0.005550862985963967
3469.0,0.00537494623139545
3468.0,0.005199100705396198
3467.0,0.005155150446602086
3466.0,0.005199100705396198
3465.0,0.005243055412371911
3464.0,0.0052870145684298375
3463.0,0.005243055412371911
3462.0,0.005199100705396198
3461.0,0.005199100705396198
3460.0,0.005330978174470591
3459.0,0.005550862985963967
3458.0,0.00577085918230158
3457.0,0.005946936412324799
3456.0,0.006079041198713275
3455.0,0.006079041198713275
3454.0,0.006035001804881146
3453.0,0.005946936412324799
3452.0,0.005814871797682919
3451.0,0.005726851026829571
3450.0,0.005594853310833647
3449.0,0.005506877116487674
3448.0,0.00541891874010525
3447.0,0.00537494623139545
3446.0,0.00537494623139545
3445.0,0.005462895701502157
3444.0,0.005550862985963967
3443.0,0.005682847330363394
3442.0,0.00577085918230158
3441.0,0.005858888873877532
3440.0,0.005858888873877532
3439.0,0.005858888873877532
3438.0,0.005814871797682919
3437.0,0.005726851026829571
3436.0,0.005638848091999105
3435.0,0.005550862985963967
3434.0,0.005462895701502157
3433.0,0.005330978174470591
3432.0,0.0052870145684298375
3431.0,0.005330978174470591
3430.0,0.005462895701502157
3429.0,0.005594853310833647
3428.0,0.005726851026829571
3427.0,0.005726851026829571
3426.0,0.005726851026829571
3425.0,0.005638848091999105
3424.0,0.005462895701502157
3423.0,0.0052870145684298375
3422.0,0.005155150446602086
3421.0,0.005199100705396198
3420.0,0.00541891874010525
3419.0,0.005594853310833647
3418.0,0.005726851026829571
3417.0,0.005682847330363394
3416.0,0.005594853310833647
3415.0,0.005462895701502157
3414.0,0.00541891874010525
3413.0,0.00537494623139545
3412.0,0.00541891874010525
3411.0,0.005462895701502157
3410.0,0.005594853310833647
3409.0,0.005726851026829571
3408.0,0.005858888873877532
3407.0,0.005814871797682919
3406.0,0.005726851026829571
3405.0,0.005638848091999105
3404.0,0.005682847330363394
3403.0,0.005726851026829571
3402.0,0.005638848091999105
3401.0,0.005506877116487674
3400.0,0.00541891874010525
3399.0,0.005462895701502157
3398.0,0.005638848091999105
3397.0,0.005814871797682919
3396.0,0.005946936412324799
3395.0,0.005946936412324799
3394.0,0.005946936412324799
3393.0,0.005990966876386672
3392.0,0.005990966876386672
3391.0,0.00590291041179003
3390.0,0.00577085918230158
3389.0,0.005638848091999105
3388.0,0.005550862985963967
3387.0,0.005550862985963967
3386.0,0.005638848091999105
3385.0,0.00577085918230158
3384.0,0.005946936412324799
3383.0,0.006079041198713275
3382.0,0.00621118618129457
3381.0,0.00621118618129457
3380.0,0.00612308505878878
3379.0,0.005946936412324799
3378.0,0.00577085918230158
3377.0,0.005638848091999105
3376.0,0.005594853310833647
3375.0,0.005638848091999105
3374.0,0.005682847330363394
3373.0,0.005726851026829571
3372.0,0.005682847330363394
3371.0,0.005594853310833647
3370.0,0.005506877116487674
3369.0,0.005462895701502157
3368.0,0.005462895701502157
3367.0,0.005506877116487674
3366.0,0.005594853310833647
3365.0,0.005638848091999105
3364.0,0.005594853310833647
3363.0,0.005550862985963967
3362.0,0.005506877116487674
3361.0,0.005462895701502157
3360.0,0.005550862985963967
3359.0,0.005682847330363394
3358.0,0.00577085918230158
3357.0,0.005858888873877532
3356.0,0.005946936412324799
3355.0,0.006035001804881146
3354.0,0.005990966876386672
3353.0,0.00590291041179003
3352.0,0.005726851026829571
3351.0,0.005594853310833647
3350.0,0.005550862985963967
3349.0,0.005594853310833647
3348.0,0.005638848091999105
3347.0,0.005726851026829571
3346.0,0.00577085918230158
3345.0,0.005814871797682919
3344.0,0.00577085918230158
3343.0,0.005682847330363394
3342.0,0.005550862985963967
3341.0,0.00541891874010525
3340.0,0.00541891874010525
3339.0,0.005462895701502157
3338.0,0.005550862985963967
3337.0,0.005594853310833647
3336.0,0.005594853310833647
3335.0,0.005594853310833647
3334.0,0.005682847330363394
3333.0,0.005814871797682919
3332.0,0.005946936412324799
3331.0,0.005990966876386672
3330.0,0.005990966876386672
3329.0,0.00590291041179003
3328.0,0.005726851026829571
3327.0,0.005550862985963967
3326.0,0.00541891874010525
3325.0,0.00537494623139545
3324.0,0.005462895701502157
3323.0,0.005638848091999105
3322.0,0.005726851026829571
3321.0,0.005682847330363394
3320.0,0.005594853310833647
3319.0,0.005550862985963967
3318.0,0.005594853310833647
3317.0,0.005638848091999105
3316.0,0.005726851026829571
3315.0,0.00577085918230158
3314.0,0.00577085918230158
3313.0,0.005858888873877532
3312.0,0.00590291041179003
3311.0,0.00590291041179003
3310.0,0.005858888873877532
3309.0,0.00577085918230158
3308.0,0.005726851026829571
3307.0,0.00577085918230158
3306.0,0.005814871797682919
3305.0,0.005814871797682919
3304.0,0.00577085918230158
3303.0,0.005814871797682919
3302.0,0.005858888873877532
3301.0,0.005858888873877532
3300.0,0.005858888873877532
3299.0,0.005814871797682919
3298.0,0.005682847330363394
3297.0,0.005594853310833647
3296.0,0.005550862985963967
3295.0,0.005550862985963967
3294.0,0.005638848091999105
3293.0,0.005682847330363394
3292.0,0.005682847330363394
3291.0,0.005682847330363394
3290.0,0.005682847330363394
3289.0,0.005726851026829571
3288.0,0.005682847330363394
3287.0,0.005638848091999105
3286.0,0.005550862985963967
3285.0,0.005506877116487674
3284.0,0.005462895701502157
3283.0,0.005462895701502157
3282.0,0.005462895701502157
3281.0,0.00541891874010525
3280.0,0.00537494623139545
3279.0,0.00537494623139545
3278.0,0.00541891874010525
3277.0,0.005462895701502157
3276.0,0.005550862985963967
3275.0,0.005682847330363394
3274.0,0.00577085918230158
3273.0,0.005858888873877532
3272.0,0.00577085918230158
3271.0,0.005638848091999105
3270.0,0.00541891874010525
3269.0,0.005330978174470591
3268.0,0.005330978174470591
3267.0,0.00541891874010525
3266.0,0.005550862985963967
3265.0,0.005682847330363394
3264.0,0.005726851026829571
3263.0,0.005726851026829571
3262.0,0.005682847330363394
3261.0,0.005594853310833647
3260.0,0.00541891874010525
3259.0,0.005243055412371911
3258.0,0.005067263269958211
3257.0,0.005023326350308999
3256.0,0.005067263269958211
3255.0,0.005243055412371911
3254.0,0.005462895701502157
3253.0,0.005550862985963967
3252.0,0.005550862985963967
3251.0,0.005462895701502157
3250.0,0.00537494623139545
3249.0,0.005330978174470591
3248.0,0.005330978174470591
3247.0,0.005330978174470591
3246.0,0.005330978174470591
3245.0,0.005243055412371911
3244.0,0.005111204635089406
3243.0,0.005023326350308999
3242.0,0.005067263269958211
3241.0,0.005155150446602086
3240.0,0.005199100705396198
3239.0,0.005111204635089406
3238.0,0.005023326350308999
3237.0,0.005023326350308999
3236.0,0.005155150446602086
3235.0,0.005330978174470591
3234.0,0.005506877116487674
3233.0,0.005594853310833647
3232.0,0.005638848091999105
3231.0,0.005682847330363394
3230.0,0.005682847330363394
3229.0,0.005726851026829571
3228.0,0.00577085918230158
3227.0,0.00577085918230158
3226.0,0.005726851026829571
3225.0,0.005638848091999105
3224.0,0.005550862985963967
3223.0,0.005506877116487674
3222.0,0.005506877116487674
3221.0,0.005550862985963967
3220.0,0.005682847330363394
3219.0,0.00590291041179003
3218.0,0.006079041198713275
3217.0,0.00612308505878878
3216.0,0.006035001804881146
3215.0,0.005946936412324799
3214.0,0.005814871797682919
3213.0,0.005682847330363394
3212.0,0.005594853310833647
3211.0,0.005506877116487674
3210.0,0.005462895701502157
3209.0,0.00541891874010525
3208.0,0.00541891874010525
3207.0,0.00541891874010525
3206.0,0.00537494623139545
3205.0,0.005330978174470591
3204.0,0.005243055412371911
3203.0,0.005199100705396198
3202.0,0.005243055412371911
3201.0,0.005330978174470591
3200.0,0.005330978174470591
3199.0,0.005330978174470591
3198.0,0.005243055412371911
3197.0,0.005199100705396198
3196.0,0.0052870145684298375
3195.0,0.00541891874010525
3194.0,0.005594853310833647
3193.0,0.005638848091999105
3192.0,0.005550862985963967
3191.0,0.005462895701502157
3190.0,0.0052870145684298375
3189.0,0.005155150446602086
3188.0,0.005023326350308999
3187.0,0.00484762310854614
3186.0,0.004759798137184523
3185.0,0.004715892310740433
3184.0,0.004671990922590297
3183.0,0.004628093971837721
3182.0,0.004540313378935901
3181.0,0.0044964297349936455
3180.0,0.00458420145758498
3179.0,0.004715892310740433
3178.0,0.004803708402820517
3177.0,0.004803708402820517
3176.0,0.004803708402820517
3175.0,0.004803708402820517
3174.0,0.004803708402820517
3173.0,0.004759798137184523
3172.0,0.004715892310740433
3171.0,0.004715892310740433
3170.0,0.004715892310740433
3169.0,0.004803708402820517
3168.0,0.00489154225525934
3167.0,0.004935465843858511
3166.0,0.004979393875242044
3165.0,0.005023326350308999
3164.0,0.005111204635089406
3163.0,0.005111204635089406
3162.0,0.005067263269958211
3161.0,0.004979393875242044
3160.0,0.00484762310854614
3159.0,0.004715892310740433
3158.0,0.004628093971837721
3157.0,0.00458420145758498
3156.0,0.00458420145758498
3155.0,0.004628093971837721
3154.0,0.004715892310740433
3153.0,0.00484762310854614
3152.0,0.004979393875242044
3151.0,0.005111204635089406
3150.0,0.005155150446602086
3149.0,0.005155150446602086
3148.0,0.005067263269958211
3147.0,0.004935465843858511
3146.0,0.004803708402820517
3145.0,0.004628093971837721
3144.0,0.0044964297349936455
3143.0,0.004452550524862486
3142.0,0.0044964297349936455
3141.0,0.004628093971837721
3140.0,0.004759798137184523
3139.0,0.00484762310854614
3138.0,0.00484762310854614
3137.0,0.004715892310740433
3136.0,0.00458420145758498
3135.0,0.004540313378935901
3134.0,0.004671990922590297
3133.0,0.00489154225525934
3132.0,0.005111204635089406
3131.0,0.005199100705396198
3130.0,0.005155150446602086
3129.0,0.004979393875242044
3128.0,0.00484762310854614
3127.0,0.004759798137184523
3126.0,0.004759798137184523
3125.0,0.004759798137184523
3124.0,0.004759798137184523
3123.0,0.004803708402820517
3122.0,0.004803708402820517
3121.0,0.004759798137184523
3120.0,0.004759798137184523
3119.0,0.004759798137184523
3118.0,0.004715892310740433
3117.0,0.004671990922590297
3116.0,0.00458420145758498
3115.0,0.0044964297349936455
3114.0,0.004408675747646695
3113.0,0.0043648054024501
3112.0,0.0043648054024501
3111.0,0.0043648054024501
3110.0,0.0043648054024501
3109.0,0.004408675747646695
3108.0,0.004408675747646695
3107.0,0.004320939488377862
3106.0,0.004189368323957332
3105.0,0.0040578370074493275
3104.0,0.00401400208620073
3103.0,0.0040578370074493275
3102.0,0.004101676353562844
3101.0,0.004101676353562844
3100.0,0.004101676353562844
3099.0,0.004101676353562844
3098.0,0.004145520125434121
3097.0,0.004189368323957332
3096.0,0.004189368323957332
3095.0,0.004189368323957332
3094.0,0.004145520125434121
3093.0,0.004101676353562844
3092.0,0.00401400208620073
3091.0,0.003970171588923321
3090.0,0.003926345514724705
3089.0,0.003970171588923321
3088.0,0.00401400208620073
3087.0,0.0040578370074493275
3086.0,0.0040578370074493275
3085.0,0.00401400208620073
3084.0,0.00401400208620073
3083.0,0.0040578370074493275
3082.0,0.00401400208620073
3081.0,0.00401400208620073
3080.0,0.003970171588923321
3079.0,0.003970171588923321
3078.0,0.00401400208620073
3077.0,0.0040578370074493275
3076.0,0.004145520125434121
3075.0,0.004233220950025984
3074.0,0.004277078004534696
3073.0,0.004189368323957332
3072.0,0.0040578370074493275
3071.0,0.00401400208620073
3070.0,0.003970171588923321
3069.0,0.0038825238627120395
3068.0,0.003794893821675638
3067.0,0.0036634819042162814
3066.0,0.0035758960449088217
3065.0,0.003619686766589858
3064.0,0.0036634819042162814
3063.0,0.0037510854308679953
3062.0,0.0038387066319929275
3061.0,0.0038825238627120395
3060.0,0.003926345514724705
3059.0,0.003926345514724705
3058.0,0.0038825238627120395
3057.0,0.0037510854308679953
3056.0,0.003619686766589858
3055.0,0.0034445503666347133
3054.0,0.0033132443998284966
3053.0,0.0032257291386954545
3052.0,0.0031382315093266833
3051.0,0.0030944893043338695
3050.0,0.003050751504618754
3049.0,0.003050751504618754
3048.0,0.0031819781204844855
3047.0,0.0033132443998284966
3046.0,0.0034445503666347133
3045.0,0.0035321097382827737
3044.0,0.0035321097382827737
3043.0,0.0035321097382827737
3042.0,0.0034445503666347133
3041.0,0.0033132443998284966
3040.0,0.0031819781204844855
3039.0,0.0031382315093266833
3038.0,0.0031382315093266833
3037.0,0.0031382315093266833
3036.0,0.0030944893043338695
3035.0,0.0030070181092942683
3034.0,0.0028758443407954637
3033.0,0.0027884171674950053
3032.0,0.0027884171674950053
3031.0,0.0028321285541661467
3030.0,0.0029632891174733444
3029.0,0.003050751504618754
3028.0,0.0031382315093266833
3027.0,0.0031382315093266833
3026.0,0.0030944893043338695
3025.0,0.003050751504618754
3024.0,0.0029632891174733444
3023.0,0.0028758443407954637
3022.0,0.0027884171674950053
3021.0,0.0027447101798967477
3020.0,0.002701007590486082
3019.0,0.0026573093983774942
3018.0,0.002613615602686581
3017.0,0.002613615602686581
3016.0,0.002613615602686581
3015.0,0.0026573093983774942
3014.0,0.0026573093983774942
3013.0,0.0026573093983774942
3012.0,0.0025262411970197185
3011.0,0.002395212539545666
3010.0,0.002351545103793873
3009.0,0.0024388843664115978
3008.0,0.002569926202528716
3007.0,0.002613615602686581
3006.0,0.0025262411970197185
3005.0,0.002351545103793873
3004.0,0.0022205691343961664
3003.0,0.0021332737608552588
3002.0,0.0021769192542746563
3001.0,0.0022642234021015284
3000.0,0.0023078820582733695
2999.0,0.0023078820582733695
2998.0,0.0022642234021015284
2997.0,0.0022205691343961664
2996.0,0.0021769192542746563
2995.0,0.0021769192542746563
2994.0,0.0022205691343961664
2993.0,0.0023078820582733695
2992.0,0.002351545103793873
2991.0,0.002395212539545666
2990.0,0.0024388843664115978
2989.0,0.0025262411970197185
2988.0,0.002701007590486082
2987.0,0.0029195645282691363
2986.0,0.0031819781204844855
2985.0,0.003488327845821315
2984.0,0.003794893821675638
2983.0,0.004101676353562844
2982.0,0.004408675747646695
2981.0,0.004715892310740433
2980.0,0.005023326350308999
2979.0,0.00537494623139545
2978.0,0.005814871797682919
2977.0,0.006431517210272464
2976.0,0.007137328610972382
2975.0,0.008021209005416363
2974.0,0.008995559669244813
2973.0,0.010194349063173958
2972.0,0.011530229790124524
2971.0,0.013049212141483357
2970.0,0.014753209197138295
2969.0,0.016554142658660398
2968.0,0.01845319495476394
2967.0,0.020406104151069693
2966.0,0.02227639471115217
2965.0,0.024108863598207186
2964.0,0.025856900097785074
2963.0,0.027334407733889066
2962.0,0.028538594975413334
2961.0,0.02942069428514915
2960.0,0.030071810571884017
2959.0,0.03058408764601861
2958.0,0.031236951802751545
2957.0,0.032124554451966825
2956.0,0.03334211579824231
2955.0,0.03489241415094413
2954.0,0.03668448861388862
2953.0,0.03862637240519895
2952.0,0.04043395336207234
2951.0,0.041914151478914974
2950.0,0.04272802000705722
2949.0,0.042775942156833
2948.0,0.041914151478914974
2947.0,0.040243327009005014
2946.0,0.03796231343498735
2945.0,0.035363296211498474
2944.0,0.03277974021703267
2943.0,0.030490901403433135
2942.0,0.028538594975413334
2941.0,0.02710321556345563
2940.0,0.026087429580295085
2939.0,0.02544225514642018
2938.0,0.02521206778644225
2937.0,0.025350165561278004
2936.0,0.025856900097785074
2935.0,0.02682594731702781
2934.0,0.028167720075074953
2933.0,0.029792641193145286
2932.0,0.03170388495374454
2931.0,0.03385826726096752
2930.0,0.03616496929785207
2929.0,0.038436537637930535
2928.0,0.040672354027829094
2927.0,0.04272802000705722
2926.0,0.044793462458058375
2925.0,0.0469171560879138
2924.0,0.04909991063361274
2923.0,0.05139145012356372
2922.0,0.05369514500652506
2921.0,0.055961719945581745
2920.0,0.05814087347462649
2919.0,0.06003170944866376
2918.0,0.06148027482350815
2917.0,0.06218131530164395
2916.0,0.06208109735221967
2915.0,0.06118017497378969
2914.0,0.05978244440026481
2913.0,0.05814087347462649
2912.0,0.05650548409389744
2911.0,0.0549255115212699
2910.0,0.0534986094304124
2909.0,0.05222329153526162
2908.0,0.05119595406718891
2907.0,0.05026854768429301
2906.0,0.04934311749548925
2905.0,0.04837110616336182
2904.0,0.047352830241056854
2903.0,0.04628861957244457
2902.0,0.04508244626504121
2901.0,0.04383156952463674
2900.0,0.042584285277331047
2899.0,0.041436116778032606
2898.0,0.04043395336207234
2897.0,0.03957679292217042
2896.0,0.03876880295533702
2895.0,0.03796231343498735
2894.0,0.03720463014276687
2893.0,0.036542739883292485
2892.0,0.03592902944204468
2891.0,0.03545753392086315
2890.0,0.03503362516890207
2889.0,0.03470420418834386
2888.0,0.03442204208947208
2887.0,0.03432802877989327
2886.0,0.03428102975577918
2885.0,0.03432802877989327
2884.0,0.03437503289075727
2883.0,0.034516075754861264
2882.0,0.03479829897408804
2881.0,0.03512779136222477
2880.0,0.03550466044490741
2879.0,0.03588185684851508
2878.0,0.03616496929785207
2877.0,0.03630659476198117
2876.0,0.03621217265444465
2875.0,0.0360705779734416
2874.0,0.03588185684851508
2873.0,0.03583468937826462
2872.0,0.03602339000339416
2871.0,0.036401037402758574
2870.0,0.0369681249461018
2869.0,0.03753595394209874
2868.0,0.038057116858612794
2867.0,0.038341651362284734
2866.0,0.038199360808321536
2865.0,0.037583306554248797
2864.0,0.03644826642590382
2863.0,0.03503362516890207
2862.0,0.03352973627071565
2861.0,0.032124554451966825
2860.0,0.030910397045078586
2859.0,0.029978734171634214
2858.0,0.029374223311705583
2857.0,0.029095501846216454
2856.0,0.029141943003497595
2855.0,0.029560137048236124
2854.0,0.03025802323714588
2853.0,0.031143625385307683
2852.0,0.03217132066984485
2851.0,0.03310770413286357
2850.0,0.03371743783253667
2849.0,0.033952178923546183
2848.0,0.03385826726096752
2847.0,0.03376437590141812
2846.0,0.0338113190438627
2845.0,0.03414006319292828
2844.0,0.03479829897408804
2843.0,0.035740369803151095
2842.0,0.03682628362474838
2841.0,0.03796231343498735
2840.0,0.038911280232103884
2839.0,0.03957679292217042
2838.0,0.03986232513620536
2837.0,0.03962436858984186
2836.0,0.038911280232103884
2835.0,0.03767802727041558
2834.0,0.03602339000339416
2833.0,0.03414006319292828
2832.0,0.03226486821611996
2831.0,0.030537492025363155
2830.0,0.029095501846216454
2829.0,0.027797161620935595
2828.0,0.02664120011360227
2827.0,0.02558042614771394
2826.0,0.02475205875931885
2825.0,0.02406295751688936
2824.0,0.02351246269481
2823.0,0.023054249440757957
2822.0,0.02255077261765881
2821.0,0.022093572362881675
2820.0,0.02159120737696063
2819.0,0.021089422824428272
2818.0,0.02067930261797568
2817.0,0.020315076172974234
2816.0,0.02004210665933459
2815.0,0.019860222254245663
2814.0,0.019678413991243593
2813.0,0.01949668180660491
2812.0,0.019269623464054586
2811.0,0.01899731005860028
2810.0,0.018770512579999288
2809.0,0.018543833477873584
2808.0,0.018271974638383703
2807.0,0.01800028587012159
2806.0,0.017728766960431575
2805.0,0.017457417697056554
2804.0,0.017231422748988034
2803.0,0.017141057687924732
2802.0,0.017095882207371904
2801.0,0.017005545341335804
2800.0,0.016824927962187042
2799.0,0.016644385668211692
2798.0,0.016418813294209356
2797.0,0.016193358021584725
2796.0,0.016013078034810446
2795.0,0.015877917138889863
2794.0,0.015832872853011715
2793.0,0.015832872853011715
2792.0,0.01578783323856614
2791.0,0.015652742414136167
2790.0,0.015427684378367834
2789.0,0.015202742910707112
2788.0,0.014932966849499074
2787.0,0.014753209197138295
2786.0,0.014618439768003144
2785.0,0.01452861671041239
2784.0,0.0144837121472845
2783.0,0.014438812226654996
2782.0,0.014349026309051105
2781.0,0.014169510141607944
2780.0,0.013990068146738865
2779.0,0.01381070026317599
2778.0,0.013676222949234651
2777.0,0.013541787262693505
2776.0,0.013496984613259544
2775.0,0.013452186585275916
2774.0,0.013452186585275916
2773.0,0.013496984613259544
2772.0,0.013452186585275916
2771.0,0.013407393177789162
2770.0,0.013273040668781544
2769.0,0.01322826573375524
2768.0,0.01318349541446362
2767.0,0.01318349541446362
2766.0,0.01318349541446362
2765.0,0.013138729709955221
2764.0,0.013049212141483357
2763.0,0.012959713020733288
2762.0,0.012959713020733288
2761.0,0.012914970375878188
2760.0,0.012780770091995297
2759.0,0.01260190086298274
2758.0,0.012423105273012602
2757.0,0.012333735073725371
2756.0,0.012378417874516323
2755.0,0.012423105273012602
2754.0,0.012423105273012602
2753.0,0.012423105273012602
2752.0,0.012378417874516323
2751.0,0.012333735073725371
2750.0,0.012289056869694281
2749.0,0.012244383261476699
2748.0,0.01215504982870197
2747.0,0.012110390002254778
2746.0,0.012110390002254778
2745.0,0.01215504982870197
2744.0,0.012199714248127602
2743.0,0.012244383261476699
2742.0,0.012199714248127602
2741.0,0.01215504982870197
2740.0,0.01215504982870197
2739.0,0.012110390002254778
2738.0,0.01215504982870197
2737.0,0.012199714248127602
2736.0,0.012199714248127602
2735.0,0.012244383261476699
2734.0,0.012244383261476699
2733.0,0.012244383261476699
2732.0,0.012244383261476699
2731.0,0.012289056869694281
2730.0,0.012378417874516323
2729.0,0.012467797270160563
2728.0,0.01260190086298274
2727.0,0.012736045877764557
2726.0,0.012780770091995297
2725.0,0.012825498912458322
2724.0,0.012870232340102872
2723.0,0.012914970375878188
2722.0,0.012959713020733288
2721.0,0.013004460275618523
2720.0,0.013049212141483357
2719.0,0.013004460275618523
2718.0,0.012914970375878188
2717.0,0.012780770091995297
2716.0,0.01260190086298274
2715.0,0.012467797270160563
2714.0,0.012333735073725371
2713.0,0.012199714248127602
2712.0,0.012110390002254778
2711.0,0.012065734767841452
2710.0,0.012110390002254778
2709.0,0.01215504982870197
2708.0,0.012065734767841452
2707.0,0.011931796607364653
2706.0,0.011753276624621556
2705.0,0.011664044143949504
2704.0,0.011619434777991433
2703.0,0.011619434777991433
2702.0,0.011619434777991433
2701.0,0.011619434777991433
2700.0,0.011574829993696856
2699.0,0.011574829993696856
2698.0,0.011530229790124524
2697.0,0.011485634166333858
2696.0,0.011396456654336085
2695.0,0.011396456654336085
2694.0,0.011351874764248926
2693.0,0.011396456654336085
2692.0,0.011396456654336085
2691.0,0.011441043121384498
2690.0,0.011441043121384498
2689.0,0.011485634166333858
2688.0,0.011485634166333858
2687.0,0.011530229790124524
2686.0,0.011530229790124524
2685.0,0.011530229790124524
2684.0,0.011485634166333858
2683.0,0.011396456654336085
2682.0,0.011307297450183107
2681.0,0.011262724711199823
2680.0,0.011307297450183107
2679.0,0.011396456654336085
2678.0,0.011485634166333858
2677.0,0.011530229790124524
2676.0,0.011485634166333858
2675.0,0.011351874764248926
2674.0,0.01117359295472431
2673.0,0.010995384301463185
2672.0,0.010950843561779777
2671.0,0.010950843561779777
2670.0,0.011039929609661936
2669.0,0.011084479487313281
2668.0,0.011129033935354915
2667.0,0.011129033935354915
2666.0,0.011129033935354915
2665.0,0.011084479487313281
2664.0,0.011129033935354915
2663.0,0.01117359295472431
2662.0,0.011218156546359825
2661.0,0.011262724711199823
2660.0,0.011218156546359825
2659.0,0.01117359295472431
2658.0,0.011129033935354915
2657.0,0.011039929609661936
2656.0,0.010950843561779777
2655.0,0.010950843561779777
2654.0,0.010995384301463185
2653.0,0.011039929609661936
2652.0,0.011084479487313281
2651.0,0.011129033935354915
2650.0,0.011129033935354915
2649.0,0.01117359295472431
2648.0,0.01117359295472431
2647.0,0.011129033935354915
2646.0,0.010995384301463185
2645.0,0.01086177578421088
2644.0,0.01077272626946324
2643.0,0.01077272626946324
2642.0,0.01077272626946324
2641.0,0.010817248744452446
2640.0,0.010817248744452446
2639.0,0.01086177578421088
2638.0,0.010906307389674463
2637.0,0.010906307389674463
2636.0,0.01086177578421088
2635.0,0.01077272626946324
2634.0,0.010683695010048622
2633.0,0.010594681998483901
2632.0,0.010594681998483901
2631.0,0.010639186223752484
2630.0,0.010639186223752484
2629.0,0.010683695010048622
2628.0,0.010728208358306901
2627.0,0.010728208358306901
2626.0,0.01077272626946324
2625.0,0.010817248744452446
2624.0,0.01086177578421088
2623.0,0.010906307389674463
2622.0,0.010950843561779777
2621.0,0.010950843561779777
2620.0,0.010950843561779777
2619.0,0.010950843561779777
2618.0,0.010817248744452446
2617.0,0.010639186223752484
2616.0,0.010505687227290839
2615.0,0.01046119667949763
2614.0,0.010550182333308289
2613.0,0.010594681998483901
2612.0,0.010683695010048622
2611.0,0.010683695010048622
2610.0,0.010728208358306901
2609.0,0.010683695010048622
2608.0,0.010594681998483901
2607.0,0.010594681998483901
2606.0,0.010594681998483901
2605.0,0.010639186223752484
2604.0,0.010639186223752484
2603.0,0.010683695010048622
2602.0,0.010683695010048622
2601.0,0.010639186223752484
2600.0,0.010505687227290839
2599.0,0.01037222925484893
2598.0,0.01023881228122181
2597.0,0.010194349063173958
2596.0,0.010194349063173958
2595.0,0.010194349063173958
2594.0,0.010194349063173958
2593.0,0.01023881228122181
2592.0,0.010283280051895272
2591.0,0.010327752376126709
2590.0,0.010283280051895272
2589.0,0.010283280051895272
2588.0,0.010283280051895272
2587.0,0.010283280051895272
2586.0,0.010327752376126709
2585.0,0.010416710688994968
2584.0,0.010505687227290839
2583.0,0.010550182333308289
2582.0,0.010550182333308289
2581.0,0.010550182333308289
2580.0,0.010505687227290839
2579.0,0.010505687227290839
2578.0,0.010505687227290839
2577.0,0.010416710688994968
2576.0,0.01037222925484893
2575.0,0.010327752376126709
2574.0,0.010283280051895272
2573.0,0.01023881228122181
2572.0,0.010194349063173958
2571.0,0.010105436281226954
2570.0,0.010060986715464404
2569.0,0.010060986715464404
2568.0,0.010105436281226954
2567.0,0.010149890396819572
2566.0,0.010194349063173958
2565.0,0.01023881228122181
2564.0,0.010149890396819572
2563.0,0.010060986715464404
2562.0,0.009927665307847056
2561.0,0.009883233932095559
2560.0,0.009927665307847056
2559.0,0.01001654169860089
2558.0,0.010149890396819572
2557.0,0.01023881228122181
2556.0,0.010194349063173958
2555.0,0.010149890396819572
2554.0,0.010149890396819572
2553.0,0.010105436281226954
2552.0,0.010060986715464404
2551.0,0.009972101229705377
2550.0,0.009883233932095559
2549.0,0.009838807101520963
2548.0,0.009838807101520963
2547.0,0.009883233932095559
2546.0,0.009927665307847056
2545.0,0.009927665307847056
2544.0,0.009972101229705377
2543.0,0.009927665307847056
2542.0,0.009883233932095559
2541.0,0.009838807101520963
2540.0,0.00974996707218323
2539.0,0.00974996707218323
2538.0,0.00974996707218323
2537.0,0.009794384815193347
2536.0,0.009838807101520963
2535.0,0.009838807101520963
2534.0,0.00974996707218323
2533.0,0.009705553871561357
2532.0,0.00966114521239847
2531.0,0.009705553871561357
2530.0,0.00974996707218323
2529.0,0.00974996707218323
2528.0,0.009705553871561357
2527.0,0.00966114521239847
2526.0,0.009616741093766423
2525.0,0.00966114521239847
2524.0,0.00966114521239847
2523.0,0.009705553871561357
2522.0,0.00966114521239847
2521.0,0.00966114521239847
2520.0,0.00966114521239847
2519.0,0.009705553871561357
2518.0,0.00966114521239847
2517.0,0.009616741093766423
2516.0,0.009527946474380489
2515.0,0.009527946474380489
2514.0,0.009527946474380489
2513.0,0.009527946474380489
2512.0,0.009527946474380489
2511.0,0.009527946474380489
2510.0,0.009527946474380489
2509.0,0.009527946474380489
2508.0,0.009483555971770974
2507.0,0.009439170005980158
2506.0,0.009439170005980158
2505.0,0.009483555971770974
2504.0,0.009483555971770974
2503.0,0.009483555971770974
2502.0,0.009439170005980158
2501.0,0.009439170005980158
2500.0,0.009439170005980158
2499.0,0.00939478857608056
2498.0,0.009439170005980158
2497.0,0.009439170005980158
2496.0,0.009483555971770974
2495.0,0.009483555971770974
2494.0,0.009483555971770974
2493.0,0.009439170005980158
2492.0,0.009439170005980158
2491.0,0.00939478857608056
2490.0,0.009350411681145587
2489.0,0.009306039320248427
2488.0,0.009306039320248427
2487.0,0.00939478857608056
2486.0,0.009483555971770974
2485.0,0.009527946474380489
2484.0,0.009527946474380489
2483.0,0.009527946474380489
2482.0,0.009527946474380489
2481.0,0.009483555971770974
2480.0,0.009439170005980158
2479.0,0.009350411681145587
2478.0,0.009261671492462709
2477.0,0.009261671492462709
2476.0,0.009306039320248427
2475.0,0.00939478857608056
2474.0,0.009483555971770974
2473.0,0.009572341514736404
2472.0,0.009572341514736404
2471.0,0.009572341514736404
2470.0,0.009483555971770974
2469.0,0.009439170005980158
2468.0,0.009350411681145587
2467.0,0.009306039320248427
2466.0,0.009261671492462709
2465.0,0.009261671492462709
2464.0,0.009261671492462709
2463.0,0.009261671492462709
2462.0,0.009217308196862062
2461.0,0.009172949432521227
2460.0,0.009172949432521227
2459.0,0.009172949432521227
2458.0,0.009217308196862062
2457.0,0.009261671492462709
2456.0,0.009261671492462709
2455.0,0.009217308196862062
2454.0,0.009128595198514056
2453.0,0.00908424549391551
2452.0,0.009039900317800775
2451.0,0.00908424549391551
2450.0,0.009172949432521227
2449.0,0.009217308196862062
2448.0,0.009306039320248427
2447.0,0.009350411681145587
2446.0,0.009439170005980158
2445.0,0.009527946474380489
2444.0,0.009572341514736404
2443.0,0.009616741093766423
2442.0,0.009527946474380489
2441.0,0.009439170005980158
2440.0,0.009306039320248427
2439.0,0.009261671492462709
2438.0,0.009261671492462709
2437.0,0.009261671492462709
2436.0,0.009306039320248427
2435.0,0.009306039320248427
2434.0,0.009350411681145587
2433.0,0.00939478857608056
2432.0,0.009439170005980158
2431.0,0.009483555971770974
2430.0,0.009483555971770974
2429.0,0.009483555971770974
2428.0,0.009439170005980158
2427.0,0.009483555971770974
2426.0,0.009483555971770974
2425.0,0.009483555971770974
2424.0,0.009483555971770974
2423.0,0.009527946474380489
2422.0,0.009527946474380489
2421.0,0.009483555971770974
2420.0,0.00939478857608056
2419.0,0.009261671492462709
2418.0,0.009217308196862062
2417.0,0.009128595198514056
2416.0,0.00908424549391551
2415.0,0.00908424549391551
2414.0,0.009128595198514056
2413.0,0.009172949432521227
2412.0,0.009217308196862062
2411.0,0.009217308196862062
2410.0,0.009172949432521227
2409.0,0.009128595198514056
2408.0,0.00908424549391551
2407.0,0.00908424549391551
2406.0,0.00908424549391551
2405.0,0.009128595198514056
2404.0,0.009128595198514056
2403.0,0.009172949432521227
2402.0,0.009217308196862062
2401.0,0.009306039320248427
2400.0,0.00939478857608056
2399.0,0.009350411681145587
2398.0,0.009306039320248427
2397.0,0.009306039320248427
2396.0,0.009306039320248427
2395.0,0.009350411681145587
2394.0,0.009306039320248427
2393.0,0.009261671492462709
2392.0,0.009172949432521227
2391.0,0.009128595198514056
2390.0,0.009128595198514056
2389.0,0.009128595198514056
2388.0,0.008995559669244813
2387.0,0.008818242332126802
2386.0,0.008596697419959609
2385.0,0.008375265465994541
2384.0,0.008198201155356077
2383.0,0.008021209005416363
2382.0,0.007888512213050314
2381.0,0.007844288957383316
2380.0,0.007800070204414977
2379.0,0.007711646202907652
2378.0,0.007534852191956709
2377.0,0.0074464821678643656
2376.0,0.007490664932224611
2375.0,0.007490664932224611
2374.0,0.007313960837872058
2373.0,0.007004901568658406
2372.0,0.006740168563263094
2371.0,0.006607862550997545
2370.0,0.006431517210272464
2369.0,0.006079041198713275
2368.0,0.00590291041179003
2367.0,0.006079041198713275
2366.0,0.006475596832934416
2365.0,0.006696062080525422
2364.0,0.006784279525863024
2363.0,0.006828394969235152
2362.0,0.006872514894289861
2361.0,0.006784279525863024
2360.0,0.006651960076740071
2359.0,0.006519680930003435
2358.0,0.00656376950238835
2357.0,0.006696062080525422
2356.0,0.006872514894289861
2355.0,0.006872514894289861
2354.0,0.006607862550997545
2353.0,0.006343371384537999
2352.0,0.00625524344553785
2351.0,0.006343371384537999
2350.0,0.006475596832934416
2349.0,0.006475596832934416
2348.0,0.006299305179649828
2347.0,0.005990966876386672
2346.0,0.00590291041179003
2345.0,0.006035001804881146
2344.0,0.006387442061109638
2343.0,0.006784279525863024
2342.0,0.007004901568658406
2341.0,0.00696076819309055
2340.0,0.006696062080525422
2339.0,0.006431517210272464
2338.0,0.00656376950238835
2337.0,0.006872514894289861
2336.0,0.007049039429553483
2335.0,0.006916639301937977
2334.0,0.006607862550997545
2333.0,0.006343371384537999
2332.0,0.006299305179649828
2331.0,0.006387442061109638
2330.0,0.006519680930003435
2329.0,0.006784279525863024
2328.0,0.007093181776687496
2327.0,0.0074464821678643656
2326.0,0.007755855953228474
2325.0,0.007932739972333236
2324.0,0.008021209005416363
2323.0,0.008109696063975047
2322.0,0.008242460465651913
2321.0,0.008330992620051436
2320.0,0.008330992620051436
2319.0,0.008286724286910463
2318.0,0.008286724286910463
2317.0,0.008419542825660153
2316.0,0.008640997362049818
2315.0,0.008862564879688284
2314.0,0.008995559669244813
2313.0,0.008995559669244813
2312.0,0.008862564879688284
2311.0,0.008640997362049818
2310.0,0.008330992620051436
2309.0,0.008109696063975047
2308.0,0.008021209005416363
2307.0,0.008065450281052211
2306.0,0.008198201155356077
2305.0,0.008242460465651913
2304.0,0.008198201155356077
2303.0,0.008109696063975047
2302.0,0.008065450281052211
2301.0,0.008153946355103248
2300.0,0.008286724286910463
2299.0,0.008419542825660153
2298.0,0.00850811108984062
2297.0,0.00850811108984062
2296.0,0.008463824699968647
2295.0,0.008463824699968647
2294.0,0.00850811108984062
2293.0,0.008596697419959609
2292.0,0.0087296108049002
2291.0,0.008773924307505121
2290.0,0.008818242332126802
2289.0,0.008818242332126802
2288.0,0.008862564879688284
2287.0,0.008906891951112605
2286.0,0.008995559669244813
2285.0,0.009039900317800775
2284.0,0.009039900317800775
2283.0,0.008995559669244813
2282.0,0.008951223547323472
2281.0,0.008951223547323472
2280.0,0.008951223547323472
2279.0,0.008951223547323472
2278.0,0.008951223547323472
2277.0,0.008906891951112605
2276.0,0.008862564879688284
2275.0,0.008818242332126802
2274.0,0.0087296108049002
2273.0,0.008685301823389224
2272.0,0.008640997362049818
2271.0,0.008640997362049818
2270.0,0.008685301823389224
2269.0,0.008773924307505121
2268.0,0.008862564879688284
2267.0,0.008951223547323472
2266.0,0.00908424549391551
2265.0,0.00908424549391551
2264.0,0.008995559669244813
2263.0,0.008906891951112605
2262.0,0.008818242332126802
2261.0,0.008818242332126802
2260.0,0.008862564879688284
2259.0,0.008906891951112605
2258.0,0.008995559669244813
2257.0,0.009039900317800775
2256.0,0.00908424549391551
2255.0,0.009128595198514056
2254.0,0.009217308196862062
2253.0,0.009261671492462709
2252.0,0.009261671492462709
2251.0,0.009217308196862062
2250.0,0.009172949432521227
2249.0,0.009172949432521227
2248.0,0.009172949432521227
2247.0,0.009172949432521227
2246.0,0.009128595198514056
2245.0,0.009039900317800775
2244.0,0.008906891951112605
2243.0,0.008862564879688284
2242.0,0.008862564879688284
2241.0,0.008862564879688284
2240.0,0.008862564879688284
2239.0,0.008906891951112605
2238.0,0.008995559669244813
2237.0,0.00908424549391551
2236.0,0.009217308196862062
2235.0,0.009261671492462709
2234.0,0.009306039320248427
2233.0,0.009306039320248427
2232.0,0.009306039320248427
2231.0,0.009350411681145587
2230.0,0.009350411681145587
2229.0,0.009306039320248427
2228.0,0.009217308196862062
2227.0,0.009172949432521227
2226.0,0.009128595198514056
2225.0,0.009128595198514056
2224.0,0.009172949432521227
2223.0,0.009217308196862062
2222.0,0.009172949432521227
2221.0,0.00908424549391551
2220.0,0.009039900317800775
2219.0,0.009039900317800775
2218.0,0.00908424549391551
2217.0,0.009128595198514056
2216.0,0.009128595198514056
2215.0,0.00908424549391551
2214.0,0.009039900317800775
2213.0,0.008995559669244813
2212.0,0.008995559669244813
2211.0,0.008995559669244813
2210.0,0.009039900317800775
2209.0,0.009128595198514056
2208.0,0.009261671492462709
2207.0,0.009350411681145587
2206.0,0.009306039320248427
2205.0,0.009217308196862062
2204.0,0.009128595198514056
2203.0,0.00908424549391551
2202.0,0.00908424549391551
2201.0,0.00908424549391551
2200.0,0.00908424549391551
2199.0,0.009128595198514056
2198.0,0.009172949432521227
2197.0,0.009217308196862062
2196.0,0.009217308196862062
2195.0,0.009217308196862062
2194.0,0.009172949432521227
2193.0,0.009128595198514056
2192.0,0.009128595198514056
2191.0,0.009128595198514056
2190.0,0.009172949432521227
2189.0,0.009217308196862062
2188.0,0.009217308196862062
2187.0,0.009261671492462709
2186.0,0.009261671492462709
2185.0,0.009306039320248427
2184.0,0.009306039320248427
2183.0,0.009350411681145587
2182.0,0.00939478857608056
2181.0,0.00939478857608056
2180.0,0.009350411681145587
2179.0,0.009261671492462709
2178.0,0.009261671492462709
2177.0,0.009261671492462709
2176.0,0.009350411681145587
2175.0,0.009439170005980158
2174.0,0.009483555971770974
2173.0,0.009483555971770974
2172.0,0.009483555971770974
2171.0,0.009439170005980158
2170.0,0.00939478857608056
2169.0,0.009306039320248427
2168.0,0.009217308196862062
2167.0,0.009172949432521227
2166.0,0.009172949432521227
2165.0,0.009217308196862062
2164.0,0.009217308196862062
2163.0,0.009217308196862062
2162.0,0.009172949432521227
2161.0,0.00908424549391551
2160.0,0.009039900317800775
2159.0,0.008995559669244813
2158.0,0.008951223547323472
2157.0,0.008995559669244813
2156.0,0.00908424549391551
2155.0,0.009172949432521227
2154.0,0.009172949432521227
2153.0,0.009172949432521227
2152.0,0.009217308196862062
2151.0,0.009217308196862062
2150.0,0.009217308196862062
2149.0,0.009172949432521227
2148.0,0.009128595198514056
2147.0,0.009039900317800775
2146.0,0.009039900317800775
2145.0,0.009039900317800775
2144.0,0.009039900317800775
2143.0,0.00908424549391551
2142.0,0.009128595198514056
2141.0,0.009128595198514056
2140.0,0.009128595198514056
2139.0,0.009128595198514056
2138.0,0.009172949432521227
2137.0,0.009217308196862062
2136.0,0.009306039320248427
2135.0,0.009350411681145587
2134.0,0.009306039320248427
2133.0,0.009172949432521227
2132.0,0.009128595198514056
2131.0,0.009128595198514056
2130.0,0.009217308196862062
2129.0,0.009261671492462709
2128.0,0.009306039320248427
2127.0,0.009350411681145587
2126.0,0.00939478857608056
2125.0,0.009439170005980158
2124.0,0.009439170005980158
2123.0,0.009350411681145587
2122.0,0.009261671492462709
2121.0,0.009217308196862062
2120.0,0.009261671492462709
2119.0,0.009350411681145587
2118.0,0.009439170005980158
2117.0,0.009483555971770974
2116.0,0.00939478857608056
2115.0,0.009306039320248427
2114.0,0.009217308196862062
2113.0,0.009172949432521227
2112.0,0.009172949432521227
2111.0,0.009172949432521227
2110.0,0.009172949432521227
2109.0,0.009172949432521227
2108.0,0.009172949432521227
2107.0,0.009128595198514056
2106.0,0.009128595198514056
2105.0,0.009128595198514056
2104.0,0.009172949432521227
2103.0,0.009217308196862062
2102.0,0.009217308196862062
2101.0,0.009172949432521227
2100.0,0.009172949432521227
2099.0,0.009217308196862062
2098.0,0.009306039320248427
2097.0,0.00939478857608056
2096.0,0.009350411681145587
2095.0,0.009306039320248427
2094.0,0.009217308196862062
2093.0,0.009172949432521227
2092.0,0.009172949432521227
2091.0,0.009128595198514056
2090.0,0.00908424549391551
2089.0,0.00908424549391551
2088.0,0.009128595198514056
2087.0,0.009217308196862062
2086.0,0.009306039320248427
2085.0,0.009306039320248427
2084.0,0.009306039320248427
2083.0,0.009261671492462709
2082.0,0.009217308196862062
2081.0,0.009217308196862062
2080.0,0.009261671492462709
2079.0,0.009261671492462709
2078.0,0.009217308196862062
2077.0,0.009172949432521227
2076.0,0.00908424549391551
2075.0,0.009039900317800775
2074.0,0.009039900317800775
2073.0,0.009039900317800775
2072.0,0.009039900317800775
2071.0,0.009039900317800775
2070.0,0.009039900317800775
2069.0,0.009039900317800775
2068.0,0.009039900317800775
2067.0,0.009039900317800775
2066.0,0.00908424549391551
2065.0,0.009128595198514056
2064.0,0.009172949432521227
2063.0,0.009217308196862062
2062.0,0.009217308196862062
2061.0,0.009172949432521227
2060.0,0.009128595198514056
2059.0,0.00908424549391551
2058.0,0.009128595198514056
2057.0,0.009217308196862062
2056.0,0.009306039320248427
2055.0,0.00939478857608056
2054.0,0.00939478857608056
2053.0,0.009350411681145587
2052.0,0.009306039320248427
2051.0,0.009261671492462709
2050.0,0.009306039320248427
2049.0,0.009350411681145587
2048.0,0.009350411681145587
2047.0,0.009350411681145587
2046.0,0.00939478857608056
2045.0,0.009350411681145587
2044.0,0.009306039320248427
2043.0,0.009217308196862062
2042.0,0.009128595198514056
2041.0,0.009128595198514056
2040.0,0.009172949432521227
2039.0,0.009217308196862062
2038.0,0.009217308196862062
2037.0,0.009172949432521227
2036.0,0.009128595198514056
2035.0,0.009128595198514056
2034.0,0.009217308196862062
2033.0,0.009306039320248427
2032.0,0.009306039320248427
2031.0,0.009306039320248427
2030.0,0.009217308196862062
2029.0,0.009172949432521227
2028.0,0.009128595198514056
2027.0,0.00908424549391551
2026.0,0.009039900317800775
2025.0,0.008951223547323472
2024.0,0.008862564879688284
2023.0,0.008818242332126802
2022.0,0.008906891951112605
2021.0,0.009039900317800775
2020.0,0.009128595198514056
2019.0,0.009217308196862062
2018.0,0.009261671492462709
2017.0,0.009217308196862062
2016.0,0.009172949432521227
2015.0,0.009172949432521227
2014.0,0.009217308196862062
2013.0,0.009306039320248427
2012.0,0.009350411681145587
2011.0,0.009350411681145587
2010.0,0.009306039320248427
2009.0,0.009172949432521227
2008.0,0.00908424549391551
2007.0,0.009039900317800775
2006.0,0.00908424549391551
2005.0,0.009172949432521227
2004.0,0.009261671492462709
2003.0,0.009350411681145587
2002.0,0.009350411681145587
2001.0,0.009306039320248427
2000.0,0.009217308196862062
1999.0,0.009128595198514056
1998.0,0.009039900317800775
1997.0,0.008951223547323472
1996.0,0.008951223547323472
1995.0,0.008995559669244813
1994.0,0.009039900317800775
1993.0,0.009128595198514056
1992.0,0.009172949432521227
1991.0,0.009172949432521227
1990.0,0.009172949432521227
1989.0,0.009172949432521227
1988.0,0.009217308196862062
1987.0,0.009217308196862062
1986.0,0.009261671492462709
1985.0,0.009261671492462709
1984.0,0.009306039320248427
1983.0,0.009306039320248427
1982.0,0.009306039320248427
1981.0,0.009350411681145587
1980.0,0.009350411681145587
1979.0,0.009306039320248427
1978.0,0.009217308196862062
1977.0,0.009128595198514056
1976.0,0.009039900317800775
1975.0,0.009039900317800775
1974.0,0.009039900317800775
1973.0,0.00908424549391551
1972.0,0.009128595198514056
1971.0,0.009217308196862062
1970.0,0.009217308196862062
1969.0,0.009172949432521227
1968.0,0.00908424549391551
1967.0,0.008995559669244813
1966.0,0.008951223547323472
1965.0,0.008995559669244813
1964.0,0.009039900317800775
1963.0,0.00908424549391551
1962.0,0.009128595198514056
1961.0,0.009172949432521227
1960.0,0.009217308196862062
1959.0,0.009217308196862062
1958.0,0.009217308196862062
1957.0,0.009217308196862062
1956.0,0.009217308196862062
1955.0,0.009217308196862062
1954.0,0.009217308196862062
1953.0,0.009217308196862062
1952.0,0.009217308196862062
1951.0,0.009261671492462709
1950.0,0.009261671492462709
1949.0,0.009306039320248427
1948.0,0.009306039320248427
1947.0,0.009350411681145587
1946.0,0.009350411681145587
1945.0,0.009306039320248427
1944.0,0.009261671492462709
1943.0,0.009128595198514056
1942.0,0.008995559669244813
1941.0,0.008906891951112605
1940.0,0.008951223547323472
1939.0,0.009039900317800775
1938.0,0.009172949432521227
1937.0,0.009261671492462709
1936.0,0.009306039320248427
1935.0,0.009350411681145587
1934.0,0.009350411681145587
1933.0,0.009306039320248427
1932.0,0.009306039320248427
1931.0,0.009350411681145587
1930.0,0.00939478857608056
1929.0,0.00939478857608056
1928.0,0.00939478857608056
1927.0,0.009350411681145587
1926.0,0.009306039320248427
1925.0,0.009306039320248427
1924.0,0.009306039320248427
1923.0,0.009261671492462709
1922.0,0.009172949432521227
1921.0,0.00908424549391551
1920.0,0.009039900317800775
1919.0,0.009039900317800775
1918.0,0.00908424549391551
1917.0,0.009128595198514056
1916.0,0.009172949432521227
1915.0,0.009217308196862062
1914.0,0.009261671492462709
1913.0,0.009261671492462709
1912.0,0.009261671492462709
1911.0,0.009261671492462709
1910.0,0.009261671492462709
1909.0,0.009217308196862062
1908.0,0.009172949432521227
1907.0,0.009128595198514056
1906.0,0.009128595198514056
1905.0,0.009128595198514056
1904.0,0.00908424549391551
1903.0,0.00908424549391551
1902.0,0.00908424549391551
1901.0,0.00908424549391551
1900.0,0.009128595198514056
1899.0,0.009128595198514056
1898.0,0.009128595198514056
1897.0,0.009128595198514056
1896.0,0.00908424549391551
1895.0,0.009039900317800775
1894.0,0.009039900317800775
1893.0,0.009039900317800775
1892.0,0.009039900317800775
1891.0,0.00908424549391551
1890.0,0.009172949432521227
1889.0,0.009217308196862062
1888.0,0.009172949432521227
1887.0,0.00908424549391551
1886.0,0.00908424549391551
1885.0,0.00908424549391551
1884.0,0.009172949432521227
1883.0,0.009172949432521227
1882.0,0.009172949432521227
1881.0,0.009128595198514056
1880.0,0.00908424549391551
1879.0,0.00908424549391551
1878.0,0.00908424549391551
1877.0,0.009128595198514056
1876.0,0.00908424549391551
1875.0,0.009039900317800775
1874.0,0.008995559669244813
1873.0,0.008995559669244813
1872.0,0.008995559669244813
1871.0,0.008951223547323472
1870.0,0.008862564879688284
1869.0,0.008862564879688284
1868.0,0.008995559669244813
1867.0,0.009128595198514056
1866.0,0.009217308196862062
1865.0,0.009306039320248427
1864.0,0.009306039320248427
1863.0,0.009261671492462709
1862.0,0.009217308196862062
1861.0,0.009128595198514056
1860.0,0.00908424549391551
1859.0,0.00908424549391551
1858.0,0.00908424549391551
1857.0,0.00908424549391551
1856.0,0.009039900317800775
1855.0,0.008906891951112605
1854.0,0.008862564879688284
1853.0,0.008862564879688284
1852.0,0.008906891951112605
1851.0,0.008951223547323472
1850.0,0.008995559669244813
1849.0,0.008995559669244813
1848.0,0.009039900317800775
1847.0,0.009039900317800775
1846.0,0.009039900317800775
1845.0,0.009039900317800775
1844.0,0.008951223547323472
1843.0,0.008862564879688284
1842.0,0.008862564879688284
1841.0,0.008906891951112605
1840.0,0.008906891951112605
1839.0,0.008906891951112605
1838.0,0.008951223547323472
1837.0,0.009039900317800775
1836.0,0.00908424549391551
1835.0,0.00908424549391551
1834.0,0.00908424549391551
1833.0,0.009128595198514056
1832.0,0.009172949432521227
1831.0,0.009217308196862062
1830.0,0.009172949432521227
1829.0,0.00908424549391551
1828.0,0.009039900317800775
1827.0,0.009039900317800775
1826.0,0.008995559669244813
1825.0,0.008906891951112605
1824.0,0.008862564879688284
1823.0,0.008818242332126802
1822.0,0.008862564879688284
1821.0,0.008951223547323472
1820.0,0.008995559669244813
1819.0,0.009039900317800775
1818.0,0.009039900317800775
1817.0,0.00908424549391551
1816.0,0.00908424549391551
1815.0,0.00908424549391551
1814.0,0.009128595198514056
1813.0,0.009172949432521227
1812.0,0.009172949432521227
1811.0,0.00908424549391551
1810.0,0.008995559669244813
1809.0,0.008995559669244813
1808.0,0.008951223547323472
1807.0,0.008951223547323472
1806.0,0.008906891951112605
1805.0,0.008951223547323472
1804.0,0.008906891951112605
1803.0,0.008906891951112605
1802.0,0.008906891951112605
1801.0,0.008862564879688284
1800.0,0.008862564879688284
1799.0,0.008818242332126802
1798.0,0.008818242332126802
1797.0,0.008818242332126802
1796.0,0.008818242332126802
1795.0,0.008818242332126802
1794.0,0.0087296108049002
1793.0,0.008685301823389224
1792.0,0.0087296108049002
1791.0,0.008818242332126802
1790.0,0.008862564879688284
1789.0,0.008862564879688284
1788.0,0.008773924307505121
1787.0,0.008773924307505121
1786.0,0.008818242332126802
1785.0,0.008862564879688284
1784.0,0.008862564879688284
1783.0,0.008818242332126802
1782.0,0.008773924307505121
1781.0,0.0087296108049002
1780.0,0.0087296108049002
1779.0,0.008773924307505121
1778.0,0.008773924307505121
1777.0,0.008773924307505121
1776.0,0.008773924307505121
1775.0,0.008685301823389224
1774.0,0.008596697419959609
1773.0,0.008552401996197112
1772.0,0.008596697419959609
1771.0,0.008773924307505121
1770.0,0.009039900317800775
1769.0,0.009261671492462709
1768.0,0.009350411681145587
1767.0,0.009261671492462709
1766.0,0.00908424549391551
1765.0,0.008995559669244813
1764.0,0.008951223547323472
1763.0,0.008906891951112605
1762.0,0.008906891951112605
1761.0,0.008862564879688284
1760.0,0.008906891951112605
1759.0,0.009039900317800775
1758.0,0.009128595198514056
1757.0,0.009217308196862062
1756.0,0.009261671492462709
1755.0,0.009306039320248427
1754.0,0.00939478857608056
1753.0,0.009439170005980158
1752.0,0.009527946474380489
1751.0,0.009705553871561357
1750.0,0.009883233932095559
1749.0,0.009972101229705377
1748.0,0.009972101229705377
1747.0,0.009927665307847056
1746.0,0.009883233932095559
1745.0,0.009883233932095559
1744.0,0.009927665307847056
1743.0,0.009927665307847056
1742.0,0.009927665307847056
1741.0,0.009927665307847056
1740.0,0.009972101229705377
1739.0,0.009927665307847056
1738.0,0.009972101229705377
1737.0,0.01001654169860089
1736.0,0.010060986715464404
1735.0,0.01001654169860089
1734.0,0.01001654169860089
1733.0,0.009883233932095559
1732.0,0.009838807101520963
1731.0,0.009883233932095559
1730.0,0.009927665307847056
1729.0,0.009883233932095559
1728.0,0.009838807101520963
1727.0,0.009838807101520963
1726.0,0.009794384815193347
1725.0,0.00974996707218323
1724.0,0.009705553871561357
1723.0,0.009705553871561357
1722.0,0.00974996707218323
1721.0,0.009838807101520963
1720.0,0.009883233932095559
1719.0,0.009794384815193347
1718.0,0.00966114521239847
1717.0,0.009572341514736404
1716.0,0.009527946474380489
1715.0,0.009527946474380489
1714.0,0.009572341514736404
1713.0,0.009616741093766423
1712.0,0.009527946474380489
1711.0,0.009439170005980158
1710.0,0.00939478857608056
1709.0,0.009350411681145587
1708.0,0.00939478857608056
1707.0,0.009439170005980158
1706.0,0.009439170005980158
1705.0,0.009439170005980158
1704.0,0.009483555971770974
1703.0,0.009572341514736404
1702.0,0.009616741093766423
1701.0,0.009527946474380489
1700.0,0.00939478857608056
1699.0,0.009217308196862062
1698.0,0.009306039320248427
1697.0,0.009483555971770974
1696.0,0.009572341514736404
1695.0,0.009483555971770974
1694.0,0.009483555971770974
1693.0,0.009572341514736404
1692.0,0.009572341514736404
1691.0,0.009483555971770974
1690.0,0.009350411681145587
1689.0,0.009261671492462709
1688.0,0.009217308196862062
1687.0,0.009128595198514056
1686.0,0.008995559669244813
1685.0,0.009128595198514056
1684.0,0.009527946474380489
1683.0,0.00966114521239847
1682.0,0.009705553871561357
1681.0,0.009705553871561357
1680.0,0.00966114521239847
1679.0,0.00966114521239847
1678.0,0.009705553871561357
1677.0,0.009705553871561357
1676.0,0.009616741093766423
1675.0,0.009483555971770974
1674.0,0.009350411681145587
1673.0,0.009261671492462709
1672.0,0.009172949432521227
1671.0,0.009172949432521227
1670.0,0.009261671492462709
1669.0,0.00939478857608056
1668.0,0.009439170005980158
1667.0,0.009439170005980158
1666.0,0.00939478857608056
1665.0,0.009350411681145587
1664.0,0.009306039320248427
1663.0,0.009350411681145587
1662.0,0.009439170005980158
1661.0,0.009527946474380489
1660.0,0.009616741093766423
1659.0,0.00966114521239847
1658.0,0.009616741093766423
1657.0,0.009616741093766423
1656.0,0.009572341514736404
1655.0,0.009439170005980158
1654.0,0.00939478857608056
1653.0,0.009439170005980158
1652.0,0.009172949432521227
1651.0,0.00908424549391551
1650.0,0.009172949432521227
1649.0,0.009217308196862062
1648.0,0.009261671492462709
1647.0,0.009439170005980158
1646.0,0.00966114521239847
1645.0,0.009705553871561357
1644.0,0.00974996707218323
1643.0,0.009705553871561357
1642.0,0.009705553871561357
1641.0,0.00966114521239847
1640.0,0.009572341514736404
1639.0,0.009483555971770974
1638.0,0.00939478857608056
1637.0,0.00939478857608056
1636.0,0.009616741093766423
1635.0,0.00974996707218323
1634.0,0.00974996707218323
1633.0,0.009705553871561357
1632.0,0.00966114521239847
1631.0,0.009616741093766423
1630.0,0.009572341514736404
1629.0,0.009616741093766423
1628.0,0.00966114521239847
1627.0,0.009705553871561357
1626.0,0.009705553871561357
1625.0,0.009705553871561357
1624.0,0.00966114521239847
1623.0,0.00966114521239847
1622.0,0.009572341514736404
1621.0,0.009527946474380489
1620.0,0.009572341514736404
1619.0,0.009572341514736404
1618.0,0.009572341514736404
1617.0,0.009483555971770974
1616.0,0.009306039320248427
1615.0,0.009217308196862062
1614.0,0.009306039320248427
1613.0,0.00939478857608056
1612.0,0.009439170005980158
1611.0,0.009350411681145587
1610.0,0.009306039320248427
1609.0,0.009261671492462709
1608.0,0.009261671492462709
1607.0,0.009306039320248427
1606.0,0.009306039320248427
1605.0,0.009261671492462709
1604.0,0.009261671492462709
1603.0,0.009350411681145587
1602.0,0.00939478857608056
1601.0,0.00939478857608056
1600.0,0.009306039320248427
1599.0,0.009217308196862062
1598.0,0.009128595198514056
1597.0,0.009039900317800775
1596.0,0.008951223547323472
1595.0,0.008951223547323472
1594.0,0.008951223547323472
1593.0,0.008951223547323472
1592.0,0.008951223547323472
1591.0,0.008906891951112605
1590.0,0.008862564879688284
1589.0,0.008818242332126802
1588.0,0.008818242332126802
1587.0,0.008862564879688284
1586.0,0.008906891951112605
1585.0,0.008906891951112605
1584.0,0.008906891951112605
1583.0,0.008906891951112605
1582.0,0.008862564879688284
1581.0,0.008773924307505121
1580.0,0.0087296108049002
1579.0,0.008773924307505121
1578.0,0.008862564879688284
1577.0,0.008951223547323472
1576.0,0.008951223547323472
1575.0,0.008862564879688284
1574.0,0.008818242332126802
1573.0,0.008818242332126802
1572.0,0.008773924307505121
1571.0,0.008685301823389224
1570.0,0.008685301823389224
1569.0,0.0087296108049002
1568.0,0.008773924307505121
1567.0,0.008818242332126802
1566.0,0.008862564879688284
1565.0,0.008862564879688284
1564.0,0.008862564879688284
1563.0,0.008951223547323472
1562.0,0.008995559669244813
1561.0,0.008862564879688284
1560.0,0.008773924307505121
1559.0,0.00908424549391551
1558.0,0.009039900317800775
1557.0,0.008906891951112605
1556.0,0.008951223547323472
1555.0,0.008995559669244813
1554.0,0.009039900317800775
1553.0,0.008995559669244813
1552.0,0.008951223547323472
1551.0,0.008818242332126802
1550.0,0.008685301823389224
1549.0,0.008640997362049818
1548.0,0.008640997362049818
1547.0,0.008596697419959609
1546.0,0.008463824699968647
1545.0,0.008242460465651913
1544.0,0.008109696063975047
1543.0,0.007976972236149349
1542.0,0.007932739972333236
1541.0,0.008153946355103248
1540.0,0.008419542825660153
1539.0,0.008375265465994541
1538.0,0.008198201155356077
1537.0,0.008242460465651913
1536.0,0.008286724286910463
1535.0,0.008242460465651913
1534.0,0.008242460465651913
1533.0,0.008330992620051436
1532.0,0.008375265465994541
1531.0,0.008375265465994541
1530.0,0.008330992620051436
1529.0,0.008286724286910463
1528.0,0.008286724286910463
1527.0,0.008286724286910463
1526.0,0.008286724286910463
1525.0,0.008242460465651913
1524.0,0.008286724286910463
1523.0,0.008330992620051436
1522.0,0.008419542825660153
1521.0,0.008419542825660153
1520.0,0.008286724286910463
1519.0,0.008109696063975047
1518.0,0.008021209005416363
1517.0,0.008065450281052211
1516.0,0.008153946355103248
1515.0,0.008242460465651913
1514.0,0.008286724286910463
1513.0,0.008242460465651913
1512.0,0.008153946355103248
1511.0,0.008065450281052211
1510.0,0.008065450281052211
1509.0,0.008065450281052211
1508.0,0.008153946355103248
1507.0,0.008286724286910463
1506.0,0.008198201155356077
1505.0,0.008065450281052211
1504.0,0.008021209005416363
1503.0,0.008065450281052211
1502.0,0.008065450281052211
1501.0,0.008065450281052211
1500.0,0.008109696063975047
1499.0,0.008153946355103248
1498.0,0.008242460465651913
1497.0,0.008419542825660153
1496.0,0.008596697419959609
1495.0,0.008640997362049818
1494.0,0.008685301823389224
1493.0,0.008773924307505121
1492.0,0.0087296108049002
1491.0,0.008596697419959609
1490.0,0.008463824699968647
1489.0,0.008419542825660153
1488.0,0.008463824699968647
1487.0,0.008463824699968647
1486.0,0.008463824699968647
1485.0,0.00850811108984062
1484.0,0.008552401996197112
1483.0,0.008596697419959609
1482.0,0.008640997362049818
1481.0,0.008773924307505121
1480.0,0.008995559669244813
1479.0,0.009217308196862062
1478.0,0.009616741093766423
1477.0,0.010283280051895272
1476.0,0.011218156546359825
1475.0,0.012378417874516323
1474.0,0.013900374944870508
1473.0,0.015922966097169144
1472.0,0.017909760704207134
1471.0,0.019360432556262852
1470.0,0.02067930261797568
1469.0,0.022139270735302752
1468.0,0.023833499868024743
1467.0,0.025810808881832736
1466.0,0.02849221828874393
1465.0,0.03179733185715028
1464.0,0.03479829897408804
1463.0,0.03663723389626394
1462.0,0.037583306554248797
1461.0,0.03796231343498735
1460.0,0.03810452633214956
1459.0,0.03829421599749461
1458.0,0.03919637508823026
1457.0,0.04091088563260792
1456.0,0.041914151478914974
1455.0,0.04200982159316968
1454.0,0.04186632432376469
1453.0,0.04172287445230238
1452.0,0.04138834223512067
1451.0,0.04081545726880842
1450.0,0.03995754427315856
1449.0,0.038721320914956836
1448.0,0.037062711569998186
1447.0,0.03512779136222477
1446.0,0.033154576345083564
1445.0,0.03128362253321426
1444.0,0.029513651152349718
1443.0,0.027936083991977778
1442.0,0.026687379547098322
1441.0,0.025718641122169483
1440.0,0.025074013910237447
1439.0,0.02475205875931885
1438.0,0.02475205875931885
1437.0,0.025028005701930978
1436.0,0.02512002699306959
1435.0,0.02461415101053266
1434.0,0.02365002099672653
1433.0,0.022413561996148967
1432.0,0.020952673052035298
1431.0,0.019632973815224997
1430.0,0.018543833477873584
1429.0,0.01768353030793479
1428.0,0.017050711425501408
1427.0,0.016509028184833463
1426.0,0.016058141016111804
1425.0,0.015607721475734415
1424.0,0.015247721884586563
1423.0,0.015067833932588037
1422.0,0.014888020460646079
1421.0,0.014618439768003144
1420.0,0.014259258949925524
1419.0,0.01403492169512921
1418.0,0.013900374944870508
1417.0,0.013765869865004277
1416.0,0.013541787262693505
1415.0,0.013407393177789162
1414.0,0.01322826573375524
1413.0,0.013049212141483357
1412.0,0.012914970375878188
1411.0,0.012825498912458322
1410.0,0.012736045877764557
1409.0,0.01260190086298274
1408.0,0.012423105273012602
1407.0,0.012244383261476699
1406.0,0.01215504982870197
1405.0,0.012065734767841452
1404.0,0.0119764380713403
1403.0,0.011887159731648111
1402.0,0.011842527443247208
1401.0,0.011664044143949504
1400.0,0.011485634166333858
1399.0,0.011351874764248926
1398.0,0.011262724711199823
1397.0,0.01117359295472431
1396.0,0.011039929609661936
1395.0,0.010950843561779777
1394.0,0.010906307389674463
1393.0,0.01086177578421088
1392.0,0.010817248744452446
1391.0,0.01086177578421088
1390.0,0.010906307389674463
1389.0,0.011039929609661936
1388.0,0.011307297450183107
1387.0,0.011931796607364653
1386.0,0.012870232340102872
1385.0,0.014214382227394795
1384.0,0.016148281008528276
1383.0,0.01899731005860028
1382.0,0.02282532397981263
1381.0,0.027797161620935595
1380.0,0.03409308450480819
1379.0,0.041436116778032606
1378.0,0.04871106272232795
1377.0,0.05458065739693696
1376.0,0.05789269101064454
1375.0,0.05799194697768684
1374.0,0.054876229877880656
1373.0,0.04997609347667353
1372.0,0.04469717723830824
1371.0,0.039767126871487646
1370.0,0.03526907894637077
1369.0,0.03147035562516054
1368.0,0.02863136320857662
1367.0,0.026687379547098322
1366.0,0.02544225514642018
1365.0,0.024706084643793647
1364.0,0.024476287039668643
1363.0,0.024798037742147727
1362.0,0.02539620791296726
1361.0,0.026087429580295085
1360.0,0.02654885597506529
1359.0,0.02664120011360227
1358.0,0.02636422658259252
1357.0,0.02562649291857677
1356.0,0.024660115394541604
1355.0,0.023604163388120325
1354.0,0.02245929405346514
1353.0,0.0214542995372613
1352.0,0.020497151212598652
1351.0,0.019632973815224997
1350.0,0.018906576854070378
1349.0,0.018362575344230914
1348.0,0.017955020928509757
1347.0,0.01759307113620534
1346.0,0.017231422748988034
1345.0,0.016824927962187042
1344.0,0.01646391839700767
1343.0,0.016148281008528276
1342.0,0.015832872853011715
1341.0,0.015652742414136167
1340.0,0.015562705203923999
1339.0,0.015562705203923999
1338.0,0.015562705203923999
1337.0,0.015517693597737248
1336.0,0.01547268665620738
1335.0,0.01538268676325183
1334.0,0.01538268676325183
1333.0,0.015427684378367834
1332.0,0.015562705203923999
1331.0,0.015652742414136167
1330.0,0.015742798294583915
1329.0,0.01578783323856614
1328.0,0.015742798294583915
1327.0,0.015697768020096703
1326.0,0.015562705203923999
1325.0,0.015337693809893471
1324.0,0.015022873584506602
1323.0,0.014708281407112
1322.0,0.014438812226654996
1321.0,0.014259258949925524
1320.0,0.014169510141607944
1319.0,0.014079779876432497
1318.0,0.013945219230304673
1317.0,0.01385553528947936
1316.0,0.01381070026317599
1315.0,0.01385553528947936
1314.0,0.013900374944870508
1313.0,0.013900374944870508
1312.0,0.01381070026317599
1311.0,0.013765869865004277
1310.0,0.01372104409400876
1309.0,0.01381070026317599
1308.0,0.013990068146738865
1307.0,0.014304140310157809
1306.0,0.014663358264387139
1305.0,0.014932966849499074
1304.0,0.014977917890464765
1303.0,0.014888020460646079
1302.0,0.014753209197138295
1301.0,0.014573525916998342
1300.0,0.01452861671041239
1299.0,0.01452861671041239
1298.0,0.014573525916998342
1297.0,0.014618439768003144
1296.0,0.014618439768003144
1295.0,0.014573525916998342
1294.0,0.0144837121472845
1293.0,0.014393916947563534
1292.0,0.014214382227394795
1291.0,0.01403492169512921
1290.0,0.01381070026317599
1289.0,0.013631406429727155
1288.0,0.013496984613259544
1287.0,0.013362604389846044
1286.0,0.013317820220494436
1285.0,0.013273040668781544
1284.0,0.01322826573375524
1283.0,0.01318349541446362
1282.0,0.013138729709955221
1281.0,0.013093968619278806
1280.0,0.013004460275618523
1279.0,0.012914970375878188
1278.0,0.012825498912458322
1277.0,0.012780770091995297
1276.0,0.012736045877764557
1275.0,0.012780770091995297
1274.0,0.012780770091995297
1273.0,0.012736045877764557
1272.0,0.012691326268817527
1271.0,0.01264661126420652
1270.0,0.012691326268817527
1269.0,0.012780770091995297
1268.0,0.012870232340102872
1267.0,0.012959713020733288
1266.0,0.013004460275618523
1265.0,0.013004460275618523
1264.0,0.013049212141483357
1263.0,0.013138729709955221
1262.0,0.01322826573375524
1261.0,0.013317820220494436
1260.0,0.013452186585275916
1259.0,0.013586594534531482
1258.0,0.013765869865004277
1257.0,0.013945219230304673
1256.0,0.014079779876432497
1255.0,0.014079779876432497
1254.0,0.013990068146738865
1253.0,0.01381070026317599
1252.0,0.013541787262693505
1251.0,0.01322826573375524
1250.0,0.013004460275618523
1249.0,0.012870232340102872
1248.0,0.012780770091995297
1247.0,0.012736045877764557
1246.0,0.012691326268817527
1245.0,0.01260190086298274
1244.0,0.012512493866907004
1243.0,0.012467797270160563
1242.0,0.012423105273012602
1241.0,0.012467797270160563
1240.0,0.012467797270160563
1239.0,0.012423105273012602
1238.0,0.012333735073725371
1237.0,0.012244383261476699
1236.0,0.01215504982870197
1235.0,0.012065734767841452
1234.0,0.012065734767841452
1233.0,0.012021084124518078
1232.0,0.0119764380713403
1231.0,0.011931796607364653
1230.0,0.011931796607364653
1229.0,0.012021084124518078
1228.0,0.012065734767841452
1227.0,0.012110390002254778
1226.0,0.01215504982870197
1225.0,0.012199714248127602
1224.0,0.012289056869694281
1223.0,0.012423105273012602
1222.0,0.012557195064198723
1221.0,0.012736045877764557
1220.0,0.012825498912458322
1219.0,0.012825498912458322
1218.0,0.012780770091995297
1217.0,0.012736045877764557
1216.0,0.012691326268817527
1215.0,0.012691326268817527
1214.0,0.01260190086298274
1213.0,0.012467797270160563
1212.0,0.012333735073725371
1211.0,0.012244383261476699
1210.0,0.012244383261476699
1209.0,0.012244383261476699
1208.0,0.012199714248127602
1207.0,0.01215504982870197
1206.0,0.012110390002254778
1205.0,0.012065734767841452
1204.0,0.012021084124518078
1203.0,0.0119764380713403
1202.0,0.011887159731648111
1201.0,0.011842527443247208
1200.0,0.011797899741219142
1199.0,0.011753276624621556
1198.0,0.011797899741219142
1197.0,0.011842527443247208
1196.0,0.011931796607364653
1195.0,0.0119764380713403
1194.0,0.012021084124518078
1193.0,0.012021084124518078
1192.0,0.0119764380713403
1191.0,0.0119764380713403
1190.0,0.012021084124518078
1189.0,0.012065734767841452
1188.0,0.012110390002254778
1187.0,0.012065734767841452
1186.0,0.012021084124518078
1185.0,0.012021084124518078
1184.0,0.012065734767841452
1183.0,0.012199714248127602
1182.0,0.012289056869694281
1181.0,0.012333735073725371
1180.0,0.012378417874516323
1179.0,0.012423105273012602
1178.0,0.012467797270160563
1177.0,0.01264661126420652
1176.0,0.012959713020733288
1175.0,0.013362604389846044
1174.0,0.013990068146738865
1173.0,0.014843078722943437
1172.0,0.015832872853011715
1171.0,0.016915227262211507
1170.0,0.018045555530026514
1169.0,0.019042683770379876
1168.0,0.019723858922159776
1167.0,0.020087589665283012
1166.0,0.020087589665283012
1165.0,0.019769308608968306
1164.0,0.019360432556262852
1163.0,0.018906576854070378
1162.0,0.018543833477873584
1161.0,0.018181392829336396
1160.0,0.017909760704207134
1159.0,0.01768353030793479
1158.0,0.017457417697056554
1157.0,0.017321806616515723
1156.0,0.017231422748988034
1155.0,0.017141057687924732
1154.0,0.017095882207371904
1153.0,0.017005545341335804
1152.0,0.016915227262211507
1151.0,0.01677978535189717
1150.0,0.016644385668211692
1149.0,0.016373712875465518
1148.0,0.016058141016111804
1147.0,0.015697768020096703
1146.0,0.015427684378367834
1145.0,0.015157768594724175
1144.0,0.014932966849499074
1143.0,0.014618439768003144
1142.0,0.014304140310157809
1141.0,0.013990068146738865
1140.0,0.01381070026317599
1139.0,0.013676222949234651
1138.0,0.013541787262693505
1137.0,0.013452186585275916
1136.0,0.013317820220494436
1135.0,0.01318349541446362
1134.0,0.013049212141483357
1133.0,0.012870232340102872
1132.0,0.01264661126420652
1131.0,0.012512493866907004
1130.0,0.012467797270160563
1129.0,0.012512493866907004
1128.0,0.01260190086298274
1127.0,0.012691326268817527
1126.0,0.012691326268817527
1125.0,0.012691326268817527
1124.0,0.012736045877764557
1123.0,0.012825498912458322
1122.0,0.012825498912458322
1121.0,0.012825498912458322
1120.0,0.012870232340102872
1119.0,0.012914970375878188
1118.0,0.013049212141483357
1117.0,0.013138729709955221
1116.0,0.01322826573375524
1115.0,0.013273040668781544
1114.0,0.013273040668781544
1113.0,0.013273040668781544
1112.0,0.013273040668781544
1111.0,0.013273040668781544
1110.0,0.013317820220494436
1109.0,0.013362604389846044
1108.0,0.013541787262693505
1107.0,0.013676222949234651
1106.0,0.013900374944870508
1105.0,0.014079779876432497
1104.0,0.014304140310157809
1103.0,0.0144837121472845
1102.0,0.014573525916998342
1101.0,0.0144837121472845
1100.0,0.014259258949925524
1099.0,0.014079779876432497
1098.0,0.01385553528947936
1097.0,0.013631406429727155
1096.0,0.013452186585275916
1095.0,0.013362604389846044
1094.0,0.013317820220494436
1093.0,0.013273040668781544
1092.0,0.01318349541446362
1091.0,0.013004460275618523
1090.0,0.012736045877764557
1089.0,0.012557195064198723
1088.0,0.012423105273012602
1087.0,0.012378417874516323
1086.0,0.012423105273012602
1085.0,0.012333735073725371
1084.0,0.012199714248127602
1083.0,0.012021084124518078
1082.0,0.011931796607364653
1081.0,0.011931796607364653
1080.0,0.011931796607364653
1079.0,0.011931796607364653
1078.0,0.011887159731648111
1077.0,0.011842527443247208
1076.0,0.011797899741219142
1075.0,0.011753276624621556
1074.0,0.011753276624621556
1073.0,0.011708658092512314
1072.0,0.011753276624621556
1071.0,0.011708658092512314
1070.0,0.011664044143949504
1069.0,0.011530229790124524
1068.0,0.011485634166333858
1067.0,0.011530229790124524
1066.0,0.011619434777991433
1065.0,0.011664044143949504
1064.0,0.011664044143949504
1063.0,0.011619434777991433
1062.0,0.011619434777991433
1061.0,0.011664044143949504
1060.0,0.011753276624621556
1059.0,0.011842527443247208
1058.0,0.011887159731648111
1057.0,0.011887159731648111
1056.0,0.011931796607364653
1055.0,0.012021084124518078
1054.0,0.012199714248127602
1053.0,0.012557195064198723
1052.0,0.012914970375878188
1051.0,0.01318349541446362
1050.0,0.013362604389846044
1049.0,0.013541787262693505
1048.0,0.013765869865004277
1047.0,0.01403492169512921
1046.0,0.014304140310157809
1045.0,0.01452861671041239
1044.0,0.014708281407112
1043.0,0.014798141635428141
1042.0,0.014843078722943437
1041.0,0.014753209197138295
1040.0,0.014663358264387139
1039.0,0.0144837121472845
1038.0,0.014349026309051105
1037.0,0.014214382227394795
1036.0,0.014124642691606404
1035.0,0.014079779876432497
1034.0,0.014124642691606404
1033.0,0.014214382227394795
1032.0,0.014259258949925524
1031.0,0.014214382227394795
1030.0,0.014079779876432497
1029.0,0.013990068146738865
1028.0,0.013990068146738865
1027.0,0.014124642691606404
1026.0,0.014349026309051105
1025.0,0.01452861671041239
1024.0,0.014708281407112
1023.0,0.014843078722943437
1022.0,0.014977917890464765
1021.0,0.015157768594724175
1020.0,0.01538268676325183
1019.0,0.015607721475734415
1018.0,0.015697768020096703
1017.0,0.015652742414136167
1016.0,0.015607721475734415
1015.0,0.015517693597737248
1014.0,0.015517693597737248
1013.0,0.01547268665620738
1012.0,0.01538268676325183
1011.0,0.015157768594724175
1010.0,0.014843078722943437
1009.0,0.01452861671041239
1008.0,0.014259258949925524
1007.0,0.014124642691606404
1006.0,0.014214382227394795
1005.0,0.014438812226654996
1004.0,0.014798141635428141
1003.0,0.015427684378367834
1002.0,0.01632861713980338
1001.0,0.01768353030793479
1000.0,0.019178833355664393
999.0,0.020633757603838898
998.0,0.021499930688540836
997.0,0.021545566634771474
996.0,0.020861530453190058
995.0,0.019723858922159776
994.0,0.018543833477873584
993.0,0.017457417697056554
992.0,0.016554142658660398
991.0,0.015742798294583915
990.0,0.015067833932588037
989.0,0.014573525916998342
988.0,0.014169510141607944
987.0,0.013900374944870508
986.0,0.013765869865004277
985.0,0.01372104409400876
984.0,0.01385553528947936
983.0,0.014079779876432497
982.0,0.014349026309051105
981.0,0.014663358264387139
980.0,0.015112798935672522
979.0,0.016013078034810446
978.0,0.017321806616515723
977.0,0.018951941086827073
976.0,0.02067930261797568
975.0,0.02227639471115217
974.0,0.023604163388120325
973.0,0.024246610963712723
972.0,0.024017056287453542
971.0,0.02291687968414724
970.0,0.021317434843055594
969.0,0.019632973815224997
968.0,0.018226681372252695
967.0,0.017095882207371904
966.0,0.016238439713835096
965.0,0.015517693597737248
964.0,0.014977917890464765
963.0,0.014618439768003144
962.0,0.014393916947563534
961.0,0.014214382227394795
960.0,0.01403492169512921
959.0,0.01385553528947936
958.0,0.013631406429727155
957.0,0.013496984613259544
956.0,0.013317820220494436
955.0,0.013138729709955221
954.0,0.012959713020733288
953.0,0.012825498912458322
952.0,0.012691326268817527
951.0,0.01264661126420652
950.0,0.01264661126420652
949.0,0.012736045877764557
948.0,0.012825498912458322
947.0,0.012914970375878188
946.0,0.013049212141483357
945.0,0.01322826573375524
944.0,0.013407393177789162
943.0,0.013631406429727155
942.0,0.01381070026317599
941.0,0.01385553528947936
940.0,0.01372104409400876
939.0,0.013496984613259544
938.0,0.01322826573375524
937.0,0.013093968619278806
936.0,0.013093968619278806
935.0,0.013138729709955221
934.0,0.01322826573375524
933.0,0.013273040668781544
932.0,0.013273040668781544
931.0,0.01318349541446362
930.0,0.013093968619278806
929.0,0.013049212141483357
928.0,0.013093968619278806
927.0,0.013138729709955221
926.0,0.01322826573375524
925.0,0.013273040668781544
924.0,0.013273040668781544
923.0,0.01322826573375524
922.0,0.013273040668781544
921.0,0.013362604389846044
920.0,0.013362604389846044
919.0,0.01322826573375524
918.0,0.013093968619278806
917.0,0.013004460275618523
916.0,0.013093968619278806
915.0,0.013138729709955221
914.0,0.01318349541446362
913.0,0.013138729709955221
912.0,0.013049212141483357
911.0,0.013049212141483357
910.0,0.013049212141483357
909.0,0.013093968619278806
908.0,0.013093968619278806
907.0,0.013138729709955221
906.0,0.01322826573375524
905.0,0.013407393177789162
904.0,0.013900374944870508
903.0,0.014753209197138295
902.0,0.015697768020096703
901.0,0.016599261819461697
900.0,0.017186237868137555
899.0,0.017457417697056554
898.0,0.017367005605150476
897.0,0.016960383953898095
896.0,0.01632861713980338
895.0,0.015652742414136167
894.0,0.014977917890464765
893.0,0.0144837121472845
892.0,0.014079779876432497
891.0,0.01381070026317599
890.0,0.013676222949234651
889.0,0.013631406429727155
888.0,0.013765869865004277
887.0,0.013900374944870508
886.0,0.013945219230304673
885.0,0.01385553528947936
884.0,0.01372104409400876
883.0,0.013631406429727155
882.0,0.01372104409400876
881.0,0.01385553528947936
880.0,0.014079779876432497
879.0,0.014349026309051105
878.0,0.014798141635428141
877.0,0.015337693809893471
876.0,0.015742798294583915
875.0,0.015877917138889863
874.0,0.015652742414136167
873.0,0.015202742910707112
872.0,0.014708281407112
871.0,0.014393916947563534
870.0,0.014214382227394795
869.0,0.014214382227394795
868.0,0.014259258949925524
867.0,0.014259258949925524
866.0,0.014304140310157809
865.0,0.014259258949925524
864.0,0.014169510141607944
863.0,0.014079779876432497
862.0,0.014079779876432497
861.0,0.014169510141607944
860.0,0.014393916947563534
859.0,0.014663358264387139
858.0,0.014932966849499074
857.0,0.015112798935672522
856.0,0.015157768594724175
855.0,0.015067833932588037
854.0,0.015022873584506602
853.0,0.015112798935672522
852.0,0.015202742910707112
851.0,0.015292705517326866
850.0,0.015292705517326866
849.0,0.015202742910707112
848.0,0.015112798935672522
847.0,0.015337693809893471
846.0,0.016058141016111804
845.0,0.017412209298337533
844.0,0.019315025636685412
843.0,0.02140867317992523
842.0,0.02300845469384938
841.0,0.02355831062115543
840.0,0.022688026603074007
839.0,0.020907099361673565
838.0,0.0190880622231564
837.0,0.017774008325325275
836.0,0.017095882207371904
835.0,0.016689514205884493
834.0,0.016373712875465518
833.0,0.016058141016111804
832.0,0.015742798294583915
831.0,0.01547268665620738
830.0,0.01538268676325183
829.0,0.015427684378367834
828.0,0.015517693597737248
827.0,0.015607721475734415
826.0,0.015607721475734415
825.0,0.015607721475734415
824.0,0.015652742414136167
823.0,0.01578783323856614
822.0,0.015922966097169144
821.0,0.016103208673694303
820.0,0.01628352608625061
819.0,0.016418813294209356
818.0,0.01646391839700767
817.0,0.016509028184833463
816.0,0.016599261819461697
815.0,0.016824927962187042
814.0,0.017367005605150476
813.0,0.01809082990920774
812.0,0.018861217359339655
811.0,0.01949668180660491
810.0,0.01995115493504329
809.0,0.02026956933771462
808.0,0.020406104151069693
807.0,0.02026956933771462
806.0,0.019860222254245663
805.0,0.019360432556262852
804.0,0.018861217359339655
803.0,0.01845319495476394
802.0,0.01809082990920774
801.0,0.017774008325325275
800.0,0.017502630802287644
799.0,0.01727661233145472
798.0,0.017005545341335804
797.0,0.016734647433454652
796.0,0.016644385668211692
795.0,0.016644385668211692
794.0,0.016689514205884493
793.0,0.016599261819461697
792.0,0.016373712875465518
791.0,0.016058141016111804
790.0,0.015742798294583915
789.0,0.015517693597737248
788.0,0.01547268665620738
787.0,0.015697768020096703
786.0,0.016013078034810446
785.0,0.016193358021584725
784.0,0.016103208673694303
783.0,0.015742798294583915
782.0,0.015292705517326866
781.0,0.014932966849499074
780.0,0.014843078722943437
779.0,0.015022873584506602
778.0,0.015427684378367834
777.0,0.015832872853011715
776.0,0.016058141016111804
775.0,0.016058141016111804
774.0,0.01578783323856614
773.0,0.01547268665620738
772.0,0.015247721884586563
771.0,0.015202742910707112
770.0,0.01538268676325183
769.0,0.015697768020096703
768.0,0.016148281008528276
767.0,0.016554142658660398
766.0,0.016870075265299933
765.0,0.016915227262211507
764.0,0.016870075265299933
763.0,0.01677978535189717
762.0,0.01677978535189717
761.0,0.016870075265299933
760.0,0.017005545341335804
759.0,0.017186237868137555
758.0,0.017321806616515723
757.0,0.017367005605150476
756.0,0.017412209298337533
755.0,0.017502630802287644
754.0,0.01759307113620534
753.0,0.01759307113620534
752.0,0.017367005605150476
751.0,0.017005545341335804
750.0,0.016689514205884493
749.0,0.01646391839700767
748.0,0.016373712875465518
747.0,0.01646391839700767
746.0,0.016599261819461697
745.0,0.016599261819461697
744.0,0.016509028184833463
743.0,0.016554142658660398
742.0,0.01677978535189717
741.0,0.016915227262211507
740.0,0.016734647433454652
739.0,0.016193358021584725
738.0,0.015742798294583915
737.0,0.015652742414136167
736.0,0.01578783323856614
735.0,0.01596801972881945
734.0,0.016238439713835096
733.0,0.016870075265299933
732.0,0.017864505196230507
731.0,0.018906576854070378
730.0,0.019451260640229506
729.0,0.019178833355664393
728.0,0.01831727262871463
727.0,0.017502630802287644
726.0,0.01727661233145472
725.0,0.017638298366853045
724.0,0.018136109008649592
723.0,0.018634490921455527
722.0,0.019133445417920836
721.0,0.019723858922159776
720.0,0.02026956933771462
719.0,0.02045162529590483
718.0,0.02022406727031445
717.0,0.019860222254245663
716.0,0.01958753839310856
715.0,0.019678413991243593
714.0,0.019860222254245663
713.0,0.01958753839310856
712.0,0.018679826740892747
711.0,0.017728766960431575
710.0,0.01768353030793479
709.0,0.018679826740892747
708.0,0.019860222254245663
707.0,0.02004210665933459
706.0,0.019042683770379876
705.0,0.017955020928509757
704.0,0.018045555530026514
703.0,0.01940584422377989
702.0,0.021135015652343103
701.0,0.02227639471115217
700.0,0.022367834754000393
699.0,0.021956506090037076
698.0,0.02168250325324883
697.0,0.02204787879853809
696.0,0.02296266477531872
695.0,0.023833499868024743
694.0,0.024292536462819925
693.0,0.024292536462819925
692.0,0.024338466818941473
691.0,0.024338466818941473
690.0,0.02355831062115543
689.0,0.021363051615525652
688.0,0.01845319495476394
687.0,0.016373712875465518
686.0,0.016148281008528276
685.0,0.017141057687924732
684.0,0.018136109008649592
683.0,0.01840788278591865
682.0,0.017955020928509757
681.0,0.016824927962187042
680.0,0.015112798935672522
679.0,0.013317820220494436
678.0,0.012199714248127602
677.0,0.012199714248127602
676.0,0.013138729709955221
675.0,0.014214382227394795
674.0,0.014753209197138295
673.0,0.014573525916998342
672.0,0.014259258949925524
671.0,0.014798141635428141
670.0,0.017005545341335804
669.0,0.020087589665283012
668.0,0.021499930688540836
667.0,0.020770406977844713
666.0,0.019360432556262852
665.0,0.01800028587012159
664.0,0.01677978535189717
663.0,0.015427684378367834
662.0,0.014169510141607944
661.0,0.013990068146738865
660.0,0.015202742910707112
659.0,0.016734647433454652
658.0,0.017050711425501408
657.0,0.01596801972881945
656.0,0.014618439768003144
655.0,0.014124642691606404
654.0,0.014438812226654996
653.0,0.014708281407112
652.0,0.014349026309051105
651.0,0.01372104409400876
650.0,0.013317820220494436
649.0,0.013362604389846044
648.0,0.013765869865004277
647.0,0.0144837121472845
646.0,0.016103208673694303
645.0,0.018906576854070378
644.0,0.02259651912656535
643.0,0.025902996205869
642.0,0.02738066094037661
641.0,0.02664120011360227
640.0,0.024890010313838973
639.0,0.023925268380126097
638.0,0.024430342106337877
637.0,0.025810808881832736
636.0,0.026410376572743033
635.0,0.025028005701930978
634.0,0.021728158389364705
633.0,0.018045555530026514
632.0,0.01578783323856614
631.0,0.01547268665620738
630.0,0.016599261819461697
629.0,0.01831727262871463
628.0,0.01990568621470623
627.0,0.020952673052035298
626.0,0.021271822861508305
625.0,0.021089422824428272
624.0,0.020952673052035298
623.0,0.0211806132671577
622.0,0.021636852916117055
621.0,0.02227639471115217
620.0,0.023191662661933732
619.0,0.023925268380126097
618.0,0.02351246269481
617.0,0.022367834754000393
616.0,0.022688026603074007
615.0,0.025672564576383117
614.0,0.02932775731028059
613.0,0.030397735151460825
612.0,0.027843464140506313
611.0,0.023879381700184332
610.0,0.020724852408976924
609.0,0.01831727262871463
608.0,0.015112798935672522
607.0,0.011084479487313281
606.0,0.007534852191956709
605.0,0.005814871797682919
604.0,0.006035001804881146
603.0,0.007800070204414977
602.0,0.01023881228122181
601.0,0.013093968619278806
600.0,0.017321806616515723
