cm-1,A
4000.0,0.0024
3999.0,0.0025
3998.0,0.0025
3997.0,0.0025
3996.0,0.0025
3995.0,0.0025
3994.0,0.0024
3993.0,0.0024
3992.0,0.0024
3991.0,0.0025
3990.0,0.0025
3989.0,0.0024
3988.0,0.0023
3987.0,0.0023
3986.0,0.0022
3985.0,0.0023
3984.0,0.0023
3983.0,0.0023
3982.0,0.0024
3981.0,0.0024
3980.0,0.0025
3979.0,0.0025
3978.0,0.0026
3977.0,0.0026
3976.0,0.0025
3975.0,0.0025
3974.0,0.0024
3973.0,0.0025
3972.0,0.0025
3971.0,0.0026
3970.0,0.0026
3969.0,0.0026
3968.0,0.0026
3967.0,0.0026
3966.0,0.0027
3965.0,0.0027
3964.0,0.0027
3963.0,0.0026
3962.0,0.0026
3961.0,0.0026
3960.0,0.0026
3959.0,0.0026
3958.0,0.0026
3957.0,0.0026
3956.0,0.0026
3955.0,0.0027
3954.0,0.0028
3953.0,0.0028
3952.0,0.0028
3951.0,0.0027
3950.0,0.0027
3949.0,0.0026
3948.0,0.0027
3947.0,0.0028
3946.0,0.0028
3945.0,0.0027
3944.0,0.0026
3943.0,0.0025
3942.0,0.0026
3941.0,0.0026
3940.0,0.0027
3939.0,0.0027
3938.0,0.0028
3937.0,0.0029
3936.0,0.0029
3935.0,0.0029
3934.0,0.0029
3933.0,0.0028
3932.0,0.0028
3931.0,0.0028
3930.0,0.0029
3929.0,0.003
3928.0,0.0031
3927.0,0.0031
3926.0,0.003
3925.0,0.0029
3924.0,0.0029
3923.0,0.0029
3922.0,0.0029
3921.0,0.0028
3920.0,0.0027
3919.0,0.0027
3918.0,0.0027
3917.0,0.0027
3916.0,0.0026
3915.0,0.0026
3914.0,0.0026
3913.0,0.0025
3912.0,0.0025
3911.0,0.0026
3910.0,0.0027
3909.0,0.0029
3908.0,0.003
3907.0,0.003
3906.0,0.0029
3905.0,0.0028
3904.0,0.0028
3903.0,0.003
3902.0,0.0031
3901.0,0.0031
3900.0,0.003
3899.0,0.003
3898.0,0.003
3897.0,0.003
3896.0,0.003
3895.0,0.0029
3894.0,0.0029
3893.0,0.0028
3892.0,0.0027
3891.0,0.0028
3890.0,0.0029
3889.0,0.003
3888.0,0.003
3887.0,0.0028
3886.0,0.0028
3885.0,0.003
3884.0,0.0032
3883.0,0.0032
3882.0,0.0031
3881.0,0.003
3880.0,0.003
3879.0,0.0031
3878.0,0.0031
3877.0,0.0031
3876.0,0.0029
3875.0,0.0028
3874.0,0.003
3873.0,0.0032
3872.0,0.0032
3871.0,0.003
3870.0,0.0029
3869.0,0.003
3868.0,0.0032
3867.0,0.0032
3866.0,0.003
3865.0,0.0029
3864.0,0.003
3863.0,0.0031
3862.0,0.0031
3861.0,0.003
3860.0,0.0029
3859.0,0.0029
3858.0,0.003
3857.0,0.0032
3856.0,0.0032
3855.0,0.0031
3854.0,0.0032
3853.0,0.0035
3852.0,0.0036
3851.0,0.0035
3850.0,0.0033
3849.0,0.0031
3848.0,0.0031
3847.0,0.003
3846.0,0.003
3845.0,0.003
3844.0,0.003
3843.0,0.0031
3842.0,0.0033
3841.0,0.0033
3840.0,0.0033
3839.0,0.0032
3838.0,0.0033
3837.0,0.0033
3836.0,0.0033
3835.0,0.0033
3834.0,0.0031
3833.0,0.003
3832.0,0.0029
3831.0,0.0029
3830.0,0.003
3829.0,0.003
3828.0,0.0029
3827.0,0.0028
3826.0,0.0029
3825.0,0.0031
3824.0,0.0033
3823.0,0.0032
3822.0,0.0031
3821.0,0.0032
3820.0,0.0034
3819.0,0.0035
3818.0,0.0033
3817.0,0.0029
3816.0,0.0028
3815.0,0.0028
3814.0,0.0029
3813.0,0.0028
3812.0,0.0028
3811.0,0.0028
3810.0,0.003
3809.0,0.0031
3808.0,0.003
3807.0,0.003
3806.0,0.0033
3805.0,0.0037
3804.0,0.0038
3803.0,0.0035
3802.0,0.0033
3801.0,0.0033
3800.0,0.0034
3799.0,0.0034
3798.0,0.0032
3797.0,0.0031
3796.0,0.0031
3795.0,0.0031
3794.0,0.003
3793.0,0.003
3792.0,0.0029
3791.0,0.003
3790.0,0.0031
3789.0,0.0032
3788.0,0.0032
3787.0,0.0032
3786.0,0.0031
3785.0,0.0031
3784.0,0.0032
3783.0,0.0033
3782.0,0.0033
3781.0,0.0032
3780.0,0.0031
3779.0,0.0031
3778.0,0.0032
3777.0,0.0033
3776.0,0.0032
3775.0,0.0031
3774.0,0.0031
3773.0,0.0031
3772.0,0.003
3771.0,0.0029
3770.0,0.003
3769.0,0.0032
3768.0,0.0034
3767.0,0.0033
3766.0,0.0031
3765.0,0.003
3764.0,0.0031
3763.0,0.0031
3762.0,0.0032
3761.0,0.0032
3760.0,0.0033
3759.0,0.0034
3758.0,0.0035
3757.0,0.0035
3756.0,0.0035
3755.0,0.0036
3754.0,0.0035
3753.0,0.0033
3752.0,0.0031
3751.0,0.0031
3750.0,0.0031
3749.0,0.0031
3748.0,0.0034
3747.0,0.0036
3746.0,0.0035
3745.0,0.0035
3744.0,0.0036
3743.0,0.0037
3742.0,0.0038
3741.0,0.0037
3740.0,0.0038
3739.0,0.004
3738.0,0.004
3737.0,0.0039
3736.0,0.0037
3735.0,0.0037
3734.0,0.0035
3733.0,0.0032
3732.0,0.003
3731.0,0.003
3730.0,0.003
3729.0,0.0031
3728.0,0.0033
3727.0,0.0035
3726.0,0.0038
3725.0,0.0041
3724.0,0.0041
3723.0,0.004
3722.0,0.004
3721.0,0.0039
3720.0,0.0039
3719.0,0.0038
3718.0,0.0037
3717.0,0.0037
3716.0,0.0038
3715.0,0.0038
3714.0,0.0037
3713.0,0.0036
3712.0,0.0036
3711.0,0.0038
3710.0,0.0039
3709.0,0.0039
3708.0,0.0038
3707.0,0.0037
3706.0,0.0038
3705.0,0.0039
3704.0,0.004
3703.0,0.0041
3702.0,0.0042
3701.0,0.0043
3700.0,0.0044
3699.0,0.0043
3698.0,0.0043
3697.0,0.0043
3696.0,0.0044
3695.0,0.0046
3694.0,0.0048
3693.0,0.0051
3692.0,0.0053
3691.0,0.0054
3690.0,0.0055
3689.0,0.0055
3688.0,0.0055
3687.0,0.0055
3686.0,0.0056
3685.0,0.0056
3684.0,0.0056
3683.0,0.0057
3682.0,0.0058
3681.0,0.0059
3680.0,0.0061
3679.0,0.0064
3678.0,0.0067
3677.0,0.0067
3676.0,0.0069
3675.0,0.0073
3674.0,0.0075
3673.0,0.0077
3672.0,0.0077
3671.0,0.0077
3670.0,0.008
3669.0,0.0082
3668.0,0.0081
3667.0,0.0081
3666.0,0.0081
3665.0,0.0082
3664.0,0.0083
3663.0,0.0085
3662.0,0.0086
3661.0,0.0087
3660.0,0.0089
3659.0,0.0091
3658.0,0.0093
3657.0,0.0096
3656.0,0.0099
3655.0,0.0103
3654.0,0.0107
3653.0,0.0111
3652.0,0.0114
3651.0,0.0118
3650.0,0.0123
3649.0,0.0128
3648.0,0.0129
3647.0,0.0129
3646.0,0.0129
3645.0,0.013
3644.0,0.0132
3643.0,0.0134
3642.0,0.0137
3641.0,0.0139
3640.0,0.0141
3639.0,0.0143
3638.0,0.0146
3637.0,0.015
3636.0,0.0153
3635.0,0.0156
3634.0,0.016
3633.0,0.0165
3632.0,0.0169
3631.0,0.0171
3630.0,0.0173
3629.0,0.018
3628.0,0.0186
3627.0,0.019
3626.0,0.0191
3625.0,0.0193
3624.0,0.0195
3623.0,0.0199
3622.0,0.0205
3621.0,0.0211
3620.0,0.0219
3619.0,0.0227
3618.0,0.0233
3617.0,0.0237
3616.0,0.024
3615.0,0.0242
3614.0,0.0244
3613.0,0.0248
3612.0,0.0252
3611.0,0.0255
3610.0,0.0258
3609.0,0.0262
3608.0,0.0268
3607.0,0.0274
3606.0,0.0278
3605.0,0.0281
3604.0,0.0284
3603.0,0.0288
3602.0,0.0293
3601.0,0.0299
3600.0,0.0304
3599.0,0.0309
3598.0,0.0313
3597.0,0.0317
3596.0,0.0322
3595.0,0.0328
3594.0,0.0333
3593.0,0.0337
3592.0,0.0341
3591.0,0.0344
3590.0,0.0347
3589.0,0.0351
3588.0,0.0357
3587.0,0.0364
3586.0,0.037
3585.0,0.0373
3584.0,0.0376
3583.0,0.0379
3582.0,0.0383
3581.0,0.0388
3580.0,0.0393
3579.0,0.0397
3578.0,0.04
3577.0,0.0404
3576.0,0.0408
3575.0,0.0413
3574.0,0.0418
3573.0,0.0424
3572.0,0.043
3571.0,0.0436
3570.0,0.0442
3569.0,0.0447
3568.0,0.0453
3567.0,0.046
3566.0,0.0466
3565.0,0.0471
3564.0,0.0474
3563.0,0.0477
3562.0,0.0481
3561.0,0.0485
3560.0,0.049
3559.0,0.0495
3558.0,0.0499
3557.0,0.0503
3556.0,0.0507
3555.0,0.0512
3554.0,0.0517
3553.0,0.0522
3552.0,0.0527
3551.0,0.0532
3550.0,0.0537
3549.0,0.0542
3548.0,0.0546
3547.0,0.055
3546.0,0.0555
3545.0,0.056
3544.0,0.0564
3543.0,0.0567
3542.0,0.0569
3541.0,0.0572
3540.0,0.0575
3539.0,0.0579
3538.0,0.0582
3537.0,0.0586
3536.0,0.0591
3535.0,0.0596
3534.0,0.06
3533.0,0.0604
3532.0,0.0607
3531.0,0.061
3530.0,0.0613
3529.0,0.0616
3528.0,0.0619
3527.0,0.0622
3526.0,0.0625
3525.0,0.0628
3524.0,0.0631
3523.0,0.0636
3522.0,0.064
3521.0,0.0643
3520.0,0.0647
3519.0,0.065
3518.0,0.0654
3517.0,0.0658
3516.0,0.0661
3515.0,0.0665
3514.0,0.0668
3513.0,0.0671
3512.0,0.0674
3511.0,0.0677
3510.0,0.068
3509.0,0.0684
3508.0,0.0688
3507.0,0.0691
3506.0,0.0694
3505.0,0.0697
3504.0,0.0701
3503.0,0.0706
3502.0,0.071
3501.0,0.0713
3500.0,0.0716
3499.0,0.0719
3498.0,0.0723
3497.0,0.0728
3496.0,0.0732
3495.0,0.0737
3494.0,0.074
3493.0,0.0744
3492.0,0.0747
3491.0,0.0751
3490.0,0.0754
3489.0,0.0758
3488.0,0.0762
3487.0,0.0766
3486.0,0.077
3485.0,0.0773
3484.0,0.0776
3483.0,0.078
3482.0,0.0785
3481.0,0.079
3480.0,0.0795
3479.0,0.08
3478.0,0.0804
3477.0,0.0808
3476.0,0.0812
3475.0,0.0816
3474.0,0.082
3473.0,0.0824
3472.0,0.0828
3471.0,0.0832
3470.0,0.0836
3469.0,0.0841
3468.0,0.0846
3467.0,0.0851
3466.0,0.0856
3465.0,0.086
3464.0,0.0864
3463.0,0.0868
3462.0,0.0872
3461.0,0.0876
3460.0,0.088
3459.0,0.0884
3458.0,0.0888
3457.0,0.0892
3456.0,0.0897
3455.0,0.0903
3454.0,0.0908
3453.0,0.0913
3452.0,0.0918
3451.0,0.0924
3450.0,0.0929
3449.0,0.0933
3448.0,0.0938
3447.0,0.0944
3446.0,0.095
3445.0,0.0954
3444.0,0.0958
3443.0,0.0962
3442.0,0.0966
3441.0,0.0971
3440.0,0.0977
3439.0,0.0983
3438.0,0.0988
3437.0,0.0994
3436.0,0.0999
3435.0,0.1004
3434.0,0.1009
3433.0,0.1014
3432.0,0.102
3431.0,0.1025
3430.0,0.1029
3429.0,0.1034
3428.0,0.1039
3427.0,0.1044
3426.0,0.1048
3425.0,0.1052
3424.0,0.1056
3423.0,0.106
3422.0,0.1065
3421.0,0.1071
3420.0,0.1077
3419.0,0.1082
3418.0,0.1086
3417.0,0.1089
3416.0,0.1092
3415.0,0.1095
3414.0,0.1098
3413.0,0.1102
3412.0,0.1106
3411.0,0.111
3410.0,0.1115
3409.0,0.1119
3408.0,0.1124
3407.0,0.1128
3406.0,0.1131
3405.0,0.1134
3404.0,0.1139
3403.0,0.1143
3402.0,0.1149
3401.0,0.1154
3400.0,0.1158
3399.0,0.1162
3398.0,0.1166
3397.0,0.1169
3396.0,0.1172
3395.0,0.1176
3394.0,0.118
3393.0,0.1184
3392.0,0.1189
3391.0,0.1195
3390.0,0.1199
3389.0,0.1203
3388.0,0.1206
3387.0,0.1209
3386.0,0.1211
3385.0,0.1213
3384.0,0.1216
3383.0,0.1218
3382.0,0.1221
3381.0,0.1224
3380.0,0.1227
3379.0,0.123
3378.0,0.1233
3377.0,0.1235
3376.0,0.1238
3375.0,0.124
3374.0,0.1244
3373.0,0.1248
3372.0,0.1252
3371.0,0.1255
3370.0,0.1257
3369.0,0.1258
3368.0,0.1259
3367.0,0.126
3366.0,0.1262
3365.0,0.1263
3364.0,0.1265
3363.0,0.1266
3362.0,0.1268
3361.0,0.1269
3360.0,0.127
3359.0,0.1271
3358.0,0.1272
3357.0,0.1273
3356.0,0.1275
3355.0,0.1277
3354.0,0.1277
3353.0,0.1278
3352.0,0.1278
3351.0,0.1278
3350.0,0.1279
3349.0,0.128
3348.0,0.128
3347.0,0.128
3346.0,0.128
3345.0,0.128
3344.0,0.1281
3343.0,0.1282
3342.0,0.1284
3341.0,0.1284
3340.0,0.1283
3339.0,0.1281
3338.0,0.1279
3337.0,0.1278
3336.0,0.1278
3335.0,0.128
3334.0,0.128
3333.0,0.128
3332.0,0.1279
3331.0,0.1279
3330.0,0.1278
3329.0,0.1278
3328.0,0.1278
3327.0,0.1277
3326.0,0.1276
3325.0,0.1274
3324.0,0.1273
3323.0,0.1271
3322.0,0.127
3321.0,0.1268
3320.0,0.1267
3319.0,0.1265
3318.0,0.1264
3317.0,0.1262
3316.0,0.1261
3315.0,0.1261
3314.0,0.1259
3313.0,0.1258
3312.0,0.1255
3311.0,0.1253
3310.0,0.1252
3309.0,0.125
3308.0,0.1249
3307.0,0.1247
3306.0,0.1246
3305.0,0.1245
3304.0,0.1244
3303.0,0.1243
3302.0,0.1241
3301.0,0.1239
3300.0,0.1237
3299.0,0.1235
3298.0,0.1235
3297.0,0.1235
3296.0,0.1234
3295.0,0.1233
3294.0,0.1232
3293.0,0.1231
3292.0,0.123
3291.0,0.1229
3290.0,0.1229
3289.0,0.1228
3288.0,0.1227
3287.0,0.1225
3286.0,0.1223
3285.0,0.1222
3284.0,0.1222
3283.0,0.1222
3282.0,0.1223
3281.0,0.1223
3280.0,0.1224
3279.0,0.1224
3278.0,0.1223
3277.0,0.1222
3276.0,0.1221
3275.0,0.122
3274.0,0.1219
3273.0,0.122
3272.0,0.122
3271.0,0.1221
3270.0,0.1222
3269.0,0.1222
3268.0,0.1223
3267.0,0.1224
3266.0,0.1226
3265.0,0.1227
3264.0,0.1228
3263.0,0.1228
3262.0,0.1228
3261.0,0.1227
3260.0,0.1227
3259.0,0.1228
3258.0,0.1229
3257.0,0.123
3256.0,0.1231
3255.0,0.1232
3254.0,0.1233
3253.0,0.1233
3252.0,0.1233
3251.0,0.1233
3250.0,0.1233
3249.0,0.1233
3248.0,0.1233
3247.0,0.1232
3246.0,0.1231
3245.0,0.123
3244.0,0.123
3243.0,0.123
3242.0,0.1229
3241.0,0.1227
3240.0,0.1225
3239.0,0.1223
3238.0,0.1221
3237.0,0.122
3236.0,0.1219
3235.0,0.1218
3234.0,0.1217
3233.0,0.1215
3232.0,0.1212
3231.0,0.121
3230.0,0.1208
3229.0,0.1205
3228.0,0.1202
3227.0,0.1199
3226.0,0.1196
3225.0,0.1193
3224.0,0.1189
3223.0,0.1185
3222.0,0.1182
3221.0,0.1178
3220.0,0.1174
3219.0,0.1171
3218.0,0.1167
3217.0,0.1163
3216.0,0.116
3215.0,0.1156
3214.0,0.1153
3213.0,0.115
3212.0,0.1147
3211.0,0.1143
3210.0,0.1138
3209.0,0.1133
3208.0,0.1128
3207.0,0.1124
3206.0,0.1119
3205.0,0.1114
3204.0,0.1109
3203.0,0.1105
3202.0,0.1102
3201.0,0.11
3200.0,0.1097
3199.0,0.1093
3198.0,0.1088
3197.0,0.1082
3196.0,0.1077
3195.0,0.1072
3194.0,0.1067
3193.0,0.1063
3192.0,0.1059
3191.0,0.1055
3190.0,0.1051
3189.0,0.1047
3188.0,0.1043
3187.0,0.1038
3186.0,0.1033
3185.0,0.1028
3184.0,0.1024
3183.0,0.1021
3182.0,0.1017
3181.0,0.1012
3180.0,0.1007
3179.0,0.1002
3178.0,0.0998
3177.0,0.0993
3176.0,0.0988
3175.0,0.0984
3174.0,0.0979
3173.0,0.0974
3172.0,0.0968
3171.0,0.0962
3170.0,0.0957
3169.0,0.0952
3168.0,0.0948
3167.0,0.0945
3166.0,0.0941
3165.0,0.0937
3164.0,0.0931
3163.0,0.0926
3162.0,0.0921
3161.0,0.0916
3160.0,0.0911
3159.0,0.0906
3158.0,0.0901
3157.0,0.0897
3156.0,0.0892
3155.0,0.0888
3154.0,0.0883
3153.0,0.0878
3152.0,0.0874
3151.0,0.0869
3150.0,0.0865
3149.0,0.086
3148.0,0.0855
3147.0,0.085
3146.0,0.0845
3145.0,0.0839
3144.0,0.0835
3143.0,0.0831
3142.0,0.0827
3141.0,0.0824
3140.0,0.082
3139.0,0.0815
3138.0,0.081
3137.0,0.0805
3136.0,0.0801
3135.0,0.0796
3134.0,0.0793
3133.0,0.0789
3132.0,0.0786
3131.0,0.0782
3130.0,0.0778
3129.0,0.0774
3128.0,0.0769
3127.0,0.0764
3126.0,0.0759
3125.0,0.0754
3124.0,0.075
3123.0,0.0746
3122.0,0.0742
3121.0,0.0737
3120.0,0.0733
3119.0,0.0728
3118.0,0.0723
3117.0,0.0718
3116.0,0.0713
3115.0,0.0708
3114.0,0.0704
3113.0,0.0701
3112.0,0.0698
3111.0,0.0695
3110.0,0.0692
3109.0,0.0688
3108.0,0.0685
3107.0,0.068
3106.0,0.0676
3105.0,0.0673
3104.0,0.0669
3103.0,0.0664
3102.0,0.0659
3101.0,0.0654
3100.0,0.0649
3099.0,0.0645
3098.0,0.0641
3097.0,0.0637
3096.0,0.0633
3095.0,0.0628
3094.0,0.0624
3093.0,0.0619
3092.0,0.0616
3091.0,0.0612
3090.0,0.061
3089.0,0.0607
3088.0,0.0604
3087.0,0.0601
3086.0,0.0598
3085.0,0.0595
3084.0,0.0592
3083.0,0.0589
3082.0,0.0587
3081.0,0.0584
3080.0,0.0581
3079.0,0.0577
3078.0,0.0573
3077.0,0.0569
3076.0,0.0565
3075.0,0.0561
3074.0,0.0557
3073.0,0.0554
3072.0,0.0551
3071.0,0.0549
3070.0,0.0546
3069.0,0.0543
3068.0,0.0539
3067.0,0.0536
3066.0,0.0532
3065.0,0.0528
3064.0,0.0525
3063.0,0.0521
3062.0,0.0518
3061.0,0.0514
3060.0,0.0511
3059.0,0.0508
3058.0,0.0505
3057.0,0.0502
3056.0,0.05
3055.0,0.0497
3054.0,0.0494
3053.0,0.0491
3052.0,0.0488
3051.0,0.0484
3050.0,0.048
3049.0,0.0475
3048.0,0.0471
3047.0,0.0467
3046.0,0.0463
3045.0,0.0458
3044.0,0.0454
3043.0,0.045
3042.0,0.0447
3041.0,0.0443
3040.0,0.044
3039.0,0.0437
3038.0,0.0434
3037.0,0.0431
3036.0,0.0428
3035.0,0.0426
3034.0,0.0424
3033.0,0.0422
3032.0,0.0419
3031.0,0.0417
3030.0,0.0415
3029.0,0.0413
3028.0,0.041
3027.0,0.0408
3026.0,0.0406
3025.0,0.0404
3024.0,0.0402
3023.0,0.04
3022.0,0.0398
3021.0,0.0396
3020.0,0.0395
3019.0,0.0393
3018.0,0.0391
3017.0,0.039
3016.0,0.0388
3015.0,0.0388
3014.0,0.0387
3013.0,0.0386
3012.0,0.0384
3011.0,0.0383
3010.0,0.0381
3009.0,0.0379
3008.0,0.0377
3007.0,0.0375
3006.0,0.0374
3005.0,0.0373
3004.0,0.0373
3003.0,0.0372
3002.0,0.0371
3001.0,0.037
3000.0,0.0369
2999.0,0.0369
2998.0,0.0368
2997.0,0.0366
2996.0,0.0365
2995.0,0.0364
2994.0,0.0363
2993.0,0.0362
2992.0,0.0361
2991.0,0.036
2990.0,0.0359
2989.0,0.0358
2988.0,0.0357
2987.0,0.0357
2986.0,0.0356
2985.0,0.0355
2984.0,0.0355
2983.0,0.0355
2982.0,0.0355
2981.0,0.0355
2980.0,0.0355
2979.0,0.0356
2978.0,0.0356
2977.0,0.0356
2976.0,0.0356
2975.0,0.0356
2974.0,0.0356
2973.0,0.0356
2972.0,0.0355
2971.0,0.0354
2970.0,0.0353
2969.0,0.0352
2968.0,0.035
2967.0,0.0347
2966.0,0.0344
2965.0,0.0342
2964.0,0.0339
2963.0,0.0336
2962.0,0.0332
2961.0,0.0328
2960.0,0.0325
2959.0,0.0321
2958.0,0.0318
2957.0,0.0314
2956.0,0.031
2955.0,0.0306
2954.0,0.0301
2953.0,0.0297
2952.0,0.0294
2951.0,0.029
2950.0,0.0286
2949.0,0.0282
2948.0,0.0278
2947.0,0.0272
2946.0,0.0266
2945.0,0.026
2944.0,0.0253
2943.0,0.0246
2942.0,0.0239
2941.0,0.0232
2940.0,0.0224
2939.0,0.0216
2938.0,0.0208
2937.0,0.02
2936.0,0.0193
2935.0,0.0185
2934.0,0.0178
2933.0,0.0169
2932.0,0.0161
2931.0,0.0152
2930.0,0.0144
2929.0,0.0137
2928.0,0.0131
2927.0,0.0125
2926.0,0.0121
2925.0,0.0119
2924.0,0.0119
2923.0,0.012
2922.0,0.0123
2921.0,0.0127
2920.0,0.0132
2919.0,0.0137
2918.0,0.0143
2917.0,0.0149
2916.0,0.0155
2915.0,0.016
2914.0,0.0164
2913.0,0.0169
2912.0,0.0173
2911.0,0.0177
2910.0,0.018
2909.0,0.0182
2908.0,0.0184
2907.0,0.0186
2906.0,0.0187
2905.0,0.0188
2904.0,0.0189
2903.0,0.0189
2902.0,0.019
2901.0,0.019
2900.0,0.019
2899.0,0.0191
2898.0,0.0192
2897.0,0.0193
2896.0,0.0194
2895.0,0.0195
2894.0,0.0196
2893.0,0.0197
2892.0,0.0199
2891.0,0.02
2890.0,0.02
2889.0,0.0201
2888.0,0.0201
2887.0,0.0201
2886.0,0.02
2885.0,0.02
2884.0,0.0199
2883.0,0.0199
2882.0,0.0197
2881.0,0.0196
2880.0,0.0194
2879.0,0.0193
2878.0,0.0191
2877.0,0.019
2876.0,0.0188
2875.0,0.0185
2874.0,0.0182
2873.0,0.018
2872.0,0.0177
2871.0,0.0175
2870.0,0.0174
2869.0,0.0173
2868.0,0.0171
2867.0,0.0168
2866.0,0.0165
2865.0,0.016
2864.0,0.0156
2863.0,0.0151
2862.0,0.0145
2861.0,0.0139
2860.0,0.0132
2859.0,0.0125
2858.0,0.0119
2857.0,0.0113
2856.0,0.0109
2855.0,0.0106
2854.0,0.0107
2853.0,0.0109
2852.0,0.0114
2851.0,0.0119
2850.0,0.0124
2849.0,0.0128
2848.0,0.0131
2847.0,0.0135
2846.0,0.0138
2845.0,0.0142
2844.0,0.0145
2843.0,0.0148
2842.0,0.0151
2841.0,0.0153
2840.0,0.0156
2839.0,0.0158
2838.0,0.0159
2837.0,0.016
2836.0,0.0161
2835.0,0.0162
2834.0,0.0162
2833.0,0.0163
2832.0,0.0163
2831.0,0.0163
2830.0,0.0163
2829.0,0.0162
2828.0,0.0161
2827.0,0.0161
2826.0,0.0161
2825.0,0.0162
2824.0,0.0162
2823.0,0.0162
2822.0,0.0162
2821.0,0.0162
2820.0,0.0162
2819.0,0.0162
2818.0,0.0162
2817.0,0.0161
2816.0,0.016
2815.0,0.0159
2814.0,0.0159
2813.0,0.0158
2812.0,0.0158
2811.0,0.0158
2810.0,0.0158
2809.0,0.0158
2808.0,0.0158
2807.0,0.0159
2806.0,0.0159
2805.0,0.0159
2804.0,0.0159
2803.0,0.0159
2802.0,0.0159
2801.0,0.0158
2800.0,0.0157
2799.0,0.0156
2798.0,0.0155
2797.0,0.0154
2796.0,0.0154
2795.0,0.0154
2794.0,0.0153
2793.0,0.0153
2792.0,0.0153
2791.0,0.0152
2790.0,0.0152
2789.0,0.0152
2788.0,0.0152
2787.0,0.0151
2786.0,0.0151
2785.0,0.015
2784.0,0.0149
2783.0,0.0149
2782.0,0.0148
2781.0,0.0148
2780.0,0.0148
2779.0,0.0147
2778.0,0.0147
2777.0,0.0147
2776.0,0.0147
2775.0,0.0147
2774.0,0.0147
2773.0,0.0147
2772.0,0.0147
2771.0,0.0147
2770.0,0.0147
2769.0,0.0147
2768.0,0.0146
2767.0,0.0146
2766.0,0.0145
2765.0,0.0145
2764.0,0.0144
2763.0,0.0143
2762.0,0.0143
2761.0,0.0142
2760.0,0.0142
2759.0,0.0142
2758.0,0.0142
2757.0,0.0141
2756.0,0.0141
2755.0,0.014
2754.0,0.014
2753.0,0.014
2752.0,0.0139
2751.0,0.0139
2750.0,0.0139
2749.0,0.0138
2748.0,0.0138
2747.0,0.0138
2746.0,0.0138
2745.0,0.0138
2744.0,0.0138
2743.0,0.0138
2742.0,0.0138
2741.0,0.0138
2740.0,0.0138
2739.0,0.0138
2738.0,0.0137
2737.0,0.0136
2736.0,0.0135
2735.0,0.0135
2734.0,0.0135
2733.0,0.0135
2732.0,0.0135
2731.0,0.0134
2730.0,0.0134
2729.0,0.0134
2728.0,0.0133
2727.0,0.0132
2726.0,0.0132
2725.0,0.0131
2724.0,0.0131
2723.0,0.0131
2722.0,0.013
2721.0,0.013
2720.0,0.013
2719.0,0.013
2718.0,0.0129
2717.0,0.0129
2716.0,0.0128
2715.0,0.0128
2714.0,0.0129
2713.0,0.0129
2712.0,0.0129
2711.0,0.0129
2710.0,0.0128
2709.0,0.0128
2708.0,0.0127
2707.0,0.0127
2706.0,0.0126
2705.0,0.0126
2704.0,0.0125
2703.0,0.0125
2702.0,0.0124
2701.0,0.0124
2700.0,0.0124
2699.0,0.0124
2698.0,0.0124
2697.0,0.0125
2696.0,0.0125
2695.0,0.0125
2694.0,0.0125
2693.0,0.0124
2692.0,0.0124
2691.0,0.0123
2690.0,0.0123
2689.0,0.0123
2688.0,0.0124
2687.0,0.0124
2686.0,0.0123
2685.0,0.0123
2684.0,0.0122
2683.0,0.0121
2682.0,0.012
2681.0,0.012
2680.0,0.0121
2679.0,0.0121
2678.0,0.0122
2677.0,0.0121
2676.0,0.0121
2675.0,0.012
2674.0,0.012
2673.0,0.0119
2672.0,0.0119
2671.0,0.0119
2670.0,0.0119
2669.0,0.012
2668.0,0.012
2667.0,0.012
2666.0,0.012
2665.0,0.0119
2664.0,0.0119
2663.0,0.0118
2662.0,0.0117
2661.0,0.0117
2660.0,0.0117
2659.0,0.0117
2658.0,0.0116
2657.0,0.0116
2656.0,0.0116
2655.0,0.0116
2654.0,0.0116
2653.0,0.0116
2652.0,0.0116
2651.0,0.0116
2650.0,0.0117
2649.0,0.0117
2648.0,0.0117
2647.0,0.0117
2646.0,0.0117
2645.0,0.0117
2644.0,0.0117
2643.0,0.0116
2642.0,0.0116
2641.0,0.0115
2640.0,0.0115
2639.0,0.0114
2638.0,0.0114
2637.0,0.0114
2636.0,0.0114
2635.0,0.0115
2634.0,0.0116
2633.0,0.0116
2632.0,0.0116
2631.0,0.0116
2630.0,0.0116
2629.0,0.0115
2628.0,0.0115
2627.0,0.0115
2626.0,0.0116
2625.0,0.0116
2624.0,0.0116
2623.0,0.0116
2622.0,0.0116
2621.0,0.0116
2620.0,0.0116
2619.0,0.0116
2618.0,0.0116
2617.0,0.0115
2616.0,0.0115
2615.0,0.0115
2614.0,0.0115
2613.0,0.0115
2612.0,0.0115
2611.0,0.0114
2610.0,0.0114
2609.0,0.0114
2608.0,0.0114
2607.0,0.0114
2606.0,0.0114
2605.0,0.0114
2604.0,0.0114
2603.0,0.0115
2602.0,0.0115
2601.0,0.0115
2600.0,0.0115
2599.0,0.0114
2598.0,0.0113
2597.0,0.0113
2596.0,0.0113
2595.0,0.0113
2594.0,0.0114
2593.0,0.0114
2592.0,0.0113
2591.0,0.0113
2590.0,0.0114
2589.0,0.0114
2588.0,0.0115
2587.0,0.0116
2586.0,0.0116
2585.0,0.0116
2584.0,0.0116
2583.0,0.0116
2582.0,0.0115
2581.0,0.0115
2580.0,0.0115
2579.0,0.0115
2578.0,0.0115
2577.0,0.0115
2576.0,0.0115
2575.0,0.0115
2574.0,0.0115
2573.0,0.0116
2572.0,0.0116
2571.0,0.0116
2570.0,0.0116
2569.0,0.0116
2568.0,0.0117
2567.0,0.0117
2566.0,0.0117
2565.0,0.0117
2564.0,0.0116
2563.0,0.0116
2562.0,0.0116
2561.0,0.0116
2560.0,0.0117
2559.0,0.0117
2558.0,0.0117
2557.0,0.0116
2556.0,0.0116
2555.0,0.0115
2554.0,0.0115
2553.0,0.0115
2552.0,0.0116
2551.0,0.0116
2550.0,0.0117
2549.0,0.0117
2548.0,0.0117
2547.0,0.0117
2546.0,0.0117
2545.0,0.0117
2544.0,0.0117
2543.0,0.0117
2542.0,0.0117
2541.0,0.0117
2540.0,0.0117
2539.0,0.0117
2538.0,0.0117
2537.0,0.0117
2536.0,0.0118
2535.0,0.0118
2534.0,0.0118
2533.0,0.0118
2532.0,0.0118
2531.0,0.0118
2530.0,0.0118
2529.0,0.0119
2528.0,0.0119
2527.0,0.0119
2526.0,0.0118
2525.0,0.0118
2524.0,0.0118
2523.0,0.0118
2522.0,0.0119
2521.0,0.0119
2520.0,0.012
2519.0,0.0119
2518.0,0.0119
2517.0,0.0119
2516.0,0.0119
2515.0,0.012
2514.0,0.012
2513.0,0.012
2512.0,0.012
2511.0,0.012
2510.0,0.012
2509.0,0.012
2508.0,0.012
2507.0,0.012
2506.0,0.012
2505.0,0.012
2504.0,0.0121
2503.0,0.0121
2502.0,0.0122
2501.0,0.0122
2500.0,0.0122
2499.0,0.0122
2498.0,0.0122
2497.0,0.0122
2496.0,0.0122
2495.0,0.0122
2494.0,0.0122
2493.0,0.0123
2492.0,0.0123
2491.0,0.0123
2490.0,0.0123
2489.0,0.0123
2488.0,0.0123
2487.0,0.0123
2486.0,0.0123
2485.0,0.0123
2484.0,0.0123
2483.0,0.0123
2482.0,0.0124
2481.0,0.0125
2480.0,0.0125
2479.0,0.0124
2478.0,0.0124
2477.0,0.0124
2476.0,0.0124
2475.0,0.0125
2474.0,0.0126
2473.0,0.0126
2472.0,0.0127
2471.0,0.0127
2470.0,0.0127
2469.0,0.0128
2468.0,0.0128
2467.0,0.0128
2466.0,0.0127
2465.0,0.0126
2464.0,0.0126
2463.0,0.0126
2462.0,0.0127
2461.0,0.0127
2460.0,0.0127
2459.0,0.0128
2458.0,0.0129
2457.0,0.0129
2456.0,0.013
2455.0,0.013
2454.0,0.013
2453.0,0.013
2452.0,0.013
2451.0,0.013
2450.0,0.013
2449.0,0.0131
2448.0,0.0131
2447.0,0.0131
2446.0,0.0131
2445.0,0.0131
2444.0,0.0131
2443.0,0.0132
2442.0,0.0132
2441.0,0.0132
2440.0,0.0133
2439.0,0.0133
2438.0,0.0133
2437.0,0.0133
2436.0,0.0134
2435.0,0.0134
2434.0,0.0135
2433.0,0.0136
2432.0,0.0136
2431.0,0.0136
2430.0,0.0136
2429.0,0.0136
2428.0,0.0136
2427.0,0.0137
2426.0,0.0137
2425.0,0.0138
2424.0,0.0137
2423.0,0.0137
2422.0,0.0138
2421.0,0.0138
2420.0,0.0139
2419.0,0.014
2418.0,0.014
2417.0,0.014
2416.0,0.014
2415.0,0.0141
2414.0,0.0141
2413.0,0.0142
2412.0,0.0143
2411.0,0.0144
2410.0,0.0145
2409.0,0.0145
2408.0,0.0146
2407.0,0.0146
2406.0,0.0146
2405.0,0.0146
2404.0,0.0147
2403.0,0.0147
2402.0,0.0147
2401.0,0.0148
2400.0,0.0148
2399.0,0.0148
2398.0,0.0148
2397.0,0.0149
2396.0,0.0149
2395.0,0.015
2394.0,0.015
2393.0,0.0151
2392.0,0.0151
2391.0,0.0152
2390.0,0.0152
2389.0,0.0151
2388.0,0.0151
2387.0,0.015
2386.0,0.015
2385.0,0.015
2384.0,0.015
2383.0,0.015
2382.0,0.0151
2381.0,0.0152
2380.0,0.0154
2379.0,0.0158
2378.0,0.0161
2377.0,0.0163
2376.0,0.0163
2375.0,0.0162
2374.0,0.0161
2373.0,0.0158
2372.0,0.0153
2371.0,0.0148
2370.0,0.0144
2369.0,0.0139
2368.0,0.0135
2367.0,0.0133
2366.0,0.0135
2365.0,0.0143
2364.0,0.0151
2363.0,0.0153
2362.0,0.015
2361.0,0.015
2360.0,0.0158
2359.0,0.0163
2358.0,0.0159
2357.0,0.0151
2356.0,0.0149
2355.0,0.0153
2354.0,0.0158
2353.0,0.0158
2352.0,0.0154
2351.0,0.0148
2350.0,0.0141
2349.0,0.0136
2348.0,0.0136
2347.0,0.0139
2346.0,0.0144
2345.0,0.0147
2344.0,0.0144
2343.0,0.014
2342.0,0.0137
2341.0,0.0137
2340.0,0.0139
2339.0,0.0141
2338.0,0.0142
2337.0,0.0142
2336.0,0.0143
2335.0,0.0145
2334.0,0.0145
2333.0,0.0143
2332.0,0.0141
2331.0,0.0141
2330.0,0.0141
2329.0,0.014
2328.0,0.014
2327.0,0.0143
2326.0,0.0148
2325.0,0.0155
2324.0,0.016
2323.0,0.0163
2322.0,0.0164
2321.0,0.0165
2320.0,0.0166
2319.0,0.0167
2318.0,0.0167
2317.0,0.0167
2316.0,0.0166
2315.0,0.0166
2314.0,0.0166
2313.0,0.0165
2312.0,0.0164
2311.0,0.0163
2310.0,0.0161
2309.0,0.0161
2308.0,0.016
2307.0,0.016
2306.0,0.016
2305.0,0.016
2304.0,0.0159
2303.0,0.0158
2302.0,0.0158
2301.0,0.0157
2300.0,0.0158
2299.0,0.0158
2298.0,0.0158
2297.0,0.0159
2296.0,0.0159
2295.0,0.016
2294.0,0.016
2293.0,0.016
2292.0,0.016
2291.0,0.016
2290.0,0.016
2289.0,0.0161
2288.0,0.0161
2287.0,0.0162
2286.0,0.0162
2285.0,0.0162
2284.0,0.0162
2283.0,0.0162
2282.0,0.0162
2281.0,0.0162
2280.0,0.0161
2279.0,0.0161
2278.0,0.0161
2277.0,0.0161
2276.0,0.016
2275.0,0.016
2274.0,0.0159
2273.0,0.0158
2272.0,0.0158
2271.0,0.0158
2270.0,0.0158
2269.0,0.0157
2268.0,0.0156
2267.0,0.0156
2266.0,0.0156
2265.0,0.0155
2264.0,0.0155
2263.0,0.0156
2262.0,0.0156
2261.0,0.0156
2260.0,0.0155
2259.0,0.0155
2258.0,0.0154
2257.0,0.0154
2256.0,0.0155
2255.0,0.0155
2254.0,0.0155
2253.0,0.0154
2252.0,0.0154
2251.0,0.0154
2250.0,0.0154
2249.0,0.0153
2248.0,0.0153
2247.0,0.0152
2246.0,0.0152
2245.0,0.0151
2244.0,0.0151
2243.0,0.015
2242.0,0.015
2241.0,0.0149
2240.0,0.0149
2239.0,0.0149
2238.0,0.0149
2237.0,0.0149
2236.0,0.0148
2235.0,0.0147
2234.0,0.0146
2233.0,0.0145
2232.0,0.0145
2231.0,0.0144
2230.0,0.0144
2229.0,0.0144
2228.0,0.0144
2227.0,0.0144
2226.0,0.0144
2225.0,0.0143
2224.0,0.0142
2223.0,0.0141
2222.0,0.014
2221.0,0.014
2220.0,0.0139
2219.0,0.0139
2218.0,0.0139
2217.0,0.0139
2216.0,0.0138
2215.0,0.0138
2214.0,0.0137
2213.0,0.0136
2212.0,0.0135
2211.0,0.0135
2210.0,0.0135
2209.0,0.0135
2208.0,0.0135
2207.0,0.0135
2206.0,0.0134
2205.0,0.0133
2204.0,0.0132
2203.0,0.0132
2202.0,0.0131
2201.0,0.013
2200.0,0.013
2199.0,0.0129
2198.0,0.0129
2197.0,0.0128
2196.0,0.0128
2195.0,0.0128
2194.0,0.0127
2193.0,0.0127
2192.0,0.0126
2191.0,0.0126
2190.0,0.0126
2189.0,0.0125
2188.0,0.0124
2187.0,0.0124
2186.0,0.0123
2185.0,0.0123
2184.0,0.0123
2183.0,0.0123
2182.0,0.0123
2181.0,0.0122
2180.0,0.0122
2179.0,0.0122
2178.0,0.0121
2177.0,0.012
2176.0,0.012
2175.0,0.0119
2174.0,0.0119
2173.0,0.0118
2172.0,0.0118
2171.0,0.0118
2170.0,0.0119
2169.0,0.0119
2168.0,0.0119
2167.0,0.0118
2166.0,0.0118
2165.0,0.0117
2164.0,0.0117
2163.0,0.0117
2162.0,0.0117
2161.0,0.0116
2160.0,0.0115
2159.0,0.0115
2158.0,0.0114
2157.0,0.0114
2156.0,0.0115
2155.0,0.0115
2154.0,0.0115
2153.0,0.0115
2152.0,0.0114
2151.0,0.0114
2150.0,0.0114
2149.0,0.0114
2148.0,0.0114
2147.0,0.0114
2146.0,0.0114
2145.0,0.0114
2144.0,0.0114
2143.0,0.0114
2142.0,0.0115
2141.0,0.0115
2140.0,0.0114
2139.0,0.0115
2138.0,0.0115
2137.0,0.0114
2136.0,0.0114
2135.0,0.0114
2134.0,0.0115
2133.0,0.0115
2132.0,0.0115
2131.0,0.0115
2130.0,0.0116
2129.0,0.0116
2128.0,0.0116
2127.0,0.0116
2126.0,0.0116
2125.0,0.0116
2124.0,0.0116
2123.0,0.0116
2122.0,0.0116
2121.0,0.0116
2120.0,0.0116
2119.0,0.0116
2118.0,0.0116
2117.0,0.0117
2116.0,0.0117
2115.0,0.0117
2114.0,0.0116
2113.0,0.0116
2112.0,0.0115
2111.0,0.0114
2110.0,0.0113
2109.0,0.0113
2108.0,0.0113
2107.0,0.0113
2106.0,0.0113
2105.0,0.0113
2104.0,0.0113
2103.0,0.0113
2102.0,0.0112
2101.0,0.0112
2100.0,0.0112
2099.0,0.0112
2098.0,0.0112
2097.0,0.0112
2096.0,0.0111
2095.0,0.0111
2094.0,0.011
2093.0,0.0109
2092.0,0.0108
2091.0,0.0107
2090.0,0.0107
2089.0,0.0107
2088.0,0.0107
2087.0,0.0107
2086.0,0.0107
2085.0,0.0106
2084.0,0.0106
2083.0,0.0105
2082.0,0.0105
2081.0,0.0104
2080.0,0.0104
2079.0,0.0104
2078.0,0.0104
2077.0,0.0103
2076.0,0.0103
2075.0,0.0102
2074.0,0.0101
2073.0,0.01
2072.0,0.0099
2071.0,0.0099
2070.0,0.0098
2069.0,0.0098
2068.0,0.0097
2067.0,0.0096
2066.0,0.0096
2065.0,0.0095
2064.0,0.0095
2063.0,0.0094
2062.0,0.0094
2061.0,0.0093
2060.0,0.0092
2059.0,0.0091
2058.0,0.0091
2057.0,0.009
2056.0,0.0089
2055.0,0.0088
2054.0,0.0088
2053.0,0.0087
2052.0,0.0086
2051.0,0.0086
2050.0,0.0085
2049.0,0.0084
2048.0,0.0083
2047.0,0.0082
2046.0,0.0081
2045.0,0.0081
2044.0,0.008
2043.0,0.0079
2042.0,0.0078
2041.0,0.0077
2040.0,0.0076
2039.0,0.0076
2038.0,0.0076
2037.0,0.0075
2036.0,0.0075
2035.0,0.0075
2034.0,0.0074
2033.0,0.0073
2032.0,0.0073
2031.0,0.0072
2030.0,0.0071
2029.0,0.0071
2028.0,0.0071
2027.0,0.0071
2026.0,0.0071
2025.0,0.007
2024.0,0.0069
2023.0,0.0069
2022.0,0.0068
2021.0,0.0067
2020.0,0.0066
2019.0,0.0066
2018.0,0.0065
2017.0,0.0065
2016.0,0.0065
2015.0,0.0066
2014.0,0.0065
2013.0,0.0065
2012.0,0.0064
2011.0,0.0064
2010.0,0.0063
2009.0,0.0063
2008.0,0.0063
2007.0,0.0063
2006.0,0.0063
2005.0,0.0063
2004.0,0.0063
2003.0,0.0063
2002.0,0.0063
2001.0,0.0063
2000.0,0.0063
1999.0,0.0063
1998.0,0.0063
1997.0,0.0063
1996.0,0.0063
1995.0,0.0063
1994.0,0.0063
1993.0,0.0062
1992.0,0.0062
1991.0,0.0062
1990.0,0.0062
1989.0,0.0062
1988.0,0.0062
1987.0,0.0063
1986.0,0.0063
1985.0,0.0063
1984.0,0.0063
1983.0,0.0063
1982.0,0.0063
1981.0,0.0062
1980.0,0.0062
1979.0,0.0062
1978.0,0.0062
1977.0,0.0062
1976.0,0.0062
1975.0,0.0062
1974.0,0.0063
1973.0,0.0064
1972.0,0.0064
1971.0,0.0064
1970.0,0.0064
1969.0,0.0064
1968.0,0.0064
1967.0,0.0065
1966.0,0.0066
1965.0,0.0067
1964.0,0.0067
1963.0,0.0068
1962.0,0.0069
1961.0,0.0069
1960.0,0.007
1959.0,0.007
1958.0,0.0071
1957.0,0.0072
1956.0,0.0072
1955.0,0.0073
1954.0,0.0074
1953.0,0.0074
1952.0,0.0073
1951.0,0.0073
1950.0,0.0073
1949.0,0.0073
1948.0,0.0072
1947.0,0.0072
1946.0,0.0071
1945.0,0.007
1944.0,0.0069
1943.0,0.0067
1942.0,0.0066
1941.0,0.0064
1940.0,0.0063
1939.0,0.0061
1938.0,0.006
1937.0,0.0058
1936.0,0.0057
1935.0,0.0055
1934.0,0.0054
1933.0,0.0052
1932.0,0.0051
1931.0,0.005
1930.0,0.0049
1929.0,0.0048
1928.0,0.0047
1927.0,0.0046
1926.0,0.0045
1925.0,0.0044
1924.0,0.0043
1923.0,0.0041
1922.0,0.0041
1921.0,0.0041
1920.0,0.004
1919.0,0.0039
1918.0,0.0037
1917.0,0.0036
1916.0,0.0036
1915.0,0.0036
1914.0,0.0035
1913.0,0.0034
1912.0,0.0033
1911.0,0.0032
1910.0,0.0031
1909.0,0.003
1908.0,0.003
1907.0,0.0029
1906.0,0.0029
1905.0,0.0028
1904.0,0.0028
1903.0,0.0027
1902.0,0.0027
1901.0,0.0026
1900.0,0.0025
1899.0,0.0024
1898.0,0.0023
1897.0,0.0022
1896.0,0.0022
1895.0,0.0021
1894.0,0.0021
1893.0,0.0021
1892.0,0.002
1891.0,0.0019
1890.0,0.0017
1889.0,0.0016
1888.0,0.0015
1887.0,0.0014
1886.0,0.0014
1885.0,0.0013
1884.0,0.0012
1883.0,0.0012
1882.0,0.0011
1881.0,0.001
1880.0,0.0009
1879.0,0.0008
1878.0,0.0008
1877.0,0.0007
1876.0,0.0006
1875.0,0.0005
1874.0,0.0004
1873.0,0.0004
1872.0,0.0004
1871.0,0.0004
1870.0,0.0002
1869.0,-0.0
1868.0,-0.0002
1867.0,-0.0002
1866.0,-0.0002
1865.0,-0.0002
1864.0,-0.0002
1863.0,-0.0002
1862.0,-0.0003
1861.0,-0.0003
1860.0,-0.0004
1859.0,-0.0004
1858.0,-0.0004
1857.0,-0.0004
1856.0,-0.0004
1855.0,-0.0005
1854.0,-0.0005
1853.0,-0.0005
1852.0,-0.0006
1851.0,-0.0006
1850.0,-0.0007
1849.0,-0.0007
1848.0,-0.0007
1847.0,-0.0005
1846.0,-0.0004
1845.0,-0.0006
1844.0,-0.0008
1843.0,-0.0009
1842.0,-0.0009
1841.0,-0.0007
1840.0,-0.0006
1839.0,-0.0006
1838.0,-0.0006
1837.0,-0.0006
1836.0,-0.0007
1835.0,-0.0007
1834.0,-0.0006
1833.0,-0.0004
1832.0,-0.0003
1831.0,-0.0004
1830.0,-0.0006
1829.0,-0.0007
1828.0,-0.0007
1827.0,-0.0006
1826.0,-0.0006
1825.0,-0.0008
1824.0,-0.0009
1823.0,-0.001
1822.0,-0.001
1821.0,-0.001
1820.0,-0.0012
1819.0,-0.0013
1818.0,-0.0015
1817.0,-0.0016
1816.0,-0.0017
1815.0,-0.0017
1814.0,-0.0017
1813.0,-0.0018
1812.0,-0.002
1811.0,-0.0021
1810.0,-0.0023
1809.0,-0.0025
1808.0,-0.0026
1807.0,-0.0027
1806.0,-0.0028
1805.0,-0.003
1804.0,-0.0031
1803.0,-0.0032
1802.0,-0.0033
1801.0,-0.0034
1800.0,-0.0036
1799.0,-0.0038
1798.0,-0.0039
1797.0,-0.0041
1796.0,-0.0041
1795.0,-0.0041
1794.0,-0.0041
1793.0,-0.0046
1792.0,-0.0051
1791.0,-0.0054
1790.0,-0.0054
1789.0,-0.0054
1788.0,-0.0054
1787.0,-0.0054
1786.0,-0.0055
1785.0,-0.0058
1784.0,-0.0059
1783.0,-0.0059
1782.0,-0.006
1781.0,-0.0062
1780.0,-0.0064
1779.0,-0.0064
1778.0,-0.0064
1777.0,-0.0064
1776.0,-0.0065
1775.0,-0.0063
1774.0,-0.0062
1773.0,-0.0065
1772.0,-0.007
1771.0,-0.0072
1770.0,-0.0072
1769.0,-0.0073
1768.0,-0.0073
1767.0,-0.0072
1766.0,-0.0069
1765.0,-0.0066
1764.0,-0.0063
1763.0,-0.0061
1762.0,-0.0061
1761.0,-0.0061
1760.0,-0.0059
1759.0,-0.0054
1758.0,-0.0049
1757.0,-0.0047
1756.0,-0.0044
1755.0,-0.0038
1754.0,-0.0031
1753.0,-0.0024
1752.0,-0.0014
1751.0,0.0003
1750.0,0.0027
1749.0,0.0055
1748.0,0.0087
1747.0,0.0124
1746.0,0.0166
1745.0,0.0215
1744.0,0.0276
1743.0,0.0346
1742.0,0.0419
1741.0,0.0502
1740.0,0.0603
1739.0,0.0706
1738.0,0.0787
1737.0,0.0849
1736.0,0.0921
1735.0,0.1049
1734.0,0.1228
1733.0,0.1374
1732.0,0.1475
1731.0,0.1579
1730.0,0.1698
1729.0,0.1821
1728.0,0.1937
1727.0,0.2047
1726.0,0.2159
1725.0,0.2283
1724.0,0.2417
1723.0,0.2549
1722.0,0.2659
1721.0,0.2738
1720.0,0.2806
1719.0,0.2901
1718.0,0.3042
1717.0,0.3166
1716.0,0.3216
1715.0,0.3215
1714.0,0.318
1713.0,0.3106
1712.0,0.2997
1711.0,0.2865
1710.0,0.2719
1709.0,0.257
1708.0,0.2417
1707.0,0.2253
1706.0,0.2081
1705.0,0.1932
1704.0,0.1824
1703.0,0.1742
1702.0,0.1657
1701.0,0.1549
1700.0,0.1444
1699.0,0.1374
1698.0,0.1327
1697.0,0.1284
1696.0,0.1238
1695.0,0.1197
1694.0,0.1168
1693.0,0.1147
1692.0,0.1128
1691.0,0.1105
1690.0,0.1084
1689.0,0.1069
1688.0,0.1058
1687.0,0.1047
1686.0,0.1034
1685.0,0.1027
1684.0,0.1032
1683.0,0.1032
1682.0,0.1025
1681.0,0.1021
1680.0,0.1018
1679.0,0.1015
1678.0,0.101
1677.0,0.1007
1676.0,0.1006
1675.0,0.1005
1674.0,0.1004
1673.0,0.1004
1672.0,0.1006
1671.0,0.1006
1670.0,0.1009
1669.0,0.1014
1668.0,0.1019
1667.0,0.102
1666.0,0.1019
1665.0,0.1018
1664.0,0.1019
1663.0,0.102
1662.0,0.1021
1661.0,0.1021
1660.0,0.1022
1659.0,0.1021
1658.0,0.1018
1657.0,0.1016
1656.0,0.1015
1655.0,0.101
1654.0,0.1005
1653.0,0.1014
1652.0,0.1023
1651.0,0.1026
1650.0,0.1028
1649.0,0.1027
1648.0,0.1024
1647.0,0.1024
1646.0,0.1025
1645.0,0.1024
1644.0,0.1022
1643.0,0.1018
1642.0,0.1011
1641.0,0.1004
1640.0,0.0996
1639.0,0.0987
1638.0,0.0975
1637.0,0.0959
1636.0,0.094
1635.0,0.092
1634.0,0.0902
1633.0,0.0887
1632.0,0.0874
1631.0,0.0859
1630.0,0.0842
1629.0,0.0824
1628.0,0.0806
1627.0,0.0789
1626.0,0.0775
1625.0,0.0761
1624.0,0.0746
1623.0,0.073
1622.0,0.0717
1621.0,0.0708
1620.0,0.0701
1619.0,0.0695
1618.0,0.0688
1617.0,0.0685
1616.0,0.0684
1615.0,0.0682
1614.0,0.0678
1613.0,0.0672
1612.0,0.0663
1611.0,0.0653
1610.0,0.0641
1609.0,0.063
1608.0,0.0618
1607.0,0.0607
1606.0,0.0595
1605.0,0.0583
1604.0,0.0572
1603.0,0.0562
1602.0,0.0552
1601.0,0.0542
1600.0,0.0534
1599.0,0.0525
1598.0,0.0516
1597.0,0.0509
1596.0,0.0503
1595.0,0.0496
1594.0,0.0491
1593.0,0.0487
1592.0,0.0482
1591.0,0.0478
1590.0,0.0475
1589.0,0.0472
1588.0,0.047
1587.0,0.0468
1586.0,0.0468
1585.0,0.0472
1584.0,0.0479
1583.0,0.049
1582.0,0.0504
1581.0,0.0517
1580.0,0.0528
1579.0,0.0534
1578.0,0.0535
1577.0,0.0527
1576.0,0.0513
1575.0,0.0499
1574.0,0.0488
1573.0,0.0479
1572.0,0.047
1571.0,0.0458
1570.0,0.0444
1569.0,0.043
1568.0,0.0421
1567.0,0.0414
1566.0,0.0407
1565.0,0.0399
1564.0,0.0391
1563.0,0.0385
1562.0,0.0383
1561.0,0.0382
1560.0,0.0374
1559.0,0.0365
1558.0,0.0356
1557.0,0.0349
1556.0,0.0345
1555.0,0.0342
1554.0,0.0337
1553.0,0.0334
1552.0,0.0331
1551.0,0.0328
1550.0,0.0324
1549.0,0.0321
1548.0,0.0319
1547.0,0.0317
1546.0,0.0314
1545.0,0.0311
1544.0,0.031
1543.0,0.0309
1542.0,0.0307
1541.0,0.0305
1540.0,0.0305
1539.0,0.0303
1538.0,0.0301
1537.0,0.0303
1536.0,0.0306
1535.0,0.0307
1534.0,0.0307
1533.0,0.0307
1532.0,0.0307
1531.0,0.0306
1530.0,0.0306
1529.0,0.0304
1528.0,0.0301
1527.0,0.0296
1526.0,0.0292
1525.0,0.0288
1524.0,0.0285
1523.0,0.028
1522.0,0.0271
1521.0,0.0262
1520.0,0.0257
1519.0,0.0253
1518.0,0.0248
1517.0,0.0242
1516.0,0.0236
1515.0,0.0233
1514.0,0.0232
1513.0,0.0232
1512.0,0.0236
1511.0,0.0241
1510.0,0.0251
1509.0,0.0269
1508.0,0.0315
1507.0,0.0393
1506.0,0.0439
1505.0,0.044
1504.0,0.0424
1503.0,0.0398
1502.0,0.0368
1501.0,0.0336
1500.0,0.0306
1499.0,0.0277
1498.0,0.0252
1497.0,0.0233
1496.0,0.022
1495.0,0.0212
1494.0,0.0208
1493.0,0.0207
1492.0,0.0206
1491.0,0.0203
1490.0,0.0202
1489.0,0.0207
1488.0,0.0214
1487.0,0.0219
1486.0,0.0225
1485.0,0.0232
1484.0,0.024
1483.0,0.0249
1482.0,0.0259
1481.0,0.0271
1480.0,0.0282
1479.0,0.029
1478.0,0.0297
1477.0,0.0303
1476.0,0.0309
1475.0,0.0313
1474.0,0.0316
1473.0,0.0318
1472.0,0.0319
1471.0,0.0317
1470.0,0.0314
1469.0,0.0313
1468.0,0.0313
1467.0,0.0315
1466.0,0.032
1465.0,0.033
1464.0,0.0341
1463.0,0.0351
1462.0,0.0359
1461.0,0.0368
1460.0,0.0377
1459.0,0.0385
1458.0,0.04
1457.0,0.0421
1456.0,0.0433
1455.0,0.0438
1454.0,0.044
1453.0,0.0442
1452.0,0.0442
1451.0,0.044
1450.0,0.0437
1449.0,0.0435
1448.0,0.0432
1447.0,0.0428
1446.0,0.0426
1445.0,0.0425
1444.0,0.0424
1443.0,0.0422
1442.0,0.042
1441.0,0.0418
1440.0,0.0414
1439.0,0.0408
1438.0,0.0398
1437.0,0.0383
1436.0,0.0365
1435.0,0.0349
1434.0,0.0335
1433.0,0.032
1432.0,0.0302
1431.0,0.0283
1430.0,0.0263
1429.0,0.0244
1428.0,0.023
1427.0,0.0219
1426.0,0.0211
1425.0,0.0202
1424.0,0.0196
1423.0,0.0194
1422.0,0.0194
1421.0,0.0199
1420.0,0.0213
1419.0,0.0241
1418.0,0.0282
1417.0,0.0331
1416.0,0.0391
1415.0,0.0465
1414.0,0.0553
1413.0,0.0657
1412.0,0.077
1411.0,0.0874
1410.0,0.0951
1409.0,0.0994
1408.0,0.1
1407.0,0.097
1406.0,0.0909
1405.0,0.0833
1404.0,0.0759
1403.0,0.0697
1402.0,0.0646
1401.0,0.06
1400.0,0.0554
1399.0,0.051
1398.0,0.0475
1397.0,0.0448
1396.0,0.0425
1395.0,0.0401
1394.0,0.038
1393.0,0.0364
1392.0,0.0352
1391.0,0.0341
1390.0,0.033
1389.0,0.0319
1388.0,0.031
1387.0,0.0303
1386.0,0.0301
1385.0,0.03
1384.0,0.0302
1383.0,0.0305
1382.0,0.0309
1381.0,0.0315
1380.0,0.0323
1379.0,0.0332
1378.0,0.0342
1377.0,0.0352
1376.0,0.0363
1375.0,0.0375
1374.0,0.0387
1373.0,0.0396
1372.0,0.0401
1371.0,0.0402
1370.0,0.0398
1369.0,0.039
1368.0,0.0377
1367.0,0.0359
1366.0,0.0339
1365.0,0.0316
1364.0,0.029
1363.0,0.0264
1362.0,0.0241
1361.0,0.0225
1360.0,0.0214
1359.0,0.0206
1358.0,0.0201
1357.0,0.0198
1356.0,0.0198
1355.0,0.02
1354.0,0.0206
1353.0,0.0215
1352.0,0.0229
1351.0,0.0247
1350.0,0.0271
1349.0,0.0302
1348.0,0.034
1347.0,0.0385
1346.0,0.0437
1345.0,0.0497
1344.0,0.0561
1343.0,0.0624
1342.0,0.0684
1341.0,0.0738
1340.0,0.0779
1339.0,0.0795
1338.0,0.0778
1337.0,0.0733
1336.0,0.0667
1335.0,0.0589
1334.0,0.0507
1333.0,0.043
1332.0,0.0362
1331.0,0.0307
1330.0,0.0266
1329.0,0.0238
1328.0,0.022
1327.0,0.0209
1326.0,0.0205
1325.0,0.0206
1324.0,0.021
1323.0,0.0217
1322.0,0.0226
1321.0,0.0236
1320.0,0.0247
1319.0,0.0259
1318.0,0.0272
1317.0,0.0284
1316.0,0.0298
1315.0,0.0312
1314.0,0.0329
1313.0,0.0347
1312.0,0.0367
1311.0,0.0388
1310.0,0.0409
1309.0,0.0431
1308.0,0.0454
1307.0,0.0477
1306.0,0.0499
1305.0,0.052
1304.0,0.0543
1303.0,0.0569
1302.0,0.06
1301.0,0.0636
1300.0,0.0678
1299.0,0.0724
1298.0,0.0774
1297.0,0.0826
1296.0,0.088
1295.0,0.0934
1294.0,0.0987
1293.0,0.104
1292.0,0.1092
1291.0,0.1141
1290.0,0.1188
1289.0,0.1233
1288.0,0.1277
1287.0,0.1319
1286.0,0.1358
1285.0,0.1394
1284.0,0.1429
1283.0,0.146
1282.0,0.1489
1281.0,0.1517
1280.0,0.1545
1279.0,0.1574
1278.0,0.1603
1277.0,0.1636
1276.0,0.1674
1275.0,0.1719
1274.0,0.177
1273.0,0.1834
1272.0,0.1909
1271.0,0.1995
1270.0,0.2088
1269.0,0.2189
1268.0,0.2296
1267.0,0.2405
1266.0,0.2512
1265.0,0.2617
1264.0,0.2716
1263.0,0.2805
1262.0,0.2881
1261.0,0.2946
1260.0,0.3
1259.0,0.3041
1258.0,0.3069
1257.0,0.3094
1256.0,0.312
1255.0,0.315
1254.0,0.3186
1253.0,0.3231
1252.0,0.3289
1251.0,0.3354
1250.0,0.3424
1249.0,0.3502
1248.0,0.3586
1247.0,0.3668
1246.0,0.3743
1245.0,0.3813
1244.0,0.3873
1243.0,0.3915
1242.0,0.3934
1241.0,0.3933
1240.0,0.391
1239.0,0.386
1238.0,0.3785
1237.0,0.369
1236.0,0.3582
1235.0,0.346
1234.0,0.3328
1233.0,0.3194
1232.0,0.3061
1231.0,0.2929
1230.0,0.28
1229.0,0.2677
1228.0,0.2562
1227.0,0.2451
1226.0,0.2344
1225.0,0.2242
1224.0,0.2147
1223.0,0.2055
1222.0,0.1967
1221.0,0.1885
1220.0,0.1807
1219.0,0.1733
1218.0,0.1663
1217.0,0.1597
1216.0,0.1536
1215.0,0.1479
1214.0,0.1426
1213.0,0.1377
1212.0,0.1332
1211.0,0.1291
1210.0,0.1251
1209.0,0.1215
1208.0,0.118
1207.0,0.1147
1206.0,0.1115
1205.0,0.1085
1204.0,0.1057
1203.0,0.1031
1202.0,0.1004
1201.0,0.0979
1200.0,0.0955
1199.0,0.0931
1198.0,0.0908
1197.0,0.0886
1196.0,0.0865
1195.0,0.0844
1194.0,0.0824
1193.0,0.0805
1192.0,0.0787
1191.0,0.0771
1190.0,0.0756
1189.0,0.0742
1188.0,0.0731
1187.0,0.0722
1186.0,0.0716
1185.0,0.0712
1184.0,0.0711
1183.0,0.0714
1182.0,0.0719
1181.0,0.0727
1180.0,0.0738
1179.0,0.075
1178.0,0.0761
1177.0,0.0772
1176.0,0.078
1175.0,0.0786
1174.0,0.0787
1173.0,0.0784
1172.0,0.0777
1171.0,0.0765
1170.0,0.0751
1169.0,0.0735
1168.0,0.0719
1167.0,0.0706
1166.0,0.0696
1165.0,0.069
1164.0,0.0687
1163.0,0.0687
1162.0,0.0689
1161.0,0.0693
1160.0,0.0698
1159.0,0.0705
1158.0,0.0713
1157.0,0.0724
1156.0,0.0736
1155.0,0.0751
1154.0,0.0768
1153.0,0.0789
1152.0,0.0813
1151.0,0.0839
1150.0,0.0866
1149.0,0.0897
1148.0,0.093
1147.0,0.0965
1146.0,0.1004
1145.0,0.1045
1144.0,0.109
1143.0,0.1136
1142.0,0.1183
1141.0,0.1231
1140.0,0.1282
1139.0,0.1333
1138.0,0.1385
1137.0,0.1439
1136.0,0.1496
1135.0,0.1556
1134.0,0.1618
1133.0,0.1685
1132.0,0.1756
1131.0,0.183
1130.0,0.1908
1129.0,0.1991
1128.0,0.208
1127.0,0.2173
1126.0,0.227
1125.0,0.2372
1124.0,0.2476
1123.0,0.2581
1122.0,0.2683
1121.0,0.2781
1120.0,0.2872
1119.0,0.2952
1118.0,0.3016
1117.0,0.3064
1116.0,0.3093
1115.0,0.3102
1114.0,0.3095
1113.0,0.3085
1112.0,0.3083
1111.0,0.3099
1110.0,0.3139
1109.0,0.3211
1108.0,0.3315
1107.0,0.3444
1106.0,0.3591
1105.0,0.3752
1104.0,0.3921
1103.0,0.4088
1102.0,0.4248
1101.0,0.4403
1100.0,0.4549
1099.0,0.4679
1098.0,0.4787
1097.0,0.4877
1096.0,0.4947
1095.0,0.499
1094.0,0.5005
1093.0,0.5001
1092.0,0.498
1091.0,0.494
1090.0,0.4883
1089.0,0.4821
1088.0,0.4757
1087.0,0.4687
1086.0,0.4613
1085.0,0.454
1084.0,0.4468
1083.0,0.4387
1082.0,0.4297
1081.0,0.4201
1080.0,0.4099
1079.0,0.3988
1078.0,0.387
1077.0,0.3751
1076.0,0.3634
1075.0,0.3519
1074.0,0.3407
1073.0,0.3302
1072.0,0.3206
1071.0,0.3114
1070.0,0.3027
1069.0,0.2946
1068.0,0.2872
1067.0,0.2799
1066.0,0.2728
1065.0,0.2661
1064.0,0.2599
1063.0,0.2539
1062.0,0.2482
1061.0,0.2428
1060.0,0.2379
1059.0,0.2332
1058.0,0.229
1057.0,0.2254
1056.0,0.2223
1055.0,0.2197
1054.0,0.2174
1053.0,0.2155
1052.0,0.2141
1051.0,0.2129
1050.0,0.2119
1049.0,0.2112
1048.0,0.2106
1047.0,0.21
1046.0,0.209
1045.0,0.2079
1044.0,0.2065
1043.0,0.2047
1042.0,0.2025
1041.0,0.1999
1040.0,0.1969
1039.0,0.1936
1038.0,0.1901
1037.0,0.1867
1036.0,0.1833
1035.0,0.1799
1034.0,0.1764
1033.0,0.1731
1032.0,0.1699
1031.0,0.1669
1030.0,0.1642
1029.0,0.1622
1028.0,0.1615
1027.0,0.1625
1026.0,0.1661
1025.0,0.1729
1024.0,0.1836
1023.0,0.1983
1022.0,0.2169
1021.0,0.2387
1020.0,0.2618
1019.0,0.2827
1018.0,0.2973
1017.0,0.3021
1016.0,0.2955
1015.0,0.2795
1014.0,0.2581
1013.0,0.2361
1012.0,0.2165
1011.0,0.2002
1010.0,0.1872
1009.0,0.1768
1008.0,0.1685
1007.0,0.1617
1006.0,0.1561
1005.0,0.1515
1004.0,0.1478
1003.0,0.1445
1002.0,0.1415
1001.0,0.1389
1000.0,0.1365
999.0,0.1343
998.0,0.1322
997.0,0.1303
996.0,0.1285
995.0,0.1269
994.0,0.1256
993.0,0.1244
992.0,0.1235
991.0,0.1227
990.0,0.1223
989.0,0.1225
988.0,0.1237
987.0,0.126
986.0,0.129
985.0,0.1318
984.0,0.1335
983.0,0.1335
982.0,0.1323
981.0,0.1309
980.0,0.1298
979.0,0.1292
978.0,0.1291
977.0,0.1294
976.0,0.1299
975.0,0.1304
974.0,0.1307
973.0,0.1308
972.0,0.1307
971.0,0.1301
970.0,0.129
969.0,0.1277
968.0,0.1262
967.0,0.1244
966.0,0.1224
965.0,0.1204
964.0,0.1183
963.0,0.1162
962.0,0.1141
961.0,0.1121
960.0,0.1102
959.0,0.1083
958.0,0.1065
957.0,0.1049
956.0,0.1033
955.0,0.1019
954.0,0.1006
953.0,0.0994
952.0,0.0983
951.0,0.0973
950.0,0.0963
949.0,0.0955
948.0,0.0948
947.0,0.094
946.0,0.0933
945.0,0.0926
944.0,0.0919
943.0,0.0913
942.0,0.0907
941.0,0.0901
940.0,0.0896
939.0,0.089
938.0,0.0883
937.0,0.0877
936.0,0.0872
935.0,0.0866
934.0,0.086
933.0,0.0854
932.0,0.085
931.0,0.0846
930.0,0.0841
929.0,0.0837
928.0,0.0832
927.0,0.0826
926.0,0.0819
925.0,0.0814
924.0,0.0809
923.0,0.0804
922.0,0.08
921.0,0.0795
920.0,0.0791
919.0,0.0788
918.0,0.0784
917.0,0.0782
916.0,0.078
915.0,0.0779
914.0,0.0779
913.0,0.0781
912.0,0.0785
911.0,0.0791
910.0,0.0799
909.0,0.081
908.0,0.0822
907.0,0.0834
906.0,0.0847
905.0,0.0861
904.0,0.0876
903.0,0.089
902.0,0.0903
901.0,0.0914
900.0,0.0923
899.0,0.0929
898.0,0.0932
897.0,0.0933
896.0,0.0933
895.0,0.0932
894.0,0.093
893.0,0.0927
892.0,0.0924
891.0,0.0921
890.0,0.0919
889.0,0.0921
888.0,0.0926
887.0,0.0936
886.0,0.0951
885.0,0.0972
884.0,0.1
883.0,0.1035
882.0,0.1077
881.0,0.113
880.0,0.1193
879.0,0.1266
878.0,0.1345
877.0,0.143
876.0,0.1518
875.0,0.1605
874.0,0.1677
873.0,0.1723
872.0,0.1731
871.0,0.1698
870.0,0.1635
869.0,0.1558
868.0,0.1483
867.0,0.1415
866.0,0.1359
865.0,0.1315
864.0,0.1283
863.0,0.1259
862.0,0.124
861.0,0.1226
860.0,0.1217
859.0,0.121
858.0,0.1205
857.0,0.1203
856.0,0.1202
855.0,0.1203
854.0,0.1205
853.0,0.1209
852.0,0.1216
851.0,0.1226
850.0,0.1239
849.0,0.1252
848.0,0.1265
847.0,0.1272
846.0,0.1273
845.0,0.1271
844.0,0.1268
843.0,0.1264
842.0,0.1258
841.0,0.1251
840.0,0.1244
839.0,0.1236
838.0,0.1227
837.0,0.1218
836.0,0.1207
835.0,0.1195
834.0,0.1182
833.0,0.117
832.0,0.1159
831.0,0.1147
830.0,0.1134
829.0,0.1123
828.0,0.1115
827.0,0.1108
826.0,0.1101
825.0,0.1095
824.0,0.109
823.0,0.1085
822.0,0.1081
821.0,0.1079
820.0,0.1079
819.0,0.1078
818.0,0.1077
817.0,0.1077
816.0,0.1076
815.0,0.1074
814.0,0.1072
813.0,0.107
812.0,0.107
811.0,0.1069
810.0,0.1068
809.0,0.1068
808.0,0.1067
807.0,0.1066
806.0,0.1064
805.0,0.1062
804.0,0.1061
803.0,0.1059
802.0,0.1056
801.0,0.1055
800.0,0.1058
799.0,0.1068
798.0,0.1088
797.0,0.112
796.0,0.1159
795.0,0.1196
794.0,0.1225
793.0,0.1241
792.0,0.1243
791.0,0.1235
790.0,0.122
789.0,0.1203
788.0,0.1187
787.0,0.1172
786.0,0.1156
785.0,0.1142
784.0,0.1131
783.0,0.1122
782.0,0.1114
781.0,0.1109
780.0,0.1106
779.0,0.1102
778.0,0.1096
777.0,0.1092
776.0,0.1088
775.0,0.1084
774.0,0.1079
773.0,0.1073
772.0,0.1067
771.0,0.1058
770.0,0.1048
769.0,0.1036
768.0,0.1024
767.0,0.1011
766.0,0.0997
765.0,0.0985
764.0,0.0974
763.0,0.0964
762.0,0.0952
761.0,0.0941
760.0,0.0929
759.0,0.0915
758.0,0.09
757.0,0.0886
756.0,0.0872
755.0,0.0858
754.0,0.0842
753.0,0.0827
752.0,0.0811
751.0,0.0796
750.0,0.0782
749.0,0.077
748.0,0.0761
747.0,0.0752
746.0,0.0745
745.0,0.0744
744.0,0.0754
743.0,0.0777
742.0,0.0818
741.0,0.0884
740.0,0.0979
739.0,0.1103
738.0,0.1252
737.0,0.1424
736.0,0.1615
735.0,0.1816
734.0,0.2028
733.0,0.2254
732.0,0.2499
731.0,0.2762
730.0,0.3051
729.0,0.3376
728.0,0.3737
727.0,0.4108
726.0,0.4448
725.0,0.4709
724.0,0.4853
723.0,0.4864
722.0,0.4755
721.0,0.457
720.0,0.4347
719.0,0.4113
718.0,0.3886
717.0,0.3681
716.0,0.3499
715.0,0.334
714.0,0.3202
713.0,0.3089
712.0,0.2997
711.0,0.2918
710.0,0.2846
709.0,0.2781
708.0,0.2722
707.0,0.2666
706.0,0.2615
705.0,0.2569
704.0,0.2528
703.0,0.2484
702.0,0.2435
701.0,0.2385
700.0,0.2338
699.0,0.2292
698.0,0.2246
697.0,0.2205
696.0,0.2169
695.0,0.2138
694.0,0.211
693.0,0.2088
692.0,0.2067
691.0,0.2041
690.0,0.201
689.0,0.1982
688.0,0.1963
687.0,0.1951
686.0,0.1941
685.0,0.1935
684.0,0.1936
683.0,0.1939
682.0,0.1943
681.0,0.1948
680.0,0.1953
679.0,0.1952
678.0,0.1943
677.0,0.1929
676.0,0.1913
675.0,0.1894
674.0,0.1875
673.0,0.186
672.0,0.185
671.0,0.1842
670.0,0.1832
669.0,0.1831
668.0,0.185
667.0,0.1857
666.0,0.1839
665.0,0.1823
664.0,0.1816
663.0,0.1813
662.0,0.1808
661.0,0.1804
660.0,0.1802
659.0,0.1798
658.0,0.179
657.0,0.1784
656.0,0.1781
655.0,0.1774
654.0,0.1764
653.0,0.176
652.0,0.1764
651.0,0.1769
650.0,0.1769
649.0,0.1769
648.0,0.1769
647.0,0.1765
646.0,0.1755
645.0,0.1748
644.0,0.1749
643.0,0.1756
642.0,0.1766
641.0,0.178
640.0,0.1796
639.0,0.1812
638.0,0.1832
637.0,0.1863
636.0,0.1903
635.0,0.1938
634.0,0.1958
633.0,0.1971
632.0,0.198
631.0,0.1975
630.0,0.1954
629.0,0.1932
628.0,0.1919
627.0,0.1911
626.0,0.1903
625.0,0.1897
624.0,0.1892
623.0,0.1886
622.0,0.1878
621.0,0.1874
620.0,0.1877
619.0,0.1878
618.0,0.187
617.0,0.1862
616.0,0.186
615.0,0.1858
614.0,0.1855
613.0,0.1857
612.0,0.1863
611.0,0.1867
610.0,0.1866
609.0,0.1865
608.0,0.1864
607.0,0.1857
606.0,0.1846
605.0,0.1845
604.0,0.1855
603.0,0.1862
602.0,0.1859
601.0,0.1857
600.0,0.186
