cm-1,A
4000.0,0.014708281407112
3999.0,0.014663358264387139
3998.0,0.014618439768003144
3997.0,0.01452861671041239
3996.0,0.0144837121472845
3995.0,0.014438812226654996
3994.0,0.014393916947563534
3993.0,0.014349026309051105
3992.0,0.014349026309051105
3991.0,0.014349026309051105
3990.0,0.014393916947563534
3989.0,0.0144837121472845
3988.0,0.01452861671041239
3987.0,0.014573525916998342
3986.0,0.014618439768003144
3985.0,0.014618439768003144
3984.0,0.014663358264387139
3983.0,0.014663358264387139
3982.0,0.014708281407112
3981.0,0.014663358264387139
3980.0,0.014618439768003144
3979.0,0.01452861671041239
3978.0,0.01452861671041239
3977.0,0.01452861671041239
3976.0,0.01452861671041239
3975.0,0.014573525916998342
3974.0,0.01452861671041239
3973.0,0.014573525916998342
3972.0,0.014573525916998342
3971.0,0.014618439768003144
3970.0,0.014708281407112
3969.0,0.014753209197138295
3968.0,0.014843078722943437
3967.0,0.014843078722943437
3966.0,0.014843078722943437
3965.0,0.014843078722943437
3964.0,0.014843078722943437
3963.0,0.014798141635428141
3962.0,0.014708281407112
3961.0,0.014663358264387139
3960.0,0.014573525916998342
3959.0,0.014573525916998342
3958.0,0.014618439768003144
3957.0,0.014663358264387139
3956.0,0.014708281407112
3955.0,0.014708281407112
3954.0,0.014753209197138295
3953.0,0.014708281407112
3952.0,0.014663358264387139
3951.0,0.014618439768003144
3950.0,0.014573525916998342
3949.0,0.014573525916998342
3948.0,0.01452861671041239
3947.0,0.014438812226654996
3946.0,0.014438812226654996
3945.0,0.01452861671041239
3944.0,0.014618439768003144
3943.0,0.014663358264387139
3942.0,0.014618439768003144
3941.0,0.01452861671041239
3940.0,0.01452861671041239
3939.0,0.014663358264387139
3938.0,0.014798141635428141
3937.0,0.014843078722943437
3936.0,0.014843078722943437
3935.0,0.014798141635428141
3934.0,0.014798141635428141
3933.0,0.014798141635428141
3932.0,0.014753209197138295
3931.0,0.014663358264387139
3930.0,0.01452861671041239
3929.0,0.014393916947563534
3928.0,0.014349026309051105
3927.0,0.014349026309051105
3926.0,0.014438812226654996
3925.0,0.01452861671041239
3924.0,0.01452861671041239
3923.0,0.0144837121472845
3922.0,0.0144837121472845
3921.0,0.01452861671041239
3920.0,0.014573525916998342
3919.0,0.014573525916998342
3918.0,0.014618439768003144
3917.0,0.014663358264387139
3916.0,0.014708281407112
3915.0,0.014708281407112
3914.0,0.014798141635428141
3913.0,0.014888020460646079
3912.0,0.014977917890464765
3911.0,0.014977917890464765
3910.0,0.014932966849499074
3909.0,0.014798141635428141
3908.0,0.014663358264387139
3907.0,0.014438812226654996
3906.0,0.014259258949925524
3905.0,0.01403492169512921
3904.0,0.01385553528947936
3903.0,0.013676222949234651
3902.0,0.013676222949234651
3901.0,0.013900374944870508
3900.0,0.014214382227394795
3899.0,0.014393916947563534
3898.0,0.014393916947563534
3897.0,0.014438812226654996
3896.0,0.01452861671041239
3895.0,0.014618439768003144
3894.0,0.014753209197138295
3893.0,0.015022873584506602
3892.0,0.015157768594724175
3891.0,0.015022873584506602
3890.0,0.014663358264387139
3889.0,0.014438812226654996
3888.0,0.01452861671041239
3887.0,0.014843078722943437
3886.0,0.014977917890464765
3885.0,0.014753209197138295
3884.0,0.014393916947563534
3883.0,0.014349026309051105
3882.0,0.014618439768003144
3881.0,0.014932966849499074
3880.0,0.014932966849499074
3879.0,0.014618439768003144
3878.0,0.0144837121472845
3877.0,0.014618439768003144
3876.0,0.014843078722943437
3875.0,0.014888020460646079
3874.0,0.014573525916998342
3873.0,0.014124642691606404
3872.0,0.013990068146738865
3871.0,0.014214382227394795
3870.0,0.0144837121472845
3869.0,0.014349026309051105
3868.0,0.014079779876432497
3867.0,0.014169510141607944
3866.0,0.0144837121472845
3865.0,0.014753209197138295
3864.0,0.014843078722943437
3863.0,0.014753209197138295
3862.0,0.014708281407112
3861.0,0.014708281407112
3860.0,0.014708281407112
3859.0,0.014663358264387139
3858.0,0.014438812226654996
3857.0,0.014124642691606404
3856.0,0.01381070026317599
3855.0,0.01385553528947936
3854.0,0.014393916947563534
3853.0,0.014618439768003144
3852.0,0.014393916947563534
3851.0,0.014573525916998342
3850.0,0.015112798935672522
3849.0,0.01547268665620738
3848.0,0.01547268665620738
3847.0,0.015337693809893471
3846.0,0.015202742910707112
3845.0,0.015067833932588037
3844.0,0.014888020460646079
3843.0,0.014618439768003144
3842.0,0.014259258949925524
3841.0,0.01403492169512921
3840.0,0.014079779876432497
3839.0,0.014304140310157809
3838.0,0.0144837121472845
3837.0,0.01452861671041239
3836.0,0.01452861671041239
3835.0,0.014708281407112
3834.0,0.014977917890464765
3833.0,0.015202742910707112
3832.0,0.015337693809893471
3831.0,0.015247721884586563
3830.0,0.015157768594724175
3829.0,0.015157768594724175
3828.0,0.015247721884586563
3827.0,0.015292705517326866
3826.0,0.015112798935672522
3825.0,0.014753209197138295
3824.0,0.01452861671041239
3823.0,0.014618439768003144
3822.0,0.014932966849499074
3821.0,0.014932966849499074
3820.0,0.01452861671041239
3819.0,0.014259258949925524
3818.0,0.014663358264387139
3817.0,0.015292705517326866
3816.0,0.015697768020096703
3815.0,0.015697768020096703
3814.0,0.015562705203923999
3813.0,0.015697768020096703
3812.0,0.015832872853011715
3811.0,0.015697768020096703
3810.0,0.01547268665620738
3809.0,0.015337693809893471
3808.0,0.015427684378367834
3807.0,0.015427684378367834
3806.0,0.015112798935672522
3805.0,0.014798141635428141
3804.0,0.014843078722943437
3803.0,0.015247721884586563
3802.0,0.015607721475734415
3801.0,0.01547268665620738
3800.0,0.015067833932588037
3799.0,0.014977917890464765
3798.0,0.015337693809893471
3797.0,0.015652742414136167
3796.0,0.015697768020096703
3795.0,0.015517693597737248
3794.0,0.015517693597737248
3793.0,0.015697768020096703
3792.0,0.015877917138889863
3791.0,0.015922966097169144
3790.0,0.015877917138889863
3789.0,0.01578783323856614
3788.0,0.015697768020096703
3787.0,0.015697768020096703
3786.0,0.015742798294583915
3785.0,0.01578783323856614
3784.0,0.015742798294583915
3783.0,0.015562705203923999
3782.0,0.015517693597737248
3781.0,0.015562705203923999
3780.0,0.015652742414136167
3779.0,0.015742798294583915
3778.0,0.015697768020096703
3777.0,0.015742798294583915
3776.0,0.015877917138889863
3775.0,0.01596801972881945
3774.0,0.015922966097169144
3773.0,0.01578783323856614
3772.0,0.015742798294583915
3771.0,0.01578783323856614
3770.0,0.015742798294583915
3769.0,0.015562705203923999
3768.0,0.015427684378367834
3767.0,0.015562705203923999
3766.0,0.015832872853011715
3765.0,0.015877917138889863
3764.0,0.015742798294583915
3763.0,0.015607721475734415
3762.0,0.015562705203923999
3761.0,0.015652742414136167
3760.0,0.015742798294583915
3759.0,0.015742798294583915
3758.0,0.015562705203923999
3757.0,0.015337693809893471
3756.0,0.015067833932588037
3755.0,0.014843078722943437
3754.0,0.014573525916998342
3753.0,0.014393916947563534
3752.0,0.01452861671041239
3751.0,0.014888020460646079
3750.0,0.014977917890464765
3749.0,0.014798141635428141
3748.0,0.014663358264387139
3747.0,0.014798141635428141
3746.0,0.015202742910707112
3745.0,0.015697768020096703
3744.0,0.015652742414136167
3743.0,0.015202742910707112
3742.0,0.015202742910707112
3741.0,0.015607721475734415
3740.0,0.015697768020096703
3739.0,0.01538268676325183
3738.0,0.014977917890464765
3737.0,0.014753209197138295
3736.0,0.014798141635428141
3735.0,0.014843078722943437
3734.0,0.014888020460646079
3733.0,0.015022873584506602
3732.0,0.015247721884586563
3731.0,0.015337693809893471
3730.0,0.015427684378367834
3729.0,0.015562705203923999
3728.0,0.015697768020096703
3727.0,0.015742798294583915
3726.0,0.015652742414136167
3725.0,0.01547268665620738
3724.0,0.01538268676325183
3723.0,0.015427684378367834
3722.0,0.015517693597737248
3721.0,0.015562705203923999
3720.0,0.015652742414136167
3719.0,0.01578783323856614
3718.0,0.015832872853011715
3717.0,0.015697768020096703
3716.0,0.015517693597737248
3715.0,0.015337693809893471
3714.0,0.015292705517326866
3713.0,0.015337693809893471
3712.0,0.015517693597737248
3711.0,0.015652742414136167
3710.0,0.015652742414136167
3709.0,0.015697768020096703
3708.0,0.015832872853011715
3707.0,0.01596801972881945
3706.0,0.016013078034810446
3705.0,0.016058141016111804
3704.0,0.016058141016111804
3703.0,0.016058141016111804
3702.0,0.016058141016111804
3701.0,0.016013078034810446
3700.0,0.01596801972881945
3699.0,0.016058141016111804
3698.0,0.016238439713835096
3697.0,0.01632861713980338
3696.0,0.016238439713835096
3695.0,0.016013078034810446
3694.0,0.01578783323856614
3693.0,0.015652742414136167
3692.0,0.015607721475734415
3691.0,0.015697768020096703
3690.0,0.01596801972881945
3689.0,0.016148281008528276
3688.0,0.016148281008528276
3687.0,0.01628352608625061
3686.0,0.016599261819461697
3685.0,0.016915227262211507
3684.0,0.017050711425501408
3683.0,0.016960383953898095
3682.0,0.016734647433454652
3681.0,0.016509028184833463
3680.0,0.016193358021584725
3679.0,0.015697768020096703
3678.0,0.015337693809893471
3677.0,0.015517693597737248
3676.0,0.016013078034810446
3675.0,0.016058141016111804
3674.0,0.015697768020096703
3673.0,0.015697768020096703
3672.0,0.01628352608625061
3671.0,0.017050711425501408
3670.0,0.017547848615010242
3669.0,0.017412209298337533
3668.0,0.017186237868137555
3667.0,0.017321806616515723
3666.0,0.017638298366853045
3665.0,0.017909760704207134
3664.0,0.018045555530026514
3663.0,0.01809082990920774
3662.0,0.01809082990920774
3661.0,0.018045555530026514
3660.0,0.017955020928509757
3659.0,0.017864505196230507
3658.0,0.017955020928509757
3657.0,0.018136109008649592
3656.0,0.018181392829336396
3655.0,0.017955020928509757
3654.0,0.01768353030793479
3653.0,0.017547848615010242
3652.0,0.017457417697056554
3651.0,0.017547848615010242
3650.0,0.017955020928509757
3649.0,0.01831727262871463
3648.0,0.01840788278591865
3647.0,0.018498511851753108
3646.0,0.018770512579999288
3645.0,0.019133445417920836
3644.0,0.01954210772389997
3643.0,0.019860222254245663
3642.0,0.02004210665933459
3641.0,0.02013307743509718
3640.0,0.020178569969774962
3639.0,0.02022406727031445
3638.0,0.02036058777709271
3637.0,0.02045162529590483
3636.0,0.020542681902151694
3635.0,0.020633757603838898
3634.0,0.020497151212598652
3633.0,0.020178569969774962
3632.0,0.019814763052665052
3631.0,0.019723858922159776
3630.0,0.020087589665283012
3629.0,0.020633757603838898
3628.0,0.020724852408976924
3627.0,0.02067930261797568
3626.0,0.020952673052035298
3625.0,0.021363051615525652
3624.0,0.021499930688540836
3623.0,0.021363051615525652
3622.0,0.0211806132671577
3621.0,0.021089422824428272
3620.0,0.0211806132671577
3619.0,0.02122621566987748
3618.0,0.0211806132671577
3617.0,0.0211806132671577
3616.0,0.021363051615525652
3615.0,0.02168250325324883
3614.0,0.021956506090037076
3613.0,0.02204787879853809
3612.0,0.02200219004126036
3611.0,0.02204787879853809
3610.0,0.0221849739168134
3609.0,0.02245929405346514
3608.0,0.022688026603074007
3607.0,0.022733787572707387
3606.0,0.022733787572707387
3605.0,0.02277955336461468
3604.0,0.02291687968414724
3603.0,0.023054249440757957
3602.0,0.023283295636617574
3601.0,0.02342078135989012
3600.0,0.023466619608062178
3599.0,0.023374947949272418
3598.0,0.023329119375188556
3597.0,0.023374947949272418
3596.0,0.02351246269481
3595.0,0.023695883447997224
3594.0,0.023833499868024743
3593.0,0.023787622882622816
3592.0,0.02365002099672653
3591.0,0.02355831062115543
3590.0,0.02351246269481
3589.0,0.023695883447997224
3588.0,0.024017056287453542
3587.0,0.024200690320592466
3586.0,0.024292536462819925
3585.0,0.024430342106337877
3584.0,0.024706084643793647
3583.0,0.025028005701930978
3582.0,0.02521206778644225
3581.0,0.025304128090317013
3580.0,0.02539620791296726
3579.0,0.025488307262671706
3578.0,0.02558042614771394
3577.0,0.025672564576383117
3576.0,0.025810808881832736
3575.0,0.025949097207122573
3574.0,0.026041313893296225
3573.0,0.026087429580295085
3572.0,0.025995203102585407
3571.0,0.025856900097785074
3570.0,0.025718641122169483
3569.0,0.025718641122169483
3568.0,0.025902996205869
3567.0,0.02617967564731627
3566.0,0.026318081496016443
3565.0,0.026456531467510258
3564.0,0.026687379547098322
3563.0,0.027056991894431892
3562.0,0.02738066094037661
3561.0,0.027565723042634938
3560.0,0.027658283674251827
3559.0,0.027750864037404455
3558.0,0.027889771597169544
3557.0,0.028075050815808744
3556.0,0.028214062120885508
3555.0,0.02839947976994095
3554.0,0.02858497661500481
3553.0,0.028770552723758724
3552.0,0.028863370523193765
3551.0,0.028816959143838528
3550.0,0.02872415126189476
3549.0,0.028677754757187035
3548.0,0.02872415126189476
3547.0,0.02890978686288448
3546.0,0.029141943003497595
3545.0,0.02932775731028059
3544.0,0.029467170231675777
3543.0,0.02960662792039992
3542.0,0.029792641193145286
3541.0,0.029932203450862893
3540.0,0.030071810571884017
3539.0,0.030164906924202484
3538.0,0.03030458888152676
3537.0,0.030444315779156517
3536.0,0.030537492025363155
3535.0,0.030537492025363155
3534.0,0.030537492025363155
3533.0,0.030537492025363155
3532.0,0.03058408764601861
3531.0,0.03067729388779794
3530.0,0.0307239045110681
3529.0,0.030770520137356927
3528.0,0.030770520137356927
3527.0,0.0307239045110681
3526.0,0.0307239045110681
3525.0,0.03081714076773867
3524.0,0.031003673351687855
3523.0,0.03128362253321426
3522.0,0.03147035562516054
3521.0,0.03161045815293173
3520.0,0.03175060589208267
3519.0,0.03184406285002961
3518.0,0.03193753992355086
3517.0,0.031984286006358165
3516.0,0.03207779326948268
3515.0,0.032124554451966825
3514.0,0.032124554451966825
3513.0,0.03217132066984485
3512.0,0.032218091924200776
3511.0,0.03235843591698884
3510.0,0.032545631817259224
3509.0,0.03273290844021437
3508.0,0.03282657704446046
3507.0,0.032873418923587305
3506.0,0.032873418923587305
3505.0,0.032920265855503006
3504.0,0.03301397488206215
3503.0,0.03310770413286357
3502.0,0.0332483359486222
3501.0,0.03334211579824231
3500.0,0.03343591590268957
3499.0,0.03352973627071565
3498.0,0.03362357691107709
3497.0,0.03376437590141812
3496.0,0.033905220553829274
3495.0,0.03399914237121604
3494.0,0.03409308450480819
3493.0,0.03414006319292828
3492.0,0.034187046963396917
3491.0,0.03423403581731388
3490.0,0.03428102975577918
3489.0,0.03432802877989327
3488.0,0.03442204208947208
3487.0,0.03456310022373987
3486.0,0.03465716443937783
3485.0,0.03479829897408804
3484.0,0.03489241415094413
3483.0,0.03498654972775217
3482.0,0.03512779136222477
3481.0,0.03522197797762394
3480.0,0.03541041251009669
3479.0,0.03555179208333925
3478.0,0.035740369803151095
3477.0,0.03583468937826462
3476.0,0.03592902944204468
3475.0,0.03597620715996652
3474.0,0.03597620715996652
3473.0,0.03602339000339416
3472.0,0.0360705779734416
3471.0,0.03616496929785207
3470.0,0.03630659476198117
3469.0,0.03644826642590382
3468.0,0.03663723389626394
3467.0,0.03682628362474838
3466.0,0.03701541568300293
3465.0,0.0371100126082089
3464.0,0.037251946641359446
3463.0,0.037299268295658994
3462.0,0.03739392707587297
3461.0,0.03753595394209874
3460.0,0.03767802727041558
3459.0,0.03782014709123227
3458.0,0.038057116858612794
3457.0,0.038199360808321536
3456.0,0.038341651362284734
3455.0,0.03848398855105106
3454.0,0.03857890593355173
3453.0,0.038673844065289176
3452.0,0.038816290187564384
3451.0,0.038911280232103884
3450.0,0.03905380426616856
3449.0,0.03914884628031379
3448.0,0.03929144831144349
3447.0,0.03948165721929198
3446.0,0.03962436858984186
3445.0,0.03981472339538916
3444.0,0.040005161671583744
3443.0,0.040243327009005014
3442.0,0.040481623027001756
3441.0,0.04062466342415694
3440.0,0.04076775094900409
3439.0,0.04086316882962593
3438.0,0.040958607678906356
3437.0,0.04105406750606355
3436.0,0.04124505013091051
3435.0,0.041436116778032606
3434.0,0.041579471947481794
3433.0,0.04172287445230238
3432.0,0.04181850243505214
3431.0,0.04186632432376469
3430.0,0.041914151478914974
3429.0,0.04196198390166317
3428.0,0.04200982159316968
3427.0,0.04210551278710151
3426.0,0.04215336629184985
3425.0,0.042201225070002124
3424.0,0.04224908912272074
3423.0,0.04229695845116854
3422.0,0.042344833056508824
3421.0,0.042392712939904875
3420.0,0.04244059810252043
3419.0,0.04248848854552012
3418.0,0.04248848854552012
3417.0,0.04248848854552012
3416.0,0.04244059810252043
3415.0,0.042344833056508824
3414.0,0.04224908912272074
3413.0,0.042201225070002124
3412.0,0.04224908912272074
3411.0,0.04229695845116854
3410.0,0.04229695845116854
3409.0,0.04229695845116854
3408.0,0.04224908912272074
3407.0,0.042201225070002124
3406.0,0.04215336629184985
3405.0,0.04210551278710151
3404.0,0.04200982159316968
3403.0,0.04186632432376469
3402.0,0.04181850243505214
3401.0,0.0417706858116178
3400.0,0.04181850243505214
3399.0,0.041914151478914974
3398.0,0.04200982159316968
3397.0,0.042057664554595586
3396.0,0.042057664554595586
3395.0,0.042057664554595586
3394.0,0.04200982159316968
3393.0,0.042057664554595586
3392.0,0.04215336629184985
3391.0,0.04215336629184985
3390.0,0.04215336629184985
3389.0,0.042057664554595586
3388.0,0.04196198390166317
3387.0,0.041914151478914974
3386.0,0.041914151478914974
3385.0,0.04196198390166317
3384.0,0.04200982159316968
3383.0,0.042057664554595586
3382.0,0.042057664554595586
3381.0,0.042057664554595586
3380.0,0.042057664554595586
3379.0,0.04200982159316968
3378.0,0.04196198390166317
3377.0,0.041914151478914974
3376.0,0.04186632432376469
3375.0,0.04186632432376469
3374.0,0.04181850243505214
3373.0,0.04181850243505214
3372.0,0.04172287445230238
3371.0,0.04167506835594681
3370.0,0.041627267521392675
3369.0,0.041579471947481794
3368.0,0.041579471947481794
3367.0,0.04153168163305643
3366.0,0.041483896576958834
3365.0,0.041436116778032606
3364.0,0.041436116778032606
3363.0,0.041436116778032606
3362.0,0.04138834223512067
3361.0,0.041340572947066834
3360.0,0.04124505013091051
3359.0,0.041197296600497646
3358.0,0.041101805289228244
3357.0,0.04105406750606355
3356.0,0.041101805289228244
3355.0,0.041149548320321694
3354.0,0.041197296600497646
3353.0,0.041149548320321694
3352.0,0.041101805289228244
3351.0,0.041006334969674096
3350.0,0.040958607678906356
3349.0,0.040958607678906356
3348.0,0.041006334969674096
3347.0,0.041006334969674096
3346.0,0.040958607678906356
3345.0,0.04091088563260792
3344.0,0.04086316882962593
3343.0,0.04076775094900409
3342.0,0.04072004986906119
3341.0,0.04062466342415694
3340.0,0.040529297924893015
3339.0,0.04043395336207234
3338.0,0.040338629726504704
3337.0,0.0402909757535701
3336.0,0.040243327009005014
3335.0,0.04014804520039483
3334.0,0.0400527842915015
3333.0,0.039909932095080425
3332.0,0.03981472339538916
3331.0,0.039767126871487646
3330.0,0.039719535563357944
3329.0,0.03967194946985697
3328.0,0.03967194946985697
3327.0,0.03967194946985697
3326.0,0.03967194946985697
3325.0,0.03962436858984186
3324.0,0.03952922246570112
3323.0,0.03943409718180235
3322.0,0.03929144831144349
3321.0,0.03919637508823026
3320.0,0.03910132267333921
3319.0,0.03905380426616856
3318.0,0.039006291057664066
3317.0,0.038958783046687984
3316.0,0.038958783046687984
3315.0,0.038911280232103884
3314.0,0.038816290187564384
3313.0,0.038721320914956836
3312.0,0.03857890593355173
3311.0,0.038436537637930535
3310.0,0.038341651362284734
3309.0,0.038341651362284734
3308.0,0.038341651362284734
3307.0,0.038341651362284734
3306.0,0.03829421599749461
3305.0,0.03824678581321739
3304.0,0.038199360808321536
3303.0,0.03824678581321739
3302.0,0.03824678581321739
3301.0,0.038199360808321536
3300.0,0.03810452633214956
3299.0,0.03800971255993524
3298.0,0.03791491948264003
3297.0,0.03782014709123227
3296.0,0.03772539537668518
3295.0,0.037583306554248797
3294.0,0.03753595394209874
3293.0,0.037488606492403154
3292.0,0.037488606492403154
3291.0,0.03744126420403626
3290.0,0.037346595106788616
3289.0,0.037251946641359446
3288.0,0.03720463014276687
3287.0,0.0371100126082089
3286.0,0.03701541568300293
3285.0,0.0369681249461018
3284.0,0.03692083935817303
3283.0,0.0369681249461018
3282.0,0.03701541568300293
3281.0,0.03701541568300293
3280.0,0.0369681249461018
3279.0,0.03692083935817303
3278.0,0.03682628362474838
3277.0,0.036731748473764814
3276.0,0.03658998431977123
3275.0,0.03649550058570927
3274.0,0.036401037402758574
3273.0,0.036401037402758574
3272.0,0.03644826642590382
3271.0,0.03644826642590382
3270.0,0.036401037402758574
3269.0,0.03630659476198117
3268.0,0.03621217265444465
3267.0,0.036117771071222604
3266.0,0.0360705779734416
3265.0,0.03597620715996652
3264.0,0.03597620715996652
3263.0,0.03597620715996652
3262.0,0.03597620715996652
3261.0,0.03592902944204468
3260.0,0.03583468937826462
3259.0,0.035740369803151095
3258.0,0.03559892883726867
3257.0,0.03550466044490741
3256.0,0.03541041251009669
3255.0,0.035363296211498474
3254.0,0.035363296211498474
3253.0,0.035363296211498474
3252.0,0.035363296211498474
3251.0,0.035363296211498474
3250.0,0.03531618502395939
3249.0,0.03526907894637077
3248.0,0.03517488211661135
3247.0,0.03508070571335731
3246.0,0.03498654972775217
3245.0,0.03489241415094413
3244.0,0.03484535401307465
3243.0,0.03479829897408804
3242.0,0.03475124903287918
3241.0,0.03475124903287918
3240.0,0.03470420418834386
3239.0,0.03465716443937783
3238.0,0.03461012978487776
3237.0,0.034516075754861264
3236.0,0.03442204208947208
3235.0,0.03437503289075727
3234.0,0.03428102975577918
3233.0,0.03423403581731388
3232.0,0.03409308450480819
3231.0,0.03399914237121604
3230.0,0.033952178923546183
3229.0,0.033952178923546183
3228.0,0.033952178923546183
3227.0,0.033905220553829274
3226.0,0.0338113190438627
3225.0,0.03371743783253667
3224.0,0.03357665405630694
3223.0,0.03343591590268957
3222.0,0.033295223342125535
3221.0,0.033201453616638954
3220.0,0.033154576345083564
3219.0,0.03310770413286357
3218.0,0.033060836978886954
3217.0,0.03301397488206215
3216.0,0.032920265855503006
3215.0,0.03282657704446046
3214.0,0.03277974021703267
3213.0,0.03273290844021437
3212.0,0.032686081712916426
3211.0,0.03263926003405038
3210.0,0.032545631817259224
3209.0,0.03245202378113787
3208.0,0.03235843591698884
3207.0,0.03226486821611996
3206.0,0.03217132066984485
3205.0,0.03207779326948268
3204.0,0.031984286006358165
3203.0,0.03193753992355086
3202.0,0.03193753992355086
3201.0,0.03189079887180224
3200.0,0.03189079887180224
3199.0,0.03184406285002961
3198.0,0.03175060589208267
3197.0,0.031657169041054534
3196.0,0.031563752288295444
3195.0,0.03147035562516054
3194.0,0.03142366482450232
3193.0,0.03142366482450232
3192.0,0.03137697904301118
3191.0,0.03133029827960798
3190.0,0.031236951802751545
3189.0,0.031096969696171817
3188.0,0.030910397045078586
3187.0,0.03081714076773867
3186.0,0.03067729388779794
3185.0,0.03063068826647264
3184.0,0.030537492025363155
3183.0,0.030444315779156517
3182.0,0.03030458888152676
3181.0,0.03025802323714588
3180.0,0.030211462585061133
3179.0,0.030164906924202484
3178.0,0.030118356253500123
3177.0,0.030071810571884017
3176.0,0.03002526987828502
3175.0,0.03002526987828502
3174.0,0.03002526987828502
3173.0,0.03002526987828502
3172.0,0.029885677714903025
3171.0,0.029746130405213123
3170.0,0.029560137048236124
3169.0,0.02942069428514915
3168.0,0.02932775731028059
3167.0,0.029234840219232394
3166.0,0.029141943003497595
3165.0,0.029095501846216454
3164.0,0.02904906565457588
3163.0,0.028956208163971375
3162.0,0.028863370523193765
3161.0,0.028816959143838528
3160.0,0.028770552723758724
3159.0,0.02872415126189476
3158.0,0.02872415126189476
3157.0,0.028677754757187035
3156.0,0.02863136320857662
3155.0,0.02858497661500481
3154.0,0.028538594975413334
3153.0,0.028445846553939003
3152.0,0.028353117935693284
3151.0,0.02826040911222183
3150.0,0.028214062120885508
3149.0,0.028167720075074953
3148.0,0.02812138297373412
3147.0,0.028075050815808744
3146.0,0.028028723600243666
3145.0,0.027889771597169544
3144.0,0.027797161620935595
3143.0,0.027750864037404455
3142.0,0.027750864037404455
3141.0,0.027750864037404455
3140.0,0.027750864037404455
3139.0,0.027750864037404455
3138.0,0.0277045713888604
3137.0,0.027612000892527133
3136.0,0.027565723042634938
3135.0,0.027565723042634938
3134.0,0.027565723042634938
3133.0,0.027612000892527133
3132.0,0.027658283674251827
3131.0,0.027658283674251827
3130.0,0.0277045713888604
3129.0,0.0277045713888604
3128.0,0.0277045713888604
3127.0,0.027612000892527133
3126.0,0.02751945012352408
3125.0,0.02738066094037661
3124.0,0.027288159452933503
3123.0,0.027195677663422346
3122.0,0.027149444152769986
3121.0,0.02710321556345563
3120.0,0.02710321556345563
3119.0,0.027056991894431892
3118.0,0.027056991894431892
3117.0,0.027010773144651168
3116.0,0.02696455931306696
3115.0,0.026872146400301444
3114.0,0.02682594731702781
3113.0,0.026872146400301444
3112.0,0.02696455931306696
3111.0,0.027056991894431892
3110.0,0.027149444152769986
3109.0,0.027195677663422346
3108.0,0.02724191609646076
3107.0,0.027334407733889066
3106.0,0.027426919073445077
3105.0,0.02751945012352408
3104.0,0.027565723042634938
3103.0,0.027565723042634938
3102.0,0.02751945012352408
3101.0,0.027426919073445077
3100.0,0.02724191609646076
3099.0,0.027056991894431892
3098.0,0.02691835039863255
3097.0,0.026872146400301444
3096.0,0.02682594731702781
3095.0,0.02682594731702781
3094.0,0.02677975314776626
3093.0,0.026733563891471412
3092.0,0.026733563891471412
3091.0,0.026733563891471412
3090.0,0.02682594731702781
3089.0,0.026872146400301444
3088.0,0.02696455931306696
3087.0,0.027010773144651168
3086.0,0.027010773144651168
3085.0,0.027056991894431892
3084.0,0.02710321556345563
3083.0,0.027195677663422346
3082.0,0.02724191609646076
3081.0,0.027288159452933503
3080.0,0.02724191609646076
3079.0,0.027195677663422346
3078.0,0.027149444152769986
3077.0,0.02710321556345563
3076.0,0.02710321556345563
3075.0,0.02710321556345563
3074.0,0.02710321556345563
3073.0,0.02710321556345563
3072.0,0.02710321556345563
3071.0,0.02710321556345563
3070.0,0.02710321556345563
3069.0,0.027056991894431892
3068.0,0.027010773144651168
3067.0,0.02691835039863255
3066.0,0.02682594731702781
3065.0,0.026687379547098322
3064.0,0.02664120011360227
3063.0,0.026595025589939425
3062.0,0.026595025589939425
3061.0,0.026595025589939425
3060.0,0.026595025589939425
3059.0,0.02664120011360227
3058.0,0.026733563891471412
3057.0,0.02682594731702781
3056.0,0.026872146400301444
3055.0,0.02682594731702781
3054.0,0.026733563891471412
3053.0,0.02654885597506529
3052.0,0.026410376572743033
3051.0,0.026225806029419818
3050.0,0.025995203102585407
3049.0,0.025764722556973707
3048.0,0.02553436426275746
3047.0,0.025304128090317013
3046.0,0.025074013910237447
3045.0,0.02484402159331056
3044.0,0.024660115394541604
3043.0,0.024476287039668643
3042.0,0.024338466818941473
3041.0,0.024200690320592466
3040.0,0.024108863598207186
3039.0,0.023971159908874107
3038.0,0.023833499868024743
3037.0,0.023741750742954926
3036.0,0.023695883447997224
3035.0,0.02365002099672653
3034.0,0.023604163388120325
3033.0,0.02355831062115543
3032.0,0.02351246269481
3031.0,0.023466619608062178
3030.0,0.023466619608062178
3029.0,0.02342078135989012
3028.0,0.023374947949272418
3027.0,0.023283295636617574
3026.0,0.023237476732539397
3025.0,0.023191662661933732
3024.0,0.023191662661933732
3023.0,0.023237476732539397
3022.0,0.023329119375188556
3021.0,0.023374947949272418
3020.0,0.023374947949272418
3019.0,0.02342078135989012
3018.0,0.02342078135989012
3017.0,0.02351246269481
3016.0,0.023604163388120325
3015.0,0.023741750742954926
3014.0,0.023879381700184332
3013.0,0.024017056287453542
3012.0,0.024108863598207186
3011.0,0.024108863598207186
3010.0,0.024108863598207186
3009.0,0.024108863598207186
3008.0,0.024154774532432866
3007.0,0.024200690320592466
3006.0,0.024292536462819925
3005.0,0.024338466818941473
3004.0,0.02438440203310499
3003.0,0.024430342106337877
3002.0,0.024522236834125355
3001.0,0.02461415101053266
3000.0,0.02475205875931885
2999.0,0.02484402159331056
2998.0,0.024890010313838973
2997.0,0.024890010313838973
2996.0,0.024936003904763915
2995.0,0.02498200236711723
2994.0,0.025074013910237447
2993.0,0.02512002699306959
2992.0,0.02516604495145991
2991.0,0.02521206778644225
2990.0,0.025304128090317013
2989.0,0.02553436426275746
2988.0,0.025764722556973707
2987.0,0.026041313893296225
2986.0,0.026271941311972746
2985.0,0.02654885597506529
2984.0,0.02682594731702781
2983.0,0.027056991894431892
2982.0,0.027288159452933503
2981.0,0.02747318213414429
2980.0,0.027750864037404455
2979.0,0.028028723600243666
2978.0,0.02839947976994095
2977.0,0.028770552723758724
2976.0,0.029095501846216454
2975.0,0.02942069428514915
2974.0,0.029746130405213123
2973.0,0.030071810571884017
2972.0,0.030490901403433135
2971.0,0.030957032694186815
2970.0,0.03147035562516054
2969.0,0.032031037121307726
2968.0,0.03249882527715853
2967.0,0.032873418923587305
2966.0,0.0332483359486222
2965.0,0.03362357691107709
2964.0,0.034046110897937076
2963.0,0.034469056377139484
2962.0,0.03484535401307465
2961.0,0.03512779136222477
2960.0,0.035363296211498474
2959.0,0.03545753392086315
2958.0,0.03545753392086315
2957.0,0.035363296211498474
2956.0,0.03522197797762394
2955.0,0.03503362516890207
2954.0,0.03484535401307465
2953.0,0.03456310022373987
2952.0,0.03423403581731388
2951.0,0.033905220553829274
2950.0,0.033482823553208085
2949.0,0.0329671178412978
2948.0,0.03240522732811035
2947.0,0.03184406285002961
2946.0,0.03128362253321426
2945.0,0.0307239045110681
2944.0,0.030211462585061133
2943.0,0.029653123769906697
2942.0,0.029141943003497595
2941.0,0.028677754757187035
2940.0,0.028306761050139073
2939.0,0.02798240132598462
2938.0,0.027612000892527133
2937.0,0.027288159452933503
2936.0,0.027010773144651168
2935.0,0.02677975314776626
2934.0,0.026595025589939425
2933.0,0.026410376572743033
2932.0,0.026271941311972746
2931.0,0.026087429580295085
2930.0,0.025949097207122573
2929.0,0.025810808881832736
2928.0,0.025764722556973707
2927.0,0.025718641122169483
2926.0,0.02562649291857677
2925.0,0.02553436426275746
2924.0,0.025488307262671706
2923.0,0.02544225514642018
2922.0,0.025350165561278004
2921.0,0.025304128090317013
2920.0,0.025258095499050004
2919.0,0.02521206778644225
2918.0,0.02516604495145991
2917.0,0.02516604495145991
2916.0,0.02516604495145991
2915.0,0.02512002699306959
2914.0,0.025028005701930978
2913.0,0.02498200236711723
2912.0,0.024936003904763915
2911.0,0.024936003904763915
2910.0,0.024890010313838973
2909.0,0.02484402159331056
2908.0,0.02475205875931885
2907.0,0.02475205875931885
2906.0,0.024706084643793647
2905.0,0.024660115394541604
2904.0,0.024660115394541604
2903.0,0.02461415101053266
2902.0,0.024660115394541604
2901.0,0.02475205875931885
2900.0,0.024890010313838973
2899.0,0.025074013910237447
2898.0,0.02516604495145991
2897.0,0.025258095499050004
2896.0,0.025350165561278004
2895.0,0.02539620791296726
2894.0,0.02544225514642018
2893.0,0.02553436426275746
2892.0,0.02558042614771394
2891.0,0.02562649291857677
2890.0,0.02562649291857677
2889.0,0.02558042614771394
2888.0,0.02553436426275746
2887.0,0.025488307262671706
2886.0,0.02544225514642018
2885.0,0.02539620791296726
2884.0,0.025304128090317013
2883.0,0.02521206778644225
2882.0,0.025074013910237447
2881.0,0.024890010313838973
2880.0,0.02475205875931885
2879.0,0.024660115394541604
2878.0,0.02461415101053266
2877.0,0.024568191490736968
2876.0,0.024522236834125355
2875.0,0.024476287039668643
2874.0,0.024430342106337877
2873.0,0.024430342106337877
2872.0,0.02438440203310499
2871.0,0.02438440203310499
2870.0,0.024338466818941473
2869.0,0.024246610963712723
2868.0,0.024200690320592466
2867.0,0.024154774532432866
2866.0,0.024154774532432866
2865.0,0.024108863598207186
2864.0,0.024017056287453542
2863.0,0.023971159908874107
2862.0,0.023971159908874107
2861.0,0.02406295751688936
2860.0,0.024154774532432866
2859.0,0.024246610963712723
2858.0,0.024246610963712723
2857.0,0.024246610963712723
2856.0,0.024154774532432866
2855.0,0.024108863598207186
2854.0,0.024017056287453542
2853.0,0.023971159908874107
2852.0,0.023925268380126097
2851.0,0.023833499868024743
2850.0,0.023741750742954926
2849.0,0.023604163388120325
2848.0,0.02342078135989012
2847.0,0.023283295636617574
2846.0,0.02314585342378117
2845.0,0.02296266477531872
2844.0,0.02282532397981263
2843.0,0.022642270454698687
2842.0,0.022505030926963654
2841.0,0.022413561996148967
2840.0,0.022322112326006227
2839.0,0.022230681908425698
2838.0,0.0221849739168134
2837.0,0.022093572362881675
2836.0,0.02200219004126036
2835.0,0.021910826943857264
2834.0,0.021910826943857264
2833.0,0.021865152601710403
2832.0,0.021910826943857264
2831.0,0.021956506090037076
2830.0,0.021956506090037076
2829.0,0.021910826943857264
2828.0,0.021819483062586187
2827.0,0.021728158389364705
2826.0,0.021636852916117055
2825.0,0.021636852916117055
2824.0,0.02159120737696063
2823.0,0.021545566634771474
2822.0,0.021499930688540836
2821.0,0.0214542995372613
2820.0,0.021363051615525652
2819.0,0.021317434843055594
2818.0,0.02122621566987748
2817.0,0.0211806132671577
2816.0,0.0211806132671577
2815.0,0.021135015652343103
2814.0,0.021135015652343103
2813.0,0.021089422824428272
2812.0,0.021089422824428272
2811.0,0.021135015652343103
2810.0,0.021135015652343103
2809.0,0.0211806132671577
2808.0,0.02122621566987748
2807.0,0.02122621566987748
2806.0,0.0211806132671577
2805.0,0.021043834782408455
2804.0,0.020907099361673565
2803.0,0.02081596632558158
2802.0,0.020770406977844713
2801.0,0.020770406977844713
2800.0,0.02081596632558158
2799.0,0.020861530453190058
2798.0,0.020861530453190058
2797.0,0.020861530453190058
2796.0,0.020861530453190058
2795.0,0.02081596632558158
2794.0,0.02081596632558158
2793.0,0.020770406977844713
2792.0,0.02067930261797568
2791.0,0.02058821736556471
2790.0,0.02045162529590483
2789.0,0.02036058777709271
2788.0,0.02036058777709271
2787.0,0.02036058777709271
2786.0,0.020406104151069693
2785.0,0.020406104151069693
2784.0,0.02045162529590483
2783.0,0.02045162529590483
2782.0,0.020497151212598652
2781.0,0.020497151212598652
2780.0,0.020497151212598652
2779.0,0.020497151212598652
2778.0,0.020406104151069693
2777.0,0.020315076172974234
2776.0,0.02026956933771462
2775.0,0.02022406727031445
2774.0,0.02022406727031445
2773.0,0.020178569969774962
2772.0,0.020178569969774962
2771.0,0.020178569969774962
2770.0,0.02022406727031445
2769.0,0.02026956933771462
2768.0,0.020315076172974234
2767.0,0.020315076172974234
2766.0,0.02026956933771462
2765.0,0.020178569969774962
2764.0,0.020087589665283012
2763.0,0.019996628416253603
2762.0,0.019996628416253603
2761.0,0.02004210665933459
2760.0,0.020087589665283012
2759.0,0.02013307743509718
2758.0,0.020178569969774962
2757.0,0.020178569969774962
2756.0,0.02013307743509718
2755.0,0.02013307743509718
2754.0,0.020087589665283012
2753.0,0.02004210665933459
2752.0,0.02004210665933459
2751.0,0.019996628416253603
2750.0,0.019996628416253603
2749.0,0.01990568621470623
2748.0,0.019860222254245663
2747.0,0.019814763052665052
2746.0,0.019769308608968306
2745.0,0.019678413991243593
2744.0,0.019632973815224997
2743.0,0.01958753839310856
2742.0,0.019632973815224997
2741.0,0.019632973815224997
2740.0,0.019678413991243593
2739.0,0.019678413991243593
2738.0,0.019678413991243593
2737.0,0.019632973815224997
2736.0,0.019632973815224997
2735.0,0.019632973815224997
2734.0,0.019632973815224997
2733.0,0.019632973815224997
2732.0,0.019632973815224997
2731.0,0.01958753839310856
2730.0,0.01954210772389997
2729.0,0.01949668180660491
2728.0,0.019451260640229506
2727.0,0.01940584422377989
2726.0,0.019360432556262852
2725.0,0.019315025636685412
2724.0,0.019315025636685412
2723.0,0.019269623464054586
2722.0,0.019315025636685412
2721.0,0.019315025636685412
2720.0,0.019269623464054586
2719.0,0.019269623464054586
2718.0,0.0192242260373785
2717.0,0.0192242260373785
2716.0,0.019178833355664393
2715.0,0.019178833355664393
2714.0,0.0190880622231564
2713.0,0.019042683770379876
2712.0,0.01899731005860028
2711.0,0.01899731005860028
2710.0,0.019042683770379876
2709.0,0.019042683770379876
2708.0,0.01899731005860028
2707.0,0.01899731005860028
2706.0,0.01899731005860028
2705.0,0.019042683770379876
2704.0,0.0190880622231564
2703.0,0.0190880622231564
2702.0,0.019042683770379876
2701.0,0.018951941086827073
2700.0,0.018906576854070378
2699.0,0.018951941086827073
2698.0,0.01899731005860028
2697.0,0.01899731005860028
2696.0,0.01899731005860028
2695.0,0.018951941086827073
2694.0,0.018861217359339655
2693.0,0.018815862601645694
2692.0,0.018770512579999288
2691.0,0.018679826740892747
2690.0,0.018679826740892747
2689.0,0.018679826740892747
2688.0,0.018725167293411005
2687.0,0.018770512579999288
2686.0,0.018770512579999288
2685.0,0.018725167293411005
2684.0,0.018679826740892747
2683.0,0.018634490921455527
2682.0,0.01858915983411169
2681.0,0.01858915983411169
2680.0,0.01858915983411169
2679.0,0.01858915983411169
2678.0,0.01858915983411169
2677.0,0.01858915983411169
2676.0,0.01858915983411169
2675.0,0.018543833477873584
2674.0,0.018498511851753108
2673.0,0.01845319495476394
2672.0,0.01845319495476394
2671.0,0.018498511851753108
2670.0,0.01845319495476394
2669.0,0.01840788278591865
2668.0,0.018362575344230914
2667.0,0.018362575344230914
2666.0,0.01840788278591865
2665.0,0.01840788278591865
2664.0,0.01840788278591865
2663.0,0.01840788278591865
2662.0,0.018362575344230914
2661.0,0.01831727262871463
2660.0,0.018271974638383703
2659.0,0.018181392829336396
2658.0,0.018181392829336396
2657.0,0.018181392829336396
2656.0,0.018181392829336396
2655.0,0.018226681372252695
2654.0,0.018271974638383703
2653.0,0.01831727262871463
2652.0,0.018362575344230914
2651.0,0.018362575344230914
2650.0,0.018362575344230914
2649.0,0.018271974638383703
2648.0,0.018181392829336396
2647.0,0.01809082990920774
2646.0,0.01809082990920774
2645.0,0.01809082990920774
2644.0,0.018136109008649592
2643.0,0.018181392829336396
2642.0,0.018181392829336396
2641.0,0.018181392829336396
2640.0,0.018226681372252695
2639.0,0.018226681372252695
2638.0,0.018271974638383703
2637.0,0.018271974638383703
2636.0,0.018271974638383703
2635.0,0.018271974638383703
2634.0,0.018271974638383703
2633.0,0.01831727262871463
2632.0,0.018362575344230914
2631.0,0.018362575344230914
2630.0,0.018362575344230914
2629.0,0.018362575344230914
2628.0,0.018362575344230914
2627.0,0.018362575344230914
2626.0,0.01840788278591865
2625.0,0.01840788278591865
2624.0,0.01840788278591865
2623.0,0.01840788278591865
2622.0,0.018362575344230914
2621.0,0.01831727262871463
2620.0,0.01831727262871463
2619.0,0.01831727262871463
2618.0,0.01831727262871463
2617.0,0.018271974638383703
2616.0,0.018181392829336396
2615.0,0.018136109008649592
2614.0,0.018136109008649592
2613.0,0.018136109008649592
2612.0,0.018136109008649592
2611.0,0.018136109008649592
2610.0,0.018136109008649592
2609.0,0.018136109008649592
2608.0,0.018136109008649592
2607.0,0.018181392829336396
2606.0,0.018181392829336396
2605.0,0.018181392829336396
2604.0,0.018136109008649592
2603.0,0.01809082990920774
2602.0,0.01809082990920774
2601.0,0.018045555530026514
2600.0,0.018045555530026514
2599.0,0.018045555530026514
2598.0,0.018045555530026514
2597.0,0.018045555530026514
2596.0,0.018045555530026514
2595.0,0.01809082990920774
2594.0,0.01809082990920774
2593.0,0.018136109008649592
2592.0,0.018136109008649592
2591.0,0.018181392829336396
2590.0,0.018181392829336396
2589.0,0.018226681372252695
2588.0,0.018226681372252695
2587.0,0.018226681372252695
2586.0,0.018181392829336396
2585.0,0.018181392829336396
2584.0,0.018181392829336396
2583.0,0.018136109008649592
2582.0,0.01809082990920774
2581.0,0.018045555530026514
2580.0,0.018045555530026514
2579.0,0.018136109008649592
2578.0,0.018226681372252695
2577.0,0.018271974638383703
2576.0,0.018271974638383703
2575.0,0.018226681372252695
2574.0,0.018136109008649592
2573.0,0.01809082990920774
2572.0,0.01809082990920774
2571.0,0.01809082990920774
2570.0,0.01809082990920774
2569.0,0.01809082990920774
2568.0,0.018136109008649592
2567.0,0.018181392829336396
2566.0,0.018181392829336396
2565.0,0.018181392829336396
2564.0,0.018136109008649592
2563.0,0.018136109008649592
2562.0,0.018136109008649592
2561.0,0.01809082990920774
2560.0,0.018045555530026514
2559.0,0.018045555530026514
2558.0,0.018045555530026514
2557.0,0.018045555530026514
2556.0,0.018045555530026514
2555.0,0.01809082990920774
2554.0,0.01809082990920774
2553.0,0.01809082990920774
2552.0,0.01809082990920774
2551.0,0.01809082990920774
2550.0,0.018136109008649592
2549.0,0.018136109008649592
2548.0,0.01809082990920774
2547.0,0.018045555530026514
2546.0,0.01800028587012159
2545.0,0.017955020928509757
2544.0,0.017955020928509757
2543.0,0.017955020928509757
2542.0,0.017909760704207134
2541.0,0.017864505196230507
2540.0,0.01781925440359733
2539.0,0.01781925440359733
2538.0,0.017864505196230507
2537.0,0.017909760704207134
2536.0,0.017955020928509757
2535.0,0.017955020928509757
2534.0,0.017955020928509757
2533.0,0.017909760704207134
2532.0,0.017909760704207134
2531.0,0.017864505196230507
2530.0,0.017864505196230507
2529.0,0.017864505196230507
2528.0,0.017864505196230507
2527.0,0.017864505196230507
2526.0,0.017864505196230507
2525.0,0.017864505196230507
2524.0,0.01781925440359733
2523.0,0.01781925440359733
2522.0,0.017774008325325275
2521.0,0.017774008325325275
2520.0,0.017774008325325275
2519.0,0.01781925440359733
2518.0,0.017864505196230507
2517.0,0.01781925440359733
2516.0,0.01781925440359733
2515.0,0.017774008325325275
2514.0,0.017728766960431575
2513.0,0.01768353030793479
2512.0,0.01768353030793479
2511.0,0.017728766960431575
2510.0,0.017728766960431575
2509.0,0.017728766960431575
2508.0,0.017728766960431575
2507.0,0.01768353030793479
2506.0,0.01768353030793479
2505.0,0.01768353030793479
2504.0,0.01768353030793479
2503.0,0.017638298366853045
2502.0,0.01759307113620534
2501.0,0.017547848615010242
2500.0,0.017547848615010242
2499.0,0.017502630802287644
2498.0,0.017457417697056554
2497.0,0.017367005605150476
2496.0,0.017367005605150476
2495.0,0.017367005605150476
2494.0,0.017367005605150476
2493.0,0.017321806616515723
2492.0,0.017231422748988034
2491.0,0.017231422748988034
2490.0,0.017231422748988034
2489.0,0.01727661233145472
2488.0,0.01727661233145472
2487.0,0.01727661233145472
2486.0,0.017231422748988034
2485.0,0.017186237868137555
2484.0,0.017186237868137555
2483.0,0.017141057687924732
2482.0,0.017141057687924732
2481.0,0.017095882207371904
2480.0,0.017050711425501408
2479.0,0.017005545341335804
2478.0,0.016960383953898095
2477.0,0.016915227262211507
2476.0,0.016870075265299933
2475.0,0.016870075265299933
2474.0,0.016870075265299933
2473.0,0.016870075265299933
2472.0,0.016824927962187042
2471.0,0.01677978535189717
2470.0,0.016734647433454652
2469.0,0.016689514205884493
2468.0,0.016689514205884493
2467.0,0.016689514205884493
2466.0,0.016644385668211692
2465.0,0.016644385668211692
2464.0,0.016644385668211692
2463.0,0.016644385668211692
2462.0,0.016644385668211692
2461.0,0.016644385668211692
2460.0,0.016644385668211692
2459.0,0.016644385668211692
2458.0,0.016599261819461697
2457.0,0.016554142658660398
2456.0,0.016509028184833463
2455.0,0.016509028184833463
2454.0,0.01646391839700767
2453.0,0.01646391839700767
2452.0,0.016509028184833463
2451.0,0.016509028184833463
2450.0,0.016509028184833463
2449.0,0.016509028184833463
2448.0,0.016509028184833463
2447.0,0.016509028184833463
2446.0,0.016554142658660398
2445.0,0.016554142658660398
2444.0,0.016554142658660398
2443.0,0.016509028184833463
2442.0,0.016418813294209356
2441.0,0.016373712875465518
2440.0,0.01632861713980338
2439.0,0.01628352608625061
2438.0,0.01632861713980338
2437.0,0.01632861713980338
2436.0,0.016373712875465518
2435.0,0.016418813294209356
2434.0,0.01646391839700767
2433.0,0.01646391839700767
2432.0,0.01646391839700767
2431.0,0.016509028184833463
2430.0,0.016509028184833463
2429.0,0.016509028184833463
2428.0,0.016509028184833463
2427.0,0.01646391839700767
2426.0,0.01646391839700767
2425.0,0.01646391839700767
2424.0,0.016509028184833463
2423.0,0.016599261819461697
2422.0,0.016644385668211692
2421.0,0.016734647433454652
2420.0,0.01677978535189717
2419.0,0.01677978535189717
2418.0,0.01677978535189717
2417.0,0.016734647433454652
2416.0,0.016689514205884493
2415.0,0.016644385668211692
2414.0,0.016644385668211692
2413.0,0.016644385668211692
2412.0,0.016644385668211692
2411.0,0.016689514205884493
2410.0,0.016734647433454652
2409.0,0.016734647433454652
2408.0,0.016734647433454652
2407.0,0.016734647433454652
2406.0,0.016734647433454652
2405.0,0.016734647433454652
2404.0,0.01677978535189717
2403.0,0.016824927962187042
2402.0,0.016870075265299933
2401.0,0.016870075265299933
2400.0,0.016824927962187042
2399.0,0.016824927962187042
2398.0,0.016870075265299933
2397.0,0.016915227262211507
2396.0,0.016960383953898095
2395.0,0.017005545341335804
2394.0,0.017005545341335804
2393.0,0.017005545341335804
2392.0,0.017005545341335804
2391.0,0.017005545341335804
2390.0,0.016960383953898095
2389.0,0.016960383953898095
2388.0,0.016960383953898095
2387.0,0.016960383953898095
2386.0,0.017005545341335804
2385.0,0.017050711425501408
2384.0,0.017050711425501408
2383.0,0.017050711425501408
2382.0,0.017005545341335804
2381.0,0.016870075265299933
2380.0,0.016734647433454652
2379.0,0.016644385668211692
2378.0,0.016644385668211692
2377.0,0.016644385668211692
2376.0,0.016734647433454652
2375.0,0.01677978535189717
2374.0,0.01677978535189717
2373.0,0.016689514205884493
2372.0,0.016689514205884493
2371.0,0.016824927962187042
2370.0,0.016960383953898095
2369.0,0.016960383953898095
2368.0,0.01677978535189717
2367.0,0.016554142658660398
2366.0,0.016238439713835096
2365.0,0.015832872853011715
2364.0,0.015697768020096703
2363.0,0.016148281008528276
2362.0,0.016870075265299933
2361.0,0.017502630802287644
2360.0,0.01800028587012159
2359.0,0.018362575344230914
2358.0,0.018136109008649592
2357.0,0.017412209298337533
2356.0,0.016644385668211692
2355.0,0.016193358021584725
2354.0,0.015832872853011715
2353.0,0.01538268676325183
2352.0,0.014977917890464765
2351.0,0.014932966849499074
2350.0,0.015427684378367834
2349.0,0.016193358021584725
2348.0,0.016599261819461697
2347.0,0.016373712875465518
2346.0,0.01578783323856614
2345.0,0.015247721884586563
2344.0,0.015112798935672522
2343.0,0.01538268676325183
2342.0,0.015517693597737248
2341.0,0.015247721884586563
2340.0,0.014932966849499074
2339.0,0.014888020460646079
2338.0,0.014932966849499074
2337.0,0.015022873584506602
2336.0,0.015202742910707112
2335.0,0.01547268665620738
2334.0,0.015562705203923999
2333.0,0.015247721884586563
2332.0,0.014843078722943437
2331.0,0.014393916947563534
2330.0,0.014214382227394795
2329.0,0.014169510141607944
2328.0,0.0144837121472845
2327.0,0.014977917890464765
2326.0,0.015292705517326866
2325.0,0.015337693809893471
2324.0,0.015112798935672522
2323.0,0.014888020460646079
2322.0,0.014753209197138295
2321.0,0.014708281407112
2320.0,0.014798141635428141
2319.0,0.014932966849499074
2318.0,0.015112798935672522
2317.0,0.015202742910707112
2316.0,0.015337693809893471
2315.0,0.015427684378367834
2314.0,0.015517693597737248
2313.0,0.01547268665620738
2312.0,0.01538268676325183
2311.0,0.015292705517326866
2310.0,0.015292705517326866
2309.0,0.015247721884586563
2308.0,0.015202742910707112
2307.0,0.015202742910707112
2306.0,0.015157768594724175
2305.0,0.015157768594724175
2304.0,0.015157768594724175
2303.0,0.015202742910707112
2302.0,0.015247721884586563
2301.0,0.015292705517326866
2300.0,0.015292705517326866
2299.0,0.015337693809893471
2298.0,0.01538268676325183
2297.0,0.015427684378367834
2296.0,0.01547268665620738
2295.0,0.01547268665620738
2294.0,0.015517693597737248
2293.0,0.015517693597737248
2292.0,0.015517693597737248
2291.0,0.015517693597737248
2290.0,0.015562705203923999
2289.0,0.015562705203923999
2288.0,0.015607721475734415
2287.0,0.015607721475734415
2286.0,0.015607721475734415
2285.0,0.015607721475734415
2284.0,0.015607721475734415
2283.0,0.015652742414136167
2282.0,0.015607721475734415
2281.0,0.015517693597737248
2280.0,0.01538268676325183
2279.0,0.015337693809893471
2278.0,0.015292705517326866
2277.0,0.015292705517326866
2276.0,0.015247721884586563
2275.0,0.015247721884586563
2274.0,0.015157768594724175
2273.0,0.015067833932588037
2272.0,0.015022873584506602
2271.0,0.015022873584506602
2270.0,0.014977917890464765
2269.0,0.014977917890464765
2268.0,0.014932966849499074
2267.0,0.014888020460646079
2266.0,0.014843078722943437
2265.0,0.014843078722943437
2264.0,0.014843078722943437
2263.0,0.014888020460646079
2262.0,0.014888020460646079
2261.0,0.014843078722943437
2260.0,0.014798141635428141
2259.0,0.014753209197138295
2258.0,0.014753209197138295
2257.0,0.014708281407112
2256.0,0.014708281407112
2255.0,0.014753209197138295
2254.0,0.014753209197138295
2253.0,0.014753209197138295
2252.0,0.014753209197138295
2251.0,0.014753209197138295
2250.0,0.014753209197138295
2249.0,0.014708281407112
2248.0,0.014663358264387139
2247.0,0.014663358264387139
2246.0,0.014663358264387139
2245.0,0.014663358264387139
2244.0,0.014618439768003144
2243.0,0.014573525916998342
2242.0,0.014573525916998342
2241.0,0.01452861671041239
2240.0,0.0144837121472845
2239.0,0.014438812226654996
2238.0,0.014438812226654996
2237.0,0.014438812226654996
2236.0,0.014393916947563534
2235.0,0.014393916947563534
2234.0,0.014349026309051105
2233.0,0.014349026309051105
2232.0,0.014349026309051105
2231.0,0.014349026309051105
2230.0,0.014393916947563534
2229.0,0.014393916947563534
2228.0,0.014393916947563534
2227.0,0.014349026309051105
2226.0,0.014304140310157809
2225.0,0.014214382227394795
2224.0,0.014169510141607944
2223.0,0.014169510141607944
2222.0,0.014169510141607944
2221.0,0.014169510141607944
2220.0,0.014169510141607944
2219.0,0.014124642691606404
2218.0,0.014124642691606404
2217.0,0.014079779876432497
2216.0,0.014079779876432497
2215.0,0.014079779876432497
2214.0,0.014079779876432497
2213.0,0.01403492169512921
2212.0,0.013990068146738865
2211.0,0.013990068146738865
2210.0,0.013990068146738865
2209.0,0.013990068146738865
2208.0,0.013945219230304673
2207.0,0.013900374944870508
2206.0,0.01381070026317599
2205.0,0.013765869865004277
2204.0,0.01372104409400876
2203.0,0.01372104409400876
2202.0,0.01372104409400876
2201.0,0.013676222949234651
2200.0,0.013631406429727155
2199.0,0.013586594534531482
2198.0,0.013541787262693505
2197.0,0.013496984613259544
2196.0,0.013452186585275916
2195.0,0.013452186585275916
2194.0,0.013407393177789162
2193.0,0.013407393177789162
2192.0,0.013407393177789162
2191.0,0.013407393177789162
2190.0,0.013407393177789162
2189.0,0.013407393177789162
2188.0,0.013362604389846044
2187.0,0.013317820220494436
2186.0,0.013317820220494436
2185.0,0.013317820220494436
2184.0,0.013362604389846044
2183.0,0.013362604389846044
2182.0,0.013362604389846044
2181.0,0.013362604389846044
2180.0,0.013317820220494436
2179.0,0.013317820220494436
2178.0,0.013362604389846044
2177.0,0.013362604389846044
2176.0,0.013362604389846044
2175.0,0.013362604389846044
2174.0,0.013317820220494436
2173.0,0.013273040668781544
2172.0,0.013273040668781544
2171.0,0.013273040668781544
2170.0,0.01322826573375524
2169.0,0.01318349541446362
2168.0,0.01318349541446362
2167.0,0.01318349541446362
2166.0,0.01322826573375524
2165.0,0.01322826573375524
2164.0,0.01322826573375524
2163.0,0.013273040668781544
2162.0,0.013273040668781544
2161.0,0.013273040668781544
2160.0,0.013273040668781544
2159.0,0.013273040668781544
2158.0,0.013317820220494436
2157.0,0.013317820220494436
2156.0,0.013362604389846044
2155.0,0.013407393177789162
2154.0,0.013407393177789162
2153.0,0.013407393177789162
2152.0,0.013362604389846044
2151.0,0.013407393177789162
2150.0,0.013452186585275916
2149.0,0.013496984613259544
2148.0,0.013496984613259544
2147.0,0.013496984613259544
2146.0,0.013541787262693505
2145.0,0.013496984613259544
2144.0,0.013452186585275916
2143.0,0.013407393177789162
2142.0,0.013362604389846044
2141.0,0.013317820220494436
2140.0,0.013362604389846044
2139.0,0.013362604389846044
2138.0,0.013407393177789162
2137.0,0.013407393177789162
2136.0,0.013407393177789162
2135.0,0.013452186585275916
2134.0,0.013452186585275916
2133.0,0.013407393177789162
2132.0,0.013362604389846044
2131.0,0.013273040668781544
2130.0,0.01322826573375524
2129.0,0.01322826573375524
2128.0,0.01322826573375524
2127.0,0.013273040668781544
2126.0,0.013317820220494436
2125.0,0.013362604389846044
2124.0,0.013362604389846044
2123.0,0.013362604389846044
2122.0,0.013317820220494436
2121.0,0.013273040668781544
2120.0,0.01322826573375524
2119.0,0.01322826573375524
2118.0,0.01322826573375524
2117.0,0.01318349541446362
2116.0,0.01322826573375524
2115.0,0.01322826573375524
2114.0,0.01322826573375524
2113.0,0.01318349541446362
2112.0,0.013138729709955221
2111.0,0.013138729709955221
2110.0,0.01318349541446362
2109.0,0.01318349541446362
2108.0,0.013138729709955221
2107.0,0.013093968619278806
2106.0,0.013004460275618523
2105.0,0.012959713020733288
2104.0,0.012914970375878188
2103.0,0.012870232340102872
2102.0,0.012870232340102872
2101.0,0.012870232340102872
2100.0,0.012825498912458322
2099.0,0.012825498912458322
2098.0,0.012825498912458322
2097.0,0.012780770091995297
2096.0,0.012780770091995297
2095.0,0.012780770091995297
2094.0,0.012780770091995297
2093.0,0.012691326268817527
2092.0,0.01264661126420652
2091.0,0.01260190086298274
2090.0,0.01260190086298274
2089.0,0.01264661126420652
2088.0,0.01260190086298274
2087.0,0.012557195064198723
2086.0,0.012467797270160563
2085.0,0.012378417874516323
2084.0,0.012333735073725371
2083.0,0.012333735073725371
2082.0,0.012289056869694281
2081.0,0.012199714248127602
2080.0,0.012110390002254778
2079.0,0.012065734767841452
2078.0,0.012065734767841452
2077.0,0.012021084124518078
2076.0,0.0119764380713403
2075.0,0.0119764380713403
2074.0,0.011887159731648111
2073.0,0.011797899741219142
2072.0,0.011753276624621556
2071.0,0.011708658092512314
2070.0,0.011664044143949504
2069.0,0.011574829993696856
2068.0,0.011530229790124524
2067.0,0.011441043121384498
2066.0,0.011396456654336085
2065.0,0.011307297450183107
2064.0,0.011262724711199823
2063.0,0.01117359295472431
2062.0,0.011129033935354915
2061.0,0.011084479487313281
2060.0,0.010995384301463185
2059.0,0.010950843561779777
2058.0,0.010906307389674463
2057.0,0.01086177578421088
2056.0,0.010817248744452446
2055.0,0.01077272626946324
2054.0,0.010728208358306901
2053.0,0.010639186223752484
2052.0,0.010594681998483901
2051.0,0.010550182333308289
2050.0,0.010505687227290839
2049.0,0.01046119667949763
2048.0,0.010416710688994968
2047.0,0.01037222925484893
2046.0,0.010327752376126709
2045.0,0.01023881228122181
2044.0,0.01023881228122181
2043.0,0.01023881228122181
2042.0,0.01023881228122181
2041.0,0.010194349063173958
2040.0,0.010149890396819572
2039.0,0.010105436281226954
2038.0,0.010105436281226954
2037.0,0.010105436281226954
2036.0,0.010060986715464404
2035.0,0.010060986715464404
2034.0,0.01001654169860089
2033.0,0.009972101229705377
2032.0,0.009883233932095559
2031.0,0.009838807101520963
2030.0,0.00974996707218323
2029.0,0.00966114521239847
2028.0,0.009572341514736404
2027.0,0.009527946474380489
2026.0,0.009527946474380489
2025.0,0.009572341514736404
2024.0,0.009572341514736404
2023.0,0.009616741093766423
2022.0,0.00966114521239847
2021.0,0.00966114521239847
2020.0,0.00966114521239847
2019.0,0.00966114521239847
2018.0,0.009705553871561357
2017.0,0.009705553871561357
2016.0,0.00966114521239847
2015.0,0.009616741093766423
2014.0,0.009616741093766423
2013.0,0.009572341514736404
2012.0,0.009572341514736404
2011.0,0.009572341514736404
2010.0,0.009572341514736404
2009.0,0.009572341514736404
2008.0,0.009527946474380489
2007.0,0.009527946474380489
2006.0,0.009527946474380489
2005.0,0.009527946474380489
2004.0,0.009572341514736404
2003.0,0.009616741093766423
2002.0,0.009616741093766423
2001.0,0.009616741093766423
2000.0,0.009616741093766423
1999.0,0.00966114521239847
1998.0,0.009705553871561357
1997.0,0.00974996707218323
1996.0,0.00974996707218323
1995.0,0.009794384815193347
1994.0,0.009838807101520963
1993.0,0.009927665307847056
1992.0,0.01001654169860089
1991.0,0.010105436281226954
1990.0,0.010149890396819572
1989.0,0.010105436281226954
1988.0,0.010060986715464404
1987.0,0.010060986715464404
1986.0,0.010060986715464404
1985.0,0.010060986715464404
1984.0,0.010060986715464404
1983.0,0.010105436281226954
1982.0,0.010105436281226954
1981.0,0.010060986715464404
1980.0,0.01001654169860089
1979.0,0.01001654169860089
1978.0,0.01001654169860089
1977.0,0.01001654169860089
1976.0,0.01001654169860089
1975.0,0.010060986715464404
1974.0,0.010105436281226954
1973.0,0.010149890396819572
1972.0,0.010194349063173958
1971.0,0.01023881228122181
1970.0,0.01023881228122181
1969.0,0.010283280051895272
1968.0,0.010327752376126709
1967.0,0.010416710688994968
1966.0,0.010550182333308289
1965.0,0.010639186223752484
1964.0,0.010683695010048622
1963.0,0.01077272626946324
1962.0,0.010817248744452446
1961.0,0.01086177578421088
1960.0,0.010950843561779777
1959.0,0.011039929609661936
1958.0,0.01117359295472431
1957.0,0.011218156546359825
1956.0,0.011262724711199823
1955.0,0.011396456654336085
1954.0,0.011441043121384498
1953.0,0.011485634166333858
1952.0,0.011485634166333858
1951.0,0.011530229790124524
1950.0,0.011530229790124524
1949.0,0.011485634166333858
1948.0,0.011441043121384498
1947.0,0.011351874764248926
1946.0,0.011218156546359825
1945.0,0.011084479487313281
1944.0,0.010995384301463185
1943.0,0.010950843561779777
1942.0,0.010906307389674463
1941.0,0.010728208358306901
1940.0,0.010505687227290839
1939.0,0.010327752376126709
1938.0,0.010105436281226954
1937.0,0.009927665307847056
1936.0,0.00974996707218323
1935.0,0.009616741093766423
1934.0,0.009439170005980158
1933.0,0.009306039320248427
1932.0,0.009172949432521227
1931.0,0.00908424549391551
1930.0,0.008951223547323472
1929.0,0.008773924307505121
1928.0,0.008596697419959609
1927.0,0.008419542825660153
1926.0,0.008286724286910463
1925.0,0.008198201155356077
1924.0,0.008065450281052211
1923.0,0.007976972236149349
1922.0,0.007844288957383316
1921.0,0.007711646202907652
1920.0,0.0075790439479759275
1919.0,0.007534852191956709
1918.0,0.0074464821678643656
1917.0,0.007269796045857202
1916.0,0.007049039429553483
1915.0,0.006916639301937977
1914.0,0.006784279525863024
1913.0,0.006651960076740071
1912.0,0.00656376950238835
1911.0,0.006475596832934416
1910.0,0.006387442061109638
1909.0,0.00625524344553785
1908.0,0.00612308505878878
1907.0,0.006035001804881146
1906.0,0.005946936412324799
1905.0,0.005858888873877532
1904.0,0.00577085918230158
1903.0,0.005682847330363394
1902.0,0.005594853310833647
1901.0,0.005462895701502157
1900.0,0.0052870145684298375
1899.0,0.005199100705396198
1898.0,0.005111204635089406
1897.0,0.004979393875242044
1896.0,0.00489154225525934
1895.0,0.004759798137184523
1894.0,0.004628093971837721
1893.0,0.004452550524862486
1892.0,0.004320939488377862
1891.0,0.004189368323957332
1890.0,0.004145520125434121
1889.0,0.0040578370074493275
1888.0,0.003970171588923321
1887.0,0.0038825238627120395
1886.0,0.0037510854308679953
1885.0,0.003619686766589858
1884.0,0.0034445503666347133
1883.0,0.0033570086445275926
1882.0,0.0032694845648473247
1881.0,0.0031819781204844855
1880.0,0.0030944893043338695
1879.0,0.003050751504618754
1878.0,0.0029632891174733444
1877.0,0.0028758443407954637
1876.0,0.0027884171674950053
1875.0,0.0027447101798967477
1874.0,0.002701007590486082
1873.0,0.002613615602686581
1872.0,0.0025262411970197185
1871.0,0.0025262411970197185
1870.0,0.002482560585275184
1869.0,0.0024388843664115978
1868.0,0.0023078820582733695
1867.0,0.0021769192542746563
1866.0,0.002089632653256679
1865.0,0.0020023635919956817
1864.0,0.001915112063444413
1863.0,0.001915112063444413
1862.0,0.001915112063444413
1861.0,0.0018278780605593958
1860.0,0.0017406615763013722
1859.0,0.0016970599014589638
1858.0,0.0016970599014589638
1857.0,0.001609869681952425
1856.0,0.0015226969634936083
1855.0,0.0015226969634936083
1854.0,0.0015226969634936083
1853.0,0.0015226969634936083
1852.0,0.0014791171649619628
1851.0,0.0014791171649619628
1850.0,0.0015226969634936083
1849.0,0.0014791171649619628
1848.0,0.0015226969634936083
1847.0,0.001609869681952425
1846.0,0.0017842676290416026
1845.0,0.001915112063444413
1844.0,0.001915112063444413
1843.0,0.001915112063444413
1842.0,0.001915112063444413
1841.0,0.0018714928717336043
1840.0,0.0018278780605593958
1839.0,0.0017842676290416026
1838.0,0.0017842676290416026
1837.0,0.0017406615763013722
1836.0,0.0017406615763013722
1835.0,0.0017406615763013722
1834.0,0.0017842676290416026
1833.0,0.0018278780605593958
1832.0,0.0018714928717336043
1831.0,0.001915112063444413
1830.0,0.0019587356365717845
1829.0,0.0018278780605593958
1828.0,0.0017842676290416026
1827.0,0.0018714928717336043
1826.0,0.0019587356365717845
1825.0,0.001915112063444413
1824.0,0.0017842676290416026
1823.0,0.0016970599014589638
1822.0,0.0015662811355310335
1821.0,0.001348404001626502
1820.0,0.0011741809597138886
1819.0,0.0010870956412141197
1818.0,0.0010000277816797354
1817.0,0.0008259444115150671
1816.0,0.0006084382809090627
1815.0,0.0004779868710962365
1814.0,0.00030411258916074324
1813.0,0.0001303078917322953
1812.0,-4.3427276862573194e-05
1811.0,-0.00021709297223004853
1810.0,-0.00043407747931878404
1809.0,-0.0006509536295951079
1808.0,-0.0008677215312267172
1807.0,-0.0009977303577937136
1806.0,-0.0011277002770349043
1805.0,-0.0013009330204178937
1804.0,-0.0014308122463981832
1803.0,-0.0014308122463981832
1802.0,-0.0013875234866409514
1801.0,-0.0016039241497978196
1800.0,-0.0018634626925240205
1799.0,-0.0021228462251614566
1798.0,-0.002338880892056583
1797.0,-0.0025548081484823015
1796.0,-0.0027274726898296464
1795.0,-0.0027706281011936618
1794.0,-0.0028137792246734072
1793.0,-0.0030725959676747294
1792.0,-0.0033312585613267665
1791.0,-0.0034605321095062536
1790.0,-0.003546693102131737
1789.0,-0.0037189638231147626
1788.0,-0.003934206173708432
1787.0,-0.0039772418455368275
1786.0,-0.004063300397667113
1785.0,-0.0042783722001624724
1784.0,-0.004493337547274212
1783.0,-0.004665233247877154
1782.0,-0.004794110388711914
1781.0,-0.005008820672367076
1780.0,-0.005266332972768684
1779.0,-0.005309236848516363
1778.0,-0.005309236848516363
1777.0,-0.0054379230508221355
1776.0,-0.005566571133294396
1775.0,-0.005480809979401258
1774.0,-0.005395031886706203
1773.0,-0.005609445360280407
1772.0,-0.005952286887382918
1771.0,-0.005995123054691298
1770.0,-0.005738042651424635
1769.0,-0.00552369267327979
1768.0,-0.005395031886706203
1767.0,-0.005223424858135761
1766.0,-0.005051749993995713
1765.0,-0.004922949296525481
1764.0,-0.004665233247877154
1763.0,-0.004063300397667113
1762.0,-0.0033743540197499478
1761.0,-0.002856926061120646
1760.0,-0.0022956825549340643
1759.0,-0.0014308122463981832
1758.0,-0.00030389978481260016
1757.0,0.0007824344698965646
1756.0,0.0018714928717336043
1755.0,0.0032694845648473247
1754.0,0.004803708402820517
1753.0,0.006475596832934416
1752.0,0.008773924307505121
1751.0,0.012021084124518078
1750.0,0.015922966097169144
1749.0,0.020087589665283012
1748.0,0.024706084643793647
1747.0,0.030071810571884017
1746.0,0.0360705779734416
1745.0,0.04287180232318688
1744.0,0.05095170768433621
1743.0,0.05998184499233683
1742.0,0.06950943469373039
1741.0,0.08045124103115198
1740.0,0.09382663635595145
1739.0,0.10779405402422748
1738.0,0.1190150095132465
1737.0,0.1276688787697493
1736.0,0.1374512304752069
1735.0,0.15452986701832638
1734.0,0.17861750025270084
1733.0,0.1985276864785288
1732.0,0.21246868387276563
1731.0,0.22643295107394135
1730.0,0.24267990345332757
1729.0,0.2598742630342694
1728.0,0.2762160630346706
1727.0,0.29191918953176854
1726.0,0.30812317744066875
1725.0,0.32569011105852286
1724.0,0.3446694419906591
1723.0,0.36351210364663467
1722.0,0.3795516152882912
1721.0,0.39136701050996314
1720.0,0.4012094932368848
1719.0,0.41397561761302426
1718.0,0.4323855572691555
1717.0,0.44830608487277535
1716.0,0.45481663178459386
1715.0,0.4551880882422239
1714.0,0.4516105818670817
1713.0,0.44261311794049285
1712.0,0.42840761663869276
1711.0,0.4108326094539525
1710.0,0.39115317767358837
1709.0,0.37018280398148407
1708.0,0.34775365899667676
1707.0,0.3229408226078385
1706.0,0.2965366581167068
1705.0,0.2732727909734278
1704.0,0.25633347855378696
1703.0,0.2432878398352285
1702.0,0.22973726182940668
1701.0,0.21232703531250707
1700.0,0.19470308384201496
1699.0,0.18302996224270052
1698.0,0.17528855653526554
1697.0,0.16742722515382025
1696.0,0.1583902878315646
1695.0,0.15045774799498335
1694.0,0.14490504884137811
1693.0,0.1407415825326932
1692.0,0.1366771398795441
1691.0,0.132179091954427
1690.0,0.12790202572577325
1689.0,0.12441789567211425
1688.0,0.12182301950849372
1687.0,0.11924355548978971
1686.0,0.11628179803604044
1685.0,0.1133401021387972
1684.0,0.11086644403327606
1683.0,0.10879717273970457
1682.0,0.10684878687013422
1681.0,0.10485381062400778
1680.0,0.10264786565568684
1679.0,0.10034361969436434
1678.0,0.09810596802617932
1677.0,0.09598811640261173
1676.0,0.0937727369476411
1675.0,0.09146136782804049
1674.0,0.08932224525729482
1673.0,0.08761850108119962
1672.0,0.08592141461088798
1671.0,0.08402008585977572
1670.0,0.08207457793525874
1669.0,0.0805035121369384
1668.0,0.07904229404455076
1667.0,0.07758597585436577
1666.0,0.0760310351245288
1665.0,0.07453319930846214
1664.0,0.0729891310243489
1663.0,0.07145053299833615
1662.0,0.07007043991541217
1661.0,0.06894915322260897
1660.0,0.06788152797087754
1659.0,0.06671522765130522
1658.0,0.0655520510510299
1657.0,0.06454311928839007
1656.0,0.06358680028852026
1655.0,0.06253226035662252
1654.0,0.061680456657844385
1653.0,0.06148027482350815
1652.0,0.06093025007657582
1651.0,0.060131455540490375
1650.0,0.05933412752417122
1649.0,0.05843887976392925
1648.0,0.05769424710410598
1647.0,0.0571489934456626
1646.0,0.0567528748621382
1645.0,0.056406567231630955
1644.0,0.055912320584565744
1643.0,0.055270639696704205
1642.0,0.05453141486818014
1641.0,0.05389176956309405
1640.0,0.053203972728539606
1639.0,0.052468254304406825
1638.0,0.051684859310652254
1637.0,0.05114709380028648
1636.0,0.05095170768433621
1635.0,0.05065879322950262
1634.0,0.050171041064686284
1633.0,0.04973253198641148
1632.0,0.04919717703534143
1631.0,0.048565334467987054
1630.0,0.047885915093007325
1629.0,0.047352830241056854
1628.0,0.04686877481655505
1627.0,0.04638525830935958
1626.0,0.045902279520810385
1625.0,0.045516282844447975
1624.0,0.04522701031028298
1623.0,0.04508244626504121
1622.0,0.044937930324967956
1621.0,0.04488976902944808
1620.0,0.044937930324967956
1619.0,0.04503426894157925
1618.0,0.045612749855485024
1617.0,0.04696554274964315
1616.0,0.04817696468408794
1615.0,0.0486139051197072
1614.0,0.04851676924770687
1613.0,0.048128442871635535
1612.0,0.04744970610179822
1611.0,0.04657860031896477
1610.0,0.045516282844447975
1609.0,0.04455278942230456
1608.0,0.04359142880416744
1607.0,0.042584285277331047
1606.0,0.04153168163305643
1605.0,0.040529297924893015
1604.0,0.03957679292217042
1603.0,0.03857890593355173
1602.0,0.03767802727041558
1601.0,0.03692083935817303
1600.0,0.03621217265444465
1599.0,0.03550466044490741
1598.0,0.03484535401307465
1597.0,0.03428102975577918
1596.0,0.0338113190438627
1595.0,0.03338901331806565
1594.0,0.03310770413286357
1593.0,0.032920265855503006
1592.0,0.03273290844021437
1591.0,0.032592443402527316
1590.0,0.03249882527715853
1589.0,0.032592443402527316
1588.0,0.032873418923587305
1587.0,0.03343591590268957
1586.0,0.03437503289075727
1585.0,0.03592902944204468
1584.0,0.03810452633214956
1583.0,0.04086316882962593
1582.0,0.0437835307566099
1581.0,0.04653025674659861
1580.0,0.04871106272232795
1579.0,0.05002482217034632
1578.0,0.050171041064686284
1577.0,0.048954051864180226
1576.0,0.04657860031896477
1575.0,0.044071843103049346
1574.0,0.042057664554595586
1573.0,0.04038628892895613
1572.0,0.038721320914956836
1571.0,0.0369681249461018
1570.0,0.03517488211661135
1569.0,0.03367050483612166
1568.0,0.03263926003405038
1567.0,0.03179733185715028
1566.0,0.030957032694186815
1565.0,0.030071810571884017
1564.0,0.029374223311705583
1563.0,0.028816959143838528
1562.0,0.02839947976994095
1561.0,0.027843464140506313
1560.0,0.027288159452933503
1559.0,0.027149444152769986
1558.0,0.026872146400301444
1557.0,0.026595025589939425
1556.0,0.02636422658259252
1555.0,0.025995203102585407
1554.0,0.02553436426275746
1553.0,0.025074013910237447
1552.0,0.024706084643793647
1551.0,0.024338466818941473
1550.0,0.02406295751688936
1549.0,0.023787622882622816
1548.0,0.02351246269481
1547.0,0.023237476732539397
1546.0,0.02300845469384938
1545.0,0.022871099419317753
1544.0,0.022642270454698687
1543.0,0.022322112326006227
1542.0,0.021910826943857264
1541.0,0.021773818325474092
1540.0,0.021773818325474092
1539.0,0.021499930688540836
1538.0,0.021317434843055594
1537.0,0.02122621566987748
1536.0,0.021089422824428272
1535.0,0.020952673052035298
1534.0,0.021089422824428272
1533.0,0.021363051615525652
1532.0,0.021545566634771474
1531.0,0.021545566634771474
1530.0,0.021499930688540836
1529.0,0.021499930688540836
1528.0,0.02159120737696063
1527.0,0.021636852916117055
1526.0,0.021499930688540836
1525.0,0.021317434843055594
1524.0,0.021089422824428272
1523.0,0.020861530453190058
1522.0,0.02067930261797568
1521.0,0.020497151212598652
1520.0,0.020178569969774962
1519.0,0.019814763052665052
1518.0,0.01949668180660491
1517.0,0.019451260640229506
1516.0,0.01954210772389997
1515.0,0.019678413991243593
1514.0,0.019996628416253603
1513.0,0.020542681902151694
1512.0,0.021499930688540836
1511.0,0.022688026603074007
1510.0,0.024338466818941473
1509.0,0.026872146400301444
1508.0,0.03263926003405038
1507.0,0.042201225070002124
1506.0,0.04851676924770687
1505.0,0.04919717703534143
1504.0,0.047062332249019345
1503.0,0.04344740808260106
1502.0,0.03910132267333921
1501.0,0.034516075754861264
1500.0,0.030211462585061133
1499.0,0.026410376572743033
1498.0,0.023191662661933732
1497.0,0.020724852408976924
1496.0,0.018861217359339655
1495.0,0.017457417697056554
1494.0,0.016418813294209356
1493.0,0.01578783323856614
1492.0,0.015427684378367834
1491.0,0.015112798935672522
1490.0,0.014888020460646079
1489.0,0.014932966849499074
1488.0,0.014977917890464765
1487.0,0.014888020460646079
1486.0,0.014843078722943437
1485.0,0.014888020460646079
1484.0,0.015067833932588037
1483.0,0.015292705517326866
1482.0,0.015607721475734415
1481.0,0.016058141016111804
1480.0,0.016554142658660398
1479.0,0.016960383953898095
1478.0,0.017367005605150476
1477.0,0.017864505196230507
1476.0,0.01840788278591865
1475.0,0.018770512579999288
1474.0,0.0192242260373785
1473.0,0.019996628416253603
1472.0,0.02081596632558158
1471.0,0.021317434843055594
1470.0,0.021728158389364705
1469.0,0.022367834754000393
1468.0,0.023283295636617574
1467.0,0.024522236834125355
1466.0,0.026410376572743033
1465.0,0.029095501846216454
1464.0,0.03189079887180224
1463.0,0.03414006319292828
1462.0,0.03602339000339416
1461.0,0.03796231343498735
1460.0,0.0400527842915015
1459.0,0.042584285277331047
1458.0,0.04633693625290869
1457.0,0.05075640943173498
1456.0,0.053449489430144714
1455.0,0.05428528594013993
1454.0,0.05458065739693696
1453.0,0.05477768336465916
1452.0,0.05482695382609992
1451.0,0.05462990550969615
1450.0,0.05428528594013993
1449.0,0.05403929642243144
1448.0,0.05374429280060267
1447.0,0.05340037498486727
1446.0,0.05310580489767336
1445.0,0.05290953578037816
1444.0,0.05271335532220167
1443.0,0.052468254304406825
1442.0,0.05212534510230182
1441.0,0.05173378011970464
1440.0,0.05114709380028648
1439.0,0.050317309204795935
1438.0,0.048905443158337114
1437.0,0.04677202844014605
1436.0,0.04397571771932274
1435.0,0.041101805289228244
1434.0,0.03838909190871931
1433.0,0.035646070707806565
1432.0,0.03277974021703267
1431.0,0.029746130405213123
1430.0,0.026872146400301444
1429.0,0.024338466818941473
1428.0,0.022367834754000393
1427.0,0.020907099361673565
1426.0,0.019769308608968306
1425.0,0.018906576854070378
1424.0,0.018362575344230914
1423.0,0.018271974638383703
1422.0,0.01858915983411169
1421.0,0.01954210772389997
1420.0,0.021865152601710403
1419.0,0.02617967564731627
1418.0,0.03193753992355086
1417.0,0.03862637240519895
1416.0,0.04677202844014605
1415.0,0.056950888991593285
1414.0,0.06950943469373039
1413.0,0.08444188458847957
1412.0,0.10061729446673495
1411.0,0.11520463605101905
1410.0,0.12546020292898974
1409.0,0.1302990263261221
1408.0,0.12983027886355947
1407.0,0.12430223801979201
1406.0,0.11514801725400226
1405.0,0.10463271122663809
1404.0,0.09496007192378841
1403.0,0.08719360733870762
1402.0,0.08102656950704579
1401.0,0.07572071393811841
1400.0,0.07058107428570715
1399.0,0.06570359318059427
1398.0,0.061680456657844385
1397.0,0.058538260652670315
1396.0,0.05551732784983132
1395.0,0.05227227303668425
1394.0,0.04919717703534143
1393.0,0.04672366333269573
1392.0,0.04469717723830824
1391.0,0.04287180232318688
1390.0,0.041197296600497646
1389.0,0.03967194946985697
1388.0,0.03829421599749461
1387.0,0.0371100126082089
1386.0,0.03625938114211591
1385.0,0.03588185684851508
1384.0,0.03588185684851508
1383.0,0.03625938114211591
1382.0,0.0371100126082089
1381.0,0.03848398855105106
1380.0,0.0402909757535701
1379.0,0.042392712939904875
1378.0,0.04469717723830824
1377.0,0.047062332249019345
1376.0,0.04973253198641148
1375.0,0.05281143447390635
1374.0,0.055912320584565744
1373.0,0.0583891978463662
1372.0,0.05988213325228142
1371.0,0.060530669156469985
1370.0,0.0601813371786204
1369.0,0.058836539841526925
1368.0,0.05630767289398331
1367.0,0.05290953578037816
1366.0,0.048905443158337114
1365.0,0.044456557540257124
1364.0,0.03948165721929198
1363.0,0.03423403581731388
1362.0,0.029467170231675777
1361.0,0.025810808881832736
1360.0,0.023054249440757957
1359.0,0.020861530453190058
1358.0,0.019133445417920836
1357.0,0.01781925440359733
1356.0,0.016870075265299933
1355.0,0.016238439713835096
1354.0,0.015922966097169144
1353.0,0.016013078034810446
1352.0,0.016418813294209356
1351.0,0.017186237868137555
1350.0,0.01840788278591865
1349.0,0.020087589665283012
1348.0,0.0221849739168134
1347.0,0.02461415101053266
1346.0,0.02738066094037661
1345.0,0.030351159519274695
1344.0,0.03334211579824231
1343.0,0.0360705779734416
1342.0,0.03838909190871931
1341.0,0.0400527842915015
1340.0,0.04076775094900409
1339.0,0.040005161671583744
1338.0,0.03791491948264003
1337.0,0.03479829897408804
1336.0,0.031143625385307683
1335.0,0.027334407733889066
1334.0,0.023833499868024743
1333.0,0.020907099361673565
1332.0,0.018725167293411005
1331.0,0.017367005605150476
1330.0,0.016734647433454652
1329.0,0.01677978535189717
1328.0,0.017367005605150476
1327.0,0.01840788278591865
1326.0,0.019814763052665052
1325.0,0.021545566634771474
1324.0,0.02351246269481
1323.0,0.02558042614771394
1322.0,0.0277045713888604
1321.0,0.029978734171634214
1320.0,0.03235843591698884
1319.0,0.03470420418834386
1318.0,0.037062711569998186
1317.0,0.039338992729018196
1316.0,0.041627267521392675
1315.0,0.04402377775167454
1314.0,0.04662694927330402
1313.0,0.04948910701400333
1312.0,0.0525172634430815
1311.0,0.05566540802921782
1310.0,0.058936011780097886
1309.0,0.06243196139961715
1308.0,0.06600683616875758
1307.0,0.06956040523329987
1306.0,0.07293775650699996
1305.0,0.0763933569825408
1304.0,0.08013774644446192
1303.0,0.08433639649422697
1302.0,0.0892689019566193
1301.0,0.09512223303659528
1300.0,0.10193333935836524
1299.0,0.10952309103982927
1298.0,0.11764625361128611
1297.0,0.12627261935332057
1296.0,0.13519237097385295
1295.0,0.1441175699639643
1294.0,0.15292113793428452
1293.0,0.16165473122400909
1292.0,0.17037464664195068
1291.0,0.17874856845405884
1290.0,0.18681946741398825
1289.0,0.19456711186786002
1288.0,0.20204035626280392
1287.0,0.2089412564081745
1286.0,0.21502629004559926
1285.0,0.22069217241641415
1284.0,0.22592119924748122
1283.0,0.2304749798289496
1282.0,0.23425695857895557
1281.0,0.2376966367122315
1280.0,0.24086118371883347
1279.0,0.24366823267894233
1278.0,0.2461106685401666
1277.0,0.2488749284644165
1276.0,0.2522775379644915
1275.0,0.25641184984009624
1274.0,0.2616952069258951
1273.0,0.26865302445404504
1272.0,0.27753061411596924
1271.0,0.288192770958809
1270.0,0.30024896831048564
1269.0,0.31363189652696377
1268.0,0.328271911760442
1267.0,0.3433269541151498
1266.0,0.3583276267753135
1265.0,0.37335173152598977
1264.0,0.3879582553547305
1263.0,0.4012094932368848
1262.0,0.4128505017456563
1261.0,0.422853015172475
1260.0,0.4310945850171213
1259.0,0.43699381293820627
1258.0,0.4408118109952246
1257.0,0.44357687862871464
1256.0,0.4464810598510305
1255.0,0.44928257653071735
1254.0,0.45259454033251023
1253.0,0.45729903055188914
1252.0,0.4634415574284698
1251.0,0.47056964563301396
1250.0,0.4783389848879267
1249.0,0.4871822414351268
1248.0,0.4970269409343686
1247.0,0.5069604116823485
1246.0,0.5164127030311059
1245.0,0.5257837359237447
1244.0,0.5346171485515816
1243.0,0.5415132362017931
1242.0,0.5459177292689101
1241.0,0.5479067509822686
1240.0,0.5471406642041476
1239.0,0.5422694517540014
1238.0,0.5329841815615644
1237.0,0.5201368869769023
1236.0,0.5041782466140943
1235.0,0.48492132492407736
1234.0,0.4630629772953265
1233.0,0.44033272161194237
1232.0,0.41759570198097196
1231.0,0.3951262294473643
1230.0,0.37335173152598977
1229.0,0.3531063758322548
1228.0,0.3342314492806202
1227.0,0.3164126824272331
1226.0,0.2994693430214084
1225.0,0.28366271211045135
1224.0,0.2689756201843121
1223.0,0.255237762934422
1222.0,0.2423003749122612
1221.0,0.2304749798289496
1220.0,0.21961067152904712
1219.0,0.20964445358561346
1218.0,0.20031490909089955
1217.0,0.19178902707577805
1216.0,0.18402399902801458
1215.0,0.17685194018930606
1214.0,0.1701175535565067
1213.0,0.16399254087446846
1212.0,0.15832774992636556
1211.0,0.15304467498017615
1210.0,0.1480693213597324
1209.0,0.14345235514325205
1208.0,0.13918303613546223
1207.0,0.1350738084609946
1206.0,0.13106182166708868
1205.0,0.12737762097471172
1204.0,0.12383991517437187
1203.0,0.1203880929341492
1202.0,0.11702034596270106
1201.0,0.1137349409702435
1200.0,0.11058623595729111
1199.0,0.10746019534136453
1198.0,0.10446696051592963
1197.0,0.10160395406999112
1196.0,0.09886874864462802
1195.0,0.0960964733098364
1194.0,0.09344948089854999
1193.0,0.09092559859909577
1192.0,0.08857603462370545
1191.0,0.08645104209348209
1190.0,0.08449463824562353
1189.0,0.08280969148843575
1188.0,0.08144546944972642
1187.0,0.08039897621588898
1186.0,0.07972010536705154
1185.0,0.07951143534170213
1184.0,0.07982447798997727
1183.0,0.08055578953476306
1182.0,0.08181233864107451
1181.0,0.08344078069888616
1180.0,0.08533956941077814
1179.0,0.0872997918091396
1178.0,0.08910891135547172
1177.0,0.09065796163869155
1176.0,0.09183679994445204
1175.0,0.09237369515673355
1174.0,0.09210516458371698
1173.0,0.0910326995816122
1172.0,0.08905559425002108
1171.0,0.086239113587677
1170.0,0.08270459905431071
1169.0,0.0788860261633193
1168.0,0.07510073598571654
1167.0,0.07150173187630915
1166.0,0.06833876031551878
1165.0,0.06565307326174441
1164.0,0.06353652599525317
1163.0,0.061830653609679764
1162.0,0.060530669156469985
1161.0,0.05953332233647113
1160.0,0.0588862729628985
1159.0,0.05848856736559682
1158.0,0.05843887976392925
1157.0,0.058836539841526925
1156.0,0.05978244440026481
1155.0,0.06123017721688262
1154.0,0.06323500239005853
1153.0,0.0658551882075229
1152.0,0.0691018855898955
1151.0,0.07288638806623937
1150.0,0.0772226580712021
1149.0,0.08207457793525874
1148.0,0.08740600224789441
1147.0,0.09328794305703592
1146.0,0.09963287134352972
1145.0,0.1063491830140364
1144.0,0.11328372588352176
1143.0,0.12015894401343741
1142.0,0.12697018793895576
1141.0,0.13359450162194508
1140.0,0.1399616101928065
1139.0,0.14599776687301103
1138.0,0.1515645446685292
1137.0,0.15676722190199066
1136.0,0.16184381524785207
1135.0,0.16672536070943655
1134.0,0.1713401034646802
1133.0,0.17600440884403223
1132.0,0.18085105719286587
1131.0,0.18608557995139652
1130.0,0.19178902707577805
1129.0,0.19845909380968174
1128.0,0.20613979865733034
1127.0,0.21474136664229881
1126.0,0.22424396215590203
1125.0,0.23455498190985002
1124.0,0.24542234395526963
1123.0,0.25641184984009624
1122.0,0.2668830185579356
1121.0,0.2765443279648143
1120.0,0.2850000325879576
1119.0,0.29140915484965624
1118.0,0.295249095709329
1117.0,0.29662263148765056
1116.0,0.2955920726131591
1115.0,0.2925149880325264
1114.0,0.2880241456482442
1113.0,0.2835792661534451
1112.0,0.2803373169819534
1111.0,0.2793446434482756
1110.0,0.2812492652603349
1109.0,0.28676153845433827
1108.0,0.29584948316020077
1107.0,0.30777016422724435
1106.0,0.3219370950256548
1105.0,0.33799812061008283
1104.0,0.3557584141562713
1103.0,0.37427609047424415
1102.0,0.3930814740517088
1101.0,0.411840383616908
1100.0,0.4302750507738411
1099.0,0.44721014980721807
1098.0,0.461929212956828
1097.0,0.47456644657117986
1096.0,0.4845235586176242
1095.0,0.4912010345960949
1094.0,0.49430749258779993
1093.0,0.49457867241671893
1092.0,0.49241396023698925
1091.0,0.4871822414351268
1090.0,0.47938547812176413
1089.0,0.4701848033553697
1088.0,0.45979570015794025
1087.0,0.4481841776489843
1086.0,0.43545228824405213
1085.0,0.4221636587072559
1084.0,0.4084901910053458
1083.0,0.3938336853923794
1082.0,0.37809703910876946
1081.0,0.36191027801549436
1080.0,0.34534224535047553
1079.0,0.32845691473742633
1078.0,0.3114022249188302
1077.0,0.29499204066666396
1076.0,0.2794272796357391
1075.0,0.26472055193954325
1074.0,0.25088233764367773
1073.0,0.23829763245858726
1072.0,0.22694530663573742
1071.0,0.21652521241775347
1070.0,0.20697834015401684
1069.0,0.1983905119726812
1068.0,0.19077707831057822
1067.0,0.1838250095711984
1066.0,0.17750501472124913
1065.0,0.17192040944325404
1064.0,0.16710805524020933
1063.0,0.1627904721987936
1062.0,0.1588909155318461
1061.0,0.15564710368910672
1060.0,0.15310645668337486
1059.0,0.15125681810431635
1058.0,0.1502121757623145
1057.0,0.15002808767114995
1056.0,0.15082636690117335
1055.0,0.1523039792658345
1054.0,0.15446788250642451
1053.0,0.15726598105173029
1052.0,0.16064767110457878
1051.0,0.1644362483309032
1050.0,0.16825816635436186
1049.0,0.17230771132555445
1048.0,0.17626501160126873
1047.0,0.17999569319168218
1046.0,0.18329481633348466
1045.0,0.1862189218259176
1044.0,0.1885590563258419
1043.0,0.19010375339756092
1042.0,0.19084446825281964
1041.0,0.19084446825281964
1040.0,0.1902383348928749
1039.0,0.18896149139578422
1038.0,0.18708664335714453
1037.0,0.1850203162392432
1036.0,0.18302996224270052
1035.0,0.1809828013109407
1034.0,0.17887967622317635
1033.0,0.17685194018930606
1032.0,0.17496355877864622
1031.0,0.17295398299526576
1030.0,0.17088928984470542
1029.0,0.16896251435997467
1028.0,0.16742722515382025
1027.0,0.16659787076814148
1026.0,0.16704424939540163
1025.0,0.16973219906635828
1024.0,0.17580905934741686
1023.0,0.1862189218259176
1022.0,0.20176382363206424
1021.0,0.22264568691579112
1020.0,0.24741382125959088
1019.0,0.27278417909150754
1018.0,0.2940508050897044
1017.0,0.30618514611058334
1016.0,0.30574588797472146
1015.0,0.2925149880325264
1014.0,0.2705922030369319
1013.0,0.24565166428898122
1012.0,0.22235572230351508
1011.0,0.20266319922465015
1010.0,0.18688624599210146
1009.0,0.1743791749964998
1008.0,0.1644362483309032
1007.0,0.1562068016740874
1006.0,0.14941502364796855
1005.0,0.14393604666690019
1004.0,0.13948232253825377
1003.0,0.13566694496660703
1002.0,0.1322379753497993
1001.0,0.12918657608440243
1000.0,0.12650501774383094
999.0,0.12395544975390482
998.0,0.12165057778222454
997.0,0.11964380058076385
996.0,0.11793105556385153
995.0,0.1163953390777075
994.0,0.11503480179926728
993.0,0.11379137583250243
992.0,0.11272036546997688
991.0,0.11176432672943282
990.0,0.11097857790477517
989.0,0.11036219959333216
988.0,0.10991447328367476
987.0,0.10957898119908571
986.0,0.10924374808178183
985.0,0.10907622851098608
984.0,0.10902040301031102
983.0,0.10902040301031102
982.0,0.10896458468468917
981.0,0.10902040301031102
980.0,0.10907622851098608
979.0,0.10918790104487552
978.0,0.10929960230112479
977.0,0.10941133229451272
976.0,0.10952309103982927
975.0,0.10946720807225518
974.0,0.10924374808178183
973.0,0.10896458468468917
972.0,0.10846254232743546
971.0,0.10779405402422748
970.0,0.10679324694015202
969.0,0.10562854614376227
968.0,0.10435649517592083
967.0,0.1028679566179056
966.0,0.10127481841050656
965.0,0.09968750301627338
964.0,0.09805153492691598
963.0,0.09642170633694569
962.0,0.09485199814398393
961.0,0.09344948089854999
960.0,0.0922125568893839
959.0,0.0910326995816122
958.0,0.08985603893548699
957.0,0.08873582900163002
956.0,0.0877779434675845
955.0,0.08682216600953208
954.0,0.08592141461088798
953.0,0.08507535179485148
952.0,0.08433639649422697
951.0,0.08370400543686918
950.0,0.0830725338870073
949.0,0.08254700807033655
948.0,0.08207457793525874
947.0,0.08160266115629988
946.0,0.08107890990866418
945.0,0.08060807322614072
944.0,0.08013774644446192
943.0,0.07966792846041071
942.0,0.07925073872429178
941.0,0.07899019850296574
940.0,0.07878187880504961
939.0,0.07857365898473456
938.0,0.07831352451639795
937.0,0.07800156869172903
936.0,0.07768983678560404
935.0,0.07732643214144574
934.0,0.07696333132921396
933.0,0.07665234350217442
932.0,0.07623803917129979
931.0,0.07582412969807906
930.0,0.07525564752005143
929.0,0.07473949048056472
928.0,0.07432700607875953
927.0,0.07386342893255127
926.0,0.07340034609297241
925.0,0.07293775650699996
924.0,0.07252697900472405
923.0,0.07211658966929302
922.0,0.07175781684269089
921.0,0.07150173187630915
920.0,0.0713481533463054
919.0,0.07124579782334672
918.0,0.07114346641808922
917.0,0.07114346641808922
916.0,0.07129697256940304
915.0,0.0716553647351379
914.0,0.07232173586200852
913.0,0.07334892291111106
912.0,0.07468790850035045
911.0,0.07634157820669385
910.0,0.07836553894629472
909.0,0.08076496207674921
908.0,0.08354605145007499
907.0,0.08650404038287651
906.0,0.08964244272712252
905.0,0.09291125492570451
904.0,0.09620485725896466
903.0,0.09935981601739963
902.0,0.10209812573177213
901.0,0.10452220372428545
900.0,0.10657115822045493
899.0,0.10812816955441629
898.0,0.10924374808178183
897.0,0.11008231656379408
896.0,0.11075433910702048
895.0,0.11114683301706374
894.0,0.11131515334030118
893.0,0.11137127461477392
892.0,0.11142740314240007
891.0,0.11165198982195101
890.0,0.11210151190312767
889.0,0.1130019543289007
888.0,0.11424311893073247
887.0,0.11577123036739612
886.0,0.11764625361128611
885.0,0.1199871616332282
884.0,0.12297438413275108
883.0,0.12667939818460128
882.0,0.13123804178794973
881.0,0.1366771398795441
880.0,0.14302956651750764
879.0,0.15015080439474215
878.0,0.1577028656719348
877.0,0.16538857927731287
876.0,0.1726953589102651
875.0,0.1789452449531117
874.0,0.18336105510153855
873.0,0.1854860476317619
872.0,0.1848873418101875
871.0,0.18111458540599013
870.0,0.17483362774345035
869.0,0.16691666582165698
868.0,0.1583902878315646
867.0,0.15002808767114995
866.0,0.14224547794055775
865.0,0.1354889189416082
864.0,0.12977172098820566
863.0,0.1249387366082999
862.0,0.12101887660626365
861.0,0.11804502866039956
860.0,0.11588463798833115
859.0,0.11429961987167014
858.0,0.11317099532301778
857.0,0.11249522576462212
856.0,0.11215773489264302
855.0,0.11193288659256306
854.0,0.11165198982195101
853.0,0.1114835389250548
852.0,0.11137127461477392
851.0,0.11131515334030118
850.0,0.11125903931710734
849.0,0.11120293254331926
848.0,0.11125903931710734
847.0,0.11120293254331926
846.0,0.11109074073646874
845.0,0.11109074073646874
844.0,0.11114683301706374
843.0,0.11114683301706374
842.0,0.11109074073646874
841.0,0.11097857790477517
840.0,0.11081038795292675
839.0,0.11036219959333216
838.0,0.10963487855187593
837.0,0.10879717273970457
836.0,0.10779405402422748
835.0,0.10662666975397506
834.0,0.10518567091669917
833.0,0.10369429253391926
832.0,0.10226297465457268
831.0,0.10083635852278117
830.0,0.09963287134352972
829.0,0.09859617317474823
828.0,0.09777947172068524
827.0,0.09701860020249709
826.0,0.096150661903319
825.0,0.09539263618455207
824.0,0.09479797133768142
823.0,0.09425807260839858
822.0,0.0937727369476411
821.0,0.09344948089854999
820.0,0.09328794305703592
819.0,0.09318028453345462
818.0,0.09312646527792956
817.0,0.09312646527792956
816.0,0.09323411045927221
815.0,0.09334178232840018
814.0,0.09339562827501968
813.0,0.09344948089854999
812.0,0.0935033402006471
811.0,0.09344948089854999
810.0,0.09328794305703592
809.0,0.09307265269104414
808.0,0.09291125492570451
807.0,0.09269615116603047
806.0,0.09237369515673355
805.0,0.0919977988274463
804.0,0.09151498112135026
803.0,0.09087205801073917
802.0,0.0900697402471693
801.0,0.08953568400438638
800.0,0.08958906008531176
799.0,0.09065796163869155
798.0,0.09307265269104414
797.0,0.09707290398273716
796.0,0.10204318999304807
795.0,0.10673771411200872
794.0,0.11008231656379408
793.0,0.11131515334030118
792.0,0.11053021603049262
791.0,0.10784972209863586
790.0,0.10413564875270076
789.0,0.09996076451267522
788.0,0.09582563171583658
787.0,0.09189045960744768
786.0,0.08820340956274775
785.0,0.08502252755566908
784.0,0.08223199755224364
783.0,0.07966792846041071
782.0,0.07737832847680104
781.0,0.07551395626608493
780.0,0.07396640332115534
779.0,0.0725783049495814
778.0,0.07119462910671581
777.0,0.06986635415888243
776.0,0.06864384953207203
775.0,0.06742477650170953
774.0,0.06620911585658007
773.0,0.06499684854634524
772.0,0.06388856832514578
771.0,0.06268275223750575
770.0,0.06143024377893891
769.0,0.06028111764589528
768.0,0.059135024033278416
767.0,0.05799194697768684
766.0,0.05670338543334519
765.0,0.05546797900801881
764.0,0.05433450056786593
763.0,0.05325306496641513
762.0,0.05217431555754937
761.0,0.05100054597304693
760.0,0.04978123335813667
759.0,0.048468209457651845
758.0,0.04715914332429838
757.0,0.04599883231842972
756.0,0.04488976902944808
755.0,0.0437835307566099
754.0,0.04253638427006878
753.0,0.04129280891271536
752.0,0.0400527842915015
751.0,0.038816290187564384
750.0,0.03772539537668518
749.0,0.03692083935817303
748.0,0.03649550058570927
747.0,0.03658998431977123
746.0,0.037488606492403154
745.0,0.03981472339538916
744.0,0.04387961360698034
743.0,0.050073556332087765
742.0,0.0588862729628985
741.0,0.0709900145060387
740.0,0.08666307406737683
739.0,0.10557316203581202
738.0,0.12726117252733116
737.0,0.15119529894819617
736.0,0.17678668671733244
735.0,0.2032175882986922
734.0,0.2302535328205466
733.0,0.25884840114821506
732.0,0.2897979853446153
731.0,0.32358076828164006
730.0,0.36081244006424606
729.0,0.40274371707485823
728.0,0.4495270428934366
727.0,0.4978461071286393
726.0,0.541966807503494
725.0,0.5734887386354248
724.0,0.584025588623434
723.0,0.5686362358410126
722.0,0.5297365530349216
721.0,0.47729500726525
720.0,0.423083044034793
719.0,0.37509939779550994
718.0,0.33611070137733856
717.0,0.30521936398793836
716.0,0.28042014228627665
715.0,0.2604276555499081
714.0,0.2448114143916751
713.0,0.23314118897858238
712.0,0.224608028303388
711.0,0.21788585252092885
710.0,0.21204387671606817
709.0,0.20662875108104428
708.0,0.20155653964981246
707.0,0.19633807676377568
706.0,0.1910467008440888
705.0,0.1859522790044006
704.0,0.1812464095022832
703.0,0.1765909851074554
702.0,0.17159792150840691
701.0,0.16621562534352097
700.0,0.1605219526258017
699.0,0.15452986701832638
698.0,0.1489251947711132
697.0,0.14429916916456276
696.0,0.1407415825326932
695.0,0.13780896894840278
694.0,0.13501453934020602
693.0,0.1325325121409484
692.0,0.13035765534840538
691.0,0.1283103343144847
690.0,0.126156466776564
689.0,0.12424442074194553
688.0,0.12280148472821018
687.0,0.12182301950849372
686.0,0.12124847982699793
685.0,0.12119106764079435
684.0,0.1213058996038916
683.0,0.12107626603243293
682.0,0.12050271275057156
681.0,0.1201016756699902
680.0,0.11987267778337518
679.0,0.11935787359571504
678.0,0.11804502866039956
677.0,0.11628179803604044
676.0,0.1145256971708426
675.0,0.112945621949043
674.0,0.11142740314240007
673.0,0.10997041383658313
672.0,0.10874138309586101
671.0,0.1075158206353124
670.0,0.10596099919539115
669.0,0.10446696051592963
668.0,0.10325338439259446
667.0,0.10248287059947447
666.0,0.10209812573177213
665.0,0.10154908080162528
664.0,0.10072681268239614
663.0,0.09985143928065598
662.0,0.0989778267519208
661.0,0.09821485469640057
660.0,0.09777947172068524
659.0,0.09767069414168117
658.0,0.09777947172068524
657.0,0.0978882765519955
656.0,0.09772507952549825
655.0,0.09707290398273716
654.0,0.09593394808549704
653.0,0.09485199814398393
652.0,0.09404230090757282
651.0,0.0935572061829677
650.0,0.0935033402006471
649.0,0.09404230090757282
648.0,0.09436599867304518
647.0,0.09371884422784693
646.0,0.09215885741705532
645.0,0.09071147583774919
644.0,0.08985603893548699
643.0,0.08953568400438638
642.0,0.08964244272712252
641.0,0.09023008526723086
640.0,0.09124698081546634
639.0,0.09210516458371698
638.0,0.09285746899685954
637.0,0.09415017335768128
636.0,0.09658441423091357
635.0,0.09963287134352972
634.0,0.10242788617426934
633.0,0.10408045468998406
632.0,0.10363915453068362
631.0,0.10072681268239614
630.0,0.09669292003582619
629.0,0.09382663635595145
628.0,0.09296504751658308
627.0,0.09296504751658308
626.0,0.09269615116603047
625.0,0.09205147838772776
624.0,0.09146136782804049
623.0,0.0908185240221473
622.0,0.08969583193143116
621.0,0.08841629901892434
620.0,0.08761850108119962
619.0,0.08735289378168276
618.0,0.08687520961044104
617.0,0.08586848736910624
616.0,0.08460016478773014
615.0,0.08359869639612438
614.0,0.08333553545860273
613.0,0.08402008585977572
612.0,0.08518101955252688
611.0,0.08608023504853413
610.0,0.08618614761628329
609.0,0.0861331881037608
608.0,0.08645104209348209
607.0,0.0867160982395816
606.0,0.086239113587677
605.0,0.08512818245994969
604.0,0.08423093401631587
603.0,0.08412549714230844
602.0,0.08454739831152125
601.0,0.08470571697731355
600.0,0.08375666953466032
599.0,0.08155025759884227
598.0,0.07883394936226118
597.0,0.07696333132921396
596.0,0.0763933569825408
595.0,0.07670415934449615
594.0,0.07711890879170658
593.0,0.07737832847680104
592.0,0.07727454200674
591.0,0.07654873036034848
590.0,0.0756173227980268
589.0,0.07535895258283709
588.0,0.07582412969807906
587.0,0.07566901529132153
586.0,0.07417242537525759
585.0,0.07170658776779781
584.0,0.06874559358358656
583.0,0.06504729218214189
582.0,0.06098022355133348
581.0,0.0575950591438934
580.0,0.05502409158795207
579.0,0.052468254304406825
578.0,0.05036607620073763
577.0,0.05065879322950262
576.0,0.053351266093323746
575.0,0.05522131887649295
574.0,0.05232126006306337
573.0,0.04488976902944808
572.0,0.03621217265444465
571.0,0.02969962459782227
570.0,0.026410376572743033
569.0,0.024200690320592466
568.0,0.02122621566987748
567.0,0.018770512579999288
566.0,0.018770512579999288
565.0,0.020770406977844713
564.0,0.02259651912656535
563.0,0.02200219004126036
562.0,0.018362575344230914
561.0,0.013317820220494436
560.0,0.010060986715464404
559.0,0.011441043121384498
558.0,0.016509028184833463
557.0,0.020770406977844713
556.0,0.020406104151069693
555.0,0.015202742910707112
554.0,0.0087296108049002
553.0,0.004803708402820517
552.0,0.005243055412371911
551.0,0.009572341514736404
550.0,0.015742798294583915
549.0,0.02168250325324883
548.0,0.026456531467510258
547.0,0.029467170231675777
546.0,0.02942069428514915
545.0,0.025902996205869
544.0,0.02067930261797568
543.0,0.016870075265299933
542.0,0.015427684378367834
541.0,0.01403492169512921
540.0,0.011084479487313281
539.0,0.008463824699968647
538.0,0.00966114521239847
537.0,0.014753209197138295
536.0,0.019860222254245663
535.0,0.02122621566987748
534.0,0.01858915983411169
533.0,0.014932966849499074
532.0,0.013407393177789162
531.0,0.015022873584506602
530.0,0.017774008325325275
529.0,0.019133445417920836
528.0,0.01845319495476394
527.0,0.017186237868137555
526.0,0.016824927962187042
525.0,0.01768353030793479
524.0,0.018679826740892747
523.0,0.01845319495476394
522.0,0.016418813294209356
521.0,0.01381070026317599
520.0,0.012691326268817527
519.0,0.01372104409400876
518.0,0.015202742910707112
517.0,0.01547268665620738
516.0,0.014977917890464765
515.0,0.014843078722943437
514.0,0.014888020460646079
513.0,0.014124642691606404
512.0,0.013273040668781544
511.0,0.014259258949925524
510.0,0.016960383953898095
509.0,0.019178833355664393
508.0,0.019451260640229506
507.0,0.018498511851753108
506.0,0.017502630802287644
505.0,0.016554142658660398
504.0,0.015517693597737248
503.0,0.015247721884586563
502.0,0.016509028184833463
501.0,0.019042683770379876
500.0,0.021728158389364705
499.0,0.023237476732539397
498.0,0.022413561996148967
497.0,0.018679826740892747
496.0,0.01322826573375524
495.0,0.008685301823389224
494.0,0.006740168563263094
493.0,0.006828394969235152
492.0,0.006828394969235152
491.0,0.005682847330363394
490.0,0.004189368323957332
489.0,0.004452550524862486
488.0,0.007711646202907652
487.0,0.012870232340102872
486.0,0.017141057687924732
485.0,0.018951941086827073
484.0,0.019178833355664393
483.0,0.019451260640229506
482.0,0.01995115493504329
481.0,0.02026956933771462
480.0,0.02067930261797568
479.0,0.021135015652343103
478.0,0.02036058777709271
477.0,0.017412209298337533
476.0,0.01372104409400876
475.0,0.01215504982870197
474.0,0.013900374944870508
473.0,0.017955020928509757
472.0,0.023100049017062307
471.0,0.028167720075074953
470.0,0.03137697904301118
469.0,0.03170388495374454
468.0,0.030444315779156517
467.0,0.029885677714903025
466.0,0.029978734171634214
465.0,0.029234840219232394
464.0,0.02691835039863255
463.0,0.023833499868024743
462.0,0.02045162529590483
461.0,0.016689514205884493
460.0,0.013273040668781544
459.0,0.011664044143949504
458.0,0.012557195064198723
457.0,0.015517693597737248
456.0,0.01995115493504329
455.0,0.02461415101053266
454.0,0.026687379547098322
453.0,0.024430342106337877
452.0,0.019632973815224997
451.0,0.016509028184833463
450.0,0.016418813294209356
