cm-1,A
4000.0,0.009306039320248427
3999.0,0.009350411681145587
3998.0,0.00939478857608056
3997.0,0.009439170005980158
3996.0,0.009483555971770974
3995.0,0.009572341514736404
3994.0,0.009572341514736404
3993.0,0.009616741093766423
3992.0,0.009616741093766423
3991.0,0.009572341514736404
3990.0,0.009527946474380489
3989.0,0.009439170005980158
3988.0,0.00939478857608056
3987.0,0.00939478857608056
3986.0,0.009527946474380489
3985.0,0.009616741093766423
3984.0,0.009705553871561357
3983.0,0.009794384815193347
3982.0,0.00974996707218323
3981.0,0.00966114521239847
3980.0,0.009572341514736404
3979.0,0.009439170005980158
3978.0,0.009350411681145587
3977.0,0.009350411681145587
3976.0,0.00939478857608056
3975.0,0.009527946474380489
3974.0,0.009572341514736404
3973.0,0.009616741093766423
3972.0,0.009572341514736404
3971.0,0.009527946474380489
3970.0,0.009439170005980158
3969.0,0.009350411681145587
3968.0,0.009261671492462709
3967.0,0.009306039320248427
3966.0,0.009350411681145587
3965.0,0.009439170005980158
3964.0,0.009483555971770974
3963.0,0.009572341514736404
3962.0,0.009616741093766423
3961.0,0.009705553871561357
3960.0,0.00974996707218323
3959.0,0.00974996707218323
3958.0,0.00966114521239847
3957.0,0.009527946474380489
3956.0,0.00939478857608056
3955.0,0.009261671492462709
3954.0,0.009217308196862062
3953.0,0.009261671492462709
3952.0,0.009350411681145587
3951.0,0.00939478857608056
3950.0,0.009350411681145587
3949.0,0.009261671492462709
3948.0,0.009128595198514056
3947.0,0.009039900317800775
3946.0,0.009039900317800775
3945.0,0.009128595198514056
3944.0,0.009306039320248427
3943.0,0.00939478857608056
3942.0,0.00939478857608056
3941.0,0.009306039320248427
3940.0,0.009217308196862062
3939.0,0.009261671492462709
3938.0,0.009306039320248427
3937.0,0.009261671492462709
3936.0,0.009217308196862062
3935.0,0.009172949432521227
3934.0,0.009217308196862062
3933.0,0.009350411681145587
3932.0,0.009439170005980158
3931.0,0.00939478857608056
3930.0,0.009217308196862062
3929.0,0.008995559669244813
3928.0,0.008818242332126802
3927.0,0.0087296108049002
3926.0,0.008773924307505121
3925.0,0.008906891951112605
3924.0,0.008995559669244813
3923.0,0.009039900317800775
3922.0,0.00908424549391551
3921.0,0.009217308196862062
3920.0,0.009350411681145587
3919.0,0.009439170005980158
3918.0,0.009527946474380489
3917.0,0.009527946474380489
3916.0,0.009439170005980158
3915.0,0.009350411681145587
3914.0,0.009350411681145587
3913.0,0.00939478857608056
3912.0,0.009439170005980158
3911.0,0.009527946474380489
3910.0,0.009483555971770974
3909.0,0.009350411681145587
3908.0,0.009172949432521227
3907.0,0.008906891951112605
3906.0,0.008685301823389224
3905.0,0.00850811108984062
3904.0,0.008330992620051436
3903.0,0.008153946355103248
3902.0,0.008109696063975047
3901.0,0.008286724286910463
3900.0,0.008596697419959609
3899.0,0.008818242332126802
3898.0,0.008906891951112605
3897.0,0.008951223547323472
3896.0,0.008995559669244813
3895.0,0.008995559669244813
3894.0,0.008906891951112605
3893.0,0.008906891951112605
3892.0,0.008906891951112605
3891.0,0.008818242332126802
3890.0,0.008552401996197112
3889.0,0.008419542825660153
3888.0,0.00850811108984062
3887.0,0.008773924307505121
3886.0,0.008995559669244813
3885.0,0.008951223547323472
3884.0,0.008640997362049818
3883.0,0.008552401996197112
3882.0,0.008773924307505121
3881.0,0.00908424549391551
3880.0,0.009128595198514056
3879.0,0.008818242332126802
3878.0,0.00850811108984062
3877.0,0.00850811108984062
3876.0,0.0087296108049002
3875.0,0.008951223547323472
3874.0,0.008862564879688284
3873.0,0.008463824699968647
3872.0,0.008109696063975047
3871.0,0.008153946355103248
3870.0,0.008375265465994541
3869.0,0.008419542825660153
3868.0,0.008286724286910463
3867.0,0.008286724286910463
3866.0,0.008463824699968647
3865.0,0.008685301823389224
3864.0,0.008773924307505121
3863.0,0.0087296108049002
3862.0,0.0087296108049002
3861.0,0.008818242332126802
3860.0,0.008906891951112605
3859.0,0.008906891951112605
3858.0,0.008640997362049818
3857.0,0.008198201155356077
3856.0,0.007755855953228474
3855.0,0.007800070204414977
3854.0,0.008463824699968647
3853.0,0.008818242332126802
3852.0,0.008552401996197112
3851.0,0.008552401996197112
3850.0,0.008995559669244813
3849.0,0.009350411681145587
3848.0,0.009350411681145587
3847.0,0.009217308196862062
3846.0,0.008995559669244813
3845.0,0.008818242332126802
3844.0,0.008640997362049818
3843.0,0.008375265465994541
3842.0,0.008021209005416363
3841.0,0.007755855953228474
3840.0,0.007667440952535687
3839.0,0.007844288957383316
3838.0,0.007976972236149349
3837.0,0.008065450281052211
3836.0,0.008153946355103248
3835.0,0.008419542825660153
3834.0,0.008773924307505121
3833.0,0.00908424549391551
3832.0,0.009172949432521227
3831.0,0.009039900317800775
3830.0,0.008818242332126802
3829.0,0.0087296108049002
3828.0,0.008773924307505121
3827.0,0.008862564879688284
3826.0,0.008818242332126802
3825.0,0.008552401996197112
3824.0,0.008198201155356077
3823.0,0.008109696063975047
3822.0,0.008375265465994541
3821.0,0.008596697419959609
3820.0,0.008375265465994541
3819.0,0.008065450281052211
3818.0,0.008198201155356077
3817.0,0.008640997362049818
3816.0,0.00908424549391551
3815.0,0.009172949432521227
3814.0,0.009128595198514056
3813.0,0.009217308196862062
3812.0,0.00939478857608056
3811.0,0.00939478857608056
3810.0,0.009261671492462709
3809.0,0.009217308196862062
3808.0,0.009306039320248427
3807.0,0.009261671492462709
3806.0,0.008906891951112605
3805.0,0.008419542825660153
3804.0,0.008198201155356077
3803.0,0.008330992620051436
3802.0,0.008685301823389224
3801.0,0.008773924307505121
3800.0,0.008596697419959609
3799.0,0.008640997362049818
3798.0,0.00908424549391551
3797.0,0.009616741093766423
3796.0,0.009838807101520963
3795.0,0.00974996707218323
3794.0,0.00966114521239847
3793.0,0.009705553871561357
3792.0,0.009794384815193347
3791.0,0.009794384815193347
3790.0,0.009705553871561357
3789.0,0.009572341514736404
3788.0,0.009483555971770974
3787.0,0.009527946474380489
3786.0,0.009616741093766423
3785.0,0.00966114521239847
3784.0,0.009616741093766423
3783.0,0.009483555971770974
3782.0,0.00939478857608056
3781.0,0.009483555971770974
3780.0,0.00966114521239847
3779.0,0.00974996707218323
3778.0,0.009705553871561357
3777.0,0.00966114521239847
3776.0,0.009705553871561357
3775.0,0.00974996707218323
3774.0,0.00966114521239847
3773.0,0.009527946474380489
3772.0,0.009439170005980158
3771.0,0.00939478857608056
3770.0,0.00939478857608056
3769.0,0.009217308196862062
3768.0,0.009128595198514056
3767.0,0.009217308196862062
3766.0,0.00939478857608056
3765.0,0.009439170005980158
3764.0,0.009306039320248427
3763.0,0.009128595198514056
3762.0,0.009039900317800775
3761.0,0.00908424549391551
3760.0,0.009128595198514056
3759.0,0.009128595198514056
3758.0,0.009039900317800775
3757.0,0.008906891951112605
3756.0,0.008818242332126802
3755.0,0.008640997362049818
3754.0,0.008375265465994541
3753.0,0.008109696063975047
3752.0,0.008021209005416363
3751.0,0.008109696063975047
3750.0,0.008021209005416363
3749.0,0.007844288957383316
3748.0,0.007800070204414977
3747.0,0.008021209005416363
3746.0,0.008463824699968647
3745.0,0.008995559669244813
3744.0,0.009039900317800775
3743.0,0.008685301823389224
3742.0,0.008685301823389224
3741.0,0.00908424549391551
3740.0,0.009261671492462709
3739.0,0.00908424549391551
3738.0,0.008685301823389224
3737.0,0.008463824699968647
3736.0,0.008463824699968647
3735.0,0.008552401996197112
3734.0,0.008640997362049818
3733.0,0.0087296108049002
3732.0,0.008906891951112605
3731.0,0.009039900317800775
3730.0,0.009128595198514056
3729.0,0.009217308196862062
3728.0,0.00939478857608056
3727.0,0.009527946474380489
3726.0,0.009616741093766423
3725.0,0.009616741093766423
3724.0,0.009572341514736404
3723.0,0.009616741093766423
3722.0,0.009572341514736404
3721.0,0.009483555971770974
3720.0,0.00939478857608056
3719.0,0.009350411681145587
3718.0,0.009350411681145587
3717.0,0.009306039320248427
3716.0,0.009128595198514056
3715.0,0.008906891951112605
3714.0,0.0087296108049002
3713.0,0.008773924307505121
3712.0,0.009039900317800775
3711.0,0.009261671492462709
3710.0,0.009261671492462709
3709.0,0.009261671492462709
3708.0,0.00939478857608056
3707.0,0.009572341514736404
3706.0,0.00966114521239847
3705.0,0.00966114521239847
3704.0,0.009572341514736404
3703.0,0.009572341514736404
3702.0,0.009616741093766423
3701.0,0.009616741093766423
3700.0,0.009572341514736404
3699.0,0.009616741093766423
3698.0,0.009705553871561357
3697.0,0.009794384815193347
3696.0,0.00974996707218323
3695.0,0.009572341514736404
3694.0,0.009350411681145587
3693.0,0.009128595198514056
3692.0,0.008951223547323472
3691.0,0.008906891951112605
3690.0,0.008951223547323472
3689.0,0.008906891951112605
3688.0,0.008773924307505121
3687.0,0.008773924307505121
3686.0,0.00908424549391551
3685.0,0.009527946474380489
3684.0,0.009838807101520963
3683.0,0.009972101229705377
3682.0,0.009883233932095559
3681.0,0.00966114521239847
3680.0,0.009217308196862062
3679.0,0.008596697419959609
3678.0,0.007932739972333236
3677.0,0.007711646202907652
3676.0,0.008109696063975047
3675.0,0.008375265465994541
3674.0,0.008198201155356077
3673.0,0.008109696063975047
3672.0,0.008419542825660153
3671.0,0.008906891951112605
3670.0,0.009439170005980158
3669.0,0.00966114521239847
3668.0,0.009705553871561357
3667.0,0.009883233932095559
3666.0,0.010194349063173958
3665.0,0.010416710688994968
3664.0,0.010505687227290839
3663.0,0.010505687227290839
3662.0,0.01046119667949763
3661.0,0.01037222925484893
3660.0,0.01023881228122181
3659.0,0.010060986715464404
3658.0,0.01001654169860089
3657.0,0.010105436281226954
3656.0,0.010060986715464404
3655.0,0.009794384815193347
3654.0,0.009439170005980158
3653.0,0.009172949432521227
3652.0,0.008951223547323472
3651.0,0.009039900317800775
3650.0,0.009572341514736404
3649.0,0.01001654169860089
3648.0,0.010149890396819572
3647.0,0.010194349063173958
3646.0,0.010416710688994968
3645.0,0.010683695010048622
3644.0,0.010950843561779777
3643.0,0.011129033935354915
3642.0,0.011218156546359825
3641.0,0.011218156546359825
3640.0,0.011307297450183107
3639.0,0.011396456654336085
3638.0,0.011485634166333858
3637.0,0.011530229790124524
3636.0,0.011619434777991433
3635.0,0.011619434777991433
3634.0,0.011485634166333858
3633.0,0.01117359295472431
3632.0,0.010728208358306901
3631.0,0.01046119667949763
3630.0,0.010550182333308289
3629.0,0.010817248744452446
3628.0,0.01086177578421088
3627.0,0.010817248744452446
3626.0,0.011084479487313281
3625.0,0.011530229790124524
3624.0,0.011708658092512314
3623.0,0.011574829993696856
3622.0,0.011307297450183107
3621.0,0.011129033935354915
3620.0,0.011129033935354915
3619.0,0.011084479487313281
3618.0,0.010906307389674463
3617.0,0.010728208358306901
3616.0,0.010728208358306901
3615.0,0.01086177578421088
3614.0,0.011084479487313281
3613.0,0.011218156546359825
3612.0,0.011218156546359825
3611.0,0.011218156546359825
3610.0,0.011262724711199823
3609.0,0.011351874764248926
3608.0,0.011441043121384498
3607.0,0.011441043121384498
3606.0,0.011441043121384498
3605.0,0.011396456654336085
3604.0,0.011396456654336085
3603.0,0.011396456654336085
3602.0,0.011441043121384498
3601.0,0.011485634166333858
3600.0,0.011441043121384498
3599.0,0.011396456654336085
3598.0,0.011351874764248926
3597.0,0.011307297450183107
3596.0,0.011351874764248926
3595.0,0.011351874764248926
3594.0,0.011351874764248926
3593.0,0.011262724711199823
3592.0,0.011129033935354915
3591.0,0.011039929609661936
3590.0,0.010950843561779777
3589.0,0.010950843561779777
3588.0,0.011129033935354915
3587.0,0.011262724711199823
3586.0,0.011218156546359825
3585.0,0.011218156546359825
3584.0,0.011351874764248926
3583.0,0.011574829993696856
3582.0,0.011708658092512314
3581.0,0.011797899741219142
3580.0,0.011797899741219142
3579.0,0.011797899741219142
3578.0,0.011797899741219142
3577.0,0.011842527443247208
3576.0,0.012021084124518078
3575.0,0.01215504982870197
3574.0,0.012289056869694281
3573.0,0.012289056869694281
3572.0,0.012110390002254778
3571.0,0.011887159731648111
3570.0,0.011619434777991433
3569.0,0.011574829993696856
3568.0,0.011753276624621556
3567.0,0.012021084124518078
3566.0,0.012110390002254778
3565.0,0.012065734767841452
3564.0,0.012110390002254778
3563.0,0.012289056869694281
3562.0,0.012378417874516323
3561.0,0.012378417874516323
3560.0,0.012289056869694281
3559.0,0.012199714248127602
3558.0,0.012199714248127602
3557.0,0.012289056869694281
3556.0,0.012423105273012602
3555.0,0.012557195064198723
3554.0,0.01264661126420652
3553.0,0.012736045877764557
3552.0,0.012691326268817527
3551.0,0.01260190086298274
3550.0,0.012557195064198723
3549.0,0.01260190086298274
3548.0,0.012736045877764557
3547.0,0.012914970375878188
3546.0,0.013004460275618523
3545.0,0.013004460275618523
3544.0,0.012959713020733288
3543.0,0.012914970375878188
3542.0,0.012914970375878188
3541.0,0.012914970375878188
3540.0,0.012914970375878188
3539.0,0.012870232340102872
3538.0,0.012825498912458322
3537.0,0.012825498912458322
3536.0,0.012780770091995297
3535.0,0.012736045877764557
3534.0,0.01264661126420652
3533.0,0.01260190086298274
3532.0,0.012691326268817527
3531.0,0.012825498912458322
3530.0,0.012914970375878188
3529.0,0.012959713020733288
3528.0,0.012825498912458322
3527.0,0.012691326268817527
3526.0,0.012557195064198723
3525.0,0.012557195064198723
3524.0,0.01260190086298274
3523.0,0.012691326268817527
3522.0,0.012691326268817527
3521.0,0.01264661126420652
3520.0,0.01260190086298274
3519.0,0.012512493866907004
3518.0,0.012467797270160563
3517.0,0.012512493866907004
3516.0,0.012557195064198723
3515.0,0.01264661126420652
3514.0,0.012736045877764557
3513.0,0.012691326268817527
3512.0,0.01264661126420652
3511.0,0.01260190086298274
3510.0,0.01260190086298274
3509.0,0.012557195064198723
3508.0,0.012512493866907004
3507.0,0.012467797270160563
3506.0,0.012557195064198723
3505.0,0.012691326268817527
3504.0,0.012736045877764557
3503.0,0.01260190086298274
3502.0,0.012289056869694281
3501.0,0.012021084124518078
3500.0,0.011931796607364653
3499.0,0.012021084124518078
3498.0,0.012199714248127602
3497.0,0.012333735073725371
3496.0,0.012423105273012602
3495.0,0.012467797270160563
3494.0,0.012467797270160563
3493.0,0.012467797270160563
3492.0,0.012512493866907004
3491.0,0.012512493866907004
3490.0,0.012467797270160563
3489.0,0.012378417874516323
3488.0,0.012333735073725371
3487.0,0.012289056869694281
3486.0,0.012333735073725371
3485.0,0.012378417874516323
3484.0,0.012512493866907004
3483.0,0.01264661126420652
3482.0,0.012736045877764557
3481.0,0.012780770091995297
3480.0,0.012736045877764557
3479.0,0.01264661126420652
3478.0,0.01264661126420652
3477.0,0.01264661126420652
3476.0,0.012736045877764557
3475.0,0.012780770091995297
3474.0,0.012780770091995297
3473.0,0.012736045877764557
3472.0,0.01264661126420652
3471.0,0.012557195064198723
3470.0,0.012467797270160563
3469.0,0.012467797270160563
3468.0,0.012512493866907004
3467.0,0.01264661126420652
3466.0,0.012825498912458322
3465.0,0.012959713020733288
3464.0,0.013093968619278806
3463.0,0.013138729709955221
3462.0,0.013093968619278806
3461.0,0.013093968619278806
3460.0,0.013093968619278806
3459.0,0.013093968619278806
3458.0,0.01318349541446362
3457.0,0.013273040668781544
3456.0,0.013317820220494436
3455.0,0.013407393177789162
3454.0,0.013541787262693505
3453.0,0.013676222949234651
3452.0,0.01381070026317599
3451.0,0.013900374944870508
3450.0,0.01403492169512921
3449.0,0.014214382227394795
3448.0,0.014438812226654996
3447.0,0.014573525916998342
3446.0,0.014618439768003144
3445.0,0.01452861671041239
3444.0,0.01452861671041239
3443.0,0.014573525916998342
3442.0,0.014618439768003144
3441.0,0.014663358264387139
3440.0,0.014753209197138295
3439.0,0.014888020460646079
3438.0,0.015067833932588037
3437.0,0.015202742910707112
3436.0,0.015247721884586563
3435.0,0.015292705517326866
3434.0,0.015337693809893471
3433.0,0.01538268676325183
3432.0,0.01547268665620738
3431.0,0.015517693597737248
3430.0,0.01547268665620738
3429.0,0.01538268676325183
3428.0,0.015292705517326866
3427.0,0.015247721884586563
3426.0,0.015202742910707112
3425.0,0.015202742910707112
3424.0,0.015202742910707112
3423.0,0.015157768594724175
3422.0,0.015067833932588037
3421.0,0.014888020460646079
3420.0,0.014663358264387139
3419.0,0.014393916947563534
3418.0,0.014079779876432497
3417.0,0.013900374944870508
3416.0,0.01381070026317599
3415.0,0.01381070026317599
3414.0,0.013900374944870508
3413.0,0.013990068146738865
3412.0,0.013990068146738865
3411.0,0.013900374944870508
3410.0,0.013765869865004277
3409.0,0.013586594534531482
3408.0,0.013407393177789162
3407.0,0.013273040668781544
3406.0,0.013273040668781544
3405.0,0.01322826573375524
3404.0,0.01322826573375524
3403.0,0.01318349541446362
3402.0,0.013138729709955221
3401.0,0.013093968619278806
3400.0,0.013049212141483357
3399.0,0.013049212141483357
3398.0,0.013093968619278806
3397.0,0.013049212141483357
3396.0,0.012959713020733288
3395.0,0.012870232340102872
3394.0,0.012780770091995297
3393.0,0.01264661126420652
3392.0,0.012557195064198723
3391.0,0.012512493866907004
3390.0,0.012512493866907004
3389.0,0.012557195064198723
3388.0,0.01260190086298274
3387.0,0.01260190086298274
3386.0,0.012557195064198723
3385.0,0.01264661126420652
3384.0,0.012780770091995297
3383.0,0.012959713020733288
3382.0,0.013049212141483357
3381.0,0.013004460275618523
3380.0,0.012914970375878188
3379.0,0.012736045877764557
3378.0,0.01264661126420652
3377.0,0.012691326268817527
3376.0,0.012736045877764557
3375.0,0.012825498912458322
3374.0,0.012825498912458322
3373.0,0.012736045877764557
3372.0,0.01264661126420652
3371.0,0.01260190086298274
3370.0,0.01260190086298274
3369.0,0.01260190086298274
3368.0,0.012557195064198723
3367.0,0.012512493866907004
3366.0,0.012512493866907004
3365.0,0.012557195064198723
3364.0,0.012557195064198723
3363.0,0.01260190086298274
3362.0,0.01264661126420652
3361.0,0.01264661126420652
3360.0,0.012691326268817527
3359.0,0.012691326268817527
3358.0,0.012691326268817527
3357.0,0.01260190086298274
3356.0,0.012557195064198723
3355.0,0.012512493866907004
3354.0,0.012512493866907004
3353.0,0.012557195064198723
3352.0,0.01260190086298274
3351.0,0.012691326268817527
3350.0,0.012825498912458322
3349.0,0.012914970375878188
3348.0,0.013004460275618523
3347.0,0.013004460275618523
3346.0,0.013004460275618523
3345.0,0.013004460275618523
3344.0,0.013004460275618523
3343.0,0.013004460275618523
3342.0,0.012959713020733288
3341.0,0.012914970375878188
3340.0,0.012870232340102872
3339.0,0.012870232340102872
3338.0,0.012870232340102872
3337.0,0.012825498912458322
3336.0,0.012736045877764557
3335.0,0.01264661126420652
3334.0,0.012557195064198723
3333.0,0.012512493866907004
3332.0,0.012512493866907004
3331.0,0.01260190086298274
3330.0,0.012691326268817527
3329.0,0.012780770091995297
3328.0,0.012780770091995297
3327.0,0.012780770091995297
3326.0,0.012691326268817527
3325.0,0.01264661126420652
3324.0,0.01264661126420652
3323.0,0.01260190086298274
3322.0,0.01260190086298274
3321.0,0.01260190086298274
3320.0,0.01260190086298274
3319.0,0.01264661126420652
3318.0,0.012691326268817527
3317.0,0.012691326268817527
3316.0,0.012736045877764557
3315.0,0.012691326268817527
3314.0,0.01260190086298274
3313.0,0.012512493866907004
3312.0,0.012512493866907004
3311.0,0.012557195064198723
3310.0,0.01260190086298274
3309.0,0.01264661126420652
3308.0,0.012557195064198723
3307.0,0.012423105273012602
3306.0,0.012333735073725371
3305.0,0.012378417874516323
3304.0,0.012557195064198723
3303.0,0.012691326268817527
3302.0,0.012736045877764557
3301.0,0.012691326268817527
3300.0,0.012691326268817527
3299.0,0.01264661126420652
3298.0,0.01264661126420652
3297.0,0.01260190086298274
3296.0,0.01260190086298274
3295.0,0.01260190086298274
3294.0,0.01260190086298274
3293.0,0.012557195064198723
3292.0,0.012557195064198723
3291.0,0.01260190086298274
3290.0,0.01264661126420652
3289.0,0.012691326268817527
3288.0,0.01264661126420652
3287.0,0.01260190086298274
3286.0,0.012512493866907004
3285.0,0.012423105273012602
3284.0,0.012423105273012602
3283.0,0.012423105273012602
3282.0,0.012423105273012602
3281.0,0.012423105273012602
3280.0,0.012378417874516323
3279.0,0.012423105273012602
3278.0,0.012423105273012602
3277.0,0.012423105273012602
3276.0,0.012423105273012602
3275.0,0.012378417874516323
3274.0,0.012378417874516323
3273.0,0.012378417874516323
3272.0,0.012333735073725371
3271.0,0.012289056869694281
3270.0,0.012244383261476699
3269.0,0.012199714248127602
3268.0,0.01215504982870197
3267.0,0.012065734767841452
3266.0,0.0119764380713403
3265.0,0.011887159731648111
3264.0,0.011842527443247208
3263.0,0.011842527443247208
3262.0,0.011842527443247208
3261.0,0.011887159731648111
3260.0,0.011931796607364653
3259.0,0.0119764380713403
3258.0,0.0119764380713403
3257.0,0.0119764380713403
3256.0,0.012021084124518078
3255.0,0.012110390002254778
3254.0,0.01215504982870197
3253.0,0.01215504982870197
3252.0,0.012110390002254778
3251.0,0.012110390002254778
3250.0,0.012110390002254778
3249.0,0.01215504982870197
3248.0,0.01215504982870197
3247.0,0.012244383261476699
3246.0,0.012289056869694281
3245.0,0.012333735073725371
3244.0,0.012333735073725371
3243.0,0.01215504982870197
3242.0,0.012021084124518078
3241.0,0.011887159731648111
3240.0,0.011797899741219142
3239.0,0.011797899741219142
3238.0,0.011842527443247208
3237.0,0.011842527443247208
3236.0,0.011842527443247208
3235.0,0.011842527443247208
3234.0,0.011887159731648111
3233.0,0.0119764380713403
3232.0,0.012110390002254778
3231.0,0.01215504982870197
3230.0,0.012110390002254778
3229.0,0.012021084124518078
3228.0,0.011887159731648111
3227.0,0.011887159731648111
3226.0,0.0119764380713403
3225.0,0.012065734767841452
3224.0,0.012110390002254778
3223.0,0.012110390002254778
3222.0,0.012065734767841452
3221.0,0.012021084124518078
3220.0,0.0119764380713403
3219.0,0.011931796607364653
3218.0,0.011887159731648111
3217.0,0.011842527443247208
3216.0,0.011797899741219142
3215.0,0.011753276624621556
3214.0,0.011708658092512314
3213.0,0.011664044143949504
3212.0,0.011708658092512314
3211.0,0.011708658092512314
3210.0,0.011753276624621556
3209.0,0.011753276624621556
3208.0,0.011708658092512314
3207.0,0.011708658092512314
3206.0,0.011753276624621556
3205.0,0.011797899741219142
3204.0,0.011887159731648111
3203.0,0.012021084124518078
3202.0,0.01215504982870197
3201.0,0.01215504982870197
3200.0,0.012110390002254778
3199.0,0.012021084124518078
3198.0,0.011931796607364653
3197.0,0.011887159731648111
3196.0,0.011887159731648111
3195.0,0.011887159731648111
3194.0,0.011887159731648111
3193.0,0.011797899741219142
3192.0,0.011753276624621556
3191.0,0.011708658092512314
3190.0,0.011708658092512314
3189.0,0.011753276624621556
3188.0,0.011797899741219142
3187.0,0.011842527443247208
3186.0,0.011887159731648111
3185.0,0.011887159731648111
3184.0,0.011797899741219142
3183.0,0.011708658092512314
3182.0,0.011619434777991433
3181.0,0.011619434777991433
3180.0,0.011574829993696856
3179.0,0.011530229790124524
3178.0,0.011441043121384498
3177.0,0.011351874764248926
3176.0,0.011351874764248926
3175.0,0.011396456654336085
3174.0,0.011396456654336085
3173.0,0.011396456654336085
3172.0,0.011307297450183107
3171.0,0.011262724711199823
3170.0,0.011262724711199823
3169.0,0.011262724711199823
3168.0,0.011307297450183107
3167.0,0.011441043121384498
3166.0,0.011530229790124524
3165.0,0.011664044143949504
3164.0,0.011708658092512314
3163.0,0.011708658092512314
3162.0,0.011664044143949504
3161.0,0.011574829993696856
3160.0,0.011530229790124524
3159.0,0.011441043121384498
3158.0,0.011396456654336085
3157.0,0.011396456654336085
3156.0,0.011396456654336085
3155.0,0.011396456654336085
3154.0,0.011441043121384498
3153.0,0.011396456654336085
3152.0,0.011351874764248926
3151.0,0.011351874764248926
3150.0,0.011351874764248926
3149.0,0.011351874764248926
3148.0,0.011396456654336085
3147.0,0.011485634166333858
3146.0,0.011530229790124524
3145.0,0.011574829993696856
3144.0,0.011619434777991433
3143.0,0.011664044143949504
3142.0,0.011753276624621556
3141.0,0.011797899741219142
3140.0,0.011797899741219142
3139.0,0.011797899741219142
3138.0,0.011753276624621556
3137.0,0.011797899741219142
3136.0,0.011842527443247208
3135.0,0.0119764380713403
3134.0,0.012110390002254778
3133.0,0.012244383261476699
3132.0,0.012289056869694281
3131.0,0.012289056869694281
3130.0,0.012199714248127602
3129.0,0.01215504982870197
3128.0,0.01215504982870197
3127.0,0.012199714248127602
3126.0,0.012244383261476699
3125.0,0.012289056869694281
3124.0,0.012289056869694281
3123.0,0.012244383261476699
3122.0,0.012199714248127602
3121.0,0.012199714248127602
3120.0,0.012199714248127602
3119.0,0.01215504982870197
3118.0,0.01215504982870197
3117.0,0.01215504982870197
3116.0,0.012199714248127602
3115.0,0.012289056869694281
3114.0,0.012378417874516323
3113.0,0.012512493866907004
3112.0,0.01264661126420652
3111.0,0.012825498912458322
3110.0,0.013004460275618523
3109.0,0.01318349541446362
3108.0,0.013362604389846044
3107.0,0.013452186585275916
3106.0,0.013496984613259544
3105.0,0.013496984613259544
3104.0,0.013496984613259544
3103.0,0.013452186585275916
3102.0,0.013317820220494436
3101.0,0.013138729709955221
3100.0,0.012959713020733288
3099.0,0.012825498912458322
3098.0,0.012736045877764557
3097.0,0.012691326268817527
3096.0,0.012736045877764557
3095.0,0.012825498912458322
3094.0,0.012914970375878188
3093.0,0.013004460275618523
3092.0,0.013049212141483357
3091.0,0.013093968619278806
3090.0,0.013138729709955221
3089.0,0.01322826573375524
3088.0,0.013362604389846044
3087.0,0.013496984613259544
3086.0,0.013631406429727155
3085.0,0.01372104409400876
3084.0,0.01381070026317599
3083.0,0.013900374944870508
3082.0,0.013900374944870508
3081.0,0.013900374944870508
3080.0,0.013900374944870508
3079.0,0.013900374944870508
3078.0,0.013945219230304673
3077.0,0.014079779876432497
3076.0,0.014214382227394795
3075.0,0.014259258949925524
3074.0,0.014259258949925524
3073.0,0.014169510141607944
3072.0,0.014079779876432497
3071.0,0.013990068146738865
3070.0,0.013945219230304673
3069.0,0.013945219230304673
3068.0,0.013990068146738865
3067.0,0.014124642691606404
3066.0,0.014214382227394795
3065.0,0.014214382227394795
3064.0,0.014169510141607944
3063.0,0.014169510141607944
3062.0,0.014169510141607944
3061.0,0.014214382227394795
3060.0,0.014259258949925524
3059.0,0.014349026309051105
3058.0,0.014438812226654996
3057.0,0.0144837121472845
3056.0,0.01452861671041239
3055.0,0.01452861671041239
3054.0,0.0144837121472845
3053.0,0.014393916947563534
3052.0,0.014259258949925524
3051.0,0.01403492169512921
3050.0,0.013765869865004277
3049.0,0.013496984613259544
3048.0,0.01322826573375524
3047.0,0.013049212141483357
3046.0,0.012825498912458322
3045.0,0.012691326268817527
3044.0,0.012557195064198723
3043.0,0.012423105273012602
3042.0,0.012333735073725371
3041.0,0.012244383261476699
3040.0,0.012199714248127602
3039.0,0.01215504982870197
3038.0,0.01215504982870197
3037.0,0.012110390002254778
3036.0,0.012065734767841452
3035.0,0.012021084124518078
3034.0,0.011931796607364653
3033.0,0.011842527443247208
3032.0,0.011753276624621556
3031.0,0.011753276624621556
3030.0,0.011753276624621556
3029.0,0.011842527443247208
3028.0,0.011931796607364653
3027.0,0.012021084124518078
3026.0,0.012110390002254778
3025.0,0.012199714248127602
3024.0,0.012378417874516323
3023.0,0.012557195064198723
3022.0,0.012780770091995297
3021.0,0.012959713020733288
3020.0,0.013138729709955221
3019.0,0.013362604389846044
3018.0,0.013631406429727155
3017.0,0.01385553528947936
3016.0,0.014079779876432497
3015.0,0.014259258949925524
3014.0,0.014438812226654996
3013.0,0.014618439768003144
3012.0,0.014798141635428141
3011.0,0.015022873584506602
3010.0,0.015202742910707112
3009.0,0.01538268676325183
3008.0,0.015562705203923999
3007.0,0.015742798294583915
3006.0,0.01596801972881945
3005.0,0.016193358021584725
3004.0,0.016373712875465518
3003.0,0.016554142658660398
3002.0,0.016689514205884493
3001.0,0.016734647433454652
3000.0,0.01677978535189717
2999.0,0.016824927962187042
2998.0,0.016915227262211507
2997.0,0.017050711425501408
2996.0,0.01727661233145472
2995.0,0.017502630802287644
2994.0,0.017728766960431575
2993.0,0.017864505196230507
2992.0,0.017955020928509757
2991.0,0.01809082990920774
2990.0,0.018271974638383703
2989.0,0.018543833477873584
2988.0,0.018861217359339655
2987.0,0.0192242260373785
2986.0,0.01954210772389997
2985.0,0.019860222254245663
2984.0,0.02022406727031445
2983.0,0.02067930261797568
2982.0,0.021135015652343103
2981.0,0.02159120737696063
2980.0,0.02204787879853809
2979.0,0.022505030926963654
2978.0,0.02296266477531872
2977.0,0.023374947949272418
2976.0,0.023833499868024743
2975.0,0.024292536462819925
2974.0,0.02475205875931885
2973.0,0.02512002699306959
2972.0,0.02544225514642018
2971.0,0.02562649291857677
2970.0,0.025810808881832736
2969.0,0.025949097207122573
2968.0,0.026041313893296225
2967.0,0.026087429580295085
2966.0,0.026041313893296225
2965.0,0.025902996205869
2964.0,0.025764722556973707
2963.0,0.02558042614771394
2962.0,0.025350165561278004
2961.0,0.025074013910237447
2960.0,0.024798037742147727
2959.0,0.024568191490736968
2958.0,0.024292536462819925
2957.0,0.024017056287453542
2956.0,0.023695883447997224
2955.0,0.023329119375188556
2954.0,0.02291687968414724
2953.0,0.02245929405346514
2952.0,0.02200219004126036
2951.0,0.021499930688540836
2950.0,0.021043834782408455
2949.0,0.020633757603838898
2948.0,0.02013307743509718
2947.0,0.019632973815224997
2946.0,0.019133445417920836
2945.0,0.018634490921455527
2944.0,0.018181392829336396
2943.0,0.017864505196230507
2942.0,0.017547848615010242
2941.0,0.01727661233145472
2940.0,0.017005545341335804
2939.0,0.016734647433454652
2938.0,0.01646391839700767
2937.0,0.016238439713835096
2936.0,0.016058141016111804
2935.0,0.015877917138889863
2934.0,0.015832872853011715
2933.0,0.015832872853011715
2932.0,0.015922966097169144
2931.0,0.015922966097169144
2930.0,0.015922966097169144
2929.0,0.015877917138889863
2928.0,0.015877917138889863
2927.0,0.015877917138889863
2926.0,0.015877917138889863
2925.0,0.015922966097169144
2924.0,0.01596801972881945
2923.0,0.016058141016111804
2922.0,0.016148281008528276
2921.0,0.016238439713835096
2920.0,0.01628352608625061
2919.0,0.016418813294209356
2918.0,0.016554142658660398
2917.0,0.016734647433454652
2916.0,0.016960383953898095
2915.0,0.017231422748988034
2914.0,0.017502630802287644
2913.0,0.017774008325325275
2912.0,0.01800028587012159
2911.0,0.018181392829336396
2910.0,0.01831727262871463
2909.0,0.01845319495476394
2908.0,0.018543833477873584
2907.0,0.018498511851753108
2906.0,0.018362575344230914
2905.0,0.01809082990920774
2904.0,0.017728766960431575
2903.0,0.017321806616515723
2902.0,0.016960383953898095
2901.0,0.016644385668211692
2900.0,0.016418813294209356
2899.0,0.016193358021584725
2898.0,0.016058141016111804
2897.0,0.015922966097169144
2896.0,0.015832872853011715
2895.0,0.01578783323856614
2894.0,0.015742798294583915
2893.0,0.015742798294583915
2892.0,0.015742798294583915
2891.0,0.015697768020096703
2890.0,0.015652742414136167
2889.0,0.015562705203923999
2888.0,0.015427684378367834
2887.0,0.015292705517326866
2886.0,0.015157768594724175
2885.0,0.015067833932588037
2884.0,0.015067833932588037
2883.0,0.015067833932588037
2882.0,0.015022873584506602
2881.0,0.014977917890464765
2880.0,0.014888020460646079
2879.0,0.014798141635428141
2878.0,0.014708281407112
2877.0,0.014618439768003144
2876.0,0.01452861671041239
2875.0,0.01452861671041239
2874.0,0.0144837121472845
2873.0,0.014438812226654996
2872.0,0.014393916947563534
2871.0,0.014304140310157809
2870.0,0.014214382227394795
2869.0,0.014169510141607944
2868.0,0.014169510141607944
2867.0,0.014169510141607944
2866.0,0.014169510141607944
2865.0,0.014124642691606404
2864.0,0.014124642691606404
2863.0,0.014169510141607944
2862.0,0.014259258949925524
2861.0,0.014304140310157809
2860.0,0.014304140310157809
2859.0,0.014304140310157809
2858.0,0.014304140310157809
2857.0,0.014259258949925524
2856.0,0.014259258949925524
2855.0,0.014304140310157809
2854.0,0.014349026309051105
2853.0,0.014349026309051105
2852.0,0.014214382227394795
2851.0,0.014079779876432497
2850.0,0.013900374944870508
2849.0,0.013765869865004277
2848.0,0.013676222949234651
2847.0,0.013496984613259544
2846.0,0.013362604389846044
2845.0,0.01318349541446362
2844.0,0.013093968619278806
2843.0,0.012914970375878188
2842.0,0.012780770091995297
2841.0,0.01260190086298274
2840.0,0.012467797270160563
2839.0,0.012423105273012602
2838.0,0.012423105273012602
2837.0,0.012467797270160563
2836.0,0.012512493866907004
2835.0,0.012467797270160563
2834.0,0.012423105273012602
2833.0,0.012378417874516323
2832.0,0.012333735073725371
2831.0,0.012244383261476699
2830.0,0.012199714248127602
2829.0,0.012110390002254778
2828.0,0.012065734767841452
2827.0,0.012065734767841452
2826.0,0.0119764380713403
2825.0,0.011887159731648111
2824.0,0.011797899741219142
2823.0,0.011708658092512314
2822.0,0.011708658092512314
2821.0,0.011708658092512314
2820.0,0.011708658092512314
2819.0,0.011753276624621556
2818.0,0.011753276624621556
2817.0,0.011753276624621556
2816.0,0.011842527443247208
2815.0,0.011931796607364653
2814.0,0.0119764380713403
2813.0,0.012065734767841452
2812.0,0.012110390002254778
2811.0,0.012110390002254778
2810.0,0.012110390002254778
2809.0,0.012110390002254778
2808.0,0.012065734767841452
2807.0,0.012065734767841452
2806.0,0.012021084124518078
2805.0,0.011931796607364653
2804.0,0.011887159731648111
2803.0,0.011842527443247208
2802.0,0.011842527443247208
2801.0,0.011842527443247208
2800.0,0.011842527443247208
2799.0,0.011842527443247208
2798.0,0.011842527443247208
2797.0,0.011842527443247208
2796.0,0.011842527443247208
2795.0,0.011797899741219142
2794.0,0.011753276624621556
2793.0,0.011664044143949504
2792.0,0.011619434777991433
2791.0,0.011574829993696856
2790.0,0.011530229790124524
2789.0,0.011441043121384498
2788.0,0.011262724711199823
2787.0,0.011129033935354915
2786.0,0.011084479487313281
2785.0,0.011129033935354915
2784.0,0.011262724711199823
2783.0,0.011351874764248926
2782.0,0.011351874764248926
2781.0,0.011262724711199823
2780.0,0.01117359295472431
2779.0,0.011084479487313281
2778.0,0.011039929609661936
2777.0,0.011039929609661936
2776.0,0.011039929609661936
2775.0,0.011039929609661936
2774.0,0.010995384301463185
2773.0,0.010950843561779777
2772.0,0.010950843561779777
2771.0,0.010950843561779777
2770.0,0.010995384301463185
2769.0,0.010995384301463185
2768.0,0.011084479487313281
2767.0,0.011129033935354915
2766.0,0.011129033935354915
2765.0,0.011084479487313281
2764.0,0.010995384301463185
2763.0,0.010950843561779777
2762.0,0.010906307389674463
2761.0,0.01086177578421088
2760.0,0.010906307389674463
2759.0,0.010906307389674463
2758.0,0.010950843561779777
2757.0,0.010906307389674463
2756.0,0.010906307389674463
2755.0,0.010906307389674463
2754.0,0.010906307389674463
2753.0,0.010906307389674463
2752.0,0.010906307389674463
2751.0,0.01086177578421088
2750.0,0.01077272626946324
2749.0,0.010728208358306901
2748.0,0.010683695010048622
2747.0,0.010683695010048622
2746.0,0.010639186223752484
2745.0,0.010639186223752484
2744.0,0.010594681998483901
2743.0,0.010550182333308289
2742.0,0.010594681998483901
2741.0,0.010594681998483901
2740.0,0.010594681998483901
2739.0,0.010594681998483901
2738.0,0.010639186223752484
2737.0,0.010639186223752484
2736.0,0.010639186223752484
2735.0,0.010639186223752484
2734.0,0.010594681998483901
2733.0,0.010550182333308289
2732.0,0.010505687227290839
2731.0,0.01046119667949763
2730.0,0.010416710688994968
2729.0,0.01037222925484893
2728.0,0.010416710688994968
2727.0,0.010505687227290839
2726.0,0.010550182333308289
2725.0,0.01046119667949763
2724.0,0.010416710688994968
2723.0,0.01037222925484893
2722.0,0.010416710688994968
2721.0,0.01046119667949763
2720.0,0.010416710688994968
2719.0,0.01037222925484893
2718.0,0.010283280051895272
2717.0,0.01023881228122181
2716.0,0.01023881228122181
2715.0,0.010283280051895272
2714.0,0.01037222925484893
2713.0,0.010416710688994968
2712.0,0.010416710688994968
2711.0,0.010416710688994968
2710.0,0.01037222925484893
2709.0,0.01037222925484893
2708.0,0.01037222925484893
2707.0,0.01037222925484893
2706.0,0.010327752376126709
2705.0,0.010283280051895272
2704.0,0.01023881228122181
2703.0,0.010194349063173958
2702.0,0.010194349063173958
2701.0,0.010194349063173958
2700.0,0.010149890396819572
2699.0,0.010105436281226954
2698.0,0.010060986715464404
2697.0,0.01001654169860089
2696.0,0.009972101229705377
2695.0,0.01001654169860089
2694.0,0.010060986715464404
2693.0,0.010105436281226954
2692.0,0.010149890396819572
2691.0,0.010149890396819572
2690.0,0.010194349063173958
2689.0,0.01023881228122181
2688.0,0.010283280051895272
2687.0,0.01037222925484893
2686.0,0.01037222925484893
2685.0,0.010283280051895272
2684.0,0.01023881228122181
2683.0,0.010149890396819572
2682.0,0.010149890396819572
2681.0,0.010194349063173958
2680.0,0.010149890396819572
2679.0,0.010149890396819572
2678.0,0.010105436281226954
2677.0,0.010060986715464404
2676.0,0.01001654169860089
2675.0,0.009972101229705377
2674.0,0.009927665307847056
2673.0,0.009927665307847056
2672.0,0.009883233932095559
2671.0,0.009794384815193347
2670.0,0.00974996707218323
2669.0,0.00974996707218323
2668.0,0.009794384815193347
2667.0,0.009883233932095559
2666.0,0.009927665307847056
2665.0,0.009972101229705377
2664.0,0.01001654169860089
2663.0,0.01001654169860089
2662.0,0.01001654169860089
2661.0,0.01001654169860089
2660.0,0.01001654169860089
2659.0,0.01001654169860089
2658.0,0.01001654169860089
2657.0,0.009972101229705377
2656.0,0.009883233932095559
2655.0,0.009794384815193347
2654.0,0.00966114521239847
2653.0,0.009616741093766423
2652.0,0.009572341514736404
2651.0,0.009616741093766423
2650.0,0.009705553871561357
2649.0,0.009794384815193347
2648.0,0.009838807101520963
2647.0,0.009883233932095559
2646.0,0.009883233932095559
2645.0,0.009883233932095559
2644.0,0.009883233932095559
2643.0,0.009927665307847056
2642.0,0.009883233932095559
2641.0,0.009794384815193347
2640.0,0.009705553871561357
2639.0,0.009616741093766423
2638.0,0.009572341514736404
2637.0,0.009616741093766423
2636.0,0.00966114521239847
2635.0,0.00974996707218323
2634.0,0.009794384815193347
2633.0,0.009838807101520963
2632.0,0.009883233932095559
2631.0,0.009972101229705377
2630.0,0.01001654169860089
2629.0,0.01001654169860089
2628.0,0.009972101229705377
2627.0,0.009972101229705377
2626.0,0.009972101229705377
2625.0,0.009927665307847056
2624.0,0.009838807101520963
2623.0,0.009794384815193347
2622.0,0.00974996707218323
2621.0,0.00974996707218323
2620.0,0.009838807101520963
2619.0,0.009883233932095559
2618.0,0.009883233932095559
2617.0,0.009838807101520963
2616.0,0.009838807101520963
2615.0,0.009838807101520963
2614.0,0.009838807101520963
2613.0,0.009883233932095559
2612.0,0.009927665307847056
2611.0,0.009927665307847056
2610.0,0.009927665307847056
2609.0,0.009927665307847056
2608.0,0.009927665307847056
2607.0,0.009927665307847056
2606.0,0.009972101229705377
2605.0,0.01001654169860089
2604.0,0.010060986715464404
2603.0,0.010105436281226954
2602.0,0.010060986715464404
2601.0,0.009972101229705377
2600.0,0.009927665307847056
2599.0,0.009927665307847056
2598.0,0.009972101229705377
2597.0,0.010060986715464404
2596.0,0.010105436281226954
2595.0,0.010105436281226954
2594.0,0.01001654169860089
2593.0,0.009883233932095559
2592.0,0.009794384815193347
2591.0,0.009794384815193347
2590.0,0.009838807101520963
2589.0,0.009883233932095559
2588.0,0.009972101229705377
2587.0,0.01001654169860089
2586.0,0.010105436281226954
2585.0,0.010149890396819572
2584.0,0.01023881228122181
2583.0,0.010327752376126709
2582.0,0.010327752376126709
2581.0,0.010283280051895272
2580.0,0.01023881228122181
2579.0,0.01023881228122181
2578.0,0.01023881228122181
2577.0,0.010194349063173958
2576.0,0.010149890396819572
2575.0,0.010105436281226954
2574.0,0.010105436281226954
2573.0,0.010105436281226954
2572.0,0.010105436281226954
2571.0,0.010060986715464404
2570.0,0.01001654169860089
2569.0,0.01001654169860089
2568.0,0.010060986715464404
2567.0,0.010060986715464404
2566.0,0.01001654169860089
2565.0,0.009972101229705377
2564.0,0.009972101229705377
2563.0,0.01001654169860089
2562.0,0.01001654169860089
2561.0,0.01001654169860089
2560.0,0.009972101229705377
2559.0,0.009927665307847056
2558.0,0.009883233932095559
2557.0,0.009883233932095559
2556.0,0.009883233932095559
2555.0,0.009972101229705377
2554.0,0.01001654169860089
2553.0,0.010105436281226954
2552.0,0.010149890396819572
2551.0,0.010194349063173958
2550.0,0.010149890396819572
2549.0,0.010060986715464404
2548.0,0.01001654169860089
2547.0,0.009972101229705377
2546.0,0.009927665307847056
2545.0,0.009927665307847056
2544.0,0.009883233932095559
2543.0,0.009883233932095559
2542.0,0.009883233932095559
2541.0,0.009972101229705377
2540.0,0.010060986715464404
2539.0,0.010060986715464404
2538.0,0.010060986715464404
2537.0,0.01001654169860089
2536.0,0.01001654169860089
2535.0,0.01001654169860089
2534.0,0.01001654169860089
2533.0,0.01001654169860089
2532.0,0.009927665307847056
2531.0,0.009883233932095559
2530.0,0.009838807101520963
2529.0,0.009838807101520963
2528.0,0.009838807101520963
2527.0,0.009794384815193347
2526.0,0.00974996707218323
2525.0,0.009705553871561357
2524.0,0.009705553871561357
2523.0,0.00966114521239847
2522.0,0.00966114521239847
2521.0,0.00966114521239847
2520.0,0.009705553871561357
2519.0,0.00974996707218323
2518.0,0.009794384815193347
2517.0,0.00974996707218323
2516.0,0.009705553871561357
2515.0,0.00974996707218323
2514.0,0.009794384815193347
2513.0,0.009838807101520963
2512.0,0.009883233932095559
2511.0,0.009794384815193347
2510.0,0.009705553871561357
2509.0,0.009527946474380489
2508.0,0.00939478857608056
2507.0,0.009306039320248427
2506.0,0.009217308196862062
2505.0,0.009172949432521227
2504.0,0.009217308196862062
2503.0,0.009261671492462709
2502.0,0.009261671492462709
2501.0,0.009261671492462709
2500.0,0.009217308196862062
2499.0,0.009217308196862062
2498.0,0.009172949432521227
2497.0,0.009172949432521227
2496.0,0.00908424549391551
2495.0,0.00908424549391551
2494.0,0.009039900317800775
2493.0,0.00908424549391551
2492.0,0.00908424549391551
2491.0,0.009039900317800775
2490.0,0.008995559669244813
2489.0,0.008906891951112605
2488.0,0.008862564879688284
2487.0,0.008862564879688284
2486.0,0.008862564879688284
2485.0,0.008862564879688284
2484.0,0.008862564879688284
2483.0,0.008862564879688284
2482.0,0.008862564879688284
2481.0,0.008862564879688284
2480.0,0.008818242332126802
2479.0,0.008773924307505121
2478.0,0.008773924307505121
2477.0,0.008818242332126802
2476.0,0.008862564879688284
2475.0,0.008862564879688284
2474.0,0.008862564879688284
2473.0,0.008773924307505121
2472.0,0.0087296108049002
2471.0,0.008685301823389224
2470.0,0.008596697419959609
2469.0,0.008552401996197112
2468.0,0.00850811108984062
2467.0,0.00850811108984062
2466.0,0.008463824699968647
2465.0,0.008463824699968647
2464.0,0.00850811108984062
2463.0,0.00850811108984062
2462.0,0.008552401996197112
2461.0,0.008596697419959609
2460.0,0.008596697419959609
2459.0,0.008552401996197112
2458.0,0.008463824699968647
2457.0,0.008375265465994541
2456.0,0.008375265465994541
2455.0,0.008375265465994541
2454.0,0.008375265465994541
2453.0,0.008375265465994541
2452.0,0.008375265465994541
2451.0,0.008375265465994541
2450.0,0.008375265465994541
2449.0,0.008375265465994541
2448.0,0.008375265465994541
2447.0,0.008375265465994541
2446.0,0.008286724286910463
2445.0,0.008198201155356077
2444.0,0.008198201155356077
2443.0,0.008242460465651913
2442.0,0.008286724286910463
2441.0,0.008242460465651913
2440.0,0.008242460465651913
2439.0,0.008286724286910463
2438.0,0.008330992620051436
2437.0,0.008375265465994541
2436.0,0.008419542825660153
2435.0,0.008463824699968647
2434.0,0.008463824699968647
2433.0,0.008419542825660153
2432.0,0.008419542825660153
2431.0,0.008375265465994541
2430.0,0.008375265465994541
2429.0,0.008330992620051436
2428.0,0.008375265465994541
2427.0,0.008419542825660153
2426.0,0.00850811108984062
2425.0,0.008552401996197112
2424.0,0.008552401996197112
2423.0,0.008552401996197112
2422.0,0.008552401996197112
2421.0,0.008640997362049818
2420.0,0.0087296108049002
2419.0,0.008818242332126802
2418.0,0.008818242332126802
2417.0,0.008773924307505121
2416.0,0.0087296108049002
2415.0,0.0087296108049002
2414.0,0.0087296108049002
2413.0,0.008685301823389224
2412.0,0.008685301823389224
2411.0,0.008640997362049818
2410.0,0.008596697419959609
2409.0,0.008552401996197112
2408.0,0.008552401996197112
2407.0,0.008596697419959609
2406.0,0.008685301823389224
2405.0,0.0087296108049002
2404.0,0.008773924307505121
2403.0,0.008862564879688284
2402.0,0.008951223547323472
2401.0,0.009039900317800775
2400.0,0.00908424549391551
2399.0,0.009039900317800775
2398.0,0.008951223547323472
2397.0,0.008906891951112605
2396.0,0.008862564879688284
2395.0,0.008862564879688284
2394.0,0.008906891951112605
2393.0,0.008951223547323472
2392.0,0.009039900317800775
2391.0,0.00908424549391551
2390.0,0.00908424549391551
2389.0,0.009039900317800775
2388.0,0.008995559669244813
2387.0,0.008995559669244813
2386.0,0.00908424549391551
2385.0,0.009128595198514056
2384.0,0.009217308196862062
2383.0,0.009306039320248427
2382.0,0.00939478857608056
2381.0,0.009439170005980158
2380.0,0.009439170005980158
2379.0,0.009350411681145587
2378.0,0.009261671492462709
2377.0,0.009128595198514056
2376.0,0.009217308196862062
2375.0,0.009527946474380489
2374.0,0.009927665307847056
2373.0,0.010149890396819572
2372.0,0.010060986715464404
2371.0,0.009705553871561357
2370.0,0.00939478857608056
2369.0,0.009261671492462709
2368.0,0.009261671492462709
2367.0,0.00939478857608056
2366.0,0.009439170005980158
2365.0,0.009261671492462709
2364.0,0.009172949432521227
2363.0,0.009527946474380489
2362.0,0.010283280051895272
2361.0,0.011039929609661936
2360.0,0.011441043121384498
2359.0,0.011351874764248926
2358.0,0.010639186223752484
2357.0,0.00939478857608056
2356.0,0.008109696063975047
2355.0,0.007225635744644521
2354.0,0.006916639301937977
2353.0,0.00696076819309055
2352.0,0.007093181776687496
2351.0,0.007358130121602358
2350.0,0.007932739972333236
2349.0,0.008685301823389224
2348.0,0.009217308196862062
2347.0,0.009306039320248427
2346.0,0.00908424549391551
2345.0,0.008818242332126802
2344.0,0.008951223547323472
2343.0,0.009483555971770974
2342.0,0.009705553871561357
2341.0,0.009261671492462709
2340.0,0.008552401996197112
2339.0,0.008198201155356077
2338.0,0.008065450281052211
2337.0,0.007932739972333236
2336.0,0.007800070204414977
2335.0,0.007844288957383316
2334.0,0.008021209005416363
2333.0,0.008242460465651913
2332.0,0.008552401996197112
2331.0,0.008818242332126802
2330.0,0.008906891951112605
2329.0,0.008640997362049818
2328.0,0.008242460465651913
2327.0,0.007976972236149349
2326.0,0.007844288957383316
2325.0,0.007667440952535687
2324.0,0.0074464821678643656
2323.0,0.007313960837872058
2322.0,0.007269796045857202
2321.0,0.007358130121602358
2320.0,0.007490664932224611
2319.0,0.00762324020119709
2318.0,0.007755855953228474
2317.0,0.007800070204414977
2316.0,0.007888512213050314
2315.0,0.007976972236149349
2314.0,0.008109696063975047
2313.0,0.008109696063975047
2312.0,0.008021209005416363
2311.0,0.007844288957383316
2310.0,0.007667440952535687
2309.0,0.007534852191956709
2308.0,0.0074464821678643656
2307.0,0.0074464821678643656
2306.0,0.007402303897961815
2305.0,0.007402303897961815
2304.0,0.007402303897961815
2303.0,0.007490664932224611
2302.0,0.0075790439479759275
2301.0,0.007755855953228474
2300.0,0.007888512213050314
2299.0,0.008021209005416363
2298.0,0.008065450281052211
2297.0,0.008065450281052211
2296.0,0.008021209005416363
2295.0,0.008021209005416363
2294.0,0.008021209005416363
2293.0,0.008065450281052211
2292.0,0.008109696063975047
2291.0,0.008153946355103248
2290.0,0.008109696063975047
2289.0,0.008021209005416363
2288.0,0.007932739972333236
2287.0,0.007888512213050314
2286.0,0.007844288957383316
2285.0,0.007888512213050314
2284.0,0.007888512213050314
2283.0,0.007888512213050314
2282.0,0.007888512213050314
2281.0,0.007844288957383316
2280.0,0.007755855953228474
2279.0,0.007711646202907652
2278.0,0.007667440952535687
2277.0,0.007667440952535687
2276.0,0.007711646202907652
2275.0,0.007755855953228474
2274.0,0.007800070204414977
2273.0,0.007711646202907652
2272.0,0.007667440952535687
2271.0,0.0075790439479759275
2270.0,0.007534852191956709
2269.0,0.007534852191956709
2268.0,0.0075790439479759275
2267.0,0.00762324020119709
2266.0,0.007667440952535687
2265.0,0.007711646202907652
2264.0,0.007667440952535687
2263.0,0.0075790439479759275
2262.0,0.007534852191956709
2261.0,0.007534852191956709
2260.0,0.007534852191956709
2259.0,0.0075790439479759275
2258.0,0.00762324020119709
2257.0,0.00762324020119709
2256.0,0.0075790439479759275
2255.0,0.0075790439479759275
2254.0,0.007534852191956709
2253.0,0.007490664932224611
2252.0,0.007402303897961815
2251.0,0.007313960837872058
2250.0,0.007269796045857202
2249.0,0.007225635744644521
2248.0,0.007225635744644521
2247.0,0.007269796045857202
2246.0,0.007225635744644521
2245.0,0.007225635744644521
2244.0,0.007225635744644521
2243.0,0.007181479933320523
2242.0,0.007137328610972382
2241.0,0.007049039429553483
2240.0,0.00696076819309055
2239.0,0.006916639301937977
2238.0,0.006916639301937977
2237.0,0.00696076819309055
2236.0,0.00696076819309055
2235.0,0.007004901568658406
2234.0,0.007004901568658406
2233.0,0.00696076819309055
2232.0,0.00696076819309055
2231.0,0.006916639301937977
2230.0,0.006828394969235152
2229.0,0.006740168563263094
2228.0,0.006740168563263094
2227.0,0.006740168563263094
2226.0,0.006784279525863024
2225.0,0.006740168563263094
2224.0,0.006651960076740071
2223.0,0.006607862550997545
2222.0,0.00656376950238835
2221.0,0.006519680930003435
2220.0,0.006475596832934416
2219.0,0.006475596832934416
2218.0,0.006431517210272464
2217.0,0.006431517210272464
2216.0,0.006387442061109638
2215.0,0.006387442061109638
2214.0,0.006387442061109638
2213.0,0.006343371384537999
2212.0,0.006343371384537999
2211.0,0.006387442061109638
2210.0,0.006387442061109638
2209.0,0.006387442061109638
2208.0,0.006299305179649828
2207.0,0.00621118618129457
2206.0,0.00612308505878878
2205.0,0.006079041198713275
2204.0,0.006079041198713275
2203.0,0.006167133386013823
2202.0,0.00621118618129457
2201.0,0.00621118618129457
2200.0,0.006167133386013823
2199.0,0.006035001804881146
2198.0,0.00590291041179003
2197.0,0.005814871797682919
2196.0,0.005814871797682919
2195.0,0.005814871797682919
2194.0,0.005858888873877532
2193.0,0.00590291041179003
2192.0,0.00590291041179003
2191.0,0.00590291041179003
2190.0,0.005858888873877532
2189.0,0.00577085918230158
2188.0,0.005726851026829571
2187.0,0.005726851026829571
2186.0,0.005726851026829571
2185.0,0.005726851026829571
2184.0,0.005814871797682919
2183.0,0.005858888873877532
2182.0,0.005858888873877532
2181.0,0.005814871797682919
2180.0,0.005682847330363394
2179.0,0.005594853310833647
2178.0,0.005594853310833647
2177.0,0.005638848091999105
2176.0,0.005638848091999105
2175.0,0.005638848091999105
2174.0,0.005638848091999105
2173.0,0.005638848091999105
2172.0,0.005682847330363394
2171.0,0.005726851026829571
2170.0,0.005726851026829571
2169.0,0.005726851026829571
2168.0,0.005726851026829571
2167.0,0.00577085918230158
2166.0,0.00577085918230158
2165.0,0.00577085918230158
2164.0,0.005814871797682919
2163.0,0.005814871797682919
2162.0,0.005814871797682919
2161.0,0.005726851026829571
2160.0,0.005682847330363394
2159.0,0.005638848091999105
2158.0,0.005594853310833647
2157.0,0.005638848091999105
2156.0,0.005726851026829571
2155.0,0.00577085918230158
2154.0,0.00577085918230158
2153.0,0.00577085918230158
2152.0,0.00577085918230158
2151.0,0.005858888873877532
2150.0,0.005946936412324799
2149.0,0.006035001804881146
2148.0,0.006079041198713275
2147.0,0.00612308505878878
2146.0,0.00612308505878878
2145.0,0.006079041198713275
2144.0,0.006079041198713275
2143.0,0.006035001804881146
2142.0,0.006035001804881146
2141.0,0.005990966876386672
2140.0,0.006035001804881146
2139.0,0.006079041198713275
2138.0,0.00612308505878878
2137.0,0.00612308505878878
2136.0,0.00612308505878878
2135.0,0.00621118618129457
2134.0,0.006299305179649828
2133.0,0.006387442061109638
2132.0,0.006431517210272464
2131.0,0.006387442061109638
2130.0,0.006299305179649828
2129.0,0.006167133386013823
2128.0,0.006079041198713275
2127.0,0.006035001804881146
2126.0,0.006035001804881146
2125.0,0.00612308505878878
2124.0,0.006167133386013823
2123.0,0.00625524344553785
2122.0,0.006299305179649828
2121.0,0.006343371384537999
2120.0,0.006343371384537999
2119.0,0.006299305179649828
2118.0,0.00625524344553785
2117.0,0.00621118618129457
2116.0,0.00625524344553785
2115.0,0.00625524344553785
2114.0,0.006299305179649828
2113.0,0.006343371384537999
2112.0,0.006387442061109638
2111.0,0.006431517210272464
2110.0,0.006431517210272464
2109.0,0.006387442061109638
2108.0,0.006387442061109638
2107.0,0.006343371384537999
2106.0,0.006343371384537999
2105.0,0.006343371384537999
2104.0,0.006343371384537999
2103.0,0.006343371384537999
2102.0,0.006343371384537999
2101.0,0.006299305179649828
2100.0,0.00621118618129457
2099.0,0.00621118618129457
2098.0,0.00621118618129457
2097.0,0.006167133386013823
2096.0,0.00612308505878878
2095.0,0.006079041198713275
2094.0,0.006079041198713275
2093.0,0.006079041198713275
2092.0,0.006035001804881146
2091.0,0.005990966876386672
2090.0,0.005858888873877532
2089.0,0.005682847330363394
2088.0,0.005638848091999105
2087.0,0.005594853310833647
2086.0,0.005638848091999105
2085.0,0.005682847330363394
2084.0,0.005726851026829571
2083.0,0.005726851026829571
2082.0,0.005682847330363394
2081.0,0.005594853310833647
2080.0,0.005462895701502157
2079.0,0.005330978174470591
2078.0,0.005243055412371911
2077.0,0.005155150446602086
2076.0,0.005155150446602086
2075.0,0.005155150446602086
2074.0,0.005155150446602086
2073.0,0.005155150446602086
2072.0,0.005111204635089406
2071.0,0.005067263269958211
2070.0,0.005023326350308999
2069.0,0.004979393875242044
2068.0,0.004935465843858511
2067.0,0.004935465843858511
2066.0,0.00489154225525934
2065.0,0.004759798137184523
2064.0,0.004628093971837721
2063.0,0.0044964297349936455
2062.0,0.004452550524862486
2061.0,0.004452550524862486
2060.0,0.004408675747646695
2059.0,0.0043648054024501
2058.0,0.004277078004534696
2057.0,0.004189368323957332
2056.0,0.004101676353562844
2055.0,0.00401400208620073
2054.0,0.003970171588923321
2053.0,0.0038825238627120395
2052.0,0.0038825238627120395
2051.0,0.0038825238627120395
2050.0,0.0038825238627120395
2049.0,0.0038387066319929275
2048.0,0.003794893821675638
2047.0,0.0037510854308679953
2046.0,0.003707281458678491
2045.0,0.003707281458678491
2044.0,0.0036634819042162814
2043.0,0.0036634819042162814
2042.0,0.003619686766589858
2041.0,0.0035758960449088217
2040.0,0.0035321097382827737
2039.0,0.0034445503666347133
2038.0,0.0034007772998332353
2037.0,0.0033132443998284966
2036.0,0.0032694845648473247
2035.0,0.0032694845648473247
2034.0,0.0032694845648473247
2033.0,0.0032257291386954545
2032.0,0.0032257291386954545
2031.0,0.0032257291386954545
2030.0,0.0032257291386954545
2029.0,0.0031819781204844855
2028.0,0.0031819781204844855
2027.0,0.0031819781204844855
2026.0,0.0031819781204844855
2025.0,0.0032257291386954545
2024.0,0.0033132443998284966
2023.0,0.0033570086445275926
2022.0,0.0034007772998332353
2021.0,0.0033570086445275926
2020.0,0.0033570086445275926
2019.0,0.0033570086445275926
2018.0,0.0033570086445275926
2017.0,0.0033132443998284966
2016.0,0.0032257291386954545
2015.0,0.0032257291386954545
2014.0,0.0031819781204844855
2013.0,0.0031382315093266833
2012.0,0.003050751504618754
2011.0,0.0030070181092942683
2010.0,0.003050751504618754
2009.0,0.0030944893043338695
2008.0,0.0031819781204844855
2007.0,0.0032257291386954545
2006.0,0.0032257291386954545
2005.0,0.0032257291386954545
2004.0,0.0033570086445275926
2003.0,0.003488327845821315
2002.0,0.0036634819042162814
2001.0,0.0037510854308679953
2000.0,0.003794893821675638
1999.0,0.0037510854308679953
1998.0,0.003707281458678491
1997.0,0.0036634819042162814
1996.0,0.0036634819042162814
1995.0,0.003707281458678491
1994.0,0.003707281458678491
1993.0,0.0036634819042162814
1992.0,0.0035758960449088217
1991.0,0.0035321097382827737
1990.0,0.0035758960449088217
1989.0,0.0036634819042162814
1988.0,0.0037510854308679953
1987.0,0.0038387066319929275
1986.0,0.0038825238627120395
1985.0,0.003926345514724705
1984.0,0.00401400208620073
1983.0,0.0040578370074493275
1982.0,0.0040578370074493275
1981.0,0.00401400208620073
1980.0,0.00401400208620073
1979.0,0.0040578370074493275
1978.0,0.004145520125434121
1977.0,0.004277078004534696
1976.0,0.0043648054024501
1975.0,0.004452550524862486
1974.0,0.0044964297349936455
1973.0,0.0044964297349936455
1972.0,0.0044964297349936455
1971.0,0.00458420145758498
1970.0,0.004628093971837721
1969.0,0.004715892310740433
1968.0,0.004759798137184523
1967.0,0.00484762310854614
1966.0,0.004979393875242044
1965.0,0.005111204635089406
1964.0,0.0052870145684298375
1963.0,0.005506877116487674
1962.0,0.005638848091999105
1961.0,0.00577085918230158
1960.0,0.005858888873877532
1959.0,0.005946936412324799
1958.0,0.006079041198713275
1957.0,0.006167133386013823
1956.0,0.006299305179649828
1955.0,0.006387442061109638
1954.0,0.006387442061109638
1953.0,0.006299305179649828
1952.0,0.006167133386013823
1951.0,0.006035001804881146
1950.0,0.005946936412324799
1949.0,0.00577085918230158
1948.0,0.005638848091999105
1947.0,0.005550862985963967
1946.0,0.00541891874010525
1945.0,0.005243055412371911
1944.0,0.005111204635089406
1943.0,0.004935465843858511
1942.0,0.004759798137184523
1941.0,0.004540313378935901
1940.0,0.004408675747646695
1939.0,0.004277078004534696
1938.0,0.004101676353562844
1937.0,0.0038387066319929275
1936.0,0.003619686766589858
1935.0,0.0034445503666347133
1934.0,0.0033132443998284966
1933.0,0.0031382315093266833
1932.0,0.0029195645282691363
1931.0,0.0027884171674950053
1930.0,0.0026573093983774942
1929.0,0.0025262411970197185
1928.0,0.002395212539545666
1927.0,0.0023078820582733695
1926.0,0.0022642234021015284
1925.0,0.0021769192542746563
1924.0,0.0020459959305969555
1923.0,0.0018714928717336043
1922.0,0.0016534626036355249
1921.0,0.0015662811355310335
1920.0,0.0015226969634936083
1919.0,0.0015226969634936083
1918.0,0.001348404001626502
1917.0,0.0011306361176557367
1916.0,0.0010000277816797354
1915.0,0.0009565003968372565
1914.0,0.0009565003968372565
1913.0,0.0009129773741116676
1912.0,0.000869458712629001
1911.0,0.0007824344698965646
1910.0,0.0006954276616513155
1909.0,0.000521466320689834
1908.0,0.0003475746339209884
1907.0,0.00021720154586435392
1906.0,0.00017375254558760211
1905.0,0.0001303078917322953
1904.0,8.686758342868472e-05
1903.0,8.686758342868472e-05
1902.0,4.343161980746579e-05
1901.0,-4.3427276862573194e-05
1900.0,-0.00013026880522692963
1899.0,-0.00013026880522692963
1898.0,-0.00017368305846510168
1897.0,-0.00021709297223004853
1896.0,-0.0003472966853634851
1895.0,-0.00043407747931878404
1894.0,-0.0005208409361854294
1893.0,-0.0005642161653756084
1892.0,-0.0005642161653756084
1891.0,-0.0006075870628903246
1890.0,-0.0006943158663546001
1889.0,-0.0009110621312231615
1888.0,-0.001041057986093552
1887.0,-0.001041057986093552
1886.0,-0.0009977303577937136
1885.0,-0.0009977303577937136
1884.0,-0.0010843812922201046
1883.0,-0.0011277002770349043
1882.0,-0.0011277002770349043
1881.0,-0.0011277002770349043
1880.0,-0.0011710149414008164
1879.0,-0.0011710149414008164
1878.0,-0.00121432528617893
1877.0,-0.0013009330204178937
1876.0,-0.0013875234866409514
1875.0,-0.0014308122463981832
1874.0,-0.001474096691732818
1873.0,-0.0015173768235041685
1872.0,-0.0015606526425728795
1871.0,-0.0015606526425728795
1870.0,-0.0016471913460383014
1869.0,-0.0018202170383281313
1868.0,-0.0019931738235303698
1867.0,-0.0020796263931210923
1866.0,-0.0019931738235303698
1865.0,-0.0018634626925240205
1864.0,-0.001733712809000476
1863.0,-0.0016471913460383014
1862.0,-0.0016039241497978196
1861.0,-0.0016039241497978196
1860.0,-0.0016039241497978196
1859.0,-0.0016039241497978196
1858.0,-0.0015606526425728795
1857.0,-0.0015173768235041685
1856.0,-0.001474096691732818
1855.0,-0.0013875234866409514
1854.0,-0.0013009330204178937
1853.0,-0.001257631312230778
1852.0,-0.0011710149414008164
1851.0,-0.001041057986093552
1850.0,-0.0009110621312231615
1849.0,-0.0008677215312267172
1848.0,-0.0009110621312231615
1847.0,-0.0008677215312267172
1846.0,-0.0007376737740329986
1845.0,-0.0006509536295951079
1844.0,-0.0007376737740329986
1843.0,-0.0008243766056055257
1842.0,-0.0007376737740329986
1841.0,-0.00043407747931878404
1840.0,-8.685021164911433e-05
1839.0,0.00017375254558760211
1838.0,0.00030411258916074324
1837.0,0.0003910410285830057
1836.0,0.00043451177401765406
1835.0,0.000521466320689834
1834.0,0.0006084382809090627
1833.0,0.0006954276616513155
1832.0,0.000869458712629001
1831.0,0.0010435595295137379
1830.0,0.0011306361176557367
1829.0,0.0010870956412141197
1828.0,0.0010870956412141197
1827.0,0.0012177301682640973
1826.0,0.001304841688344327
1825.0,0.0012612837441823288
1824.0,0.0011306361176557367
1823.0,0.0011741809597138886
1822.0,0.0013919706849057079
1821.0,0.0015226969634936083
1820.0,0.0015662811355310335
1819.0,0.0015662811355310335
1818.0,0.0014355417390583547
1817.0,0.001304841688344327
1816.0,0.0011741809597138886
1815.0,0.0011741809597138886
1814.0,0.0012612837441823288
1813.0,0.0012612837441823288
1812.0,0.0012177301682640973
1811.0,0.0011741809597138886
1810.0,0.0010870956412141197
1809.0,0.0009129773741116676
1808.0,0.0008259444115150671
1807.0,0.000869458712629001
1806.0,0.0009129773741116676
1805.0,0.0009565003968372565
1804.0,0.000869458712629001
1803.0,0.0007389288868995258
1802.0,0.000521466320689834
1801.0,0.00030411258916074324
1800.0,0.00021720154586435392
1799.0,0.00030411258916074324
1798.0,0.00043451177401765406
1797.0,0.00043451177401765406
1796.0,0.0003910410285830057
1795.0,0.00043451177401765406
1794.0,0.000521466320689834
1793.0,0.0003910410285830057
1792.0,0.0001303078917322953
1791.0,-4.3427276862573194e-05
1790.0,-8.685021164911433e-05
1789.0,4.343161980746579e-05
1788.0,0.00021720154586435392
1787.0,0.00043451177401765406
1786.0,0.000521466320689834
1785.0,0.0003910410285830057
1784.0,0.00026065489343207737
1783.0,0.00026065489343207737
1782.0,0.0003910410285830057
1781.0,0.0003475746339209884
1780.0,0.0003475746339209884
1779.0,0.00043451177401765406
1778.0,0.0006084382809090627
1777.0,0.0007389288868995258
1776.0,0.0007389288868995258
1775.0,0.000869458712629001
1774.0,0.0010000277816797354
1773.0,0.0009565003968372565
1772.0,0.0009129773741116676
1771.0,0.0010435595295137379
1770.0,0.0012177301682640973
1769.0,0.001348404001626502
1768.0,0.0014355417390583547
1767.0,0.0016970599014589638
1766.0,0.002089632653256679
1765.0,0.002613615602686581
1764.0,0.0031382315093266833
1763.0,0.003794893821675638
1762.0,0.004408675747646695
1761.0,0.004715892310740433
1760.0,0.005111204635089406
1759.0,0.00590291041179003
1758.0,0.006916639301937977
1757.0,0.007888512213050314
1756.0,0.008862564879688284
1755.0,0.01001654169860089
1754.0,0.011351874764248926
1753.0,0.012736045877764557
1752.0,0.014618439768003144
1751.0,0.017457417697056554
1750.0,0.021135015652343103
1749.0,0.025258095499050004
1748.0,0.029932203450862893
1747.0,0.03508070571335731
1746.0,0.04043395336207234
1745.0,0.04633693625290869
1744.0,0.05325306496641513
1743.0,0.06093025007657582
1742.0,0.06905096883247697
1741.0,0.07836553894629472
1740.0,0.08974922769985194
1739.0,0.10116516193172598
1738.0,0.10946720807225518
1737.0,0.114865033936566
1736.0,0.12113366304327466
1735.0,0.13436311230037123
1734.0,0.1548399223480541
1733.0,0.17159792150840691
1732.0,0.18236853280948462
1731.0,0.19300648631789286
1730.0,0.20606999322731534
1729.0,0.22011503680735567
1728.0,0.23314118897858238
1727.0,0.24542234395526963
1726.0,0.2581396059347365
1725.0,0.2723774220308628
1724.0,0.28853021812567214
1723.0,0.3046058917088901
1722.0,0.31740370853944677
1721.0,0.325414397697086
1720.0,0.33198702835816785
1719.0,0.3451499094386059
1718.0,0.3700809644964582
1717.0,0.39555793373927695
1716.0,0.4079343295677529
1715.0,0.4102737437457631
1714.0,0.40660315769979327
1713.0,0.39599006758776967
1712.0,0.3795516152882912
1711.0,0.3600157519584115
1710.0,0.339608901597533
1709.0,0.3185778442789915
1708.0,0.2967946293045136
1707.0,0.2744150277293056
1706.0,0.25282132863983553
1705.0,0.23373590934800448
1704.0,0.21788585252092885
1703.0,0.20384212309308558
1702.0,0.19003647828598602
1701.0,0.17606954487443605
1700.0,0.1637391971415132
1699.0,0.15434394001645568
1698.0,0.1466060225493342
1697.0,0.13936258322624528
1696.0,0.132179091954427
1695.0,0.12575017722159698
1694.0,0.12056003400478299
1693.0,0.1163953390777075
1692.0,0.11249522576462212
1691.0,0.10846254232743546
1690.0,0.10479852522110678
1689.0,0.10182351650232357
1688.0,0.09903237608087578
1687.0,0.09582563171583658
1686.0,0.09253489323414388
1685.0,0.0905509530187334
1684.0,0.08996287644694911
1683.0,0.08857603462370545
1682.0,0.08634506491338012
1681.0,0.08407278830288423
1680.0,0.08165507103772507
1679.0,0.07919861817434581
1678.0,0.07670415934449615
1677.0,0.07443009045662374
1676.0,0.07237303755504598
1675.0,0.07047889936889606
1674.0,0.06859298644342648
1673.0,0.06671522765130522
1672.0,0.06494641076893504
1671.0,0.06328524178879635
1670.0,0.061880730805688344
1669.0,0.060530669156469985
1668.0,0.058836539841526925
1667.0,0.05690137699451481
1666.0,0.05502409158795207
1665.0,0.05325306496641513
1664.0,0.05163594401163074
1663.0,0.05021979163799939
1662.0,0.048905443158337114
1661.0,0.047643522676209304
1660.0,0.04628861957244457
1659.0,0.044937930324967956
1658.0,0.04359142880416744
1657.0,0.04224908912272074
1656.0,0.04081545726880842
1655.0,0.03914884628031379
1654.0,0.03824678581321739
1653.0,0.03824678581321739
1652.0,0.03739392707587297
1651.0,0.03649550058570927
1650.0,0.036117771071222604
1649.0,0.03592902944204468
1648.0,0.035646070707806565
1647.0,0.03531618502395939
1646.0,0.03470420418834386
1645.0,0.033952178923546183
1644.0,0.03334211579824231
1643.0,0.03282657704446046
1642.0,0.03240522732811035
1641.0,0.031984286006358165
1640.0,0.03142366482450232
1639.0,0.0307239045110681
1638.0,0.03002526987828502
1637.0,0.02960662792039992
1636.0,0.029560137048236124
1635.0,0.029374223311705583
1634.0,0.029002634427514717
1633.0,0.028677754757187035
1632.0,0.02826040911222183
1631.0,0.027750864037404455
1630.0,0.027195677663422346
1629.0,0.02682594731702781
1628.0,0.02654885597506529
1627.0,0.02617967564731627
1626.0,0.025718641122169483
1625.0,0.02544225514642018
1624.0,0.025304128090317013
1623.0,0.025258095499050004
1622.0,0.02512002699306959
1621.0,0.02498200236711723
1620.0,0.024890010313838973
1619.0,0.024890010313838973
1618.0,0.025304128090317013
1617.0,0.026318081496016443
1616.0,0.027195677663422346
1615.0,0.02738066094037661
1614.0,0.027334407733889066
1613.0,0.027149444152769986
1612.0,0.02677975314776626
1611.0,0.02617967564731627
1610.0,0.025488307262671706
1609.0,0.024706084643793647
1608.0,0.023833499868024743
1607.0,0.02291687968414724
1606.0,0.02200219004126036
1605.0,0.021135015652343103
1604.0,0.02036058777709271
1603.0,0.019632973815224997
1602.0,0.01899731005860028
1601.0,0.01840788278591865
1600.0,0.01781925440359733
1599.0,0.01727661233145472
1598.0,0.01677978535189717
1597.0,0.01632861713980338
1596.0,0.016013078034810446
1595.0,0.015742798294583915
1594.0,0.015652742414136167
1593.0,0.015652742414136167
1592.0,0.015742798294583915
1591.0,0.01578783323856614
1590.0,0.015922966097169144
1589.0,0.016058141016111804
1588.0,0.01628352608625061
1587.0,0.016644385668211692
1586.0,0.01727661233145472
1585.0,0.018271974638383703
1584.0,0.019632973815224997
1583.0,0.021271822861508305
1582.0,0.02300845469384938
1581.0,0.02461415101053266
1580.0,0.025810808881832736
1579.0,0.026456531467510258
1578.0,0.026456531467510258
1577.0,0.025718641122169483
1576.0,0.024200690320592466
1575.0,0.022413561996148967
1574.0,0.0209982515252789
1573.0,0.019996628416253603
1572.0,0.019042683770379876
1571.0,0.017955020928509757
1570.0,0.016915227262211507
1569.0,0.016013078034810446
1568.0,0.015292705517326866
1567.0,0.014798141635428141
1566.0,0.014393916947563534
1565.0,0.01403492169512921
1564.0,0.013676222949234651
1563.0,0.013273040668781544
1562.0,0.012780770091995297
1561.0,0.012110390002254778
1560.0,0.011753276624621556
1559.0,0.011708658092512314
1558.0,0.011039929609661936
1557.0,0.010728208358306901
1556.0,0.010817248744452446
1555.0,0.010817248744452446
1554.0,0.010594681998483901
1553.0,0.01037222925484893
1552.0,0.010194349063173958
1551.0,0.010060986715464404
1550.0,0.009838807101520963
1549.0,0.009572341514736404
1548.0,0.00939478857608056
1547.0,0.009172949432521227
1546.0,0.008862564879688284
1545.0,0.008552401996197112
1544.0,0.008242460465651913
1543.0,0.008021209005416363
1542.0,0.007888512213050314
1541.0,0.007888512213050314
1540.0,0.007844288957383316
1539.0,0.007490664932224611
1538.0,0.007313960837872058
1537.0,0.0075790439479759275
1536.0,0.007976972236149349
1535.0,0.008286724286910463
1534.0,0.008552401996197112
1533.0,0.008818242332126802
1532.0,0.008951223547323472
1531.0,0.009039900317800775
1530.0,0.009172949432521227
1529.0,0.009306039320248427
1528.0,0.009306039320248427
1527.0,0.009128595198514056
1526.0,0.008906891951112605
1525.0,0.0087296108049002
1524.0,0.008685301823389224
1523.0,0.008596697419959609
1522.0,0.008330992620051436
1521.0,0.007844288957383316
1520.0,0.007313960837872058
1519.0,0.007181479933320523
1518.0,0.007358130121602358
1517.0,0.007534852191956709
1516.0,0.0075790439479759275
1515.0,0.007711646202907652
1514.0,0.008286724286910463
1513.0,0.009261671492462709
1512.0,0.010550182333308289
1511.0,0.012065734767841452
1510.0,0.013945219230304673
1509.0,0.016824927962187042
1508.0,0.022871099419317753
1507.0,0.032031037121307726
1506.0,0.03767802727041558
1505.0,0.03772539537668518
1504.0,0.03512779136222477
1503.0,0.03133029827960798
1502.0,0.02691835039863255
1501.0,0.02245929405346514
1500.0,0.01845319495476394
1499.0,0.015067833932588037
1498.0,0.012244383261476699
1497.0,0.01001654169860089
1496.0,0.008463824699968647
1495.0,0.007402303897961815
1494.0,0.00696076819309055
1493.0,0.006916639301937977
1492.0,0.007004901568658406
1491.0,0.007004901568658406
1490.0,0.007181479933320523
1489.0,0.007800070204414977
1488.0,0.008685301823389224
1487.0,0.009705553871561357
1486.0,0.010817248744452446
1485.0,0.012021084124518078
1484.0,0.013362604389846044
1483.0,0.014798141635428141
1482.0,0.016373712875465518
1481.0,0.01809082990920774
1480.0,0.01958753839310856
1479.0,0.020861530453190058
1478.0,0.02200219004126036
1477.0,0.023237476732539397
1476.0,0.024292536462819925
1475.0,0.025074013910237447
1474.0,0.025718641122169483
1473.0,0.026502691267936695
1472.0,0.02696455931306696
1471.0,0.02682594731702781
1470.0,0.026502691267936695
1469.0,0.026271941311972746
1468.0,0.026087429580295085
1467.0,0.026041313893296225
1466.0,0.026410376572743033
1465.0,0.027288159452933503
1464.0,0.02826040911222183
1463.0,0.028956208163971375
1462.0,0.029513651152349718
1461.0,0.029978734171634214
1460.0,0.030351159519274695
1459.0,0.0307239045110681
1458.0,0.031563752288295444
1457.0,0.03282657704446046
1456.0,0.03338901331806565
1455.0,0.03343591590268957
1454.0,0.03343591590268957
1453.0,0.03334211579824231
1452.0,0.0329671178412978
1451.0,0.03235843591698884
1450.0,0.031657169041054534
1449.0,0.030957032694186815
1448.0,0.030211462585061133
1447.0,0.029513651152349718
1446.0,0.028863370523193765
1445.0,0.02839947976994095
1444.0,0.027936083991977778
1443.0,0.02747318213414429
1442.0,0.02696455931306696
1441.0,0.026456531467510258
1440.0,0.025856900097785074
1439.0,0.025074013910237447
1438.0,0.023879381700184332
1437.0,0.022322112326006227
1436.0,0.02058821736556471
1435.0,0.019042683770379876
1434.0,0.017774008325325275
1433.0,0.016554142658660398
1432.0,0.015157768594724175
1431.0,0.01372104409400876
1430.0,0.012423105273012602
1429.0,0.011351874764248926
1428.0,0.010594681998483901
1427.0,0.010105436281226954
1426.0,0.009927665307847056
1425.0,0.01001654169860089
1424.0,0.010505687227290839
1423.0,0.011307297450183107
1422.0,0.012244383261476699
1421.0,0.013765869865004277
1420.0,0.016689514205884493
1419.0,0.021545566634771474
1418.0,0.02751945012352408
1417.0,0.03423403581731388
1416.0,0.04200982159316968
1415.0,0.051098239029786274
1414.0,0.06153031163235467
1413.0,0.0732460948102629
1412.0,0.08533956941077814
1411.0,0.09587978652380036
1410.0,0.10308815917397474
1409.0,0.1062937069352865
1408.0,0.10540705207704448
1407.0,0.10045306890913297
1406.0,0.09242742120144909
1405.0,0.08291480935943274
1404.0,0.07376047895413773
1403.0,0.0659562809644747
1402.0,0.05948351506743288
1401.0,0.05379344615721715
1400.0,0.04837110616336182
1399.0,0.043303435105349175
1398.0,0.03919637508823026
1397.0,0.0360705779734416
1396.0,0.03352973627071565
1395.0,0.031236951802751545
1394.0,0.029374223311705583
1393.0,0.02812138297373412
1392.0,0.027334407733889066
1391.0,0.026733563891471412
1390.0,0.02613355016462182
1389.0,0.02558042614771394
1388.0,0.025304128090317013
1387.0,0.02521206778644225
1386.0,0.025304128090317013
1385.0,0.02553436426275746
1384.0,0.025902996205869
1383.0,0.026318081496016443
1382.0,0.026687379547098322
1381.0,0.027056991894431892
1380.0,0.027565723042634938
1379.0,0.028167720075074953
1378.0,0.028816959143838528
1377.0,0.029560137048236124
1376.0,0.030444315779156517
1375.0,0.03142366482450232
1374.0,0.032311649546687526
1373.0,0.032920265855503006
1372.0,0.033201453616638954
1371.0,0.03310770413286357
1370.0,0.03263926003405038
1369.0,0.031657169041054534
1368.0,0.030211462585061133
1367.0,0.02849221828874393
1366.0,0.026595025589939425
1365.0,0.02461415101053266
1364.0,0.02245929405346514
1363.0,0.02036058777709271
1362.0,0.018679826740892747
1361.0,0.01768353030793479
1360.0,0.01727661233145472
1359.0,0.017186237868137555
1358.0,0.017321806616515723
1357.0,0.017774008325325275
1356.0,0.018498511851753108
1355.0,0.01949668180660491
1354.0,0.020907099361673565
1353.0,0.02277955336461468
1352.0,0.02521206778644225
1351.0,0.02826040911222183
1350.0,0.032031037121307726
1349.0,0.036731748473764814
1348.0,0.04248848854552012
1347.0,0.04944043838819989
1346.0,0.05769424710410598
1345.0,0.0671712330991534
1344.0,0.07743023101428781
1343.0,0.08761850108119962
1342.0,0.09718153191774648
1341.0,0.10579474085791629
1340.0,0.11238269966426384
1339.0,0.11531789579397489
1338.0,0.1136220932414278
1337.0,0.10779405402422748
1336.0,0.09903237608087578
1335.0,0.08836306687055773
1334.0,0.07665234350217442
1333.0,0.06509774167768612
1332.0,0.05453141486818014
1331.0,0.045516282844447975
1330.0,0.03848398855105106
1329.0,0.0332483359486222
1328.0,0.029746130405213123
1327.0,0.027565723042634938
1326.0,0.026410376572743033
1325.0,0.026041313893296225
1324.0,0.02617967564731627
1323.0,0.02664120011360227
1322.0,0.027334407733889066
1321.0,0.02826040911222183
1320.0,0.029281296279810798
1319.0,0.030490901403433135
1318.0,0.03175060589208267
1317.0,0.033060836978886954
1316.0,0.034516075754861264
1315.0,0.036117771071222604
1314.0,0.03796231343498735
1313.0,0.040005161671583744
1312.0,0.04224908912272074
1311.0,0.04450467081587295
1310.0,0.04686877481655505
1309.0,0.049294465226138895
1308.0,0.05178270644002936
1307.0,0.054186873412661596
1306.0,0.05650548409389744
1305.0,0.058786812414678646
1304.0,0.06128018521761747
1303.0,0.06398920428479049
1302.0,0.06712054217620067
1301.0,0.07073438174693436
1300.0,0.07479107858799638
1299.0,0.07914650387874067
1298.0,0.08375666953466032
1297.0,0.0885227828938977
1296.0,0.0935033402006471
1295.0,0.09848719087006019
1294.0,0.1033635694704158
1293.0,0.10812816955441629
1292.0,0.1128329791052256
1291.0,0.11736163830396129
1290.0,0.12170805075020397
1289.0,0.12598229613781387
1288.0,0.13018179202067182
1287.0,0.13424477592854833
1286.0,0.1380476250785483
1285.0,0.14170347546611461
1284.0,0.14532966810466452
1283.0,0.148864004988426
1282.0,0.1523039792658345
1281.0,0.1558335895497993
1280.0,0.159517512786558
1279.0,0.163359458427226
1278.0,0.16729952903943257
1277.0,0.17179138553205453
1276.0,0.17685194018930606
1275.0,0.18250073813224166
1274.0,0.18896149139578422
1273.0,0.19633807676377568
1272.0,0.20488501436963658
1271.0,0.21424320003735708
1270.0,0.22417118553538762
1269.0,0.2347040703019434
1268.0,0.24580461181016156
1267.0,0.25703932978584754
1266.0,0.2681695797118375
1265.0,0.27901425584626094
1264.0,0.2892059000696725
1263.0,0.298518364379073
1262.0,0.3066248489748147
1261.0,0.3139002280040841
1260.0,0.32029961912803584
1259.0,0.3255062827036499
1258.0,0.329754146925876
1257.0,0.3338565727084417
1256.0,0.33837659077076987
1255.0,0.3432312207339834
1254.0,0.348721986001856
1253.0,0.3550692920864127
1252.0,0.3625102704874894
1251.0,0.3703865546218168
1250.0,0.3785121354193697
1249.0,0.38679264789624024
1248.0,0.3950183703925685
1247.0,0.4024144982477953
1246.0,0.4082677610481644
1245.0,0.4126258279269346
1244.0,0.41510365586255005
1243.0,0.4149907200975389
1242.0,0.412176828681045
1241.0,0.407046428452134
1240.0,0.39968067024833887
1239.0,0.3899789753358547
1238.0,0.37830453767072125
1237.0,0.365421977146112
1236.0,0.35193287055106537
1235.0,0.33799812061008283
1234.0,0.324221658325915
1233.0,0.3111354319452082
1232.0,0.2987775157434429
1231.0,0.2870978749527773
1230.0,0.2761340355564963
1229.0,0.2660808489876092
1228.0,0.2569608451950669
1227.0,0.24848994972995864
1226.0,0.2404832405378119
1225.0,0.23299263605019593
1224.0,0.2259942697417905
1223.0,0.21903497039168318
1222.0,0.21204387671606817
1221.0,0.2049546295788751
1220.0,0.19777376230892996
1219.0,0.19037295810595034
1218.0,0.18283142761894444
1217.0,0.17535358528164813
1216.0,0.16800232276410365
1215.0,0.16083631708534996
1214.0,0.15403423845451636
1213.0,0.1475810070629986
1212.0,0.14164329470222659
1211.0,0.136142038116027
1210.0,0.13094438129809216
1209.0,0.1260984021355387
1208.0,0.12159311241900439
1207.0,0.11719095860756013
1206.0,0.11288929687511629
1205.0,0.10868560061785693
1204.0,0.10468797552421272
1203.0,0.10089114180660053
1202.0,0.0972358560759139
1201.0,0.09366495819490939
1200.0,0.09028354676565531
1199.0,0.08692825969074924
1198.0,0.08365134772453975
1197.0,0.08055578953476306
1196.0,0.07758597585436577
1195.0,0.07473949048056472
1194.0,0.0720140529005715
1193.0,0.06945847013556561
1192.0,0.06706985716921054
1191.0,0.06479513257341862
1190.0,0.06268275223750575
1189.0,0.06083032037482261
1188.0,0.05928434309333741
1187.0,0.05814087347462649
1186.0,0.05729763111133224
1185.0,0.05685187064143715
1184.0,0.0567528748621382
1183.0,0.05709945885970602
1182.0,0.05779345772290467
1181.0,0.058836539841526925
1180.0,0.060081579630943294
1179.0,0.06133019897732073
1178.0,0.06248210798265341
1177.0,0.06338573802478864
1176.0,0.06403953101083348
1175.0,0.06424089625468832
1174.0,0.06388856832514578
1173.0,0.06283329628496737
1172.0,0.0611301784870133
1171.0,0.0588862729628985
1170.0,0.05625823416868636
1169.0,0.053449489430144714
1168.0,0.050805225762017736
1167.0,0.04851676924770687
1166.0,0.04677202844014605
1165.0,0.045612749855485024
1164.0,0.04488976902944808
1163.0,0.04450467081587295
1162.0,0.04426415772233416
1161.0,0.04426415772233416
1160.0,0.04440844959427559
1159.0,0.044793462458058375
1158.0,0.04537162249272897
1157.0,0.046143701775014145
1156.0,0.04711073508906982
1155.0,0.04832256265669943
1154.0,0.04987865248862655
1153.0,0.05173378011970464
1152.0,0.05394093961487645
1151.0,0.056456022846545606
1150.0,0.05923456436878238
1149.0,0.06223143295006417
1148.0,0.06545105233385295
1147.0,0.06884736147670667
1146.0,0.07252697900472405
1145.0,0.07654873036034848
1144.0,0.08092190762392604
1143.0,0.08555105930144569
1142.0,0.09049745859458458
1141.0,0.09571734235437201
1140.0,0.10116516193172598
1139.0,0.10690433390377163
1138.0,0.11305829401658474
1137.0,0.11975822410451964
1136.0,0.12720296001040166
1135.0,0.1352516643703412
1134.0,0.1438755557576996
1133.0,0.15298290206464582
1132.0,0.16253782851400533
1131.0,0.17237229523256659
1130.0,0.18236853280948462
1129.0,0.19246497193114664
1128.0,0.20266319922465015
1127.0,0.21275211966804597
1126.0,0.22264568691579112
1125.0,0.23254728190222673
1124.0,0.24214865631442017
1123.0,0.2511919950413979
1122.0,0.259321574772545
1121.0,0.26640153903866093
1120.0,0.272214825817094
1119.0,0.27629810600873217
1118.0,0.2785191452299507
1117.0,0.2789316982028409
1116.0,0.27769521312567225
1115.0,0.2754783728814374
1114.0,0.27286557623951135
1113.0,0.27115943166002854
1112.0,0.2713216331490862
1111.0,0.2735988378970775
1110.0,0.27827180142721186
1109.0,0.2852512392749402
1108.0,0.2941362877160807
1107.0,0.3041682271733077
1106.0,0.3147062186132159
1105.0,0.3253225321268012
1104.0,0.3356401254488588
1103.0,0.3447654929657058
1102.0,0.35261702988538013
1101.0,0.35922052265514304
1100.0,0.3646167959525015
1099.0,0.3683533370415806
1098.0,0.3702846673528677
1097.0,0.37048846579954686
1096.0,0.36926710718280353
1095.0,0.36643055744590813
1094.0,0.36221017063777095
1093.0,0.3568435343802938
1092.0,0.3506651412878581
1091.0,0.3434227086038859
1090.0,0.3356401254488588
1089.0,0.32771737521107935
1088.0,0.32002730572258153
1087.0,0.3122927203751811
1086.0,0.30434324006380975
1085.0,0.29645070176176946
1084.0,0.2883614617676509
1083.0,0.2798406965940432
1082.0,0.27075419277469326
1081.0,0.2613779720820575
1080.0,0.25181197299379954
1079.0,0.24199699070020086
1078.0,0.23202827861838116
1077.0,0.22206595116222072
1076.0,0.21239785381766252
1075.0,0.20307892466983124
1074.0,0.1941594511853273
1073.0,0.185819018959813
1072.0,0.17809362264767703
1071.0,0.17095366314681737
1070.0,0.16437283379010226
1069.0,0.15832774992636556
1068.0,0.15279763601907614
1067.0,0.14764201633217278
1066.0,0.14290884532648618
1065.0,0.13864483980673992
1064.0,0.13489602535887202
1063.0,0.13141433344123432
1062.0,0.12819363554127072
1061.0,0.1251124891538875
1060.0,0.12222565000860186
1059.0,0.11964380058076385
1058.0,0.1174754620451195
1057.0,0.11599807523121286
1056.0,0.11509140583739286
1055.0,0.11458223488906394
1054.0,0.11441264381034388
1053.0,0.11458223488906394
1052.0,0.11503480179926728
1051.0,0.11560117444331386
1050.0,0.11616828667054757
1049.0,0.11667932161702477
1048.0,0.11719095860756013
1047.0,0.1175323851046286
1046.0,0.11758931562603192
1045.0,0.1174754620451195
1044.0,0.11713408027837091
1043.0,0.1165089098110701
1042.0,0.11548784080960606
1041.0,0.1141301390960936
1040.0,0.11243895906999102
1039.0,0.11047420332880886
1038.0,0.1082953237608173
1037.0,0.10601643278815298
1036.0,0.1038045895457893
1035.0,0.10154908080162528
1034.0,0.09925064193892053
1033.0,0.09707290398273716
1032.0,0.0950141189006366
1031.0,0.09334178232840018
1030.0,0.09226626300234453
1029.0,0.09264239186882706
1028.0,0.09523037409340485
1027.0,0.10089114180660053
1026.0,0.10997041383658313
1025.0,0.12239832027072817
1024.0,0.13768969004572962
1023.0,0.15508812608785938
1022.0,0.17373078060627378
1021.0,0.1928710444075783
1020.0,0.2108425080885603
1019.0,0.2251182341812037
1018.0,0.23291837863667775
1017.0,0.23247310059161808
1016.0,0.22373478173189043
1015.0,0.2088709992727138
1014.0,0.1910467008440888
1013.0,0.17327747983100794
1012.0,0.15745316350498495
1011.0,0.14429916916456276
1010.0,0.13371266091580503
1009.0,0.12517042212027807
1008.0,0.11821604440661537
1007.0,0.11243895906999102
1006.0,0.10757145305477
1005.0,0.10352889952072264
1004.0,0.10028890542885538
1003.0,0.09750757884139638
1002.0,0.0950141189006366
1001.0,0.09280368972839836
1000.0,0.0908185240221473
999.0,0.08905559425002108
998.0,0.08745911720936239
997.0,0.08608023504853413
996.0,0.08486409337798806
995.0,0.08375666953466032
994.0,0.08280969148843575
993.0,0.08202211740709164
992.0,0.08149786036382611
991.0,0.08107890990866418
990.0,0.08081727095749947
989.0,0.08071265949561734
988.0,0.08071265949561734
987.0,0.08081727095749947
986.0,0.08102656950704579
985.0,0.08139308485501817
984.0,0.08207457793525874
983.0,0.08296737783760655
982.0,0.08417821237960132
981.0,0.08560394787021397
980.0,0.0872997918091396
979.0,0.08916223500731646
978.0,0.0910326995816122
977.0,0.09291125492570451
976.0,0.09468993788391455
975.0,0.09625905937846135
974.0,0.09750757884139638
973.0,0.09826930827078129
972.0,0.09854167860388774
971.0,0.09832376867362447
970.0,0.09750757884139638
969.0,0.09631326826349751
968.0,0.09474395125154866
967.0,0.09285746899685954
966.0,0.09065796163869155
965.0,0.08820340956274775
964.0,0.08570974433405087
963.0,0.08328292240118751
962.0,0.0809742354126397
961.0,0.07872981449018734
960.0,0.07660053384128362
959.0,0.07448164182257
958.0,0.07252697900472405
957.0,0.07078549626260622
956.0,0.06915280831750303
955.0,0.0676277178520861
954.0,0.06615853710127872
953.0,0.06489597884855036
952.0,0.06383825908884244
951.0,0.06283329628496737
950.0,0.061880730805688344
949.0,0.06093025007657582
948.0,0.060081579630943294
947.0,0.05928434309333741
946.0,0.05858795962645047
945.0,0.05794231615860479
944.0,0.05744631966579017
943.0,0.056950888991593285
942.0,0.056406567231630955
941.0,0.05586292684190197
940.0,0.05536929814372171
939.0,0.05502409158795207
938.0,0.054728418492290265
937.0,0.05443294655761144
936.0,0.054088483180726676
935.0,0.05374429280060267
934.0,0.053351266093323746
933.0,0.05286048235717078
932.0,0.05232126006306337
931.0,0.05178270644002936
930.0,0.051244819831730126
929.0,0.05085404758005607
928.0,0.05056119896349576
927.0,0.05021979163799939
926.0,0.04987865248862655
925.0,0.04948910701400333
924.0,0.04909991063361274
923.0,0.04866248120408234
922.0,0.048225491918274965
921.0,0.0478374257855374
920.0,0.04744970610179822
919.0,0.04720755695590784
918.0,0.047062332249019345
917.0,0.04701393480294458
916.0,0.0469171560879138
915.0,0.04672366333269573
914.0,0.04667530361081473
913.0,0.04677202844014605
912.0,0.047062332249019345
911.0,0.04754660357696672
910.0,0.04817696468408794
909.0,0.048954051864180226
908.0,0.04982994019179987
907.0,0.05085404758005607
906.0,0.05192951848105887
905.0,0.05310580489767336
904.0,0.05428528594013993
903.0,0.05546797900801881
902.0,0.05650548409389744
901.0,0.05734718830678798
900.0,0.05789269101064454
899.0,0.058190526991161784
898.0,0.0583395216116076
897.0,0.0583395216116076
896.0,0.058190526991161784
895.0,0.05789269101064454
894.0,0.05734718830678798
893.0,0.05685187064143715
892.0,0.05650548409389744
891.0,0.056456022846545606
890.0,0.05680236993107379
889.0,0.0575950591438934
888.0,0.058737090681050264
887.0,0.06038092104330195
886.0,0.06263258248271053
885.0,0.06580465065211571
884.0,0.07001940948448526
883.0,0.07535895258283709
882.0,0.08160266115629988
881.0,0.08862929288386212
880.0,0.09620485725896466
879.0,0.10430127304069425
878.0,0.11305829401658474
877.0,0.12262865413022594
876.0,0.13324021650489182
875.0,0.14423862766005224
874.0,0.15391041964201602
873.0,0.15964294079664376
872.0,0.15939212099070987
871.0,0.15298290206464582
870.0,0.14224547794055775
869.0,0.13006458935314003
868.0,0.11872949607064243
867.0,0.10918790104487552
866.0,0.10171372141087698
865.0,0.0960964733098364
864.0,0.09189045960744768
863.0,0.08873582900163002
862.0,0.08645104209348209
861.0,0.08491689834879956
860.0,0.0839147001562972
859.0,0.08328292240118751
858.0,0.08296737783760655
857.0,0.0830725338870073
856.0,0.0833881548906541
855.0,0.08380934001946239
854.0,0.08438913733853282
853.0,0.08523386307414738
852.0,0.08639805027084257
851.0,0.08783110394037297
850.0,0.0892689019566193
849.0,0.09049745859458458
848.0,0.09124698081546634
847.0,0.09124698081546634
846.0,0.09039048950983108
845.0,0.08905559425002108
844.0,0.08745911720936239
843.0,0.08570974433405087
842.0,0.0839147001562972
841.0,0.08207457793525874
840.0,0.08018997982980403
839.0,0.07810552907089763
838.0,0.07592757008963713
837.0,0.07376047895413773
836.0,0.0716553647351379
835.0,0.06961138175567827
834.0,0.0676277178520861
833.0,0.06575411897692884
832.0,0.06393888339001164
831.0,0.06223143295006417
830.0,0.06058059667068294
829.0,0.059135024033278416
828.0,0.05789269101064454
827.0,0.05680236993107379
826.0,0.05571477931124735
825.0,0.05482695382609992
824.0,0.054088483180726676
823.0,0.053449489430144714
822.0,0.05286048235717078
821.0,0.05232126006306337
820.0,0.0518316382728683
819.0,0.05144033789103841
818.0,0.05119595406718891
817.0,0.05100054597304693
816.0,0.05085404758005607
815.0,0.0506099933550872
814.0,0.050317309204795935
813.0,0.050073556332087765
812.0,0.05002482217034632
811.0,0.05012229596312534
810.0,0.050171041064686284
809.0,0.050171041064686284
808.0,0.049927370249842395
807.0,0.04953778109440221
806.0,0.04905128560059957
805.0,0.04837110616336182
804.0,0.047643522676209304
803.0,0.0469171560879138
802.0,0.04628861957244457
801.0,0.04585401117045196
800.0,0.04595055323640551
799.0,0.04686877481655505
798.0,0.048954051864180226
797.0,0.05217431555754937
796.0,0.055961719945581745
795.0,0.05933412752417122
794.0,0.06143024377893891
793.0,0.061880730805688344
792.0,0.06078036414518184
791.0,0.058538260652670315
790.0,0.055764156206519866
789.0,0.05295859474477971
788.0,0.050414848673348
787.0,0.04807992647970649
786.0,0.045902279520810385
785.0,0.0439276630048171
784.0,0.042201225070002124
783.0,0.040672354027829094
782.0,0.03929144831144349
781.0,0.03800971255993524
780.0,0.03682628362474838
779.0,0.035693217696063595
778.0,0.03465716443937783
777.0,0.03367050483612166
776.0,0.032873418923587305
775.0,0.03217132066984485
774.0,0.03151705144606498
773.0,0.03081714076773867
772.0,0.030071810571884017
771.0,0.029234840219232394
770.0,0.02839947976994095
769.0,0.027612000892527133
768.0,0.026733563891471412
767.0,0.025672564576383117
766.0,0.02461415101053266
765.0,0.023695883447997224
764.0,0.023054249440757957
763.0,0.022505030926963654
762.0,0.02200219004126036
761.0,0.021499930688540836
760.0,0.021043834782408455
759.0,0.02058821736556471
758.0,0.02013307743509718
757.0,0.019860222254245663
756.0,0.019723858922159776
755.0,0.01954210772389997
754.0,0.01940584422377989
753.0,0.019451260640229506
752.0,0.019769308608968306
751.0,0.02022406727031445
750.0,0.020724852408976924
749.0,0.021317434843055594
748.0,0.022093572362881675
747.0,0.023054249440757957
746.0,0.02438440203310499
745.0,0.02636422658259252
744.0,0.029234840219232394
743.0,0.033060836978886954
742.0,0.03829421599749461
741.0,0.04541983725624266
740.0,0.0549747987575373
739.0,0.06712054217620067
738.0,0.08175990977858505
737.0,0.09854167860388774
736.0,0.11684980031672243
735.0,0.136142038116027
734.0,0.15589576930248672
733.0,0.17606954487443605
732.0,0.19661117501638659
731.0,0.2173840679683965
730.0,0.23874892569133732
729.0,0.2609025538825249
728.0,0.2833290244398645
727.0,0.3046058917088901
726.0,0.3223930472795069
725.0,0.3340439705460432
724.0,0.3380927072339792
723.0,0.33517005885690954
722.0,0.32771737521107935
721.0,0.3186682940308343
720.0,0.3097152974873705
719.0,0.30076949711659084
718.0,0.2912392763096834
717.0,0.2809174260985141
716.0,0.2701874928390644
715.0,0.2589272276266785
714.0,0.24741382125959088
713.0,0.23597339230796277
712.0,0.22533707746217768
711.0,0.2158107946190393
710.0,0.20711825461460287
709.0,0.19914550849643908
708.0,0.1917214904172322
707.0,0.18462151503408197
706.0,0.1778319206319825
705.0,0.17108243838331405
704.0,0.1644362483309032
703.0,0.15801519540988607
702.0,0.1515029819096334
701.0,0.1446020033459312
700.0,0.13721290176465573
699.0,0.12965462891904034
698.0,0.12245589228405596
697.0,0.11599807523121286
696.0,0.11036219959333216
695.0,0.10551778498990938
694.0,0.10154908080162528
693.0,0.09843270997155007
692.0,0.09598811640261173
691.0,0.09404230090757282
690.0,0.09242742120144909
689.0,0.09097914578884403
688.0,0.08953568400438638
687.0,0.0877779434675845
686.0,0.08586848736910624
685.0,0.08433639649422697
684.0,0.08354605145007499
683.0,0.08349341288484435
682.0,0.08359869639612438
681.0,0.08328292240118751
680.0,0.08228448344050654
679.0,0.08066036321258663
678.0,0.07862570458152551
677.0,0.07634157820669385
676.0,0.07391491307485598
675.0,0.0713481533463054
674.0,0.0685421293109949
673.0,0.0655520510510299
672.0,0.06243196139961715
671.0,0.05898575629443026
670.0,0.0549255115212699
669.0,0.05129369109514803
668.0,0.050171041064686284
667.0,0.05139145012356372
666.0,0.05271335532220167
665.0,0.05300765925162776
664.0,0.05237025261564554
663.0,0.051244819831730126
662.0,0.04978123335813667
661.0,0.047934409814949674
660.0,0.04595055323640551
659.0,0.04440844959427559
658.0,0.04397571771932274
657.0,0.04488976902944808
656.0,0.04643358574299339
655.0,0.04730440041308315
654.0,0.04682039893436585
653.0,0.045516282844447975
652.0,0.044312249686494276
651.0,0.04383156952463674
650.0,0.0437835307566099
649.0,0.04359142880416744
648.0,0.04282386959515394
647.0,0.041436116778032606
646.0,0.04010041213405646
645.0,0.03957679292217042
644.0,0.04014804520039483
643.0,0.041483896576958834
642.0,0.04268010314465909
641.0,0.04320747962950522
640.0,0.043063586155803746
639.0,0.042392712939904875
638.0,0.041627267521392675
637.0,0.041340572947066834
636.0,0.04200982159316968
635.0,0.04368746915880539
634.0,0.045902279520810385
633.0,0.04803141550708934
632.0,0.04939177521576932
631.0,0.04963514562387683
630.0,0.04871106272232795
629.0,0.04725597598510167
628.0,0.046047116768076934
627.0,0.0451788169482068
626.0,0.04440844959427559
625.0,0.04325545471730896
624.0,0.04167506835594681
623.0,0.03986232513620536
622.0,0.03810452633214956
621.0,0.036731748473764814
620.0,0.03588185684851508
619.0,0.03578752703018084
618.0,0.03616496929785207
617.0,0.03649550058570927
616.0,0.03644826642590382
615.0,0.03602339000339416
614.0,0.035740369803151095
613.0,0.03588185684851508
612.0,0.03602339000339416
611.0,0.035740369803151095
610.0,0.0349394793888016
609.0,0.03414006319292828
608.0,0.033482823553208085
607.0,0.03282657704446046
606.0,0.03193753992355086
605.0,0.031003673351687855
604.0,0.029932203450862893
603.0,0.02858497661500481
602.0,0.027010773144651168
601.0,0.025764722556973707
600.0,0.02521206778644225
