cm-1,A
4000.0,0.0099
3999.0,0.0099
3998.0,0.0099
3997.0,0.01
3996.0,0.01
3995.0,0.01
3994.0,0.01
3993.0,0.01
3992.0,0.01
3991.0,0.01
3990.0,0.01
3989.0,0.01
3988.0,0.01
3987.0,0.01
3986.0,0.0099
3985.0,0.0099
3984.0,0.0098
3983.0,0.0098
3982.0,0.0099
3981.0,0.01
3980.0,0.0101
3979.0,0.0101
3978.0,0.0102
3977.0,0.0102
3976.0,0.0101
3975.0,0.0101
3974.0,0.01
3973.0,0.01
3972.0,0.0099
3971.0,0.0099
3970.0,0.0099
3969.0,0.0099
3968.0,0.0099
3967.0,0.0099
3966.0,0.0099
3965.0,0.0099
3964.0,0.0099
3963.0,0.01
3962.0,0.01
3961.0,0.01
3960.0,0.0099
3959.0,0.0098
3958.0,0.0098
3957.0,0.0098
3956.0,0.0099
3955.0,0.01
3954.0,0.01
3953.0,0.0101
3952.0,0.0102
3951.0,0.0102
3950.0,0.0102
3949.0,0.0102
3948.0,0.0102
3947.0,0.0103
3946.0,0.0103
3945.0,0.0103
3944.0,0.0104
3943.0,0.0103
3942.0,0.0103
3941.0,0.0103
3940.0,0.0102
3939.0,0.01
3938.0,0.0099
3937.0,0.0099
3936.0,0.0099
3935.0,0.01
3934.0,0.01
3933.0,0.0101
3932.0,0.0101
3931.0,0.0102
3930.0,0.0102
3929.0,0.0102
3928.0,0.0103
3927.0,0.0103
3926.0,0.0103
3925.0,0.0103
3924.0,0.0102
3923.0,0.0102
3922.0,0.0102
3921.0,0.0102
3920.0,0.0102
3919.0,0.0102
3918.0,0.0102
3917.0,0.0101
3916.0,0.0102
3915.0,0.0102
3914.0,0.0102
3913.0,0.0102
3912.0,0.0101
3911.0,0.0101
3910.0,0.01
3909.0,0.0101
3908.0,0.0102
3907.0,0.0103
3906.0,0.0103
3905.0,0.0103
3904.0,0.0103
3903.0,0.0103
3902.0,0.0103
3901.0,0.0103
3900.0,0.0102
3899.0,0.0102
3898.0,0.0102
3897.0,0.0103
3896.0,0.0103
3895.0,0.0104
3894.0,0.0104
3893.0,0.0104
3892.0,0.0103
3891.0,0.0102
3890.0,0.0102
3889.0,0.0102
3888.0,0.0102
3887.0,0.0102
3886.0,0.0101
3885.0,0.0102
3884.0,0.0104
3883.0,0.0105
3882.0,0.0106
3881.0,0.0105
3880.0,0.0103
3879.0,0.0103
3878.0,0.0104
3877.0,0.0106
3876.0,0.0107
3875.0,0.0107
3874.0,0.0107
3873.0,0.0106
3872.0,0.0105
3871.0,0.0104
3870.0,0.0102
3869.0,0.0102
3868.0,0.0102
3867.0,0.0103
3866.0,0.0102
3865.0,0.0102
3864.0,0.0103
3863.0,0.0104
3862.0,0.0104
3861.0,0.0104
3860.0,0.0103
3859.0,0.0102
3858.0,0.0102
3857.0,0.0102
3856.0,0.0103
3855.0,0.0102
3854.0,0.0102
3853.0,0.0102
3852.0,0.0102
3851.0,0.0102
3850.0,0.0102
3849.0,0.0102
3848.0,0.0102
3847.0,0.0103
3846.0,0.0103
3845.0,0.0104
3844.0,0.0104
3843.0,0.0104
3842.0,0.0104
3841.0,0.0105
3840.0,0.0104
3839.0,0.0104
3838.0,0.0105
3837.0,0.0106
3836.0,0.0106
3835.0,0.0106
3834.0,0.0106
3833.0,0.0105
3832.0,0.0104
3831.0,0.0103
3830.0,0.0103
3829.0,0.0104
3828.0,0.0103
3827.0,0.0103
3826.0,0.0102
3825.0,0.0103
3824.0,0.0104
3823.0,0.0105
3822.0,0.0104
3821.0,0.0103
3820.0,0.0103
3819.0,0.0104
3818.0,0.0104
3817.0,0.0103
3816.0,0.0102
3815.0,0.0101
3814.0,0.0102
3813.0,0.0102
3812.0,0.0102
3811.0,0.0102
3810.0,0.0102
3809.0,0.0102
3808.0,0.0101
3807.0,0.01
3806.0,0.0101
3805.0,0.0103
3804.0,0.0105
3803.0,0.0106
3802.0,0.0106
3801.0,0.0106
3800.0,0.0106
3799.0,0.0106
3798.0,0.0106
3797.0,0.0105
3796.0,0.0105
3795.0,0.0105
3794.0,0.0105
3793.0,0.0105
3792.0,0.0104
3791.0,0.0103
3790.0,0.0102
3789.0,0.0102
3788.0,0.0102
3787.0,0.0103
3786.0,0.0103
3785.0,0.0104
3784.0,0.0103
3783.0,0.0103
3782.0,0.0103
3781.0,0.0102
3780.0,0.0102
3779.0,0.0101
3778.0,0.0101
3777.0,0.01
3776.0,0.0101
3775.0,0.0101
3774.0,0.0103
3773.0,0.0105
3772.0,0.0106
3771.0,0.0106
3770.0,0.0105
3769.0,0.0104
3768.0,0.0104
3767.0,0.0104
3766.0,0.0104
3765.0,0.0104
3764.0,0.0105
3763.0,0.0105
3762.0,0.0105
3761.0,0.0104
3760.0,0.0104
3759.0,0.0104
3758.0,0.0104
3757.0,0.0103
3756.0,0.0103
3755.0,0.0103
3754.0,0.0102
3753.0,0.0101
3752.0,0.0099
3751.0,0.0099
3750.0,0.0098
3749.0,0.0097
3748.0,0.0098
3747.0,0.0099
3746.0,0.0099
3745.0,0.0099
3744.0,0.0099
3743.0,0.01
3742.0,0.0101
3741.0,0.0102
3740.0,0.0102
3739.0,0.0103
3738.0,0.0104
3737.0,0.0104
3736.0,0.0104
3735.0,0.0105
3734.0,0.0105
3733.0,0.0106
3732.0,0.0106
3731.0,0.0106
3730.0,0.0107
3729.0,0.0108
3728.0,0.0107
3727.0,0.0107
3726.0,0.0108
3725.0,0.0108
3724.0,0.0109
3723.0,0.0109
3722.0,0.0108
3721.0,0.0107
3720.0,0.0105
3719.0,0.0103
3718.0,0.0099
3717.0,0.0096
3716.0,0.0096
3715.0,0.0098
3714.0,0.0101
3713.0,0.0105
3712.0,0.0108
3711.0,0.0109
3710.0,0.0109
3709.0,0.0108
3708.0,0.0106
3707.0,0.0105
3706.0,0.0104
3705.0,0.0104
3704.0,0.0105
3703.0,0.0104
3702.0,0.0104
3701.0,0.0103
3700.0,0.0103
3699.0,0.0103
3698.0,0.0103
3697.0,0.0102
3696.0,0.0102
3695.0,0.0102
3694.0,0.0102
3693.0,0.0102
3692.0,0.0101
3691.0,0.01
3690.0,0.01
3689.0,0.0099
3688.0,0.0099
3687.0,0.0099
3686.0,0.01
3685.0,0.01
3684.0,0.0101
3683.0,0.0101
3682.0,0.0102
3681.0,0.0102
3680.0,0.0101
3679.0,0.0101
3678.0,0.01
3677.0,0.01
3676.0,0.0099
3675.0,0.0099
3674.0,0.0099
3673.0,0.01
3672.0,0.0099
3671.0,0.0097
3670.0,0.0096
3669.0,0.0097
3668.0,0.0098
3667.0,0.0099
3666.0,0.01
3665.0,0.01
3664.0,0.0101
3663.0,0.0101
3662.0,0.0101
3661.0,0.0101
3660.0,0.0101
3659.0,0.0101
3658.0,0.0102
3657.0,0.0103
3656.0,0.0105
3655.0,0.0106
3654.0,0.0108
3653.0,0.011
3652.0,0.0111
3651.0,0.0111
3650.0,0.0112
3649.0,0.0113
3648.0,0.0114
3647.0,0.0114
3646.0,0.0114
3645.0,0.0114
3644.0,0.0114
3643.0,0.0114
3642.0,0.0114
3641.0,0.0114
3640.0,0.0114
3639.0,0.0114
3638.0,0.0114
3637.0,0.0116
3636.0,0.0117
3635.0,0.0118
3634.0,0.0118
3633.0,0.0118
3632.0,0.0119
3631.0,0.012
3630.0,0.0122
3629.0,0.0124
3628.0,0.0125
3627.0,0.0126
3626.0,0.0127
3625.0,0.0128
3624.0,0.013
3623.0,0.0131
3622.0,0.0132
3621.0,0.0133
3620.0,0.0134
3619.0,0.0134
3618.0,0.0134
3617.0,0.0133
3616.0,0.0132
3615.0,0.013
3614.0,0.013
3613.0,0.0131
3612.0,0.0133
3611.0,0.0136
3610.0,0.0138
3609.0,0.014
3608.0,0.0142
3607.0,0.0143
3606.0,0.0144
3605.0,0.0144
3604.0,0.0145
3603.0,0.0146
3602.0,0.0146
3601.0,0.0147
3600.0,0.0147
3599.0,0.0147
3598.0,0.0147
3597.0,0.0147
3596.0,0.0147
3595.0,0.0148
3594.0,0.0149
3593.0,0.0149
3592.0,0.0149
3591.0,0.015
3590.0,0.0151
3589.0,0.0152
3588.0,0.0153
3587.0,0.0154
3586.0,0.0154
3585.0,0.0155
3584.0,0.0157
3583.0,0.0158
3582.0,0.016
3581.0,0.0162
3580.0,0.0164
3579.0,0.0165
3578.0,0.0166
3577.0,0.0167
3576.0,0.0167
3575.0,0.0168
3574.0,0.0169
3573.0,0.017
3572.0,0.0172
3571.0,0.0174
3570.0,0.0177
3569.0,0.0181
3568.0,0.0184
3567.0,0.0185
3566.0,0.0185
3565.0,0.0184
3564.0,0.0184
3563.0,0.0185
3562.0,0.0187
3561.0,0.0188
3560.0,0.0189
3559.0,0.019
3558.0,0.019
3557.0,0.0191
3556.0,0.0193
3555.0,0.0195
3554.0,0.0198
3553.0,0.02
3552.0,0.0202
3551.0,0.0202
3550.0,0.0203
3549.0,0.0204
3548.0,0.0205
3547.0,0.0207
3546.0,0.0209
3545.0,0.021
3544.0,0.0212
3543.0,0.0213
3542.0,0.0214
3541.0,0.0214
3540.0,0.0215
3539.0,0.0215
3538.0,0.0215
3537.0,0.0216
3536.0,0.0216
3535.0,0.0217
3534.0,0.0219
3533.0,0.022
3532.0,0.0221
3531.0,0.0222
3530.0,0.0223
3529.0,0.0224
3528.0,0.0225
3527.0,0.0225
3526.0,0.0225
3525.0,0.0224
3524.0,0.0223
3523.0,0.0223
3522.0,0.0223
3521.0,0.0223
3520.0,0.0224
3519.0,0.0224
3518.0,0.0225
3517.0,0.0225
3516.0,0.0225
3515.0,0.0225
3514.0,0.0225
3513.0,0.0224
3512.0,0.0224
3511.0,0.0224
3510.0,0.0224
3509.0,0.0224
3508.0,0.0224
3507.0,0.0224
3506.0,0.0224
3505.0,0.0224
3504.0,0.0224
3503.0,0.0223
3502.0,0.0223
3501.0,0.0224
3500.0,0.0225
3499.0,0.0225
3498.0,0.0225
3497.0,0.0224
3496.0,0.0223
3495.0,0.0222
3494.0,0.0223
3493.0,0.0223
3492.0,0.0224
3491.0,0.0225
3490.0,0.0225
3489.0,0.0225
3488.0,0.0224
3487.0,0.0223
3486.0,0.0222
3485.0,0.0221
3484.0,0.0221
3483.0,0.0221
3482.0,0.0222
3481.0,0.0223
3480.0,0.0222
3479.0,0.0221
3478.0,0.0219
3477.0,0.0218
3476.0,0.0218
3475.0,0.0219
3474.0,0.0219
3473.0,0.0219
3472.0,0.0219
3471.0,0.0218
3470.0,0.0217
3469.0,0.0216
3468.0,0.0215
3467.0,0.0215
3466.0,0.0215
3465.0,0.0216
3464.0,0.0216
3463.0,0.0216
3462.0,0.0215
3461.0,0.0214
3460.0,0.0213
3459.0,0.0212
3458.0,0.0211
3457.0,0.0212
3456.0,0.0212
3455.0,0.0212
3454.0,0.0213
3453.0,0.0213
3452.0,0.0214
3451.0,0.0215
3450.0,0.0216
3449.0,0.0217
3448.0,0.0218
3447.0,0.0218
3446.0,0.0218
3445.0,0.0218
3444.0,0.0218
3443.0,0.0218
3442.0,0.0218
3441.0,0.022
3440.0,0.0221
3439.0,0.0223
3438.0,0.0225
3437.0,0.0226
3436.0,0.0227
3435.0,0.0227
3434.0,0.0227
3433.0,0.0227
3432.0,0.0227
3431.0,0.0229
3430.0,0.0231
3429.0,0.0233
3428.0,0.0234
3427.0,0.0235
3426.0,0.0235
3425.0,0.0236
3424.0,0.0237
3423.0,0.0238
3422.0,0.0241
3421.0,0.0243
3420.0,0.0246
3419.0,0.0247
3418.0,0.0249
3417.0,0.0249
3416.0,0.025
3415.0,0.0251
3414.0,0.0253
3413.0,0.0254
3412.0,0.0256
3411.0,0.0256
3410.0,0.0256
3409.0,0.0257
3408.0,0.0257
3407.0,0.0258
3406.0,0.0258
3405.0,0.0259
3404.0,0.026
3403.0,0.0261
3402.0,0.0262
3401.0,0.0262
3400.0,0.0261
3399.0,0.026
3398.0,0.0259
3397.0,0.0258
3396.0,0.0258
3395.0,0.0257
3394.0,0.0256
3393.0,0.0254
3392.0,0.0253
3391.0,0.0252
3390.0,0.025
3389.0,0.0249
3388.0,0.0247
3387.0,0.0245
3386.0,0.0245
3385.0,0.0244
3384.0,0.0243
3383.0,0.0242
3382.0,0.024
3381.0,0.0238
3380.0,0.0236
3379.0,0.0235
3378.0,0.0234
3377.0,0.0232
3376.0,0.023
3375.0,0.0229
3374.0,0.0227
3373.0,0.0227
3372.0,0.0227
3371.0,0.0226
3370.0,0.0225
3369.0,0.0224
3368.0,0.0222
3367.0,0.0221
3366.0,0.022
3365.0,0.022
3364.0,0.022
3363.0,0.0219
3362.0,0.0218
3361.0,0.0217
3360.0,0.0217
3359.0,0.0217
3358.0,0.0216
3357.0,0.0216
3356.0,0.0216
3355.0,0.0216
3354.0,0.0216
3353.0,0.0215
3352.0,0.0214
3351.0,0.0213
3350.0,0.0212
3349.0,0.0212
3348.0,0.0212
3347.0,0.0211
3346.0,0.021
3345.0,0.0209
3344.0,0.0209
3343.0,0.0209
3342.0,0.0209
3341.0,0.0209
3340.0,0.0209
3339.0,0.0208
3338.0,0.0208
3337.0,0.0207
3336.0,0.0206
3335.0,0.0206
3334.0,0.0206
3333.0,0.0206
3332.0,0.0206
3331.0,0.0205
3330.0,0.0204
3329.0,0.0203
3328.0,0.0202
3327.0,0.0202
3326.0,0.0202
3325.0,0.0202
3324.0,0.0201
3323.0,0.02
3322.0,0.0199
3321.0,0.0199
3320.0,0.0198
3319.0,0.0197
3318.0,0.0197
3317.0,0.0196
3316.0,0.0196
3315.0,0.0196
3314.0,0.0196
3313.0,0.0195
3312.0,0.0195
3311.0,0.0195
3310.0,0.0195
3309.0,0.0195
3308.0,0.0194
3307.0,0.0193
3306.0,0.0192
3305.0,0.0191
3304.0,0.019
3303.0,0.0189
3302.0,0.0188
3301.0,0.0188
3300.0,0.0188
3299.0,0.0188
3298.0,0.0188
3297.0,0.0188
3296.0,0.0188
3295.0,0.0188
3294.0,0.0188
3293.0,0.0188
3292.0,0.0188
3291.0,0.0188
3290.0,0.0188
3289.0,0.0188
3288.0,0.0188
3287.0,0.0188
3286.0,0.0188
3285.0,0.0188
3284.0,0.0188
3283.0,0.0187
3282.0,0.0186
3281.0,0.0185
3280.0,0.0184
3279.0,0.0183
3278.0,0.0181
3277.0,0.0181
3276.0,0.0181
3275.0,0.0181
3274.0,0.0181
3273.0,0.0181
3272.0,0.0181
3271.0,0.0181
3270.0,0.0181
3269.0,0.0181
3268.0,0.018
3267.0,0.018
3266.0,0.0179
3265.0,0.0178
3264.0,0.0178
3263.0,0.0177
3262.0,0.0177
3261.0,0.0178
3260.0,0.0178
3259.0,0.0178
3258.0,0.0177
3257.0,0.0177
3256.0,0.0177
3255.0,0.0176
3254.0,0.0175
3253.0,0.0175
3252.0,0.0176
3251.0,0.0176
3250.0,0.0176
3249.0,0.0175
3248.0,0.0175
3247.0,0.0174
3246.0,0.0173
3245.0,0.0173
3244.0,0.0173
3243.0,0.0173
3242.0,0.0173
3241.0,0.0173
3240.0,0.0173
3239.0,0.0172
3238.0,0.0172
3237.0,0.0171
3236.0,0.0171
3235.0,0.0171
3234.0,0.017
3233.0,0.0169
3232.0,0.0167
3231.0,0.0165
3230.0,0.0164
3229.0,0.0164
3228.0,0.0163
3227.0,0.0164
3226.0,0.0164
3225.0,0.0164
3224.0,0.0164
3223.0,0.0164
3222.0,0.0164
3221.0,0.0163
3220.0,0.0163
3219.0,0.0162
3218.0,0.0161
3217.0,0.016
3216.0,0.0159
3215.0,0.0159
3214.0,0.0159
3213.0,0.0159
3212.0,0.0159
3211.0,0.0159
3210.0,0.0159
3209.0,0.0158
3208.0,0.0157
3207.0,0.0157
3206.0,0.0156
3205.0,0.0155
3204.0,0.0154
3203.0,0.0153
3202.0,0.0153
3201.0,0.0152
3200.0,0.0151
3199.0,0.0151
3198.0,0.0152
3197.0,0.0152
3196.0,0.0151
3195.0,0.015
3194.0,0.0149
3193.0,0.0149
3192.0,0.0148
3191.0,0.0148
3190.0,0.0148
3189.0,0.0149
3188.0,0.0149
3187.0,0.0148
3186.0,0.0148
3185.0,0.0147
3184.0,0.0147
3183.0,0.0146
3182.0,0.0145
3181.0,0.0145
3180.0,0.0145
3179.0,0.0144
3178.0,0.0144
3177.0,0.0143
3176.0,0.0142
3175.0,0.0141
3174.0,0.0141
3173.0,0.0141
3172.0,0.0142
3171.0,0.0141
3170.0,0.0141
3169.0,0.0141
3168.0,0.014
3167.0,0.0139
3166.0,0.0139
3165.0,0.0137
3164.0,0.0136
3163.0,0.0136
3162.0,0.0136
3161.0,0.0136
3160.0,0.0136
3159.0,0.0136
3158.0,0.0136
3157.0,0.0135
3156.0,0.0135
3155.0,0.0134
3154.0,0.0133
3153.0,0.0133
3152.0,0.0133
3151.0,0.0134
3150.0,0.0134
3149.0,0.0133
3148.0,0.0132
3147.0,0.0131
3146.0,0.0131
3145.0,0.0131
3144.0,0.0131
3143.0,0.013
3142.0,0.0129
3141.0,0.0128
3140.0,0.0128
3139.0,0.0127
3138.0,0.0127
3137.0,0.0127
3136.0,0.0127
3135.0,0.0126
3134.0,0.0125
3133.0,0.0125
3132.0,0.0124
3131.0,0.0123
3130.0,0.0122
3129.0,0.0121
3128.0,0.012
3127.0,0.012
3126.0,0.012
3125.0,0.012
3124.0,0.0119
3123.0,0.0118
3122.0,0.0118
3121.0,0.0117
3120.0,0.0117
3119.0,0.0117
3118.0,0.0117
3117.0,0.0117
3116.0,0.0117
3115.0,0.0117
3114.0,0.0117
3113.0,0.0117
3112.0,0.0116
3111.0,0.0115
3110.0,0.0114
3109.0,0.0113
3108.0,0.0113
3107.0,0.0113
3106.0,0.0113
3105.0,0.0112
3104.0,0.0112
3103.0,0.0112
3102.0,0.0112
3101.0,0.0112
3100.0,0.0112
3099.0,0.0111
3098.0,0.011
3097.0,0.0109
3096.0,0.0108
3095.0,0.0108
3094.0,0.0108
3093.0,0.0109
3092.0,0.0109
3091.0,0.0109
3090.0,0.0108
3089.0,0.0108
3088.0,0.0108
3087.0,0.0108
3086.0,0.0107
3085.0,0.0106
3084.0,0.0105
3083.0,0.0104
3082.0,0.0104
3081.0,0.0104
3080.0,0.0104
3079.0,0.0104
3078.0,0.0103
3077.0,0.0103
3076.0,0.0102
3075.0,0.0102
3074.0,0.0102
3073.0,0.0101
3072.0,0.0101
3071.0,0.01
3070.0,0.0099
3069.0,0.0099
3068.0,0.0099
3067.0,0.0098
3066.0,0.0098
3065.0,0.0098
3064.0,0.0097
3063.0,0.0096
3062.0,0.0096
3061.0,0.0095
3060.0,0.0095
3059.0,0.0094
3058.0,0.0094
3057.0,0.0094
3056.0,0.0094
3055.0,0.0093
3054.0,0.0092
3053.0,0.0091
3052.0,0.009
3051.0,0.0089
3050.0,0.0088
3049.0,0.0088
3048.0,0.0088
3047.0,0.0087
3046.0,0.0087
3045.0,0.0086
3044.0,0.0085
3043.0,0.0085
3042.0,0.0084
3041.0,0.0084
3040.0,0.0083
3039.0,0.0082
3038.0,0.0081
3037.0,0.008
3036.0,0.008
3035.0,0.008
3034.0,0.0079
3033.0,0.0079
3032.0,0.0078
3031.0,0.0077
3030.0,0.0075
3029.0,0.0074
3028.0,0.0073
3027.0,0.0072
3026.0,0.0071
3025.0,0.007
3024.0,0.0069
3023.0,0.0068
3022.0,0.0066
3021.0,0.0065
3020.0,0.0063
3019.0,0.0062
3018.0,0.006
3017.0,0.0058
3016.0,0.0056
3015.0,0.0054
3014.0,0.0053
3013.0,0.0051
3012.0,0.005
3011.0,0.0049
3010.0,0.0048
3009.0,0.0047
3008.0,0.0045
3007.0,0.0043
3006.0,0.0041
3005.0,0.0039
3004.0,0.0037
3003.0,0.0035
3002.0,0.0034
3001.0,0.0033
3000.0,0.0031
2999.0,0.003
2998.0,0.0029
2997.0,0.0028
2996.0,0.0027
2995.0,0.0026
2994.0,0.0025
2993.0,0.0023
2992.0,0.002
2991.0,0.0018
2990.0,0.0015
2989.0,0.0014
2988.0,0.0014
2987.0,0.0014
2986.0,0.0015
2985.0,0.0015
2984.0,0.0015
2983.0,0.0016
2982.0,0.0016
2981.0,0.0017
2980.0,0.0017
2979.0,0.0018
2978.0,0.002
2977.0,0.0022
2976.0,0.0025
2975.0,0.0029
2974.0,0.0032
2973.0,0.0035
2972.0,0.0039
2971.0,0.0043
2970.0,0.0048
2969.0,0.0053
2968.0,0.006
2967.0,0.0067
2966.0,0.0075
2965.0,0.0082
2964.0,0.009
2963.0,0.0096
2962.0,0.0102
2961.0,0.0108
2960.0,0.0113
2959.0,0.0117
2958.0,0.012
2957.0,0.0124
2956.0,0.0127
2955.0,0.0129
2954.0,0.0131
2953.0,0.0132
2952.0,0.0133
2951.0,0.0133
2950.0,0.0135
2949.0,0.0139
2948.0,0.0146
2947.0,0.0156
2946.0,0.017
2945.0,0.0186
2944.0,0.0204
2943.0,0.0225
2942.0,0.0248
2941.0,0.0273
2940.0,0.0301
2939.0,0.0331
2938.0,0.0365
2937.0,0.0401
2936.0,0.0439
2935.0,0.0481
2934.0,0.0526
2933.0,0.0574
2932.0,0.0626
2931.0,0.0681
2930.0,0.0741
2929.0,0.0804
2928.0,0.0872
2927.0,0.0945
2926.0,0.1025
2925.0,0.1111
2924.0,0.1206
2923.0,0.1308
2922.0,0.1418
2921.0,0.1532
2920.0,0.1644
2919.0,0.1747
2918.0,0.1828
2917.0,0.1874
2916.0,0.1877
2915.0,0.1837
2914.0,0.1763
2913.0,0.1671
2912.0,0.1573
2911.0,0.148
2910.0,0.1396
2909.0,0.1322
2908.0,0.1259
2907.0,0.1205
2906.0,0.1158
2905.0,0.1116
2904.0,0.108
2903.0,0.1048
2902.0,0.102
2901.0,0.0996
2900.0,0.0973
2899.0,0.0952
2898.0,0.0931
2897.0,0.0911
2896.0,0.0891
2895.0,0.0872
2894.0,0.0852
2893.0,0.0833
2892.0,0.0813
2891.0,0.0793
2890.0,0.0771
2889.0,0.0749
2888.0,0.0726
2887.0,0.0704
2886.0,0.0682
2885.0,0.0661
2884.0,0.0641
2883.0,0.0621
2882.0,0.0601
2881.0,0.0582
2880.0,0.0564
2879.0,0.0547
2878.0,0.0531
2877.0,0.0516
2876.0,0.0502
2875.0,0.0489
2874.0,0.0478
2873.0,0.0469
2872.0,0.046
2871.0,0.0452
2870.0,0.0445
2869.0,0.0439
2868.0,0.0436
2867.0,0.0435
2866.0,0.0438
2865.0,0.0445
2864.0,0.0457
2863.0,0.0475
2862.0,0.0499
2861.0,0.0531
2860.0,0.0572
2859.0,0.0622
2858.0,0.0682
2857.0,0.0756
2856.0,0.0844
2855.0,0.0949
2854.0,0.1072
2853.0,0.1213
2852.0,0.1365
2851.0,0.1511
2850.0,0.1625
2849.0,0.1682
2848.0,0.1669
2847.0,0.1597
2846.0,0.1486
2845.0,0.1362
2844.0,0.1241
2843.0,0.1132
2842.0,0.1037
2841.0,0.0956
2840.0,0.0887
2839.0,0.0829
2838.0,0.0779
2837.0,0.0737
2836.0,0.0701
2835.0,0.0669
2834.0,0.064
2833.0,0.0615
2832.0,0.0593
2831.0,0.0574
2830.0,0.0557
2829.0,0.0541
2828.0,0.0527
2827.0,0.0515
2826.0,0.0503
2825.0,0.0492
2824.0,0.0482
2823.0,0.0472
2822.0,0.0463
2821.0,0.0455
2820.0,0.0448
2819.0,0.0441
2818.0,0.0434
2817.0,0.0427
2816.0,0.042
2815.0,0.0414
2814.0,0.0408
2813.0,0.0403
2812.0,0.0397
2811.0,0.0392
2810.0,0.0387
2809.0,0.0383
2808.0,0.0379
2807.0,0.0375
2806.0,0.0371
2805.0,0.0366
2804.0,0.0361
2803.0,0.0357
2802.0,0.0354
2801.0,0.0351
2800.0,0.0348
2799.0,0.0345
2798.0,0.0342
2797.0,0.0338
2796.0,0.0335
2795.0,0.0332
2794.0,0.0329
2793.0,0.0327
2792.0,0.0324
2791.0,0.0321
2790.0,0.0319
2789.0,0.0317
2788.0,0.0314
2787.0,0.0312
2786.0,0.0309
2785.0,0.0306
2784.0,0.0303
2783.0,0.0301
2782.0,0.0298
2781.0,0.0296
2780.0,0.0295
2779.0,0.0293
2778.0,0.029
2777.0,0.0288
2776.0,0.0285
2775.0,0.0284
2774.0,0.0283
2773.0,0.0282
2772.0,0.0281
2771.0,0.0279
2770.0,0.0277
2769.0,0.0275
2768.0,0.0274
2767.0,0.0272
2766.0,0.0271
2765.0,0.027
2764.0,0.0269
2763.0,0.0268
2762.0,0.0266
2761.0,0.0265
2760.0,0.0263
2759.0,0.0262
2758.0,0.0262
2757.0,0.0261
2756.0,0.026
2755.0,0.026
2754.0,0.026
2753.0,0.0259
2752.0,0.0259
2751.0,0.0258
2750.0,0.0257
2749.0,0.0256
2748.0,0.0255
2747.0,0.0254
2746.0,0.0252
2745.0,0.0251
2744.0,0.0249
2743.0,0.0249
2742.0,0.0248
2741.0,0.0248
2740.0,0.0247
2739.0,0.0246
2738.0,0.0245
2737.0,0.0245
2736.0,0.0244
2735.0,0.0244
2734.0,0.0244
2733.0,0.0244
2732.0,0.0243
2731.0,0.0243
2730.0,0.0242
2729.0,0.0242
2728.0,0.0241
2727.0,0.0241
2726.0,0.024
2725.0,0.0239
2724.0,0.0238
2723.0,0.0237
2722.0,0.0236
2721.0,0.0236
2720.0,0.0235
2719.0,0.0234
2718.0,0.0233
2717.0,0.0233
2716.0,0.0233
2715.0,0.0232
2714.0,0.0232
2713.0,0.0231
2712.0,0.023
2711.0,0.0229
2710.0,0.0228
2709.0,0.0227
2708.0,0.0226
2707.0,0.0226
2706.0,0.0225
2705.0,0.0225
2704.0,0.0224
2703.0,0.0224
2702.0,0.0223
2701.0,0.0223
2700.0,0.0222
2699.0,0.0222
2698.0,0.0221
2697.0,0.0221
2696.0,0.022
2695.0,0.022
2694.0,0.022
2693.0,0.022
2692.0,0.022
2691.0,0.022
2690.0,0.0219
2689.0,0.0218
2688.0,0.0218
2687.0,0.0218
2686.0,0.0218
2685.0,0.0218
2684.0,0.0218
2683.0,0.0218
2682.0,0.0217
2681.0,0.0216
2680.0,0.0216
2679.0,0.0217
2678.0,0.0217
2677.0,0.0218
2676.0,0.0217
2675.0,0.0217
2674.0,0.0216
2673.0,0.0216
2672.0,0.0216
2671.0,0.0216
2670.0,0.0215
2669.0,0.0214
2668.0,0.0214
2667.0,0.0214
2666.0,0.0214
2665.0,0.0214
2664.0,0.0214
2663.0,0.0213
2662.0,0.0213
2661.0,0.0212
2660.0,0.0212
2659.0,0.0212
2658.0,0.0212
2657.0,0.0212
2656.0,0.0212
2655.0,0.0211
2654.0,0.0211
2653.0,0.0211
2652.0,0.021
2651.0,0.0211
2650.0,0.0211
2649.0,0.0211
2648.0,0.0211
2647.0,0.021
2646.0,0.021
2645.0,0.0209
2644.0,0.0209
2643.0,0.0208
2642.0,0.0208
2641.0,0.0208
2640.0,0.0207
2639.0,0.0207
2638.0,0.0207
2637.0,0.0207
2636.0,0.0207
2635.0,0.0207
2634.0,0.0207
2633.0,0.0207
2632.0,0.0207
2631.0,0.0206
2630.0,0.0205
2629.0,0.0204
2628.0,0.0203
2627.0,0.0203
2626.0,0.0202
2625.0,0.0202
2624.0,0.0202
2623.0,0.0202
2622.0,0.0201
2621.0,0.02
2620.0,0.02
2619.0,0.0199
2618.0,0.0199
2617.0,0.0198
2616.0,0.0198
2615.0,0.0198
2614.0,0.0198
2613.0,0.0198
2612.0,0.0198
2611.0,0.0197
2610.0,0.0196
2609.0,0.0195
2608.0,0.0195
2607.0,0.0195
2606.0,0.0195
2605.0,0.0195
2604.0,0.0194
2603.0,0.0194
2602.0,0.0194
2601.0,0.0194
2600.0,0.0193
2599.0,0.0192
2598.0,0.0192
2597.0,0.0191
2596.0,0.019
2595.0,0.019
2594.0,0.019
2593.0,0.019
2592.0,0.019
2591.0,0.019
2590.0,0.0189
2589.0,0.0188
2588.0,0.0187
2587.0,0.0187
2586.0,0.0187
2585.0,0.0187
2584.0,0.0187
2583.0,0.0186
2582.0,0.0186
2581.0,0.0185
2580.0,0.0184
2579.0,0.0184
2578.0,0.0184
2577.0,0.0184
2576.0,0.0184
2575.0,0.0184
2574.0,0.0184
2573.0,0.0184
2572.0,0.0183
2571.0,0.0182
2570.0,0.0182
2569.0,0.0181
2568.0,0.0181
2567.0,0.018
2566.0,0.018
2565.0,0.018
2564.0,0.0179
2563.0,0.0179
2562.0,0.0179
2561.0,0.0179
2560.0,0.0179
2559.0,0.0178
2558.0,0.0177
2557.0,0.0176
2556.0,0.0176
2555.0,0.0176
2554.0,0.0176
2553.0,0.0177
2552.0,0.0177
2551.0,0.0177
2550.0,0.0176
2549.0,0.0175
2548.0,0.0175
2547.0,0.0175
2546.0,0.0175
2545.0,0.0175
2544.0,0.0175
2543.0,0.0175
2542.0,0.0174
2541.0,0.0174
2540.0,0.0173
2539.0,0.0173
2538.0,0.0172
2537.0,0.0171
2536.0,0.0171
2535.0,0.0171
2534.0,0.0172
2533.0,0.0172
2532.0,0.0172
2531.0,0.0172
2530.0,0.0172
2529.0,0.0171
2528.0,0.0171
2527.0,0.0171
2526.0,0.0172
2525.0,0.0172
2524.0,0.0172
2523.0,0.0171
2522.0,0.017
2521.0,0.0168
2520.0,0.0167
2519.0,0.0167
2518.0,0.0167
2517.0,0.0167
2516.0,0.0168
2515.0,0.0169
2514.0,0.0169
2513.0,0.0168
2512.0,0.0167
2511.0,0.0167
2510.0,0.0166
2509.0,0.0166
2508.0,0.0165
2507.0,0.0165
2506.0,0.0165
2505.0,0.0165
2504.0,0.0165
2503.0,0.0165
2502.0,0.0165
2501.0,0.0165
2500.0,0.0166
2499.0,0.0166
2498.0,0.0166
2497.0,0.0165
2496.0,0.0165
2495.0,0.0165
2494.0,0.0164
2493.0,0.0164
2492.0,0.0164
2491.0,0.0164
2490.0,0.0164
2489.0,0.0163
2488.0,0.0163
2487.0,0.0163
2486.0,0.0163
2485.0,0.0163
2484.0,0.0162
2483.0,0.0162
2482.0,0.0161
2481.0,0.0161
2480.0,0.0161
2479.0,0.016
2478.0,0.016
2477.0,0.016
2476.0,0.0161
2475.0,0.0161
2474.0,0.0161
2473.0,0.0161
2472.0,0.0161
2471.0,0.0161
2470.0,0.0161
2469.0,0.0161
2468.0,0.016
2467.0,0.016
2466.0,0.0159
2465.0,0.0159
2464.0,0.0159
2463.0,0.0159
2462.0,0.0159
2461.0,0.0159
2460.0,0.0159
2459.0,0.0159
2458.0,0.0158
2457.0,0.0158
2456.0,0.0157
2455.0,0.0156
2454.0,0.0156
2453.0,0.0156
2452.0,0.0157
2451.0,0.0158
2450.0,0.0157
2449.0,0.0157
2448.0,0.0157
2447.0,0.0157
2446.0,0.0157
2445.0,0.0157
2444.0,0.0156
2443.0,0.0156
2442.0,0.0156
2441.0,0.0155
2440.0,0.0155
2439.0,0.0155
2438.0,0.0155
2437.0,0.0154
2436.0,0.0155
2435.0,0.0155
2434.0,0.0156
2433.0,0.0156
2432.0,0.0156
2431.0,0.0156
2430.0,0.0155
2429.0,0.0154
2428.0,0.0154
2427.0,0.0154
2426.0,0.0155
2425.0,0.0155
2424.0,0.0155
2423.0,0.0155
2422.0,0.0154
2421.0,0.0154
2420.0,0.0154
2419.0,0.0154
2418.0,0.0155
2417.0,0.0154
2416.0,0.0154
2415.0,0.0153
2414.0,0.0152
2413.0,0.0152
2412.0,0.0152
2411.0,0.0152
2410.0,0.0152
2409.0,0.0152
2408.0,0.0153
2407.0,0.0153
2406.0,0.0153
2405.0,0.0153
2404.0,0.0152
2403.0,0.0152
2402.0,0.0152
2401.0,0.0152
2400.0,0.0152
2399.0,0.0152
2398.0,0.0152
2397.0,0.0151
2396.0,0.0151
2395.0,0.0152
2394.0,0.0151
2393.0,0.0151
2392.0,0.015
2391.0,0.015
2390.0,0.0149
2389.0,0.0147
2388.0,0.0145
2387.0,0.0142
2386.0,0.0139
2385.0,0.0136
2384.0,0.0133
2383.0,0.0131
2382.0,0.0129
2381.0,0.0128
2380.0,0.0129
2379.0,0.0131
2378.0,0.0134
2377.0,0.0138
2376.0,0.0142
2375.0,0.0144
2374.0,0.0141
2373.0,0.0136
2372.0,0.0129
2371.0,0.0125
2370.0,0.0126
2369.0,0.013
2368.0,0.013
2367.0,0.0126
2366.0,0.0128
2365.0,0.0136
2364.0,0.0141
2363.0,0.0144
2362.0,0.0147
2361.0,0.016
2360.0,0.0169
2359.0,0.0175
2358.0,0.0161
2357.0,0.0108
2356.0,0.0107
2355.0,0.0101
2354.0,0.0104
2353.0,0.011
2352.0,0.0119
2351.0,0.0123
2350.0,0.0123
2349.0,0.0119
2348.0,0.0112
2347.0,0.0104
2346.0,0.0099
2345.0,0.01
2344.0,0.0107
2343.0,0.0111
2342.0,0.011
2341.0,0.0109
2340.0,0.0108
2339.0,0.0112
2338.0,0.0121
2337.0,0.012
2336.0,0.0118
2335.0,0.0116
2334.0,0.0115
2333.0,0.0118
2332.0,0.0118
2331.0,0.0117
2330.0,0.0115
2329.0,0.0114
2328.0,0.0118
2327.0,0.0123
2326.0,0.0131
2325.0,0.0138
2324.0,0.014
2323.0,0.0139
2322.0,0.0135
2321.0,0.0134
2320.0,0.0131
2319.0,0.013
2318.0,0.013
2317.0,0.0132
2316.0,0.0137
2315.0,0.0141
2314.0,0.0143
2313.0,0.0143
2312.0,0.0143
2311.0,0.0142
2310.0,0.0141
2309.0,0.0141
2308.0,0.0141
2307.0,0.0141
2306.0,0.0141
2305.0,0.0141
2304.0,0.0142
2303.0,0.0143
2302.0,0.0144
2301.0,0.0144
2300.0,0.0144
2299.0,0.0144
2298.0,0.0144
2297.0,0.0144
2296.0,0.0145
2295.0,0.0146
2294.0,0.0146
2293.0,0.0146
2292.0,0.0147
2291.0,0.0147
2290.0,0.0147
2289.0,0.0148
2288.0,0.0149
2287.0,0.0149
2286.0,0.0149
2285.0,0.0148
2284.0,0.0148
2283.0,0.0147
2282.0,0.0147
2281.0,0.0148
2280.0,0.0149
2279.0,0.0149
2278.0,0.015
2277.0,0.015
2276.0,0.015
2275.0,0.015
2274.0,0.015
2273.0,0.015
2272.0,0.015
2271.0,0.015
2270.0,0.015
2269.0,0.015
2268.0,0.0149
2267.0,0.0149
2266.0,0.0148
2265.0,0.0148
2264.0,0.0148
2263.0,0.0147
2262.0,0.0148
2261.0,0.0148
2260.0,0.0148
2259.0,0.0148
2258.0,0.0148
2257.0,0.0149
2256.0,0.0149
2255.0,0.0148
2254.0,0.0148
2253.0,0.0148
2252.0,0.0148
2251.0,0.0149
2250.0,0.0149
2249.0,0.0148
2248.0,0.0148
2247.0,0.0148
2246.0,0.0148
2245.0,0.0148
2244.0,0.0148
2243.0,0.0148
2242.0,0.0147
2241.0,0.0147
2240.0,0.0148
2239.0,0.0148
2238.0,0.0147
2237.0,0.0147
2236.0,0.0146
2235.0,0.0146
2234.0,0.0146
2233.0,0.0147
2232.0,0.0147
2231.0,0.0147
2230.0,0.0146
2229.0,0.0146
2228.0,0.0146
2227.0,0.0146
2226.0,0.0146
2225.0,0.0147
2224.0,0.0148
2223.0,0.0148
2222.0,0.0148
2221.0,0.0148
2220.0,0.0148
2219.0,0.0147
2218.0,0.0146
2217.0,0.0146
2216.0,0.0146
2215.0,0.0146
2214.0,0.0146
2213.0,0.0146
2212.0,0.0146
2211.0,0.0146
2210.0,0.0146
2209.0,0.0146
2208.0,0.0146
2207.0,0.0146
2206.0,0.0146
2205.0,0.0146
2204.0,0.0145
2203.0,0.0145
2202.0,0.0145
2201.0,0.0145
2200.0,0.0145
2199.0,0.0145
2198.0,0.0145
2197.0,0.0146
2196.0,0.0146
2195.0,0.0146
2194.0,0.0146
2193.0,0.0146
2192.0,0.0146
2191.0,0.0145
2190.0,0.0145
2189.0,0.0145
2188.0,0.0144
2187.0,0.0144
2186.0,0.0143
2185.0,0.0143
2184.0,0.0144
2183.0,0.0144
2182.0,0.0143
2181.0,0.0143
2180.0,0.0143
2179.0,0.0143
2178.0,0.0143
2177.0,0.0144
2176.0,0.0144
2175.0,0.0143
2174.0,0.0143
2173.0,0.0143
2172.0,0.0143
2171.0,0.0143
2170.0,0.0143
2169.0,0.0143
2168.0,0.0143
2167.0,0.0143
2166.0,0.0142
2165.0,0.0142
2164.0,0.0142
2163.0,0.0142
2162.0,0.0142
2161.0,0.0142
2160.0,0.0142
2159.0,0.0142
2158.0,0.0143
2157.0,0.0143
2156.0,0.0143
2155.0,0.0143
2154.0,0.0142
2153.0,0.0142
2152.0,0.0141
2151.0,0.0141
2150.0,0.0141
2149.0,0.0141
2148.0,0.0141
2147.0,0.0141
2146.0,0.0142
2145.0,0.0142
2144.0,0.0142
2143.0,0.0142
2142.0,0.0142
2141.0,0.0142
2140.0,0.0141
2139.0,0.0141
2138.0,0.0141
2137.0,0.0142
2136.0,0.0142
2135.0,0.0142
2134.0,0.0142
2133.0,0.0141
2132.0,0.0141
2131.0,0.0141
2130.0,0.0141
2129.0,0.0141
2128.0,0.014
2127.0,0.014
2126.0,0.014
2125.0,0.014
2124.0,0.0139
2123.0,0.0139
2122.0,0.0139
2121.0,0.0139
2120.0,0.0139
2119.0,0.0139
2118.0,0.0139
2117.0,0.0139
2116.0,0.014
2115.0,0.014
2114.0,0.0139
2113.0,0.0139
2112.0,0.0139
2111.0,0.0139
2110.0,0.0139
2109.0,0.0139
2108.0,0.0139
2107.0,0.0139
2106.0,0.0139
2105.0,0.0139
2104.0,0.0139
2103.0,0.0139
2102.0,0.0139
2101.0,0.0138
2100.0,0.0138
2099.0,0.0138
2098.0,0.0137
2097.0,0.0137
2096.0,0.0137
2095.0,0.0137
2094.0,0.0137
2093.0,0.0137
2092.0,0.0137
2091.0,0.0138
2090.0,0.0138
2089.0,0.0138
2088.0,0.0138
2087.0,0.0137
2086.0,0.0137
2085.0,0.0136
2084.0,0.0136
2083.0,0.0136
2082.0,0.0136
2081.0,0.0136
2080.0,0.0136
2079.0,0.0135
2078.0,0.0135
2077.0,0.0135
2076.0,0.0135
2075.0,0.0136
2074.0,0.0136
2073.0,0.0136
2072.0,0.0135
2071.0,0.0135
2070.0,0.0135
2069.0,0.0135
2068.0,0.0135
2067.0,0.0136
2066.0,0.0136
2065.0,0.0136
2064.0,0.0137
2063.0,0.0137
2062.0,0.0137
2061.0,0.0137
2060.0,0.0136
2059.0,0.0137
2058.0,0.0137
2057.0,0.0137
2056.0,0.0137
2055.0,0.0136
2054.0,0.0136
2053.0,0.0136
2052.0,0.0136
2051.0,0.0136
2050.0,0.0136
2049.0,0.0136
2048.0,0.0136
2047.0,0.0136
2046.0,0.0136
2045.0,0.0137
2044.0,0.0137
2043.0,0.0137
2042.0,0.0137
2041.0,0.0137
2040.0,0.0136
2039.0,0.0135
2038.0,0.0135
2037.0,0.0135
2036.0,0.0135
2035.0,0.0136
2034.0,0.0136
2033.0,0.0137
2032.0,0.0138
2031.0,0.0138
2030.0,0.0138
2029.0,0.0138
2028.0,0.0138
2027.0,0.0138
2026.0,0.0138
2025.0,0.0138
2024.0,0.0139
2023.0,0.0139
2022.0,0.0139
2021.0,0.014
2020.0,0.014
2019.0,0.014
2018.0,0.014
2017.0,0.014
2016.0,0.014
2015.0,0.0139
2014.0,0.0138
2013.0,0.0138
2012.0,0.0137
2011.0,0.0137
2010.0,0.0137
2009.0,0.0136
2008.0,0.0136
2007.0,0.0136
2006.0,0.0136
2005.0,0.0136
2004.0,0.0135
2003.0,0.0135
2002.0,0.0134
2001.0,0.0134
2000.0,0.0135
1999.0,0.0135
1998.0,0.0134
1997.0,0.0134
1996.0,0.0133
1995.0,0.0133
1994.0,0.0133
1993.0,0.0134
1992.0,0.0134
1991.0,0.0135
1990.0,0.0135
1989.0,0.0134
1988.0,0.0134
1987.0,0.0134
1986.0,0.0134
1985.0,0.0134
1984.0,0.0134
1983.0,0.0134
1982.0,0.0134
1981.0,0.0133
1980.0,0.0133
1979.0,0.0134
1978.0,0.0134
1977.0,0.0134
1976.0,0.0134
1975.0,0.0134
1974.0,0.0133
1973.0,0.0133
1972.0,0.0134
1971.0,0.0134
1970.0,0.0134
1969.0,0.0134
1968.0,0.0134
1967.0,0.0134
1966.0,0.0134
1965.0,0.0134
1964.0,0.0134
1963.0,0.0134
1962.0,0.0134
1961.0,0.0134
1960.0,0.0134
1959.0,0.0134
1958.0,0.0134
1957.0,0.0134
1956.0,0.0134
1955.0,0.0134
1954.0,0.0134
1953.0,0.0134
1952.0,0.0134
1951.0,0.0133
1950.0,0.0133
1949.0,0.0133
1948.0,0.0133
1947.0,0.0133
1946.0,0.0133
1945.0,0.0133
1944.0,0.0133
1943.0,0.0134
1942.0,0.0134
1941.0,0.0133
1940.0,0.0133
1939.0,0.0133
1938.0,0.0133
1937.0,0.0133
1936.0,0.0133
1935.0,0.0132
1934.0,0.0132
1933.0,0.0133
1932.0,0.0133
1931.0,0.0133
1930.0,0.0133
1929.0,0.0133
1928.0,0.0133
1927.0,0.0133
1926.0,0.0132
1925.0,0.0133
1924.0,0.0133
1923.0,0.0134
1922.0,0.0134
1921.0,0.0135
1920.0,0.0135
1919.0,0.0134
1918.0,0.0134
1917.0,0.0134
1916.0,0.0134
1915.0,0.0134
1914.0,0.0133
1913.0,0.0133
1912.0,0.0134
1911.0,0.0134
1910.0,0.0134
1909.0,0.0134
1908.0,0.0134
1907.0,0.0135
1906.0,0.0135
1905.0,0.0135
1904.0,0.0135
1903.0,0.0135
1902.0,0.0135
1901.0,0.0136
1900.0,0.0136
1899.0,0.0136
1898.0,0.0137
1897.0,0.0136
1896.0,0.0135
1895.0,0.0135
1894.0,0.0134
1893.0,0.0135
1892.0,0.0135
1891.0,0.0136
1890.0,0.0136
1889.0,0.0136
1888.0,0.0135
1887.0,0.0135
1886.0,0.0134
1885.0,0.0134
1884.0,0.0134
1883.0,0.0134
1882.0,0.0134
1881.0,0.0134
1880.0,0.0134
1879.0,0.0133
1878.0,0.0133
1877.0,0.0133
1876.0,0.0133
1875.0,0.0133
1874.0,0.0134
1873.0,0.0134
1872.0,0.0134
1871.0,0.0133
1870.0,0.0133
1869.0,0.0133
1868.0,0.0134
1867.0,0.0134
1866.0,0.0134
1865.0,0.0134
1864.0,0.0134
1863.0,0.0134
1862.0,0.0133
1861.0,0.0133
1860.0,0.0132
1859.0,0.0132
1858.0,0.0132
1857.0,0.0133
1856.0,0.0133
1855.0,0.0133
1854.0,0.0133
1853.0,0.0133
1852.0,0.0133
1851.0,0.0133
1850.0,0.0133
1849.0,0.0133
1848.0,0.0133
1847.0,0.0133
1846.0,0.0133
1845.0,0.0133
1844.0,0.0132
1843.0,0.0132
1842.0,0.0132
1841.0,0.0132
1840.0,0.0133
1839.0,0.0133
1838.0,0.0133
1837.0,0.0133
1836.0,0.0133
1835.0,0.0133
1834.0,0.0132
1833.0,0.0132
1832.0,0.0132
1831.0,0.0133
1830.0,0.0133
1829.0,0.0133
1828.0,0.0133
1827.0,0.0133
1826.0,0.0133
1825.0,0.0133
1824.0,0.0133
1823.0,0.0133
1822.0,0.0133
1821.0,0.0134
1820.0,0.0134
1819.0,0.0134
1818.0,0.0134
1817.0,0.0134
1816.0,0.0134
1815.0,0.0134
1814.0,0.0134
1813.0,0.0135
1812.0,0.0135
1811.0,0.0134
1810.0,0.0134
1809.0,0.0134
1808.0,0.0134
1807.0,0.0134
1806.0,0.0135
1805.0,0.0135
1804.0,0.0135
1803.0,0.0134
1802.0,0.0134
1801.0,0.0134
1800.0,0.0134
1799.0,0.0135
1798.0,0.0135
1797.0,0.0135
1796.0,0.0135
1795.0,0.0134
1794.0,0.0134
1793.0,0.0134
1792.0,0.0134
1791.0,0.0135
1790.0,0.0134
1789.0,0.0134
1788.0,0.0134
1787.0,0.0134
1786.0,0.0135
1785.0,0.0135
1784.0,0.0136
1783.0,0.0136
1782.0,0.0136
1781.0,0.0136
1780.0,0.0135
1779.0,0.0135
1778.0,0.0134
1777.0,0.0134
1776.0,0.0134
1775.0,0.0135
1774.0,0.0135
1773.0,0.0135
1772.0,0.0136
1771.0,0.0136
1770.0,0.0136
1769.0,0.0136
1768.0,0.0135
1767.0,0.0135
1766.0,0.0135
1765.0,0.0136
1764.0,0.0136
1763.0,0.0136
1762.0,0.0135
1761.0,0.0134
1760.0,0.0134
1759.0,0.0135
1758.0,0.0136
1757.0,0.0137
1756.0,0.0137
1755.0,0.0138
1754.0,0.0138
1753.0,0.0138
1752.0,0.0138
1751.0,0.0138
1750.0,0.0139
1749.0,0.014
1748.0,0.0142
1747.0,0.0142
1746.0,0.0142
1745.0,0.0143
1744.0,0.0143
1743.0,0.0143
1742.0,0.0143
1741.0,0.0143
1740.0,0.0144
1739.0,0.0143
1738.0,0.0143
1737.0,0.0143
1736.0,0.0143
1735.0,0.0143
1734.0,0.0143
1733.0,0.0144
1732.0,0.0146
1731.0,0.0147
1730.0,0.0148
1729.0,0.0149
1728.0,0.0149
1727.0,0.0149
1726.0,0.0149
1725.0,0.015
1724.0,0.015
1723.0,0.0151
1722.0,0.0152
1721.0,0.0152
1720.0,0.0153
1719.0,0.0152
1718.0,0.0152
1717.0,0.0153
1716.0,0.0153
1715.0,0.0154
1714.0,0.0154
1713.0,0.0154
1712.0,0.0155
1711.0,0.0155
1710.0,0.0154
1709.0,0.0154
1708.0,0.0154
1707.0,0.0155
1706.0,0.0155
1705.0,0.0157
1704.0,0.0157
1703.0,0.0158
1702.0,0.0157
1701.0,0.0157
1700.0,0.0157
1699.0,0.0158
1698.0,0.0159
1697.0,0.0163
1696.0,0.0167
1695.0,0.0169
1694.0,0.0171
1693.0,0.0175
1692.0,0.0179
1691.0,0.0183
1690.0,0.0188
1689.0,0.0192
1688.0,0.0196
1687.0,0.0199
1686.0,0.0201
1685.0,0.0205
1684.0,0.0209
1683.0,0.021
1682.0,0.0209
1681.0,0.0208
1680.0,0.0206
1679.0,0.0203
1678.0,0.0199
1677.0,0.0196
1676.0,0.0192
1675.0,0.019
1674.0,0.0188
1673.0,0.0187
1672.0,0.0187
1671.0,0.0186
1670.0,0.0185
1669.0,0.0183
1668.0,0.0181
1667.0,0.0181
1666.0,0.018
1665.0,0.018
1664.0,0.018
1663.0,0.018
1662.0,0.018
1661.0,0.018
1660.0,0.018
1659.0,0.018
1658.0,0.018
1657.0,0.018
1656.0,0.018
1655.0,0.0179
1654.0,0.0178
1653.0,0.018
1652.0,0.018
1651.0,0.018
1650.0,0.0181
1649.0,0.0183
1648.0,0.0184
1647.0,0.0185
1646.0,0.0184
1645.0,0.0183
1644.0,0.0183
1643.0,0.0184
1642.0,0.0185
1641.0,0.0186
1640.0,0.0186
1639.0,0.0186
1638.0,0.0186
1637.0,0.0187
1636.0,0.019
1635.0,0.0192
1634.0,0.0193
1633.0,0.0195
1632.0,0.0198
1631.0,0.0201
1630.0,0.0205
1629.0,0.021
1628.0,0.0216
1627.0,0.0222
1626.0,0.0227
1625.0,0.0233
1624.0,0.024
1623.0,0.0245
1622.0,0.0246
1621.0,0.0245
1620.0,0.0242
1619.0,0.0238
1618.0,0.0232
1617.0,0.0224
1616.0,0.0216
1615.0,0.021
1614.0,0.0205
1613.0,0.0201
1612.0,0.0197
1611.0,0.0193
1610.0,0.019
1609.0,0.0187
1608.0,0.0185
1607.0,0.0182
1606.0,0.018
1605.0,0.0178
1604.0,0.0177
1603.0,0.0175
1602.0,0.0174
1601.0,0.0173
1600.0,0.0172
1599.0,0.0171
1598.0,0.017
1597.0,0.017
1596.0,0.017
1595.0,0.0169
1594.0,0.0168
1593.0,0.0167
1592.0,0.0166
1591.0,0.0165
1590.0,0.0165
1589.0,0.0164
1588.0,0.0164
1587.0,0.0163
1586.0,0.0163
1585.0,0.0163
1584.0,0.0162
1583.0,0.0162
1582.0,0.0161
1581.0,0.016
1580.0,0.016
1579.0,0.016
1578.0,0.016
1577.0,0.016
1576.0,0.0159
1575.0,0.0158
1574.0,0.0157
1573.0,0.0157
1572.0,0.0156
1571.0,0.0156
1570.0,0.0156
1569.0,0.0156
1568.0,0.0156
1567.0,0.0155
1566.0,0.0155
1565.0,0.0155
1564.0,0.0155
1563.0,0.0155
1562.0,0.0155
1561.0,0.0155
1560.0,0.0154
1559.0,0.0155
1558.0,0.0154
1557.0,0.0153
1556.0,0.0153
1555.0,0.0154
1554.0,0.0154
1553.0,0.0155
1552.0,0.0155
1551.0,0.0155
1550.0,0.0155
1549.0,0.0155
1548.0,0.0154
1547.0,0.0153
1546.0,0.0153
1545.0,0.0152
1544.0,0.0152
1543.0,0.0152
1542.0,0.0151
1541.0,0.0153
1540.0,0.0155
1539.0,0.0153
1538.0,0.015
1537.0,0.015
1536.0,0.015
1535.0,0.015
1534.0,0.015
1533.0,0.015
1532.0,0.015
1531.0,0.0149
1530.0,0.0148
1529.0,0.0148
1528.0,0.0148
1527.0,0.0148
1526.0,0.0147
1525.0,0.0147
1524.0,0.0146
1523.0,0.0144
1522.0,0.0143
1521.0,0.0144
1520.0,0.0145
1519.0,0.0145
1518.0,0.0145
1517.0,0.0145
1516.0,0.0144
1515.0,0.0142
1514.0,0.014
1513.0,0.0139
1512.0,0.0139
1511.0,0.0139
1510.0,0.014
1509.0,0.0142
1508.0,0.0144
1507.0,0.0144
1506.0,0.014
1505.0,0.0137
1504.0,0.0136
1503.0,0.0136
1502.0,0.0135
1501.0,0.0135
1500.0,0.0135
1499.0,0.0135
1498.0,0.0135
1497.0,0.0135
1496.0,0.0135
1495.0,0.0133
1494.0,0.0132
1493.0,0.0132
1492.0,0.0132
1491.0,0.0132
1490.0,0.0131
1489.0,0.0131
1488.0,0.0131
1487.0,0.013
1486.0,0.0128
1485.0,0.0127
1484.0,0.0127
1483.0,0.0127
1482.0,0.0127
1481.0,0.013
1480.0,0.0134
1479.0,0.0142
1478.0,0.016
1477.0,0.0199
1476.0,0.0264
1475.0,0.0351
1474.0,0.0453
1473.0,0.0545
1472.0,0.0584
1471.0,0.0582
1470.0,0.0576
1469.0,0.058
1468.0,0.0592
1467.0,0.0613
1466.0,0.0652
1465.0,0.0711
1464.0,0.0759
1463.0,0.0771
1462.0,0.0748
1461.0,0.0704
1460.0,0.0647
1459.0,0.0587
1458.0,0.0533
1457.0,0.0494
1456.0,0.0471
1455.0,0.0454
1454.0,0.0438
1453.0,0.042
1452.0,0.0401
1451.0,0.0384
1450.0,0.0371
1449.0,0.036
1448.0,0.0351
1447.0,0.0344
1446.0,0.0339
1445.0,0.0334
1444.0,0.0329
1443.0,0.0325
1442.0,0.0321
1441.0,0.0316
1440.0,0.0312
1439.0,0.0307
1438.0,0.0302
1437.0,0.0296
1436.0,0.0291
1435.0,0.0286
1434.0,0.0281
1433.0,0.0276
1432.0,0.027
1431.0,0.0263
1430.0,0.0257
1429.0,0.025
1428.0,0.0244
1427.0,0.0239
1426.0,0.0234
1425.0,0.0229
1424.0,0.0225
1423.0,0.0221
1422.0,0.0218
1421.0,0.0216
1420.0,0.0213
1419.0,0.0211
1418.0,0.021
1417.0,0.0207
1416.0,0.0204
1415.0,0.0202
1414.0,0.0201
1413.0,0.0199
1412.0,0.0197
1411.0,0.0195
1410.0,0.0194
1409.0,0.0192
1408.0,0.019
1407.0,0.0189
1406.0,0.0189
1405.0,0.0189
1404.0,0.0189
1403.0,0.0189
1402.0,0.0188
1401.0,0.0187
1400.0,0.0187
1399.0,0.0186
1398.0,0.0186
1397.0,0.0184
1396.0,0.0181
1395.0,0.018
1394.0,0.018
1393.0,0.018
1392.0,0.0182
1391.0,0.0183
1390.0,0.0184
1389.0,0.0184
1388.0,0.0183
1387.0,0.0184
1386.0,0.0186
1385.0,0.0188
1384.0,0.0191
1383.0,0.0196
1382.0,0.0203
1381.0,0.0211
1380.0,0.022
1379.0,0.0228
1378.0,0.0233
1377.0,0.0234
1376.0,0.0233
1375.0,0.0231
1374.0,0.023
1373.0,0.0229
1372.0,0.023
1371.0,0.0231
1370.0,0.0234
1369.0,0.0235
1368.0,0.0236
1367.0,0.0236
1366.0,0.0235
1365.0,0.0234
1364.0,0.0232
1363.0,0.023
1362.0,0.0228
1361.0,0.0225
1360.0,0.0223
1359.0,0.0222
1358.0,0.0222
1357.0,0.0222
1356.0,0.0223
1355.0,0.0224
1354.0,0.0225
1353.0,0.0225
1352.0,0.0225
1351.0,0.0225
1350.0,0.0225
1349.0,0.0224
1348.0,0.0223
1347.0,0.0221
1346.0,0.022
1345.0,0.0219
1344.0,0.0217
1343.0,0.0216
1342.0,0.0215
1341.0,0.0214
1340.0,0.0213
1339.0,0.0213
1338.0,0.0212
1337.0,0.0211
1336.0,0.0209
1335.0,0.0207
1334.0,0.0206
1333.0,0.0204
1332.0,0.0204
1331.0,0.0203
1330.0,0.0203
1329.0,0.0203
1328.0,0.0203
1327.0,0.0203
1326.0,0.0203
1325.0,0.0203
1324.0,0.0203
1323.0,0.0203
1322.0,0.0204
1321.0,0.0204
1320.0,0.0205
1319.0,0.0206
1318.0,0.0207
1317.0,0.0208
1316.0,0.0209
1315.0,0.021
1314.0,0.0212
1313.0,0.0213
1312.0,0.0214
1311.0,0.0215
1310.0,0.0215
1309.0,0.0216
1308.0,0.0216
1307.0,0.0217
1306.0,0.0218
1305.0,0.0218
1304.0,0.0218
1303.0,0.0219
1302.0,0.022
1301.0,0.0221
1300.0,0.0221
1299.0,0.0221
1298.0,0.0221
1297.0,0.022
1296.0,0.022
1295.0,0.0219
1294.0,0.0218
1293.0,0.0217
1292.0,0.0216
1291.0,0.0216
1290.0,0.0215
1289.0,0.0215
1288.0,0.0215
1287.0,0.0215
1286.0,0.0215
1285.0,0.0215
1284.0,0.0214
1283.0,0.0214
1282.0,0.0213
1281.0,0.0213
1280.0,0.0213
1279.0,0.0213
1278.0,0.0213
1277.0,0.0213
1276.0,0.0212
1275.0,0.0212
1274.0,0.0212
1273.0,0.0212
1272.0,0.0212
1271.0,0.0212
1270.0,0.0213
1269.0,0.0213
1268.0,0.0213
1267.0,0.0213
1266.0,0.0213
1265.0,0.0212
1264.0,0.0212
1263.0,0.0212
1262.0,0.0212
1261.0,0.0212
1260.0,0.0212
1259.0,0.0211
1258.0,0.0211
1257.0,0.0211
1256.0,0.0211
1255.0,0.0211
1254.0,0.0212
1253.0,0.0212
1252.0,0.0212
1251.0,0.0211
1250.0,0.0211
1249.0,0.0212
1248.0,0.0212
1247.0,0.0213
1246.0,0.0214
1245.0,0.0214
1244.0,0.0214
1243.0,0.0214
1242.0,0.0214
1241.0,0.0215
1240.0,0.0216
1239.0,0.0217
1238.0,0.0218
1237.0,0.0219
1236.0,0.0219
1235.0,0.0219
1234.0,0.0219
1233.0,0.0219
1232.0,0.0219
1231.0,0.022
1230.0,0.022
1229.0,0.0221
1228.0,0.0222
1227.0,0.0223
1226.0,0.0224
1225.0,0.0226
1224.0,0.0227
1223.0,0.0228
1222.0,0.0229
1221.0,0.023
1220.0,0.0232
1219.0,0.0233
1218.0,0.0234
1217.0,0.0235
1216.0,0.0237
1215.0,0.0238
1214.0,0.024
1213.0,0.0241
1212.0,0.0242
1211.0,0.0244
1210.0,0.0246
1209.0,0.0248
1208.0,0.025
1207.0,0.0252
1206.0,0.0253
1205.0,0.0255
1204.0,0.0257
1203.0,0.0259
1202.0,0.0261
1201.0,0.0263
1200.0,0.0266
1199.0,0.0268
1198.0,0.0271
1197.0,0.0273
1196.0,0.0276
1195.0,0.0279
1194.0,0.0283
1193.0,0.0287
1192.0,0.0291
1191.0,0.0295
1190.0,0.0299
1189.0,0.0303
1188.0,0.0307
1187.0,0.0311
1186.0,0.0316
1185.0,0.0321
1184.0,0.0327
1183.0,0.0332
1182.0,0.0337
1181.0,0.0342
1180.0,0.0347
1179.0,0.0353
1178.0,0.0358
1177.0,0.0364
1176.0,0.037
1175.0,0.0376
1174.0,0.0382
1173.0,0.0387
1172.0,0.0394
1171.0,0.04
1170.0,0.0406
1169.0,0.0413
1168.0,0.042
1167.0,0.0427
1166.0,0.0434
1165.0,0.0441
1164.0,0.0448
1163.0,0.0455
1162.0,0.0461
1161.0,0.0468
1160.0,0.0475
1159.0,0.0482
1158.0,0.0489
1157.0,0.0497
1156.0,0.0504
1155.0,0.0512
1154.0,0.052
1153.0,0.0529
1152.0,0.0538
1151.0,0.0548
1150.0,0.0558
1149.0,0.0568
1148.0,0.0577
1147.0,0.0586
1146.0,0.0595
1145.0,0.0605
1144.0,0.0616
1143.0,0.0628
1142.0,0.0639
1141.0,0.0649
1140.0,0.0658
1139.0,0.0667
1138.0,0.0675
1137.0,0.0683
1136.0,0.0692
1135.0,0.0699
1134.0,0.0706
1133.0,0.0713
1132.0,0.0719
1131.0,0.0725
1130.0,0.073
1129.0,0.0735
1128.0,0.074
1127.0,0.0745
1126.0,0.0749
1125.0,0.0754
1124.0,0.0759
1123.0,0.0764
1122.0,0.0769
1121.0,0.0773
1120.0,0.0778
1119.0,0.0782
1118.0,0.0786
1117.0,0.0788
1116.0,0.079
1115.0,0.079
1114.0,0.0788
1113.0,0.0785
1112.0,0.0782
1111.0,0.0777
1110.0,0.0771
1109.0,0.0764
1108.0,0.0755
1107.0,0.0746
1106.0,0.0736
1105.0,0.0726
1104.0,0.0717
1103.0,0.0708
1102.0,0.07
1101.0,0.0691
1100.0,0.0683
1099.0,0.0674
1098.0,0.0665
1097.0,0.0656
1096.0,0.0648
1095.0,0.0639
1094.0,0.0631
1093.0,0.0622
1092.0,0.0614
1091.0,0.0605
1090.0,0.0596
1089.0,0.0587
1088.0,0.0579
1087.0,0.057
1086.0,0.0562
1085.0,0.0553
1084.0,0.0545
1083.0,0.0537
1082.0,0.0529
1081.0,0.0522
1080.0,0.0515
1079.0,0.0508
1078.0,0.0501
1077.0,0.0495
1076.0,0.0488
1075.0,0.0483
1074.0,0.0477
1073.0,0.0472
1072.0,0.0467
1071.0,0.0462
1070.0,0.0457
1069.0,0.0451
1068.0,0.0443
1067.0,0.0436
1066.0,0.0431
1065.0,0.0428
1064.0,0.0427
1063.0,0.0425
1062.0,0.0423
1061.0,0.0419
1060.0,0.0414
1059.0,0.0409
1058.0,0.0405
1057.0,0.0401
1056.0,0.0398
1055.0,0.0395
1054.0,0.0392
1053.0,0.0389
1052.0,0.0386
1051.0,0.0385
1050.0,0.0383
1049.0,0.0381
1048.0,0.038
1047.0,0.0377
1046.0,0.0375
1045.0,0.0373
1044.0,0.0372
1043.0,0.0371
1042.0,0.0371
1041.0,0.037
1040.0,0.0369
1039.0,0.0367
1038.0,0.0366
1037.0,0.0365
1036.0,0.0366
1035.0,0.0366
1034.0,0.0367
1033.0,0.0367
1032.0,0.0366
1031.0,0.0365
1030.0,0.0362
1029.0,0.0359
1028.0,0.0357
1027.0,0.0357
1026.0,0.0358
1025.0,0.0359
1024.0,0.0358
1023.0,0.0357
1022.0,0.0356
1021.0,0.0354
1020.0,0.0353
1019.0,0.0353
1018.0,0.0352
1017.0,0.0351
1016.0,0.035
1015.0,0.0349
1014.0,0.0347
1013.0,0.0346
1012.0,0.0346
1011.0,0.0346
1010.0,0.0347
1009.0,0.0347
1008.0,0.0349
1007.0,0.0352
1006.0,0.0356
1005.0,0.0359
1004.0,0.0361
1003.0,0.0359
1002.0,0.0356
1001.0,0.0352
1000.0,0.0348
999.0,0.0344
998.0,0.0341
997.0,0.0339
996.0,0.0337
995.0,0.0336
994.0,0.0335
993.0,0.0333
992.0,0.0332
991.0,0.033
990.0,0.0329
989.0,0.0327
988.0,0.0326
987.0,0.0324
986.0,0.0323
985.0,0.0322
984.0,0.0322
983.0,0.0321
982.0,0.0319
981.0,0.0318
980.0,0.0316
979.0,0.0315
978.0,0.0314
977.0,0.0314
976.0,0.0314
975.0,0.0313
974.0,0.0313
973.0,0.0312
972.0,0.0311
971.0,0.0311
970.0,0.0311
969.0,0.0311
968.0,0.031
967.0,0.0309
966.0,0.0307
965.0,0.0305
964.0,0.0304
963.0,0.0303
962.0,0.0302
961.0,0.0302
960.0,0.0303
959.0,0.0303
958.0,0.0302
957.0,0.03
956.0,0.0298
955.0,0.0297
954.0,0.0298
953.0,0.0299
952.0,0.03
951.0,0.03
950.0,0.03
949.0,0.0299
948.0,0.0298
947.0,0.0296
946.0,0.0296
945.0,0.0296
944.0,0.0296
943.0,0.0295
942.0,0.0295
941.0,0.0295
940.0,0.0295
939.0,0.0295
938.0,0.0295
937.0,0.0296
936.0,0.0295
935.0,0.0294
934.0,0.0294
933.0,0.0293
932.0,0.0292
931.0,0.0291
930.0,0.029
929.0,0.029
928.0,0.0291
927.0,0.0292
926.0,0.0292
925.0,0.0291
924.0,0.0289
923.0,0.0288
922.0,0.0287
921.0,0.0288
920.0,0.0288
919.0,0.0289
918.0,0.0289
917.0,0.0288
916.0,0.0287
915.0,0.0286
914.0,0.0285
913.0,0.0284
912.0,0.0285
911.0,0.0285
910.0,0.0286
909.0,0.0287
908.0,0.0287
907.0,0.0286
906.0,0.0284
905.0,0.0283
904.0,0.0283
903.0,0.0283
902.0,0.0283
901.0,0.0283
900.0,0.0283
899.0,0.0282
898.0,0.0282
897.0,0.0281
896.0,0.0281
895.0,0.0281
894.0,0.0281
893.0,0.0282
892.0,0.0283
891.0,0.0284
890.0,0.0286
889.0,0.0286
888.0,0.0287
887.0,0.0286
886.0,0.0286
885.0,0.0285
884.0,0.0284
883.0,0.0282
882.0,0.0281
881.0,0.0279
880.0,0.0279
879.0,0.0279
878.0,0.028
877.0,0.0281
876.0,0.028
875.0,0.028
874.0,0.0279
873.0,0.0278
872.0,0.0278
871.0,0.0278
870.0,0.0278
869.0,0.0278
868.0,0.0278
867.0,0.0277
866.0,0.0276
865.0,0.0275
864.0,0.0275
863.0,0.0274
862.0,0.0274
861.0,0.0273
860.0,0.0273
859.0,0.0273
858.0,0.0273
857.0,0.0274
856.0,0.0274
855.0,0.0274
854.0,0.0275
853.0,0.0275
852.0,0.0275
851.0,0.0275
850.0,0.0274
849.0,0.0273
848.0,0.0271
847.0,0.0271
846.0,0.0271
845.0,0.0271
844.0,0.0271
843.0,0.0271
842.0,0.0271
841.0,0.027
840.0,0.027
839.0,0.0269
838.0,0.0269
837.0,0.027
836.0,0.027
835.0,0.0271
834.0,0.0272
833.0,0.0272
832.0,0.0271
831.0,0.027
830.0,0.0269
829.0,0.027
828.0,0.027
827.0,0.027
826.0,0.027
825.0,0.027
824.0,0.027
823.0,0.027
822.0,0.027
821.0,0.0269
820.0,0.027
819.0,0.027
818.0,0.027
817.0,0.027
816.0,0.027
815.0,0.0271
814.0,0.0271
813.0,0.0271
812.0,0.027
811.0,0.0269
810.0,0.027
809.0,0.027
808.0,0.027
807.0,0.027
806.0,0.027
805.0,0.0271
804.0,0.0272
803.0,0.0274
802.0,0.0275
801.0,0.0275
800.0,0.0275
799.0,0.0274
798.0,0.0273
797.0,0.0273
796.0,0.0274
795.0,0.0275
794.0,0.0276
793.0,0.0277
792.0,0.0277
791.0,0.0275
790.0,0.0273
789.0,0.0271
788.0,0.0271
787.0,0.0271
786.0,0.0273
785.0,0.0275
784.0,0.0277
783.0,0.0277
782.0,0.0277
781.0,0.0276
780.0,0.0276
779.0,0.0276
778.0,0.0275
777.0,0.0275
776.0,0.0274
775.0,0.0274
774.0,0.0274
773.0,0.0275
772.0,0.0275
771.0,0.0275
770.0,0.0275
769.0,0.0276
768.0,0.0277
767.0,0.0277
766.0,0.0277
765.0,0.0277
764.0,0.0276
763.0,0.0276
762.0,0.0277
761.0,0.0279
760.0,0.028
759.0,0.028
758.0,0.0279
757.0,0.0278
756.0,0.0278
755.0,0.0277
754.0,0.0277
753.0,0.0278
752.0,0.0278
751.0,0.0277
750.0,0.0276
749.0,0.0274
748.0,0.0274
747.0,0.0274
746.0,0.0276
745.0,0.0279
744.0,0.0281
743.0,0.0282
742.0,0.0283
741.0,0.0285
740.0,0.0286
739.0,0.0288
738.0,0.0291
737.0,0.0296
736.0,0.0306
735.0,0.0327
734.0,0.0368
733.0,0.0437
732.0,0.0527
731.0,0.0613
730.0,0.0665
729.0,0.0671
728.0,0.0645
727.0,0.0614
726.0,0.0596
725.0,0.06
724.0,0.0627
723.0,0.0681
722.0,0.0768
721.0,0.0879
720.0,0.0977
719.0,0.1015
718.0,0.0982
717.0,0.0903
716.0,0.0811
715.0,0.0725
714.0,0.0654
713.0,0.0599
712.0,0.0558
711.0,0.0527
710.0,0.0501
709.0,0.0478
708.0,0.046
707.0,0.0445
706.0,0.0432
705.0,0.0421
704.0,0.0411
703.0,0.0405
702.0,0.0399
701.0,0.0394
700.0,0.0388
699.0,0.0383
698.0,0.0377
697.0,0.0371
696.0,0.0366
695.0,0.0365
694.0,0.0365
693.0,0.0365
692.0,0.0364
691.0,0.0363
690.0,0.0363
689.0,0.0365
688.0,0.0369
687.0,0.0372
686.0,0.0374
685.0,0.0377
684.0,0.038
683.0,0.0384
682.0,0.039
681.0,0.0399
680.0,0.0408
679.0,0.0417
678.0,0.0423
677.0,0.043
676.0,0.044
675.0,0.0458
674.0,0.0479
673.0,0.0495
672.0,0.0502
671.0,0.051
670.0,0.054
669.0,0.0609
668.0,0.0661
667.0,0.064
666.0,0.0598
665.0,0.0575
664.0,0.0562
663.0,0.0546
662.0,0.0524
661.0,0.05
660.0,0.0479
659.0,0.0458
658.0,0.0437
657.0,0.0419
656.0,0.0402
655.0,0.039
654.0,0.0384
653.0,0.0385
652.0,0.0393
651.0,0.0405
650.0,0.0414
649.0,0.0415
648.0,0.041
647.0,0.04
646.0,0.0389
645.0,0.0381
644.0,0.0378
643.0,0.0378
642.0,0.0381
641.0,0.0385
640.0,0.0389
639.0,0.0393
638.0,0.0399
637.0,0.0408
636.0,0.0424
635.0,0.0444
634.0,0.0458
633.0,0.0461
632.0,0.0456
631.0,0.045
630.0,0.0446
629.0,0.0441
628.0,0.0435
627.0,0.0431
626.0,0.0428
625.0,0.0426
624.0,0.0428
623.0,0.0434
622.0,0.0441
621.0,0.0448
620.0,0.0453
619.0,0.0457
618.0,0.0463
617.0,0.0472
616.0,0.0485
615.0,0.0496
614.0,0.0503
613.0,0.0507
612.0,0.0513
611.0,0.0525
610.0,0.0542
609.0,0.0558
608.0,0.0573
607.0,0.0588
606.0,0.0604
605.0,0.0618
604.0,0.0633
603.0,0.065
602.0,0.0666
601.0,0.0675
600.0,0.0675
