cm-1,A
4000.0,-0.0019067040408846658
3999.0,-0.0019067040408846658
3998.0,-0.0019067040408846658
3997.0,-0.0019067040408846658
3996.0,-0.0019067040408846658
3995.0,-0.0019067040408846658
3994.0,-0.0019067040408846658
3993.0,-0.0019499410842680476
3992.0,-0.0019931738235303698
3991.0,-0.0019931738235303698
3990.0,-0.0019499410842680476
3989.0,-0.0019067040408846658
3988.0,-0.0018634626925240205
3987.0,-0.0018202170383281313
3986.0,-0.0018202170383281313
3985.0,-0.0018202170383281313
3984.0,-0.0018634626925240205
3983.0,-0.0018634626925240205
3982.0,-0.0019067040408846658
3981.0,-0.0019067040408846658
3980.0,-0.0019067040408846658
3979.0,-0.0018634626925240205
3978.0,-0.0019067040408846658
3977.0,-0.0019499410842680476
3976.0,-0.0019931738235303698
3975.0,-0.0019931738235303698
3974.0,-0.0019067040408846658
3973.0,-0.0018634626925240205
3972.0,-0.0018202170383281313
3971.0,-0.0018634626925240205
3970.0,-0.0018634626925240205
3969.0,-0.0019067040408846658
3968.0,-0.0019067040408846658
3967.0,-0.0019067040408846658
3966.0,-0.0019067040408846658
3965.0,-0.0019499410842680476
3964.0,-0.0019499410842680476
3963.0,-0.0020364022595291686
3962.0,-0.0020796263931210923
3961.0,-0.0021228462251614566
3960.0,-0.0021660617565077978
3959.0,-0.0022092729880145434
3958.0,-0.0022092729880145434
3957.0,-0.0022092729880145434
3956.0,-0.0021660617565077978
3955.0,-0.0021228462251614566
3954.0,-0.0020364022595291686
3953.0,-0.0019931738235303698
3952.0,-0.0019499410842680476
3951.0,-0.0019931738235303698
3950.0,-0.0019931738235303698
3949.0,-0.0020364022595291686
3948.0,-0.0020796263931210923
3947.0,-0.0021228462251614566
3946.0,-0.0021660617565077978
3945.0,-0.0022092729880145434
3944.0,-0.0022524799205383417
3943.0,-0.0022524799205383417
3942.0,-0.0021660617565077978
3941.0,-0.0021228462251614566
3940.0,-0.0021228462251614566
3939.0,-0.0022092729880145434
3938.0,-0.0022524799205383417
3937.0,-0.0022956825549340643
3936.0,-0.0022524799205383417
3935.0,-0.0021660617565077978
3934.0,-0.0021228462251614566
3933.0,-0.0020796263931210923
3932.0,-0.0020796263931210923
3931.0,-0.0021228462251614566
3930.0,-0.0021228462251614566
3929.0,-0.0021228462251614566
3928.0,-0.0020796263931210923
3927.0,-0.0020364022595291686
3926.0,-0.0020364022595291686
3925.0,-0.0020364022595291686
3924.0,-0.0020364022595291686
3923.0,-0.0019931738235303698
3922.0,-0.0019499410842680476
3921.0,-0.0019499410842680476
3920.0,-0.0019931738235303698
3919.0,-0.0020364022595291686
3918.0,-0.0020796263931210923
3917.0,-0.0021228462251614566
3916.0,-0.0021228462251614566
3915.0,-0.0021228462251614566
3914.0,-0.0020796263931210923
3913.0,-0.0021228462251614566
3912.0,-0.0021660617565077978
3911.0,-0.0021660617565077978
3910.0,-0.0022092729880145434
3909.0,-0.0021660617565077978
3908.0,-0.0021660617565077978
3907.0,-0.0021228462251614566
3906.0,-0.0021660617565077978
3905.0,-0.0022092729880145434
3904.0,-0.0022956825549340643
3903.0,-0.002338880892056583
3902.0,-0.0024252646779014952
3901.0,-0.0024684501283323
3900.0,-0.0025548081484823015
3899.0,-0.0025548081484823015
3898.0,-0.0025116312849080558
3897.0,-0.0024252646779014952
3896.0,-0.0023820749327607693
3895.0,-0.002338880892056583
3894.0,-0.002338880892056583
3893.0,-0.0023820749327607693
3892.0,-0.0024252646779014952
3891.0,-0.0024684501283323
3890.0,-0.0024252646779014952
3889.0,-0.002338880892056583
3888.0,-0.0022524799205383417
3887.0,-0.0022524799205383417
3886.0,-0.002338880892056583
3885.0,-0.002338880892056583
3884.0,-0.0022956825549340643
3883.0,-0.0022524799205383417
3882.0,-0.002338880892056583
3881.0,-0.0024684501283323
3880.0,-0.0025548081484823015
3879.0,-0.0025548081484823015
3878.0,-0.0024252646779014952
3877.0,-0.002338880892056583
3876.0,-0.0022956825549340643
3875.0,-0.0023820749327607693
3874.0,-0.0024252646779014952
3873.0,-0.002338880892056583
3872.0,-0.0022524799205383417
3871.0,-0.0022524799205383417
3870.0,-0.002338880892056583
3869.0,-0.0023820749327607693
3868.0,-0.0022956825549340643
3867.0,-0.0022956825549340643
3866.0,-0.002338880892056583
3865.0,-0.0024252646779014952
3864.0,-0.0023820749327607693
3863.0,-0.002338880892056583
3862.0,-0.002338880892056583
3861.0,-0.002338880892056583
3860.0,-0.0023820749327607693
3859.0,-0.0023820749327607693
3858.0,-0.0023820749327607693
3857.0,-0.0022956825549340643
3856.0,-0.0022524799205383417
3855.0,-0.0023820749327607693
3854.0,-0.0024684501283323
3853.0,-0.0024684501283323
3852.0,-0.0024252646779014952
3851.0,-0.0024684501283323
3850.0,-0.0025548081484823015
3849.0,-0.002684312989729598
3848.0,-0.0027274726898296464
3847.0,-0.0027274726898296464
3846.0,-0.0026411490000399773
3845.0,-0.0025548081484823015
3844.0,-0.0024252646779014952
3843.0,-0.0022956825549340643
3842.0,-0.0022092729880145434
3841.0,-0.0021228462251614566
3840.0,-0.0021228462251614566
3839.0,-0.0022092729880145434
3838.0,-0.002338880892056583
3837.0,-0.0024684501283323
3836.0,-0.0025548081484823015
3835.0,-0.002597980719908577
3834.0,-0.0025548081484823015
3833.0,-0.0025548081484823015
3832.0,-0.0025548081484823015
3831.0,-0.002597980719908577
3830.0,-0.002597980719908577
3829.0,-0.002597980719908577
3828.0,-0.002597980719908577
3827.0,-0.002597980719908577
3826.0,-0.002597980719908577
3825.0,-0.0025116312849080558
3824.0,-0.002338880892056583
3823.0,-0.0022956825549340643
3822.0,-0.0024252646779014952
3821.0,-0.002597980719908577
3820.0,-0.0026411490000399773
3819.0,-0.0025548081484823015
3818.0,-0.0025548081484823015
3817.0,-0.002684312989729598
3816.0,-0.0028137792246734072
3815.0,-0.002856926061120646
3814.0,-0.0027706281011936618
3813.0,-0.0027274726898296464
3812.0,-0.0027274726898296464
3811.0,-0.0027274726898296464
3810.0,-0.002684312989729598
3809.0,-0.002684312989729598
3808.0,-0.002684312989729598
3807.0,-0.0027706281011936618
3806.0,-0.0027706281011936618
3805.0,-0.002684312989729598
3804.0,-0.002597980719908577
3803.0,-0.0026411490000399773
3802.0,-0.0027274726898296464
3801.0,-0.0027274726898296464
3800.0,-0.0026411490000399773
3799.0,-0.0025548081484823015
3798.0,-0.0025116312849080558
3797.0,-0.0025548081484823015
3796.0,-0.002597980719908577
3795.0,-0.0026411490000399773
3794.0,-0.0026411490000399773
3793.0,-0.002684312989729598
3792.0,-0.0027274726898296464
3791.0,-0.002684312989729598
3790.0,-0.0026411490000399773
3789.0,-0.0026411490000399773
3788.0,-0.002597980719908577
3787.0,-0.002597980719908577
3786.0,-0.002597980719908577
3785.0,-0.002597980719908577
3784.0,-0.002597980719908577
3783.0,-0.0025548081484823015
3782.0,-0.0025548081484823015
3781.0,-0.002597980719908577
3780.0,-0.002684312989729598
3779.0,-0.0027274726898296464
3778.0,-0.0027274726898296464
3777.0,-0.0027274726898296464
3776.0,-0.0027274726898296464
3775.0,-0.0027706281011936618
3774.0,-0.0027706281011936618
3773.0,-0.0027706281011936618
3772.0,-0.0027274726898296464
3771.0,-0.002684312989729598
3770.0,-0.0026411490000399773
3769.0,-0.002597980719908577
3768.0,-0.0025548081484823015
3767.0,-0.0025548081484823015
3766.0,-0.002597980719908577
3765.0,-0.0026411490000399773
3764.0,-0.0026411490000399773
3763.0,-0.0025548081484823015
3762.0,-0.0025116312849080558
3761.0,-0.0025548081484823015
3760.0,-0.0025548081484823015
3759.0,-0.0024684501283323
3758.0,-0.0024684501283323
3757.0,-0.0024684501283323
3756.0,-0.0025116312849080558
3755.0,-0.0025548081484823015
3754.0,-0.0026411490000399773
3753.0,-0.002684312989729598
3752.0,-0.0026411490000399773
3751.0,-0.0025548081484823015
3750.0,-0.0025548081484823015
3749.0,-0.002597980719908577
3748.0,-0.0025116312849080558
3747.0,-0.002338880892056583
3746.0,-0.002338880892056583
3745.0,-0.0025116312849080558
3744.0,-0.002684312989729598
3743.0,-0.002684312989729598
3742.0,-0.0026411490000399773
3741.0,-0.002597980719908577
3740.0,-0.0025548081484823015
3739.0,-0.0025116312849080558
3738.0,-0.0024252646779014952
3737.0,-0.0023820749327607693
3736.0,-0.0024252646779014952
3735.0,-0.0024684501283323
3734.0,-0.002597980719908577
3733.0,-0.0027274726898296464
3732.0,-0.002856926061120646
3731.0,-0.0028137792246734072
3730.0,-0.0027274726898296464
3729.0,-0.0025548081484823015
3728.0,-0.0024252646779014952
3727.0,-0.002338880892056583
3726.0,-0.0022524799205383417
3725.0,-0.0022524799205383417
3724.0,-0.0022956825549340643
3723.0,-0.0023820749327607693
3722.0,-0.0024252646779014952
3721.0,-0.0023820749327607693
3720.0,-0.002338880892056583
3719.0,-0.0022956825549340643
3718.0,-0.0022956825549340643
3717.0,-0.0022524799205383417
3716.0,-0.0021228462251614566
3715.0,-0.0019499410842680476
3714.0,-0.0018202170383281313
3713.0,-0.001776967077439462
3712.0,-0.001776967077439462
3711.0,-0.0018202170383281313
3710.0,-0.0018634626925240205
3709.0,-0.0019067040408846658
3708.0,-0.0019499410842680476
3707.0,-0.0019067040408846658
3706.0,-0.0018634626925240205
3705.0,-0.001733712809000476
3704.0,-0.0016039241497978196
3703.0,-0.0015173768235041685
3702.0,-0.0014308122463981832
3701.0,-0.0013875234866409514
3700.0,-0.001344230411601366
3699.0,-0.001257631312230778
3698.0,-0.0011710149414008164
3697.0,-0.0010843812922201046
3696.0,-0.0009977303577937136
3695.0,-0.0009110621312231615
3694.0,-0.0007810273534953893
3693.0,-0.0007376737740329986
3692.0,-0.0006509536295951079
3691.0,-0.0005642161653756084
3690.0,-0.0003906892499099257
3689.0,-0.00030389978481260016
3688.0,-0.00030389978481260016
3687.0,-0.0002604985473904087
3686.0,-0.00017368305846510168
3685.0,-4.3427276862573194e-05
3684.0,0.0001303078917322953
3683.0,0.0003475746339209884
3682.0,0.0006084382809090627
3681.0,0.0007824344698965646
3680.0,0.0009565003968372565
3679.0,0.0011306361176557367
3678.0,0.001348404001626502
3677.0,0.0014355417390583547
3676.0,0.0015226969634936083
3675.0,0.0015662811355310335
3674.0,0.0016970599014589638
3673.0,0.0018714928717336043
3672.0,0.0020023635919956817
3671.0,0.0020459959305969555
3670.0,0.0022205691343961664
3669.0,0.002482560585275184
3668.0,0.0027884171674950053
3667.0,0.003050751504618754
3666.0,0.0032694845648473247
3665.0,0.0035321097382827737
3664.0,0.0037510854308679953
3663.0,0.00401400208620073
3662.0,0.004233220950025984
3661.0,0.004452550524862486
3660.0,0.004671990922590297
3659.0,0.004935465843858511
3658.0,0.005243055412371911
3657.0,0.005550862985963967
3656.0,0.005814871797682919
3655.0,0.00612308505878878
3654.0,0.006431517210272464
3653.0,0.006740168563263094
3652.0,0.007093181776687496
3651.0,0.007490664932224611
3650.0,0.008109696063975047
3649.0,0.0087296108049002
3648.0,0.009172949432521227
3647.0,0.009483555971770974
3646.0,0.009794384815193347
3645.0,0.010149890396819572
3644.0,0.010550182333308289
3643.0,0.010950843561779777
3642.0,0.011396456654336085
3641.0,0.011842527443247208
3640.0,0.012378417874516323
3639.0,0.012914970375878188
3638.0,0.013496984613259544
3637.0,0.013990068146738865
3636.0,0.0144837121472845
3635.0,0.014977917890464765
3634.0,0.015427684378367834
3633.0,0.015922966097169144
3632.0,0.016509028184833463
3631.0,0.017095882207371904
3630.0,0.017864505196230507
3629.0,0.018861217359339655
3628.0,0.019723858922159776
3627.0,0.020406104151069693
3626.0,0.0209982515252789
3625.0,0.02159120737696063
3624.0,0.02227639471115217
3623.0,0.02296266477531872
3622.0,0.023695883447997224
3621.0,0.024522236834125355
3620.0,0.02539620791296726
3619.0,0.02636422658259252
3618.0,0.02724191609646076
3617.0,0.02798240132598462
3616.0,0.02872415126189476
3615.0,0.029467170231675777
3614.0,0.03030458888152676
3613.0,0.031143625385307683
3612.0,0.03193753992355086
3611.0,0.032686081712916426
3610.0,0.033482823553208085
3609.0,0.034469056377139484
3608.0,0.03555179208333925
3607.0,0.036542739883292485
3606.0,0.03739392707587297
3605.0,0.03810452633214956
3604.0,0.038816290187564384
3603.0,0.03962436858984186
3602.0,0.040529297924893015
3601.0,0.04153168163305643
3600.0,0.04248848854552012
3599.0,0.0433514207947967
3598.0,0.04421607108308856
3597.0,0.04508244626504121
3596.0,0.046047116768076934
3595.0,0.04715914332429838
3594.0,0.048225491918274965
3593.0,0.04909991063361274
3592.0,0.04987865248862655
3591.0,0.05051241005349638
3590.0,0.051244819831730126
3589.0,0.05227227303668425
3588.0,0.05369514500652506
3587.0,0.055172003656783764
3586.0,0.056406567231630955
3585.0,0.05734718830678798
3584.0,0.05814087347462649
3583.0,0.058936011780097886
3582.0,0.05978244440026481
3581.0,0.06068046892176193
3580.0,0.06163040254819374
3579.0,0.06263258248271053
3578.0,0.06358680028852026
3577.0,0.06454311928839007
3576.0,0.06550154875643233
3575.0,0.06646209802829528
3574.0,0.06742477650170953
3573.0,0.06828793294324442
3572.0,0.06905096883247697
3571.0,0.06971335275448043
3570.0,0.07037674848475972
3569.0,0.07129697256940304
3568.0,0.07268097504034388
3567.0,0.07427547306393745
3566.0,0.0756173227980268
3565.0,0.07660053384128362
3564.0,0.07732643214144574
3563.0,0.07800156869172903
3562.0,0.07878187880504961
3561.0,0.07966792846041071
3560.0,0.08060807322614072
3559.0,0.08149786036382611
3558.0,0.08244197917456386
3557.0,0.08328292240118751
3556.0,0.08417821237960132
3555.0,0.08502252755566908
3554.0,0.08592141461088798
3553.0,0.08687520961044104
3552.0,0.08793744441149753
3551.0,0.08884239126002336
3550.0,0.08969583193143116
3549.0,0.0905509530187334
3548.0,0.09146136782804049
3547.0,0.09264239186882706
3546.0,0.09388054245443844
3545.0,0.09506817260434741
3544.0,0.096150661903319
3543.0,0.09707290398273716
3542.0,0.09794268919153337
3541.0,0.09875969792669093
3540.0,0.09968750301627338
3539.0,0.10061729446673495
3538.0,0.10160395406999112
3537.0,0.10270287794050348
3536.0,0.1038045895457893
3535.0,0.10485381062400778
3534.0,0.10573933555301185
3533.0,0.10657115822045493
3532.0,0.10746019534136453
3531.0,0.10840679565103484
3530.0,0.10946720807225518
3529.0,0.1106422631110684
3528.0,0.11182050608167504
3527.0,0.112945621949043
3526.0,0.1141301390960936
3525.0,0.11526126223036814
3524.0,0.11645212073195621
3523.0,0.11758931562603192
3522.0,0.11861534322942724
3521.0,0.11947222180119477
3520.0,0.12033079436794658
3519.0,0.12119106764079435
3518.0,0.12211057462851604
3517.0,0.12297438413275108
3516.0,0.12378215940835768
3515.0,0.12453358413361437
3514.0,0.1252863112422209
3513.0,0.12598229613781387
3512.0,0.12667939818460128
3511.0,0.12743585690934855
3510.0,0.1282519810081284
3509.0,0.12895273869450063
3508.0,0.12942053944731513
3507.0,0.12965462891904034
3506.0,0.12983027886355947
3505.0,0.13012318673323353
3504.0,0.1306509192409071
3503.0,0.1311792938024825
3502.0,0.13159069668503998
3501.0,0.13170831198214428
3500.0,0.13159069668503998
3499.0,0.13141433344123432
3498.0,0.13123804178794973
3497.0,0.13123804178794973
3496.0,0.13135556160517425
3495.0,0.13141433344123432
3494.0,0.13135556160517425
3493.0,0.1311792938024825
3492.0,0.13094438129809216
3491.0,0.1306509192409071
3490.0,0.13035765534840538
3489.0,0.13012318673323353
3488.0,0.12994741830645506
3487.0,0.12983027886355947
3486.0,0.1295960947209729
3485.0,0.12930354201075
3484.0,0.12895273869450063
3483.0,0.12877744324029283
3482.0,0.12866061890013913
3481.0,0.12866061890013913
3480.0,0.12866061890013913
3479.0,0.12854382597704617
3478.0,0.1283103343144847
3477.0,0.1280769681176266
3476.0,0.12784372725170723
3475.0,0.1275523522109867
3474.0,0.12731939284807026
3473.0,0.12714475529518965
3472.0,0.12702836926155658
3471.0,0.12702836926155658
3470.0,0.12697018793895576
3469.0,0.12691201440971422
3468.0,0.12691201440971422
3467.0,0.12691201440971422
3466.0,0.12691201440971422
3465.0,0.12691201440971422
3464.0,0.12691201440971422
3463.0,0.12697018793895576
3462.0,0.1270865583796048
3461.0,0.12714475529518965
3460.0,0.12720296001040166
3459.0,0.12714475529518965
3458.0,0.12720296001040166
3457.0,0.12731939284807026
3456.0,0.12743585690934855
3455.0,0.12749410065407507
3454.0,0.1275523522109867
3453.0,0.1275523522109867
3452.0,0.12761061158217912
3451.0,0.1276688787697493
3450.0,0.12778543660241448
3449.0,0.12790202572577325
3448.0,0.12819363554127072
3447.0,0.1284854412916181
3446.0,0.12877744324029283
3445.0,0.12895273869450063
3444.0,0.12912810493225724
3443.0,0.12936203678919433
3442.0,0.1295960947209729
3441.0,0.12988884463559924
3440.0,0.13018179202067182
3439.0,0.1304749371427727
3438.0,0.13076828026902376
3437.0,0.1311205537629121
3436.0,0.13153190097901324
3435.0,0.13182595914036166
3434.0,0.1320613491092153
3433.0,0.13235576609690147
3432.0,0.13276828548110586
3431.0,0.13324021650489182
3430.0,0.13371266091580503
3429.0,0.1341264717921853
3428.0,0.13454067733803532
3427.0,0.1349552783069008
3426.0,0.13537027545448765
3425.0,0.13578566953867033
3424.0,0.13626089265478303
3423.0,0.1367961409713705
3422.0,0.13739163603505822
3421.0,0.13816700234205515
3420.0,0.13894375542312654
3419.0,0.1396619934290062
3418.0,0.14026143380285316
3417.0,0.1409217752530305
3416.0,0.14164329470222659
3415.0,0.14242629585250421
3414.0,0.14321071124668383
3413.0,0.143996546002779
3412.0,0.1447838052666366
3411.0,0.1455724942121388
3410.0,0.14648430324307138
3409.0,0.14745901423020125
3408.0,0.14849704722945534
3407.0,0.1495988520028415
3406.0,0.15058058620310066
3405.0,0.15162611615539823
3404.0,0.15261244897260462
3403.0,0.15372475758778692
3402.0,0.1548399223480541
3401.0,0.1559579579589836
3400.0,0.15707887924001773
3399.0,0.15826522102525642
3398.0,0.15945481236316117
3397.0,0.16064767110457878
3396.0,0.1619068615544017
3395.0,0.16310648362356628
3394.0,0.1644362483309032
3393.0,0.1657700971483227
3392.0,0.16710805524020933
3391.0,0.16838614469090118
3390.0,0.16960382351653092
3389.0,0.17088928984470542
3388.0,0.1721140172101443
3387.0,0.17347169365934856
3386.0,0.1748985884019969
3385.0,0.17633018673186363
3384.0,0.17776651976115598
3383.0,0.1791420105603001
3382.0,0.18045606445813123
3381.0,0.18177410638604452
3380.0,0.1831623690979649
3379.0,0.18455508375564977
3378.0,0.1859522790044006
3377.0,0.1872871332346313
3376.0,0.1886261029461067
3375.0,0.19003647828598602
3374.0,0.19158644859963192
3373.0,0.19314197048118253
3372.0,0.19477108579657387
3371.0,0.19633807676377568
3370.0,0.19777376230892996
3369.0,0.19921420967223735
3368.0,0.20065945054641832
3367.0,0.20217868863597643
3366.0,0.20370325994820848
3365.0,0.20523320205917894
3364.0,0.20669864638688495
3363.0,0.2081690523251638
3362.0,0.20964445358561346
3361.0,0.21119550695535172
3360.0,0.21275211966804597
3359.0,0.21424320003735708
3358.0,0.21566805197785177
3357.0,0.21702600505595182
3356.0,0.21846003139405834
3355.0,0.2198267563574059
3354.0,0.22119779598676126
3353.0,0.222500680409635
3352.0,0.22380748525292793
3351.0,0.22504531091986135
3350.0,0.2261404476233131
3349.0,0.22709180502872828
3348.0,0.22797183467514515
3347.0,0.2287800980504664
3346.0,0.22958986848609375
3345.0,0.23040115161255348
3344.0,0.2312139530919859
3343.0,0.23195418589758332
3342.0,0.2326214758858196
3341.0,0.23314118897858238
3340.0,0.23351279376030587
3339.0,0.23381030668984004
3338.0,0.23395913961861092
3337.0,0.2341080235699846
3336.0,0.23425695857895557
3335.0,0.23425695857895557
3334.0,0.23418248469008174
3333.0,0.2341080235699846
3332.0,0.23388471677858602
3331.0,0.2336615247487126
3330.0,0.23336411368973242
3329.0,0.2330669061627162
3328.0,0.2327699018892817
3327.0,0.23239893194966443
3326.0,0.2318801058152027
3325.0,0.23128791962233652
3324.0,0.2306226739238615
3323.0,0.2298847052128985
3322.0,0.2290743853610009
3321.0,0.22833904065111255
3320.0,0.2274582673590566
3319.0,0.22657927670938993
3318.0,0.22562904015008334
3317.0,0.2246808781705225
3316.0,0.22380748525292793
3315.0,0.2228632874958274
3314.0,0.221921138062545
3313.0,0.22098102808512943
3312.0,0.22004294875309416
3311.0,0.21910689131292105
3310.0,0.21817284706757212
3309.0,0.21724080737600282
3308.0,0.21631076365268354
3307.0,0.21531140049857878
3306.0,0.21424320003735708
3305.0,0.21310667473868428
3304.0,0.21190236661970263
3303.0,0.21077194273266486
3302.0,0.20964445358561346
3301.0,0.2085198839799991
3300.0,0.20753826865304936
3299.0,0.20662875108104428
3298.0,0.20572113427860006
3297.0,0.20474581741911724
3296.0,0.2037726859705613
3295.0,0.20273245916928362
3294.0,0.20176382363206424
3293.0,0.20072839165012724
3292.0,0.19983300979863605
3291.0,0.19880216554085117
3290.0,0.19784224681303852
3289.0,0.19681611146465805
3288.0,0.19586056766464965
3287.0,0.19497515557019485
3286.0,0.19409154492580294
3285.0,0.19314197048118253
3284.0,0.19226207798589923
3283.0,0.19131649087103075
3282.0,0.19044028536473223
3281.0,0.18956584407732735
3280.0,0.1887602272467106
3279.0,0.1878891587969005
3278.0,0.18708664335714453
3277.0,0.18628560811885508
3276.0,0.1854860476317619
3275.0,0.1847544080834369
3274.0,0.18395765907800343
3273.0,0.1832285876666535
3272.0,0.18250073813224166
3271.0,0.1818401136028147
3270.0,0.18111458540599013
3269.0,0.18052187163787736
3268.0,0.17986424812957003
3267.0,0.17933886535640453
3266.0,0.1788141173911546
3265.0,0.17829000270162365
3264.0,0.17776651976115598
3263.0,0.17717835469689547
3262.0,0.176525770829699
3261.0,0.17587416608345108
3260.0,0.17528855653526554
3259.0,0.17476867680009978
3258.0,0.17431429197824166
3257.0,0.17386038206408516
3256.0,0.17347169365934856
3255.0,0.1730833528150797
3254.0,0.17263072694617465
3253.0,0.1721785723171978
3252.0,0.17172688794793012
3251.0,0.17121125181504682
3250.0,0.17076057185861093
3249.0,0.17031035910102887
3248.0,0.16986061257465734
3247.0,0.16941133131485575
3246.0,0.16902660267734948
3245.0,0.16857818293497795
3244.0,0.16819419132560887
3243.0,0.16781053893148679
3242.0,0.1673633724032968
3241.0,0.16685288808721488
3240.0,0.16634300310712757
3239.0,0.16583371605737995
3238.0,0.16532502553725603
3237.0,0.16475346000368907
3236.0,0.16424603248061653
3235.0,0.16380251922107458
3234.0,0.16329620091026875
3233.0,0.16285365609093994
3232.0,0.16234844215360744
3231.0,0.16178077809237412
3230.0,0.16121385505340546
3229.0,0.16058480731610647
3228.0,0.159956669396506
3227.0,0.15939212099070987
3226.0,0.1588909155318461
3225.0,0.15832774992636556
3224.0,0.15776531365276036
3223.0,0.15720360482441986
3222.0,0.15664262156204445
3221.0,0.1560823619936076
3220.0,0.15552282425431851
3219.0,0.15490195998574308
3218.0,0.1542200328881107
3217.0,0.1535391748706676
3216.0,0.15298290206464582
3215.0,0.15242734085788778
3214.0,0.15187248943212528
3213.0,0.15125681810431635
3212.0,0.15058058620310066
3211.0,0.1499667423102311
3210.0,0.1493537648169334
3209.0,0.14880282382583943
3208.0,0.1482525808667361
3207.0,0.14764201633217278
3206.0,0.14703230897118158
3205.0,0.14648430324307138
3204.0,0.1459369881335788
3203.0,0.14539036190420496
3202.0,0.14484442282300614
3201.0,0.14429916916456276
3200.0,0.14369413356670102
3199.0,0.14315032127482774
3198.0,0.1427278264359586
3197.0,0.14230574221345038
3196.0,0.141884067809934
3195.0,0.14140265500530758
3194.0,0.1409217752530305
3193.0,0.14038142122781938
3192.0,0.13990167030148193
3191.0,0.13954220457652888
3190.0,0.13912320359670227
3189.0,0.13870460647330418
3188.0,0.13828641242856565
3187.0,0.13780896894840278
3186.0,0.13739163603505822
3185.0,0.1369151746796402
3184.0,0.13649869935854997
3183.0,0.1360826230421397
3182.0,0.13554825284181704
3181.0,0.13501453934020602
3180.0,0.13448148092522594
3179.0,0.1340081998737246
3178.0,0.13359450162194508
3177.0,0.13318119707395182
3176.0,0.13270933014511588
3175.0,0.132179091954427
3174.0,0.13153190097901324
3173.0,0.1308856730206247
3172.0,0.13024040521758962
3171.0,0.1295960947209729
3170.0,0.1290696416513042
3169.0,0.1284854412916181
3168.0,0.12784372725170723
3167.0,0.1270865583796048
3166.0,0.1263307072932056
3165.0,0.12557616941349803
3164.0,0.12482294018529605
3163.0,0.12401322857151209
3162.0,0.12314735239865637
3161.0,0.12228319913502328
3160.0,0.12147820449879343
3159.0,0.1207320431753871
3158.0,0.1199871616332282
3157.0,0.11918640771920863
3156.0,0.1183871275216517
3155.0,0.1174754620451195
3154.0,0.11662251025166115
3153.0,0.11577123036739612
3152.0,0.11503480179926728
3151.0,0.11424311893073247
3150.0,0.11339648571328764
3149.0,0.11249522576462212
3148.0,0.11153968196461372
3147.0,0.11058623595729111
3146.0,0.10963487855187593
3145.0,0.10879717273970457
3144.0,0.10807246577932506
3143.0,0.10740457717110186
3142.0,0.10668218838388821
3141.0,0.10590557267730127
3140.0,0.10513034325474746
3139.0,0.10430127304069425
3138.0,0.10352889952072264
3137.0,0.10270287794050348
3136.0,0.10187842445889239
3135.0,0.10100072911021085
3134.0,0.10017949757290379
3133.0,0.09946901754724413
3132.0,0.09875969792669093
3131.0,0.09805153492691598
3130.0,0.09734452478207412
3129.0,0.09663866374468144
3128.0,0.09593394808549704
3127.0,0.09517630019905599
3126.0,0.09447395156495153
3125.0,0.09371884422784693
3124.0,0.09301884677114591
3123.0,0.09231997575758011
3122.0,0.09156860103399356
3121.0,0.09087205801073917
3120.0,0.09017663034908807
3119.0,0.08948231448273347
3118.0,0.08878910686244668
3117.0,0.0881502035005799
3116.0,0.08751223866767632
3115.0,0.08692825969074924
3114.0,0.0862920860195171
3113.0,0.0856568428805593
3112.0,0.08496970974083906
3111.0,0.08433639649422697
3110.0,0.08365134772453975
3109.0,0.08301995267961781
3108.0,0.08244197917456386
3107.0,0.08186477383364066
3106.0,0.0812883346176787
3105.0,0.08071265949561734
3104.0,0.08008551934056851
3103.0,0.0794592834975203
3102.0,0.07878187880504961
3101.0,0.0781575185941421
3100.0,0.07753405470158659
3099.0,0.07696333132921396
3098.0,0.0763933569825408
3097.0,0.07582412969807906
3096.0,0.07530729697981409
3095.0,0.0748426728241014
3094.0,0.07437854520917098
3093.0,0.07386342893255127
3092.0,0.07334892291111106
3091.0,0.07283502570063005
3090.0,0.07232173586200852
3089.0,0.07175781684269089
3088.0,0.07124579782334672
3087.0,0.07068327324650436
3086.0,0.07012147634321675
3085.0,0.06961138175567827
3084.0,0.0691018855898955
3083.0,0.06864384953207203
3082.0,0.0681862960408608
3081.0,0.06767846801070698
3080.0,0.06712054217620067
3079.0,0.0666645899223488
3078.0,0.06615853710127872
3077.0,0.06570359318059427
3076.0,0.06519865825346338
3075.0,0.06474471821595262
3074.0,0.06429125215733666
3073.0,0.06383825908884244
3072.0,0.06343599486473406
3071.0,0.06298389253518577
3070.0,0.06248210798265341
3069.0,0.06198090252378963
3068.0,0.06153031163235467
3067.0,0.06118017497378969
3066.0,0.06083032037482261
3065.0,0.060530669156469985
3064.0,0.0601813371786204
3063.0,0.05983228596592505
3062.0,0.05938391766259232
3061.0,0.058936011780097886
3060.0,0.05848856736559682
3059.0,0.05804158346918653
3058.0,0.05769424710410598
3057.0,0.05729763111133224
3056.0,0.056950888991593285
3055.0,0.05655495097496965
3054.0,0.05620880107069848
3053.0,0.05581353871631256
3052.0,0.05546797900801881
3051.0,0.055122694036304765
3050.0,0.05477768336465916
3049.0,0.05443294655761144
3048.0,0.054088483180726676
3047.0,0.05374429280060267
3046.0,0.053449489430144714
3045.0,0.0531548860393769
3044.0,0.05286048235717078
3043.0,0.05256627811294923
3042.0,0.05227227303668425
3041.0,0.05192951848105887
3040.0,0.05153812993871654
3039.0,0.05114709380028648
3038.0,0.050805225762017736
3037.0,0.05051241005349638
3036.0,0.05021979163799939
3035.0,0.04987865248862655
3034.0,0.04948910701400333
3033.0,0.04909991063361274
3032.0,0.04875964967565971
3031.0,0.04851676924770687
3030.0,0.048225491918274965
3029.0,0.047934409814949674
3028.0,0.047643522676209304
3027.0,0.047352830241056854
3026.0,0.047062332249019345
3025.0,0.04677202844014605
3024.0,0.04643358574299339
3023.0,0.04609540658654021
3022.0,0.04575749056067524
3021.0,0.04541983725624266
3020.0,0.04508244626504121
3019.0,0.04484161307420642
3018.0,0.04455278942230456
3017.0,0.044312249686494276
3016.0,0.044071843103049346
3015.0,0.0437835307566099
3014.0,0.043495409683302455
3013.0,0.04320747962950522
3012.0,0.04287180232318688
3011.0,0.042584285277331047
3010.0,0.04224908912272074
3009.0,0.041914151478914974
3008.0,0.041579471947481794
3007.0,0.041340572947066834
3006.0,0.041149548320321694
3005.0,0.04091088563260792
3004.0,0.040672354027829094
3003.0,0.04038628892895613
3002.0,0.04010041213405646
3001.0,0.03981472339538916
3000.0,0.03957679292217042
2999.0,0.039338992729018196
2998.0,0.03910132267333921
2997.0,0.03886378261277468
2996.0,0.03857890593355173
2995.0,0.03829421599749461
2994.0,0.038057116858612794
2993.0,0.03777276864991497
2992.0,0.037488606492403154
2991.0,0.03720463014276687
2990.0,0.0369681249461018
2989.0,0.03682628362474838
2988.0,0.03668448861388862
2987.0,0.03649550058570927
2986.0,0.03630659476198117
2985.0,0.036117771071222604
2984.0,0.03592902944204468
2983.0,0.035693217696063595
2982.0,0.03550466044490741
2981.0,0.03531618502395939
2980.0,0.03512779136222477
2979.0,0.03503362516890207
2978.0,0.0349394793888016
2977.0,0.03484535401307465
2976.0,0.03470420418834386
2975.0,0.034516075754861264
2974.0,0.03432802877989327
2973.0,0.03414006319292828
2972.0,0.034046110897937076
2971.0,0.03399914237121604
2970.0,0.03399914237121604
2969.0,0.033952178923546183
2968.0,0.033952178923546183
2967.0,0.03399914237121604
2966.0,0.03399914237121604
2965.0,0.034046110897937076
2964.0,0.03409308450480819
2963.0,0.03414006319292828
2962.0,0.034187046963396917
2961.0,0.034187046963396917
2960.0,0.034187046963396917
2959.0,0.03414006319292828
2958.0,0.03409308450480819
2957.0,0.034046110897937076
2956.0,0.033952178923546183
2955.0,0.0338113190438627
2954.0,0.03367050483612166
2953.0,0.033482823553208085
2952.0,0.03334211579824231
2951.0,0.033154576345083564
2950.0,0.03301397488206215
2949.0,0.032920265855503006
2948.0,0.03282657704446046
2947.0,0.032873418923587305
2946.0,0.0329671178412978
2945.0,0.033201453616638954
2944.0,0.03352973627071565
2943.0,0.033905220553829274
2942.0,0.03432802877989327
2941.0,0.03484535401307465
2940.0,0.03541041251009669
2939.0,0.0360705779734416
2938.0,0.03682628362474838
2937.0,0.03767802727041558
2936.0,0.038673844065289176
2935.0,0.039719535563357944
2934.0,0.04091088563260792
2933.0,0.042201225070002124
2932.0,0.0435434165901003
2931.0,0.04488976902944808
2930.0,0.04633693625290869
2929.0,0.047885915093007325
2928.0,0.04958646063061889
2927.0,0.05148923116234294
2926.0,0.05354773498692689
2925.0,0.05581353871631256
2924.0,0.0582898510583536
2923.0,0.060880282351513104
2922.0,0.06353652599525317
2921.0,0.06615853710127872
2920.0,0.06859298644342648
2919.0,0.07063217075990047
2918.0,0.07211658966929302
2917.0,0.07278366940873537
2916.0,0.0725783049495814
2915.0,0.07145053299833615
2914.0,0.06956040523329987
2913.0,0.0671712330991534
2912.0,0.06464390705442691
2911.0,0.062131203436140536
2910.0,0.05983228596592505
2909.0,0.05784307153250956
2908.0,0.05610995175152733
2907.0,0.05458065739693696
2906.0,0.05325306496641513
2905.0,0.05212534510230182
2904.0,0.051049389754451946
2903.0,0.05012229596312534
2902.0,0.049294465226138895
2901.0,0.048565334467987054
2900.0,0.047885915093007325
2899.0,0.04730440041308315
2898.0,0.04667530361081473
2897.0,0.04599883231842972
2896.0,0.04527520902093718
2895.0,0.04464904263234004
2894.0,0.04402377775167454
2893.0,0.04344740808260106
2892.0,0.04282386959515394
2891.0,0.04224908912272074
2890.0,0.041627267521392675
2889.0,0.041006334969674096
2888.0,0.04043395336207234
2887.0,0.03986232513620536
2886.0,0.03929144831144349
2885.0,0.038721320914956836
2884.0,0.03810452633214956
2883.0,0.037488606492403154
2882.0,0.03692083935817303
2881.0,0.03635381351515665
2880.0,0.03588185684851508
2879.0,0.03541041251009669
2878.0,0.0349394793888016
2877.0,0.034516075754861264
2876.0,0.03414006319292828
2875.0,0.0338113190438627
2874.0,0.033482823553208085
2873.0,0.033154576345083564
2872.0,0.032873418923587305
2871.0,0.032592443402527316
2870.0,0.03235843591698884
2869.0,0.032124554451966825
2868.0,0.03193753992355086
2867.0,0.03184406285002961
2866.0,0.03184406285002961
2865.0,0.03193753992355086
2864.0,0.03217132066984485
2863.0,0.032592443402527316
2862.0,0.03310770413286357
2861.0,0.03385826726096752
2860.0,0.03484535401307465
2859.0,0.036117771071222604
2858.0,0.03767802727041558
2857.0,0.03957679292217042
2856.0,0.04186632432376469
2855.0,0.04464904263234004
2854.0,0.0478374257855374
2853.0,0.05144033789103841
2852.0,0.05507339001378431
2851.0,0.05824018618530458
2850.0,0.06048074738138154
2849.0,0.06123017721688262
2848.0,0.060430831344098435
2847.0,0.0582898510583536
2846.0,0.05541863577307371
2845.0,0.05222329153526162
2844.0,0.049148541111453614
2843.0,0.04638525830935958
2842.0,0.04397571771932274
2841.0,0.04186632432376469
2840.0,0.0400527842915015
2839.0,0.03857890593355173
2838.0,0.037299268295658994
2837.0,0.03625938114211591
2836.0,0.035363296211498474
2835.0,0.03456310022373987
2834.0,0.0338113190438627
2833.0,0.0332483359486222
2832.0,0.032686081712916426
2831.0,0.032218091924200776
2830.0,0.03175060589208267
2829.0,0.03133029827960798
2828.0,0.030910397045078586
2827.0,0.030490901403433135
2826.0,0.030118356253500123
2825.0,0.029746130405213123
2824.0,0.02942069428514915
2823.0,0.029188389127482228
2822.0,0.029002634427514717
2821.0,0.028816959143838528
2820.0,0.02858497661500481
2819.0,0.028306761050139073
2818.0,0.028028723600243666
2817.0,0.027843464140506313
2816.0,0.027658283674251827
2815.0,0.02751945012352408
2814.0,0.027334407733889066
2813.0,0.027149444152769986
2812.0,0.02696455931306696
2811.0,0.026733563891471412
2810.0,0.02654885597506529
2809.0,0.02636422658259252
2808.0,0.026225806029419818
2807.0,0.026087429580295085
2806.0,0.025949097207122573
2805.0,0.025810808881832736
2804.0,0.025718641122169483
2803.0,0.02558042614771394
2802.0,0.02553436426275746
2801.0,0.02544225514642018
2800.0,0.025304128090317013
2799.0,0.02516604495145991
2798.0,0.02498200236711723
2797.0,0.02484402159331056
2796.0,0.024706084643793647
2795.0,0.02461415101053266
2794.0,0.024522236834125355
2793.0,0.02438440203310499
2792.0,0.024292536462819925
2791.0,0.024154774532432866
2790.0,0.02406295751688936
2789.0,0.023971159908874107
2788.0,0.023879381700184332
2787.0,0.023787622882622816
2786.0,0.023695883447997224
2785.0,0.02365002099672653
2784.0,0.02355831062115543
2783.0,0.023466619608062178
2782.0,0.023374947949272418
2781.0,0.023283295636617574
2780.0,0.023191662661933732
2779.0,0.023100049017062307
2778.0,0.023054249440757957
2777.0,0.02296266477531872
2776.0,0.022871099419317753
2775.0,0.02277955336461468
2774.0,0.022642270454698687
2773.0,0.02259651912656535
2772.0,0.02255077261765881
2771.0,0.022505030926963654
2770.0,0.022413561996148967
2769.0,0.022322112326006227
2768.0,0.022230681908425698
2767.0,0.022139270735302752
2766.0,0.022093572362881675
2765.0,0.02204787879853809
2764.0,0.02200219004126036
2763.0,0.021910826943857264
2762.0,0.021865152601710403
2761.0,0.021819483062586187
2760.0,0.021773818325474092
2759.0,0.021728158389364705
2758.0,0.02168250325324883
2757.0,0.02159120737696063
2756.0,0.021499930688540836
2755.0,0.02140867317992523
2754.0,0.021271822861508305
2753.0,0.02122621566987748
2752.0,0.02122621566987748
2751.0,0.02122621566987748
2750.0,0.0211806132671577
2749.0,0.021135015652343103
2748.0,0.021043834782408455
2747.0,0.0209982515252789
2746.0,0.020952673052035298
2745.0,0.020907099361673565
2744.0,0.020907099361673565
2743.0,0.02081596632558158
2742.0,0.020770406977844713
2741.0,0.020770406977844713
2740.0,0.020724852408976924
2739.0,0.02067930261797568
2738.0,0.020633757603838898
2737.0,0.020542681902151694
2736.0,0.02045162529590483
2735.0,0.020406104151069693
2734.0,0.02036058777709271
2733.0,0.020315076172974234
2732.0,0.02022406727031445
2731.0,0.02013307743509718
2730.0,0.020087589665283012
2729.0,0.020087589665283012
2728.0,0.020087589665283012
2727.0,0.02004210665933459
2726.0,0.02004210665933459
2725.0,0.02004210665933459
2724.0,0.02004210665933459
2723.0,0.019996628416253603
2722.0,0.01995115493504329
2721.0,0.019860222254245663
2720.0,0.019769308608968306
2719.0,0.019723858922159776
2718.0,0.019678413991243593
2717.0,0.019678413991243593
2716.0,0.019678413991243593
2715.0,0.019632973815224997
2714.0,0.01958753839310856
2713.0,0.01954210772389997
2712.0,0.01949668180660491
2711.0,0.019451260640229506
2710.0,0.01940584422377989
2709.0,0.019360432556262852
2708.0,0.019360432556262852
2707.0,0.019315025636685412
2706.0,0.019269623464054586
2705.0,0.019269623464054586
2704.0,0.0192242260373785
2703.0,0.019178833355664393
2702.0,0.019133445417920836
2701.0,0.019042683770379876
2700.0,0.018951941086827073
2699.0,0.018815862601645694
2698.0,0.018770512579999288
2697.0,0.018770512579999288
2696.0,0.018770512579999288
2695.0,0.018725167293411005
2694.0,0.018725167293411005
2693.0,0.018725167293411005
2692.0,0.018725167293411005
2691.0,0.018679826740892747
2690.0,0.018634490921455527
2689.0,0.01858915983411169
2688.0,0.018543833477873584
2687.0,0.01845319495476394
2686.0,0.01840788278591865
2685.0,0.01840788278591865
2684.0,0.018362575344230914
2683.0,0.01831727262871463
2682.0,0.01831727262871463
2681.0,0.01831727262871463
2680.0,0.01831727262871463
2679.0,0.018271974638383703
2678.0,0.018226681372252695
2677.0,0.018136109008649592
2676.0,0.01809082990920774
2675.0,0.018045555530026514
2674.0,0.018045555530026514
2673.0,0.018045555530026514
2672.0,0.018045555530026514
2671.0,0.01800028587012159
2670.0,0.01800028587012159
2669.0,0.017955020928509757
2668.0,0.017955020928509757
2667.0,0.017955020928509757
2666.0,0.017909760704207134
2665.0,0.017864505196230507
2664.0,0.01781925440359733
2663.0,0.017774008325325275
2662.0,0.017728766960431575
2661.0,0.017728766960431575
2660.0,0.017728766960431575
2659.0,0.017728766960431575
2658.0,0.017728766960431575
2657.0,0.01768353030793479
2656.0,0.017638298366853045
2655.0,0.01759307113620534
2654.0,0.017547848615010242
2653.0,0.017547848615010242
2652.0,0.017547848615010242
2651.0,0.017547848615010242
2650.0,0.017547848615010242
2649.0,0.017502630802287644
2648.0,0.017457417697056554
2647.0,0.017457417697056554
2646.0,0.017457417697056554
2645.0,0.017457417697056554
2644.0,0.017502630802287644
2643.0,0.017502630802287644
2642.0,0.017457417697056554
2641.0,0.017412209298337533
2640.0,0.017367005605150476
2639.0,0.017321806616515723
2638.0,0.017231422748988034
2637.0,0.017186237868137555
2636.0,0.017095882207371904
2635.0,0.017050711425501408
2634.0,0.017005545341335804
2633.0,0.017050711425501408
2632.0,0.017050711425501408
2631.0,0.017005545341335804
2630.0,0.016960383953898095
2629.0,0.016915227262211507
2628.0,0.016870075265299933
2627.0,0.016824927962187042
2626.0,0.01677978535189717
2625.0,0.016734647433454652
2624.0,0.016689514205884493
2623.0,0.016689514205884493
2622.0,0.016689514205884493
2621.0,0.016689514205884493
2620.0,0.016689514205884493
2619.0,0.016689514205884493
2618.0,0.016644385668211692
2617.0,0.016644385668211692
2616.0,0.016644385668211692
2615.0,0.016644385668211692
2614.0,0.016644385668211692
2613.0,0.016644385668211692
2612.0,0.016599261819461697
2611.0,0.016554142658660398
2610.0,0.016509028184833463
2609.0,0.016509028184833463
2608.0,0.01646391839700767
2607.0,0.01646391839700767
2606.0,0.016418813294209356
2605.0,0.016418813294209356
2604.0,0.016373712875465518
2603.0,0.01632861713980338
2602.0,0.016238439713835096
2601.0,0.016148281008528276
2600.0,0.016103208673694303
2599.0,0.016103208673694303
2598.0,0.016103208673694303
2597.0,0.016148281008528276
2596.0,0.016238439713835096
2595.0,0.01628352608625061
2594.0,0.01628352608625061
2593.0,0.016238439713835096
2592.0,0.016103208673694303
2591.0,0.016013078034810446
2590.0,0.01596801972881945
2589.0,0.015922966097169144
2588.0,0.015922966097169144
2587.0,0.015922966097169144
2586.0,0.01596801972881945
2585.0,0.01596801972881945
2584.0,0.01596801972881945
2583.0,0.01596801972881945
2582.0,0.015922966097169144
2581.0,0.015922966097169144
2580.0,0.015877917138889863
2579.0,0.015832872853011715
2578.0,0.015742798294583915
2577.0,0.015652742414136167
2576.0,0.015607721475734415
2575.0,0.015562705203923999
2574.0,0.015562705203923999
2573.0,0.015607721475734415
2572.0,0.015652742414136167
2571.0,0.015607721475734415
2570.0,0.015607721475734415
2569.0,0.015562705203923999
2568.0,0.015517693597737248
2567.0,0.015517693597737248
2566.0,0.01547268665620738
2565.0,0.01547268665620738
2564.0,0.01547268665620738
2563.0,0.01547268665620738
2562.0,0.01547268665620738
2561.0,0.01547268665620738
2560.0,0.01547268665620738
2559.0,0.01547268665620738
2558.0,0.01547268665620738
2557.0,0.01538268676325183
2556.0,0.015292705517326866
2555.0,0.015247721884586563
2554.0,0.015247721884586563
2553.0,0.015247721884586563
2552.0,0.015292705517326866
2551.0,0.015247721884586563
2550.0,0.015247721884586563
2549.0,0.015202742910707112
2548.0,0.015202742910707112
2547.0,0.015202742910707112
2546.0,0.015202742910707112
2545.0,0.015202742910707112
2544.0,0.015202742910707112
2543.0,0.015247721884586563
2542.0,0.015292705517326866
2541.0,0.015202742910707112
2540.0,0.015112798935672522
2539.0,0.015067833932588037
2538.0,0.015022873584506602
2537.0,0.014977917890464765
2536.0,0.014932966849499074
2535.0,0.014888020460646079
2534.0,0.014888020460646079
2533.0,0.014888020460646079
2532.0,0.014932966849499074
2531.0,0.014977917890464765
2530.0,0.014977917890464765
2529.0,0.014932966849499074
2528.0,0.014888020460646079
2527.0,0.014888020460646079
2526.0,0.014888020460646079
2525.0,0.014932966849499074
2524.0,0.014977917890464765
2523.0,0.015022873584506602
2522.0,0.015022873584506602
2521.0,0.015022873584506602
2520.0,0.014977917890464765
2519.0,0.014977917890464765
2518.0,0.014977917890464765
2517.0,0.014977917890464765
2516.0,0.014932966849499074
2515.0,0.014888020460646079
2514.0,0.014843078722943437
2513.0,0.014798141635428141
2512.0,0.014798141635428141
2511.0,0.014798141635428141
2510.0,0.014843078722943437
2509.0,0.014888020460646079
2508.0,0.014888020460646079
2507.0,0.014843078722943437
2506.0,0.014843078722943437
2505.0,0.014798141635428141
2504.0,0.014753209197138295
2503.0,0.014753209197138295
2502.0,0.014753209197138295
2501.0,0.014753209197138295
2500.0,0.014798141635428141
2499.0,0.014843078722943437
2498.0,0.014888020460646079
2497.0,0.014888020460646079
2496.0,0.014843078722943437
2495.0,0.014798141635428141
2494.0,0.014753209197138295
2493.0,0.014753209197138295
2492.0,0.014753209197138295
2491.0,0.014753209197138295
2490.0,0.014753209197138295
2489.0,0.014753209197138295
2488.0,0.014753209197138295
2487.0,0.014708281407112
2486.0,0.014663358264387139
2485.0,0.014618439768003144
2484.0,0.014618439768003144
2483.0,0.014663358264387139
2482.0,0.014708281407112
2481.0,0.014753209197138295
2480.0,0.014753209197138295
2479.0,0.014753209197138295
2478.0,0.014708281407112
2477.0,0.014663358264387139
2476.0,0.014663358264387139
2475.0,0.014663358264387139
2474.0,0.014663358264387139
2473.0,0.014663358264387139
2472.0,0.014618439768003144
2471.0,0.014573525916998342
2470.0,0.014573525916998342
2469.0,0.014573525916998342
2468.0,0.014573525916998342
2467.0,0.014618439768003144
2466.0,0.014618439768003144
2465.0,0.014618439768003144
2464.0,0.014663358264387139
2463.0,0.014708281407112
2462.0,0.014708281407112
2461.0,0.014663358264387139
2460.0,0.014618439768003144
2459.0,0.01452861671041239
2458.0,0.0144837121472845
2457.0,0.0144837121472845
2456.0,0.01452861671041239
2455.0,0.014573525916998342
2454.0,0.014618439768003144
2453.0,0.014618439768003144
2452.0,0.014663358264387139
2451.0,0.014663358264387139
2450.0,0.014663358264387139
2449.0,0.014663358264387139
2448.0,0.014663358264387139
2447.0,0.014618439768003144
2446.0,0.014618439768003144
2445.0,0.014663358264387139
2444.0,0.014753209197138295
2443.0,0.014798141635428141
2442.0,0.014843078722943437
2441.0,0.014843078722943437
2440.0,0.014798141635428141
2439.0,0.014753209197138295
2438.0,0.014708281407112
2437.0,0.014708281407112
2436.0,0.014708281407112
2435.0,0.014663358264387139
2434.0,0.014663358264387139
2433.0,0.014618439768003144
2432.0,0.014663358264387139
2431.0,0.014708281407112
2430.0,0.014798141635428141
2429.0,0.014798141635428141
2428.0,0.014798141635428141
2427.0,0.014798141635428141
2426.0,0.014753209197138295
2425.0,0.014798141635428141
2424.0,0.014798141635428141
2423.0,0.014798141635428141
2422.0,0.014843078722943437
2421.0,0.014888020460646079
2420.0,0.014888020460646079
2419.0,0.014888020460646079
2418.0,0.014888020460646079
2417.0,0.014932966849499074
2416.0,0.014932966849499074
2415.0,0.014977917890464765
2414.0,0.015022873584506602
2413.0,0.015067833932588037
2412.0,0.015067833932588037
2411.0,0.015067833932588037
2410.0,0.015022873584506602
2409.0,0.015067833932588037
2408.0,0.015112798935672522
2407.0,0.015157768594724175
2406.0,0.015157768594724175
2405.0,0.015157768594724175
2404.0,0.015157768594724175
2403.0,0.015112798935672522
2402.0,0.015112798935672522
2401.0,0.015112798935672522
2400.0,0.015112798935672522
2399.0,0.015112798935672522
2398.0,0.015112798935672522
2397.0,0.015157768594724175
2396.0,0.015202742910707112
2395.0,0.015202742910707112
2394.0,0.015202742910707112
2393.0,0.015202742910707112
2392.0,0.015247721884586563
2391.0,0.015247721884586563
2390.0,0.015247721884586563
2389.0,0.015247721884586563
2388.0,0.015247721884586563
2387.0,0.015247721884586563
2386.0,0.015202742910707112
2385.0,0.015112798935672522
2384.0,0.015067833932588037
2383.0,0.015022873584506602
2382.0,0.014977917890464765
2381.0,0.014932966849499074
2380.0,0.014977917890464765
2379.0,0.015022873584506602
2378.0,0.015112798935672522
2377.0,0.015157768594724175
2376.0,0.015247721884586563
2375.0,0.015247721884586563
2374.0,0.015202742910707112
2373.0,0.015157768594724175
2372.0,0.015022873584506602
2371.0,0.014888020460646079
2370.0,0.014798141635428141
2369.0,0.014888020460646079
2368.0,0.015067833932588037
2367.0,0.015337693809893471
2366.0,0.015517693597737248
2365.0,0.015652742414136167
2364.0,0.015652742414136167
2363.0,0.01547268665620738
2362.0,0.015202742910707112
2361.0,0.014843078722943437
2360.0,0.014573525916998342
2359.0,0.0144837121472845
2358.0,0.014753209197138295
2357.0,0.01538268676325183
2356.0,0.015877917138889863
2355.0,0.016058141016111804
2354.0,0.015877917138889863
2353.0,0.015337693809893471
2352.0,0.0144837121472845
2351.0,0.01381070026317599
2350.0,0.013631406429727155
2349.0,0.01385553528947936
2348.0,0.014169510141607944
2347.0,0.014349026309051105
2346.0,0.014438812226654996
2345.0,0.014618439768003144
2344.0,0.014843078722943437
2343.0,0.015067833932588037
2342.0,0.015427684378367834
2341.0,0.015832872853011715
2340.0,0.016013078034810446
2339.0,0.016013078034810446
2338.0,0.016013078034810446
2337.0,0.016058141016111804
2336.0,0.016013078034810446
2335.0,0.015832872853011715
2334.0,0.015697768020096703
2333.0,0.015697768020096703
2332.0,0.015922966097169144
2331.0,0.016238439713835096
2330.0,0.016509028184833463
2329.0,0.016689514205884493
2328.0,0.01677978535189717
2327.0,0.016824927962187042
2326.0,0.017005545341335804
2325.0,0.01727661233145472
2324.0,0.017638298366853045
2323.0,0.017909760704207134
2322.0,0.018136109008649592
2321.0,0.018226681372252695
2320.0,0.018271974638383703
2319.0,0.018181392829336396
2318.0,0.01809082990920774
2317.0,0.01800028587012159
2316.0,0.017955020928509757
2315.0,0.01800028587012159
2314.0,0.01800028587012159
2313.0,0.01800028587012159
2312.0,0.017955020928509757
2311.0,0.01800028587012159
2310.0,0.01809082990920774
2309.0,0.018226681372252695
2308.0,0.01845319495476394
2307.0,0.01858915983411169
2306.0,0.018634490921455527
2305.0,0.018634490921455527
2304.0,0.01858915983411169
2303.0,0.018543833477873584
2302.0,0.01858915983411169
2301.0,0.018634490921455527
2300.0,0.018679826740892747
2299.0,0.018725167293411005
2298.0,0.018815862601645694
2297.0,0.018906576854070378
2296.0,0.01899731005860028
2295.0,0.0190880622231564
2294.0,0.019133445417920836
2293.0,0.019178833355664393
2292.0,0.019269623464054586
2291.0,0.019315025636685412
2290.0,0.019360432556262852
2289.0,0.01940584422377989
2288.0,0.019451260640229506
2287.0,0.01949668180660491
2286.0,0.01954210772389997
2285.0,0.01954210772389997
2284.0,0.01949668180660491
2283.0,0.01949668180660491
2282.0,0.01949668180660491
2281.0,0.01954210772389997
2280.0,0.01958753839310856
2279.0,0.019632973815224997
2278.0,0.019678413991243593
2277.0,0.019678413991243593
2276.0,0.019723858922159776
2275.0,0.019769308608968306
2274.0,0.019814763052665052
2273.0,0.01990568621470623
2272.0,0.01990568621470623
2271.0,0.01995115493504329
2270.0,0.01995115493504329
2269.0,0.019996628416253603
2268.0,0.020087589665283012
2267.0,0.020087589665283012
2266.0,0.02013307743509718
2265.0,0.02013307743509718
2264.0,0.02013307743509718
2263.0,0.020178569969774962
2262.0,0.02022406727031445
2261.0,0.02022406727031445
2260.0,0.02026956933771462
2259.0,0.020315076172974234
2258.0,0.020315076172974234
2257.0,0.02036058777709271
2256.0,0.020406104151069693
2255.0,0.020406104151069693
2254.0,0.020406104151069693
2253.0,0.02036058777709271
2252.0,0.020315076172974234
2251.0,0.02026956933771462
2250.0,0.02026956933771462
2249.0,0.020315076172974234
2248.0,0.02036058777709271
2247.0,0.020406104151069693
2246.0,0.02036058777709271
2245.0,0.020315076172974234
2244.0,0.020315076172974234
2243.0,0.020315076172974234
2242.0,0.020315076172974234
2241.0,0.02036058777709271
2240.0,0.02036058777709271
2239.0,0.020315076172974234
2238.0,0.02022406727031445
2237.0,0.020178569969774962
2236.0,0.020178569969774962
2235.0,0.02022406727031445
2234.0,0.02026956933771462
2233.0,0.020315076172974234
2232.0,0.020315076172974234
2231.0,0.020315076172974234
2230.0,0.02026956933771462
2229.0,0.02022406727031445
2228.0,0.02026956933771462
2227.0,0.02026956933771462
2226.0,0.02026956933771462
2225.0,0.02026956933771462
2224.0,0.02022406727031445
2223.0,0.020178569969774962
2222.0,0.020178569969774962
2221.0,0.020178569969774962
2220.0,0.02022406727031445
2219.0,0.02022406727031445
2218.0,0.020178569969774962
2217.0,0.020178569969774962
2216.0,0.020178569969774962
2215.0,0.020178569969774962
2214.0,0.020178569969774962
2213.0,0.020178569969774962
2212.0,0.020178569969774962
2211.0,0.020178569969774962
2210.0,0.02022406727031445
2209.0,0.02026956933771462
2208.0,0.020315076172974234
2207.0,0.020315076172974234
2206.0,0.02026956933771462
2205.0,0.020178569969774962
2204.0,0.02013307743509718
2203.0,0.02013307743509718
2202.0,0.020178569969774962
2201.0,0.02022406727031445
2200.0,0.02022406727031445
2199.0,0.020178569969774962
2198.0,0.02013307743509718
2197.0,0.020087589665283012
2196.0,0.020087589665283012
2195.0,0.020087589665283012
2194.0,0.020087589665283012
2193.0,0.020087589665283012
2192.0,0.020087589665283012
2191.0,0.020087589665283012
2190.0,0.02004210665933459
2189.0,0.02004210665933459
2188.0,0.02004210665933459
2187.0,0.02004210665933459
2186.0,0.020087589665283012
2185.0,0.020087589665283012
2184.0,0.020087589665283012
2183.0,0.020087589665283012
2182.0,0.020087589665283012
2181.0,0.02004210665933459
2180.0,0.02004210665933459
2179.0,0.02004210665933459
2178.0,0.020087589665283012
2177.0,0.020087589665283012
2176.0,0.020087589665283012
2175.0,0.020087589665283012
2174.0,0.020087589665283012
2173.0,0.020087589665283012
2172.0,0.020087589665283012
2171.0,0.02004210665933459
2170.0,0.020087589665283012
2169.0,0.020087589665283012
2168.0,0.020087589665283012
2167.0,0.020087589665283012
2166.0,0.020087589665283012
2165.0,0.020087589665283012
2164.0,0.02013307743509718
2163.0,0.020178569969774962
2162.0,0.020178569969774962
2161.0,0.020178569969774962
2160.0,0.02022406727031445
2159.0,0.02022406727031445
2158.0,0.02022406727031445
2157.0,0.02022406727031445
2156.0,0.02022406727031445
2155.0,0.02022406727031445
2154.0,0.02022406727031445
2153.0,0.02026956933771462
2152.0,0.02026956933771462
2151.0,0.020315076172974234
2150.0,0.020315076172974234
2149.0,0.020315076172974234
2148.0,0.02036058777709271
2147.0,0.020406104151069693
2146.0,0.020406104151069693
2145.0,0.02036058777709271
2144.0,0.020315076172974234
2143.0,0.02026956933771462
2142.0,0.02026956933771462
2141.0,0.02026956933771462
2140.0,0.020315076172974234
2139.0,0.02036058777709271
2138.0,0.02036058777709271
2137.0,0.020406104151069693
2136.0,0.02036058777709271
2135.0,0.02036058777709271
2134.0,0.020406104151069693
2133.0,0.020406104151069693
2132.0,0.020497151212598652
2131.0,0.020542681902151694
2130.0,0.02058821736556471
2129.0,0.02058821736556471
2128.0,0.020633757603838898
2127.0,0.02058821736556471
2126.0,0.020542681902151694
2125.0,0.020497151212598652
2124.0,0.020406104151069693
2123.0,0.020315076172974234
2122.0,0.020315076172974234
2121.0,0.020315076172974234
2120.0,0.020315076172974234
2119.0,0.020315076172974234
2118.0,0.020315076172974234
2117.0,0.020315076172974234
2116.0,0.020315076172974234
2115.0,0.02022406727031445
2114.0,0.020178569969774962
2113.0,0.02013307743509718
2112.0,0.02013307743509718
2111.0,0.020087589665283012
2110.0,0.019996628416253603
2109.0,0.01995115493504329
2108.0,0.01990568621470623
2107.0,0.019860222254245663
2106.0,0.019814763052665052
2105.0,0.019769308608968306
2104.0,0.019678413991243593
2103.0,0.019632973815224997
2102.0,0.019632973815224997
2101.0,0.019632973815224997
2100.0,0.019632973815224997
2099.0,0.01954210772389997
2098.0,0.01949668180660491
2097.0,0.01940584422377989
2096.0,0.019360432556262852
2095.0,0.019269623464054586
2094.0,0.0192242260373785
2093.0,0.019178833355664393
2092.0,0.019133445417920836
2091.0,0.0190880622231564
2090.0,0.019042683770379876
2089.0,0.018951941086827073
2088.0,0.018951941086827073
2087.0,0.018906576854070378
2086.0,0.018861217359339655
2085.0,0.018815862601645694
2084.0,0.018770512579999288
2083.0,0.018679826740892747
2082.0,0.01858915983411169
2081.0,0.018498511851753108
2080.0,0.01840788278591865
2079.0,0.01831727262871463
2078.0,0.018271974638383703
2077.0,0.018226681372252695
2076.0,0.018181392829336396
2075.0,0.018136109008649592
2074.0,0.01809082990920774
2073.0,0.018045555530026514
2072.0,0.01800028587012159
2071.0,0.017909760704207134
2070.0,0.01781925440359733
2069.0,0.017728766960431575
2068.0,0.017638298366853045
2067.0,0.017547848615010242
2066.0,0.017457417697056554
2065.0,0.017412209298337533
2064.0,0.017367005605150476
2063.0,0.017321806616515723
2062.0,0.017231422748988034
2061.0,0.017141057687924732
2060.0,0.017141057687924732
2059.0,0.017095882207371904
2058.0,0.017050711425501408
2057.0,0.017005545341335804
2056.0,0.016960383953898095
2055.0,0.016915227262211507
2054.0,0.016824927962187042
2053.0,0.016734647433454652
2052.0,0.016644385668211692
2051.0,0.016554142658660398
2050.0,0.016509028184833463
2049.0,0.016418813294209356
2048.0,0.016373712875465518
2047.0,0.01632861713980338
2046.0,0.01628352608625061
2045.0,0.01628352608625061
2044.0,0.016238439713835096
2043.0,0.016148281008528276
2042.0,0.016103208673694303
2041.0,0.016058141016111804
2040.0,0.01596801972881945
2039.0,0.015922966097169144
2038.0,0.015832872853011715
2037.0,0.01578783323856614
2036.0,0.015742798294583915
2035.0,0.015652742414136167
2034.0,0.015607721475734415
2033.0,0.015562705203923999
2032.0,0.01547268665620738
2031.0,0.015427684378367834
2030.0,0.01538268676325183
2029.0,0.015337693809893471
2028.0,0.015292705517326866
2027.0,0.015202742910707112
2026.0,0.015157768594724175
2025.0,0.015112798935672522
2024.0,0.015067833932588037
2023.0,0.015022873584506602
2022.0,0.014977917890464765
2021.0,0.014932966849499074
2020.0,0.014888020460646079
2019.0,0.014843078722943437
2018.0,0.014798141635428141
2017.0,0.014753209197138295
2016.0,0.014708281407112
2015.0,0.014663358264387139
2014.0,0.014618439768003144
2013.0,0.014573525916998342
2012.0,0.0144837121472845
2011.0,0.014438812226654996
2010.0,0.014349026309051105
2009.0,0.014304140310157809
2008.0,0.014259258949925524
2007.0,0.014214382227394795
2006.0,0.014169510141607944
2005.0,0.014124642691606404
2004.0,0.014079779876432497
2003.0,0.01403492169512921
2002.0,0.01403492169512921
2001.0,0.013945219230304673
2000.0,0.01385553528947936
1999.0,0.013765869865004277
1998.0,0.013676222949234651
1997.0,0.013631406429727155
1996.0,0.013586594534531482
1995.0,0.013586594534531482
1994.0,0.013541787262693505
1993.0,0.013496984613259544
1992.0,0.013452186585275916
1991.0,0.013407393177789162
1990.0,0.013317820220494436
1989.0,0.013273040668781544
1988.0,0.01318349541446362
1987.0,0.013138729709955221
1986.0,0.013049212141483357
1985.0,0.013004460275618523
1984.0,0.012959713020733288
1983.0,0.012914970375878188
1982.0,0.012870232340102872
1981.0,0.012780770091995297
1980.0,0.012736045877764557
1979.0,0.012691326268817527
1978.0,0.01264661126420652
1977.0,0.01260190086298274
1976.0,0.012557195064198723
1975.0,0.012512493866907004
1974.0,0.012512493866907004
1973.0,0.012467797270160563
1972.0,0.012423105273012602
1971.0,0.012378417874516323
1970.0,0.012289056869694281
1969.0,0.012289056869694281
1968.0,0.012244383261476699
1967.0,0.012244383261476699
1966.0,0.012244383261476699
1965.0,0.012244383261476699
1964.0,0.012199714248127602
1963.0,0.012110390002254778
1962.0,0.012021084124518078
1961.0,0.011931796607364653
1960.0,0.011887159731648111
1959.0,0.011842527443247208
1958.0,0.011842527443247208
1957.0,0.011842527443247208
1956.0,0.011842527443247208
1955.0,0.011842527443247208
1954.0,0.011842527443247208
1953.0,0.011797899741219142
1952.0,0.011753276624621556
1951.0,0.011708658092512314
1950.0,0.011708658092512314
1949.0,0.011664044143949504
1948.0,0.011619434777991433
1947.0,0.011619434777991433
1946.0,0.011574829993696856
1945.0,0.011530229790124524
1944.0,0.011485634166333858
1943.0,0.011441043121384498
1942.0,0.011441043121384498
1941.0,0.011441043121384498
1940.0,0.011396456654336085
1939.0,0.011307297450183107
1938.0,0.011262724711199823
1937.0,0.011218156546359825
1936.0,0.011129033935354915
1935.0,0.011084479487313281
1934.0,0.011084479487313281
1933.0,0.011084479487313281
1932.0,0.011084479487313281
1931.0,0.011129033935354915
1930.0,0.011084479487313281
1929.0,0.011084479487313281
1928.0,0.011039929609661936
1927.0,0.011039929609661936
1926.0,0.011039929609661936
1925.0,0.011084479487313281
1924.0,0.011129033935354915
1923.0,0.011129033935354915
1922.0,0.011084479487313281
1921.0,0.010995384301463185
1920.0,0.010906307389674463
1919.0,0.010817248744452446
1918.0,0.01077272626946324
1917.0,0.010817248744452446
1916.0,0.010906307389674463
1915.0,0.010906307389674463
1914.0,0.010906307389674463
1913.0,0.01086177578421088
1912.0,0.01077272626946324
1911.0,0.010683695010048622
1910.0,0.010639186223752484
1909.0,0.010639186223752484
1908.0,0.010639186223752484
1907.0,0.010639186223752484
1906.0,0.010639186223752484
1905.0,0.010639186223752484
1904.0,0.010594681998483901
1903.0,0.010550182333308289
1902.0,0.010594681998483901
1901.0,0.010594681998483901
1900.0,0.010639186223752484
1899.0,0.010594681998483901
1898.0,0.010594681998483901
1897.0,0.010594681998483901
1896.0,0.010594681998483901
1895.0,0.010594681998483901
1894.0,0.010594681998483901
1893.0,0.010594681998483901
1892.0,0.010594681998483901
1891.0,0.010505687227290839
1890.0,0.010505687227290839
1889.0,0.010505687227290839
1888.0,0.01046119667949763
1887.0,0.010416710688994968
1886.0,0.01037222925484893
1885.0,0.01037222925484893
1884.0,0.010327752376126709
1883.0,0.010327752376126709
1882.0,0.010283280051895272
1881.0,0.010283280051895272
1880.0,0.010283280051895272
1879.0,0.01023881228122181
1878.0,0.01023881228122181
1877.0,0.01023881228122181
1876.0,0.01023881228122181
1875.0,0.010194349063173958
1874.0,0.010194349063173958
1873.0,0.010194349063173958
1872.0,0.010194349063173958
1871.0,0.010149890396819572
1870.0,0.010060986715464404
1869.0,0.010105436281226954
1868.0,0.010194349063173958
1867.0,0.010283280051895272
1866.0,0.010283280051895272
1865.0,0.010283280051895272
1864.0,0.01023881228122181
1863.0,0.010194349063173958
1862.0,0.010149890396819572
1861.0,0.010149890396819572
1860.0,0.010149890396819572
1859.0,0.010105436281226954
1858.0,0.010060986715464404
1857.0,0.010105436281226954
1856.0,0.010105436281226954
1855.0,0.010105436281226954
1854.0,0.010149890396819572
1853.0,0.010194349063173958
1852.0,0.01023881228122181
1851.0,0.010283280051895272
1850.0,0.010283280051895272
1849.0,0.010327752376126709
1848.0,0.01037222925484893
1847.0,0.01037222925484893
1846.0,0.010283280051895272
1845.0,0.01023881228122181
1844.0,0.010283280051895272
1843.0,0.010327752376126709
1842.0,0.01037222925484893
1841.0,0.010416710688994968
1840.0,0.01037222925484893
1839.0,0.01037222925484893
1838.0,0.010327752376126709
1837.0,0.010416710688994968
1836.0,0.010505687227290839
1835.0,0.010594681998483901
1834.0,0.010639186223752484
1833.0,0.010639186223752484
1832.0,0.010594681998483901
1831.0,0.010594681998483901
1830.0,0.010594681998483901
1829.0,0.010683695010048622
1828.0,0.010728208358306901
1827.0,0.010728208358306901
1826.0,0.010683695010048622
1825.0,0.010683695010048622
1824.0,0.010728208358306901
1823.0,0.01077272626946324
1822.0,0.01077272626946324
1821.0,0.010817248744452446
1820.0,0.01086177578421088
1819.0,0.010817248744452446
1818.0,0.010817248744452446
1817.0,0.010817248744452446
1816.0,0.01086177578421088
1815.0,0.01086177578421088
1814.0,0.01086177578421088
1813.0,0.01086177578421088
1812.0,0.01086177578421088
1811.0,0.01086177578421088
1810.0,0.01086177578421088
1809.0,0.01086177578421088
1808.0,0.01086177578421088
1807.0,0.010817248744452446
1806.0,0.01077272626946324
1805.0,0.01077272626946324
1804.0,0.01077272626946324
1803.0,0.010683695010048622
1802.0,0.010639186223752484
1801.0,0.010594681998483901
1800.0,0.010594681998483901
1799.0,0.010639186223752484
1798.0,0.010639186223752484
1797.0,0.010683695010048622
1796.0,0.010728208358306901
1795.0,0.010683695010048622
1794.0,0.010550182333308289
1793.0,0.010505687227290839
1792.0,0.01046119667949763
1791.0,0.010416710688994968
1790.0,0.01037222925484893
1789.0,0.01037222925484893
1788.0,0.01037222925484893
1787.0,0.010283280051895272
1786.0,0.01023881228122181
1785.0,0.01023881228122181
1784.0,0.01023881228122181
1783.0,0.01023881228122181
1782.0,0.010194349063173958
1781.0,0.010194349063173958
1780.0,0.010194349063173958
1779.0,0.010194349063173958
1778.0,0.010149890396819572
1777.0,0.010194349063173958
1776.0,0.010283280051895272
1775.0,0.010327752376126709
1774.0,0.01023881228122181
1773.0,0.010149890396819572
1772.0,0.010105436281226954
1771.0,0.010060986715464404
1770.0,0.010060986715464404
1769.0,0.010060986715464404
1768.0,0.010060986715464404
1767.0,0.010060986715464404
1766.0,0.010060986715464404
1765.0,0.010105436281226954
1764.0,0.010149890396819572
1763.0,0.010060986715464404
1762.0,0.01001654169860089
1761.0,0.010060986715464404
1760.0,0.010194349063173958
1759.0,0.010283280051895272
1758.0,0.010327752376126709
1757.0,0.01037222925484893
1756.0,0.01046119667949763
1755.0,0.010594681998483901
1754.0,0.010683695010048622
1753.0,0.01077272626946324
1752.0,0.010817248744452446
1751.0,0.01086177578421088
1750.0,0.01086177578421088
1749.0,0.010906307389674463
1748.0,0.011039929609661936
1747.0,0.011129033935354915
1746.0,0.011218156546359825
1745.0,0.011262724711199823
1744.0,0.011351874764248926
1743.0,0.011396456654336085
1742.0,0.011351874764248926
1741.0,0.011351874764248926
1740.0,0.011441043121384498
1739.0,0.011619434777991433
1738.0,0.011797899741219142
1737.0,0.012021084124518078
1736.0,0.012199714248127602
1735.0,0.012289056869694281
1734.0,0.012467797270160563
1733.0,0.01260190086298274
1732.0,0.01260190086298274
1731.0,0.012557195064198723
1730.0,0.01260190086298274
1729.0,0.012736045877764557
1728.0,0.012870232340102872
1727.0,0.013004460275618523
1726.0,0.013093968619278806
1725.0,0.01322826573375524
1724.0,0.013407393177789162
1723.0,0.013541787262693505
1722.0,0.013676222949234651
1721.0,0.013900374944870508
1720.0,0.014214382227394795
1719.0,0.0144837121472845
1718.0,0.014708281407112
1717.0,0.014843078722943437
1716.0,0.014888020460646079
1715.0,0.014932966849499074
1714.0,0.015022873584506602
1713.0,0.015247721884586563
1712.0,0.015517693597737248
1711.0,0.015697768020096703
1710.0,0.015832872853011715
1709.0,0.016013078034810446
1708.0,0.016238439713835096
1707.0,0.01646391839700767
1706.0,0.016734647433454652
1705.0,0.017141057687924732
1704.0,0.017502630802287644
1703.0,0.017728766960431575
1702.0,0.017774008325325275
1701.0,0.01809082990920774
1700.0,0.018951941086827073
1699.0,0.019678413991243593
1698.0,0.02013307743509718
1697.0,0.02058821736556471
1696.0,0.021043834782408455
1695.0,0.021363051615525652
1694.0,0.02159120737696063
1693.0,0.021910826943857264
1692.0,0.022322112326006227
1691.0,0.02282532397981263
1690.0,0.02342078135989012
1689.0,0.024200690320592466
1688.0,0.025074013910237447
1687.0,0.025718641122169483
1686.0,0.02617967564731627
1685.0,0.026872146400301444
1684.0,0.02812138297373412
1683.0,0.028956208163971375
1682.0,0.029513651152349718
1681.0,0.030164906924202484
1680.0,0.030910397045078586
1679.0,0.031563752288295444
1678.0,0.032124554451966825
1677.0,0.032686081712916426
1676.0,0.03357665405630694
1675.0,0.03465716443937783
1674.0,0.03555179208333925
1673.0,0.03621217265444465
1672.0,0.03682628362474838
1671.0,0.037583306554248797
1670.0,0.03862637240519895
1669.0,0.03981472339538916
1668.0,0.04086316882962593
1667.0,0.041627267521392675
1666.0,0.04215336629184985
1665.0,0.04272802000705722
1664.0,0.0435434165901003
1663.0,0.04460091336073302
1662.0,0.045660991397539874
1661.0,0.04662694927330402
1660.0,0.04744970610179822
1659.0,0.048128442871635535
1658.0,0.04866248120408234
1657.0,0.049294465226138895
1656.0,0.049927370249842395
1655.0,0.050414848673348
1654.0,0.05139145012356372
1653.0,0.053596866100945384
1652.0,0.055122694036304765
1651.0,0.05536929814372171
1650.0,0.05536929814372171
1649.0,0.055764156206519866
1648.0,0.0567528748621382
1647.0,0.0583395216116076
1646.0,0.05973260855398799
1645.0,0.06063052992534024
1644.0,0.06128018521761747
1643.0,0.061830653609679764
1642.0,0.06243196139961715
1641.0,0.06318476880236723
1640.0,0.06403953101083348
1639.0,0.06479513257341862
1638.0,0.0654005617819271
1637.0,0.06656333217371957
1636.0,0.06874559358358656
1635.0,0.0710411591191702
1634.0,0.0725783049495814
1633.0,0.07401789967289685
1632.0,0.0756173227980268
1631.0,0.07737832847680104
1630.0,0.07961575782164254
1629.0,0.08270459905431071
1628.0,0.0867160982395816
1627.0,0.09076499663169257
1626.0,0.09468993788391455
1625.0,0.09946901754724413
1624.0,0.10657115822045493
1623.0,0.11531789579397489
1622.0,0.12343578601615435
1621.0,0.13012318673323353
1620.0,0.1363797797296844
1619.0,0.1432711096171173
1618.0,0.15242734085788778
1617.0,0.16494389827988365
1616.0,0.1778973313530796
1615.0,0.1872871332346313
1614.0,0.1934808659192948
1613.0,0.19880216554085117
1612.0,0.20432849405397824
1611.0,0.20915209603456808
1610.0,0.2121146490590755
1609.0,0.21317762050081246
1608.0,0.21296481797377664
1607.0,0.21091308491197136
1606.0,0.20676855294347907
1605.0,0.20128031481499375
1604.0,0.19524739784953948
1603.0,0.18842499412940672
1602.0,0.18071935302751885
1601.0,0.17288931253398876
1600.0,0.16545214231905137
1599.0,0.15826522102525642
1598.0,0.15101079374883275
1597.0,0.1438755557576996
1596.0,0.13721290176465573
1595.0,0.13100309751286465
1594.0,0.125054563914468
1593.0,0.11947222180119477
1592.0,0.1145256971708426
1591.0,0.10997041383658313
1590.0,0.10551778498990938
1589.0,0.10127481841050656
1588.0,0.09750757884139638
1587.0,0.09398837472858723
1586.0,0.09060445403289452
1585.0,0.08740600224789441
1584.0,0.08454739831152125
1583.0,0.08191721535781271
1582.0,0.0794071379151915
1581.0,0.07706704344478843
1580.0,0.07504911108438939
1579.0,0.07329750581735506
1578.0,0.07145053299833615
1577.0,0.06935655895783555
1576.0,0.06732334137759932
1575.0,0.06560255921901192
1574.0,0.06408986356949264
1573.0,0.06258241852286206
1572.0,0.06108018775522828
1571.0,0.05963295401433477
1570.0,0.058190526991161784
1569.0,0.057000406633959555
1568.0,0.05601112492622806
1567.0,0.05507339001378431
1566.0,0.05399011523423525
1565.0,0.05290953578037816
1564.0,0.052027420754219955
1563.0,0.05134256785867963
1562.0,0.05051241005349638
1561.0,0.049245818406496555
1560.0,0.0478374257855374
1559.0,0.04715914332429838
1558.0,0.04677202844014605
1557.0,0.046143701775014145
1556.0,0.04541983725624266
1555.0,0.04474531717982
1554.0,0.044071843103049346
1553.0,0.0433514207947967
1552.0,0.042775942156833
1551.0,0.04224908912272074
1550.0,0.0417706858116178
1549.0,0.04124505013091051
1548.0,0.04076775094900409
1547.0,0.040243327009005014
1546.0,0.039719535563357944
1545.0,0.03919637508823026
1544.0,0.03876880295533702
1543.0,0.038436537637930535
1542.0,0.03810452633214956
1541.0,0.03786753070176463
1540.0,0.03786753070176463
1539.0,0.03772539537668518
1538.0,0.03720463014276687
1537.0,0.036542739883292485
1536.0,0.03592902944204468
1535.0,0.03550466044490741
1534.0,0.03522197797762394
1533.0,0.03512779136222477
1532.0,0.0349394793888016
1531.0,0.03461012978487776
1530.0,0.03423403581731388
1529.0,0.03385826726096752
1528.0,0.03352973627071565
1527.0,0.0332483359486222
1526.0,0.0329671178412978
1525.0,0.03263926003405038
1524.0,0.03240522732811035
1523.0,0.032124554451966825
1522.0,0.03184406285002961
1521.0,0.03151705144606498
1520.0,0.031096969696171817
1519.0,0.03063068826647264
1518.0,0.03025802323714588
1517.0,0.03002526987828502
1516.0,0.029839156962686353
1515.0,0.02960662792039992
1514.0,0.029281296279810798
1513.0,0.028956208163971375
1512.0,0.02863136320857662
1511.0,0.028445846553939003
1510.0,0.028353117935693284
1509.0,0.028306761050139073
1508.0,0.02826040911222183
1507.0,0.02826040911222183
1506.0,0.028075050815808744
1505.0,0.027750864037404455
1504.0,0.02738066094037661
1503.0,0.027056991894431892
1502.0,0.02682594731702781
1501.0,0.02664120011360227
1500.0,0.026502691267936695
1499.0,0.026502691267936695
1498.0,0.026502691267936695
1497.0,0.02654885597506529
1496.0,0.026502691267936695
1495.0,0.02636422658259252
1494.0,0.02613355016462182
1493.0,0.025902996205869
1492.0,0.025718641122169483
1491.0,0.02562649291857677
1490.0,0.02558042614771394
1489.0,0.02553436426275746
1488.0,0.02544225514642018
1487.0,0.025350165561278004
1486.0,0.025258095499050004
1485.0,0.02521206778644225
1484.0,0.02512002699306959
1483.0,0.025028005701930978
1482.0,0.02498200236711723
1481.0,0.02498200236711723
1480.0,0.02498200236711723
1479.0,0.02498200236711723
1478.0,0.025258095499050004
1477.0,0.02613355016462182
1476.0,0.027843464140506313
1475.0,0.03030458888152676
1474.0,0.03343591590268957
1473.0,0.03649550058570927
1472.0,0.038151940981675736
1471.0,0.038341651362284734
1470.0,0.038151940981675736
1469.0,0.038057116858612794
1468.0,0.03810452633214956
1467.0,0.03838909190871931
1466.0,0.03919637508823026
1465.0,0.040529297924893015
1464.0,0.041579471947481794
1463.0,0.04172287445230238
1462.0,0.041006334969674096
1461.0,0.039767126871487646
1460.0,0.03838909190871931
1459.0,0.037062711569998186
1458.0,0.03602339000339416
1457.0,0.03531618502395939
1456.0,0.03479829897408804
1455.0,0.034187046963396917
1454.0,0.03357665405630694
1453.0,0.0329671178412978
1452.0,0.03240522732811035
1451.0,0.03189079887180224
1450.0,0.03151705144606498
1449.0,0.031190286087141805
1448.0,0.030957032694186815
1447.0,0.030863766403287585
1446.0,0.030770520137356927
1445.0,0.03058408764601861
1444.0,0.030351159519274695
1443.0,0.030164906924202484
1442.0,0.03002526987828502
1441.0,0.029839156962686353
1440.0,0.02969962459782227
1439.0,0.029513651152349718
1438.0,0.029281296279810798
1437.0,0.02904906565457588
1436.0,0.02890978686288448
1435.0,0.02872415126189476
1434.0,0.02849221828874393
1433.0,0.028167720075074953
1432.0,0.027797161620935595
1431.0,0.02751945012352408
1430.0,0.02724191609646076
1429.0,0.027010773144651168
1428.0,0.026733563891471412
1427.0,0.02654885597506529
1426.0,0.026318081496016443
1425.0,0.02613355016462182
1424.0,0.025995203102585407
1423.0,0.025949097207122573
1422.0,0.025810808881832736
1421.0,0.02562649291857677
1420.0,0.025488307262671706
1419.0,0.025488307262671706
1418.0,0.025488307262671706
1417.0,0.025304128090317013
1416.0,0.02512002699306959
1415.0,0.024890010313838973
1414.0,0.02475205875931885
1413.0,0.024568191490736968
1412.0,0.024476287039668643
1411.0,0.024430342106337877
1410.0,0.024338466818941473
1409.0,0.024246610963712723
1408.0,0.024108863598207186
1407.0,0.02406295751688936
1406.0,0.023971159908874107
1405.0,0.023879381700184332
1404.0,0.023787622882622816
1403.0,0.023695883447997224
1402.0,0.02355831062115543
1401.0,0.023466619608062178
1400.0,0.023374947949272418
1399.0,0.023374947949272418
1398.0,0.023374947949272418
1397.0,0.023283295636617574
1396.0,0.02314585342378117
1395.0,0.02300845469384938
1394.0,0.02296266477531872
1393.0,0.022871099419317753
1392.0,0.02277955336461468
1391.0,0.022733787572707387
1390.0,0.022688026603074007
1389.0,0.02259651912656535
1388.0,0.02255077261765881
1387.0,0.02255077261765881
1386.0,0.02259651912656535
1385.0,0.02259651912656535
1384.0,0.02259651912656535
1383.0,0.022688026603074007
1382.0,0.02282532397981263
1381.0,0.023054249440757957
1380.0,0.023237476732539397
1379.0,0.023466619608062178
1378.0,0.02355831062115543
1377.0,0.02355831062115543
1376.0,0.02351246269481
1375.0,0.023466619608062178
1374.0,0.023374947949272418
1373.0,0.023283295636617574
1372.0,0.023191662661933732
1371.0,0.023100049017062307
1370.0,0.02300845469384938
1369.0,0.02296266477531872
1368.0,0.022871099419317753
1367.0,0.02277955336461468
1366.0,0.022688026603074007
1365.0,0.02259651912656535
1364.0,0.02255077261765881
1363.0,0.022505030926963654
1362.0,0.02245929405346514
1361.0,0.022322112326006227
1360.0,0.022093572362881675
1359.0,0.021956506090037076
1358.0,0.021819483062586187
1357.0,0.021728158389364705
1356.0,0.021728158389364705
1355.0,0.021773818325474092
1354.0,0.021819483062586187
1353.0,0.021819483062586187
1352.0,0.021773818325474092
1351.0,0.021728158389364705
1350.0,0.02168250325324883
1349.0,0.021636852916117055
1348.0,0.02159120737696063
1347.0,0.021545566634771474
1346.0,0.021499930688540836
1345.0,0.021499930688540836
1344.0,0.021499930688540836
1343.0,0.021499930688540836
1342.0,0.021499930688540836
1341.0,0.021499930688540836
1340.0,0.021499930688540836
1339.0,0.021499930688540836
1338.0,0.0214542995372613
1337.0,0.0214542995372613
1336.0,0.021363051615525652
1335.0,0.021363051615525652
1334.0,0.021317434843055594
1333.0,0.021317434843055594
1332.0,0.021317434843055594
1331.0,0.021363051615525652
1330.0,0.021363051615525652
1329.0,0.021363051615525652
1328.0,0.021363051615525652
1327.0,0.02140867317992523
1326.0,0.02140867317992523
1325.0,0.02140867317992523
1324.0,0.02140867317992523
1323.0,0.021499930688540836
1322.0,0.02159120737696063
1321.0,0.02168250325324883
1320.0,0.021773818325474092
1319.0,0.021865152601710403
1318.0,0.021910826943857264
1317.0,0.021956506090037076
1316.0,0.02200219004126036
1315.0,0.02204787879853809
1314.0,0.022093572362881675
1313.0,0.022139270735302752
1312.0,0.0221849739168134
1311.0,0.02227639471115217
1310.0,0.022322112326006227
1309.0,0.022413561996148967
1308.0,0.022505030926963654
1307.0,0.02259651912656535
1306.0,0.022688026603074007
1305.0,0.022733787572707387
1304.0,0.02277955336461468
1303.0,0.02282532397981263
1302.0,0.02296266477531872
1301.0,0.023054249440757957
1300.0,0.02314585342378117
1299.0,0.023191662661933732
1298.0,0.023283295636617574
1297.0,0.023374947949272418
1296.0,0.02342078135989012
1295.0,0.02351246269481
1294.0,0.023604163388120325
1293.0,0.02365002099672653
1292.0,0.023695883447997224
1291.0,0.023741750742954926
1290.0,0.023833499868024743
1289.0,0.023879381700184332
1288.0,0.023925268380126097
1287.0,0.024017056287453542
1286.0,0.024108863598207186
1285.0,0.024200690320592466
1284.0,0.024292536462819925
1283.0,0.02438440203310499
1282.0,0.024476287039668643
1281.0,0.024568191490736968
1280.0,0.024660115394541604
1279.0,0.02475205875931885
1278.0,0.02484402159331056
1277.0,0.024936003904763915
1276.0,0.025074013910237447
1275.0,0.02521206778644225
1274.0,0.025350165561278004
1273.0,0.025488307262671706
1272.0,0.02562649291857677
1271.0,0.025718641122169483
1270.0,0.025810808881832736
1269.0,0.025856900097785074
1268.0,0.025949097207122573
1267.0,0.026041313893296225
1266.0,0.02613355016462182
1265.0,0.026225806029419818
1264.0,0.026410376572743033
1263.0,0.026595025589939425
1262.0,0.026733563891471412
1261.0,0.026872146400301444
1260.0,0.027010773144651168
1259.0,0.027149444152769986
1258.0,0.027288159452933503
1257.0,0.02738066094037661
1256.0,0.02751945012352408
1255.0,0.027658283674251827
1254.0,0.027797161620935595
1253.0,0.02798240132598462
1252.0,0.028167720075074953
1251.0,0.028353117935693284
1250.0,0.028538594975413334
1249.0,0.028677754757187035
1248.0,0.02890978686288448
1247.0,0.029141943003497595
1246.0,0.029374223311705583
1245.0,0.02960662792039992
1244.0,0.029839156962686353
1243.0,0.030071810571884017
1242.0,0.03030458888152676
1241.0,0.030537492025363155
1240.0,0.030770520137356927
1239.0,0.031096969696171817
1238.0,0.03142366482450232
1237.0,0.03179733185715028
1236.0,0.032124554451966825
1235.0,0.03249882527715853
1234.0,0.03282657704446046
1233.0,0.03310770413286357
1232.0,0.03343591590268957
1231.0,0.03371743783253667
1230.0,0.03409308450480819
1229.0,0.03442204208947208
1228.0,0.03479829897408804
1227.0,0.03517488211661135
1226.0,0.03555179208333925
1225.0,0.03588185684851508
1224.0,0.03621217265444465
1223.0,0.036542739883292485
1222.0,0.036873558918095295
1221.0,0.03720463014276687
1220.0,0.037488606492403154
1219.0,0.03782014709123227
1218.0,0.038151940981675736
1217.0,0.03848398855105106
1216.0,0.038816290187564384
1215.0,0.03914884628031379
1214.0,0.03948165721929198
1213.0,0.039767126871487646
1212.0,0.04010041213405646
1211.0,0.04043395336207234
1210.0,0.04081545726880842
1209.0,0.041197296600497646
1208.0,0.041579471947481794
1207.0,0.041914151478914974
1206.0,0.042201225070002124
1205.0,0.04248848854552012
1204.0,0.04282386959515394
1203.0,0.04320747962950522
1202.0,0.04368746915880539
1201.0,0.04411991377462465
1200.0,0.04460091336073302
1199.0,0.04508244626504121
1198.0,0.045564513671517703
1197.0,0.04599883231842972
1196.0,0.046481918555007384
1195.0,0.047062332249019345
1194.0,0.047643522676209304
1193.0,0.048225491918274965
1192.0,0.04885683989244738
1191.0,0.04953778109440221
1190.0,0.05026854768429301
1189.0,0.051049389754451946
1188.0,0.05192951848105887
1187.0,0.05281143447390635
1186.0,0.05379344615721715
1185.0,0.054728418492290265
1184.0,0.05571477931124735
1183.0,0.0567528748621382
1182.0,0.05784307153250956
1181.0,0.058936011780097886
1180.0,0.060081579630943294
1179.0,0.06133019897732073
1178.0,0.06258241852286206
1177.0,0.06388856832514578
1176.0,0.06524912533642091
1175.0,0.06661395809694559
1174.0,0.06798309356579857
1173.0,0.06940751155740177
1172.0,0.07088774334533943
1171.0,0.07232173586200852
1170.0,0.07381195089279391
1169.0,0.07530729697981409
1168.0,0.07680780957933253
1167.0,0.07831352451639795
1166.0,0.07982447798997727
1165.0,0.0812883346176787
1164.0,0.08280969148843575
1163.0,0.08428366205400617
1162.0,0.0856568428805593
1161.0,0.08708744882390307
1160.0,0.0885227828938977
1159.0,0.08990945440593179
1158.0,0.09135416109288674
1157.0,0.09274991711867164
1156.0,0.09420411963213149
1155.0,0.09560907998763835
1154.0,0.09696430321150284
1153.0,0.09837823590664274
1152.0,0.09985143928065598
1151.0,0.10132965703447017
1150.0,0.10281292341984649
1149.0,0.10430127304069425
1148.0,0.10579474085791629
1147.0,0.10723776538418317
1146.0,0.10868560061785693
1145.0,0.11013827874181148
1144.0,0.11159583226295333
1143.0,0.11317099532301778
1142.0,0.11463877996848804
1141.0,0.11616828667054757
1140.0,0.11764625361128611
1139.0,0.11918640771920863
1138.0,0.12061736282565727
1137.0,0.12211057462851604
1136.0,0.12360893818081231
1135.0,0.12517042212027807
1134.0,0.1267375405612734
1133.0,0.1283103343144847
1132.0,0.12994741830645506
1131.0,0.1316495003520317
1130.0,0.13324021650489182
1129.0,0.13477754370982087
1128.0,0.1363797797296844
1127.0,0.13792828062000573
1126.0,0.13954220457652888
1125.0,0.14122226269455074
1124.0,0.14302956651750764
1123.0,0.1447838052666366
1122.0,0.14642345638035836
1121.0,0.14813039927023364
1120.0,0.14990540561329913
1119.0,0.15168769637271562
1118.0,0.15335367142288248
1117.0,0.15508812608785938
1116.0,0.15689185800039307
1115.0,0.15870311250971825
1114.0,0.1605219526258017
1113.0,0.1624115617644888
1112.0,0.1644362483309032
1111.0,0.16647041824135633
1110.0,0.1685141607513425
1109.0,0.17056756638240134
1108.0,0.1726953589102651
1107.0,0.17476867680009978
1106.0,0.17685194018930606
1105.0,0.17901082358395048
1104.0,0.1812464095022832
1103.0,0.18336105510153855
1102.0,0.1854860476317619
1101.0,0.18762148884580565
1100.0,0.18990195931885712
1099.0,0.1921268679966679
1098.0,0.19422736806433094
1097.0,0.19633807676377568
1096.0,0.19845909380968174
1095.0,0.20045269287438483
1094.0,0.20231706508510094
1093.0,0.20418947533259169
1092.0,0.20606999322731534
1091.0,0.2076783636484265
1090.0,0.20915209603456808
1089.0,0.2104897959097456
1088.0,0.21183162885883222
1087.0,0.2130357405642671
1086.0,0.21417208000413446
1085.0,0.21531140049857878
1084.0,0.21638223480925123
1083.0,0.21731243176503368
1082.0,0.21795758337944582
1081.0,0.21846003139405834
1080.0,0.21896306137886823
1079.0,0.2193227255666319
1078.0,0.2194666746835956
1077.0,0.2195386671382824
1076.0,0.21961067152904712
1075.0,0.2195386671382824
1074.0,0.2193227255666319
1073.0,0.21896306137886823
1072.0,0.21867554433301217
1071.0,0.21817284706757212
1070.0,0.21752737583371373
1069.0,0.21688286250953293
1068.0,0.21623930425607596
1067.0,0.21538270736712462
1066.0,0.21424320003735708
1065.0,0.21310667473868428
1064.0,0.21190236661970263
1063.0,0.21056031543282083
1062.0,0.20901152491118413
1061.0,0.2074682380986923
1060.0,0.20593041601836748
1059.0,0.20418947533259169
1058.0,0.20224787134928923
1057.0,0.20031490909089955
1056.0,0.1983905119726812
1055.0,0.19647460442346754
1054.0,0.19449914184159978
1053.0,0.19246497193114664
1052.0,0.19057497120296585
1051.0,0.18869315991866387
1050.0,0.18668594105416525
1049.0,0.18462151503408197
1048.0,0.18263298371240588
1047.0,0.18052187163787736
1046.0,0.17842097208799124
1045.0,0.17639537164484187
1044.0,0.17444406770964305
1043.0,0.1725014918665413
1042.0,0.17056756638240134
1041.0,0.16857818293497795
1040.0,0.1666616110606025
1039.0,0.1646899991309374
1038.0,0.16266413198498508
1037.0,0.16083631708534996
1036.0,0.15901616267962204
1035.0,0.15726598105173029
1034.0,0.15539858037365328
1033.0,0.1535391748706676
1032.0,0.1517492853229574
1031.0,0.14984407757790774
1030.0,0.1479471913021495
1029.0,0.14605855411951008
1028.0,0.14429916916456276
1027.0,0.14260718907909875
1026.0,0.1409217752530305
1025.0,0.13930272594796111
1024.0,0.13774932540207496
1023.0,0.136142038116027
1022.0,0.13448148092522594
1021.0,0.13294519952329842
1020.0,0.1314731132317961
1019.0,0.13012318673323353
1018.0,0.12883586719705065
1017.0,0.1276688787697493
1016.0,0.12667939818460128
1015.0,0.12575017722159698
1014.0,0.1248808345374317
1013.0,0.12418661116024232
1012.0,0.12372441132212098
1011.0,0.1233203895807995
1010.0,0.12303203256741524
1009.0,0.12291674334934943
1008.0,0.12285911021517903
1007.0,0.12285911021517903
1006.0,0.12291674334934943
1005.0,0.12303203256741524
1004.0,0.12326270285933538
1003.0,0.12343578601615435
1002.0,0.12355121312165873
1001.0,0.12349349573411894
1000.0,0.1233203895807995
999.0,0.12297438413275108
998.0,0.12245589228405596
997.0,0.12182301950849372
996.0,0.12113366304327466
995.0,0.12033079436794658
994.0,0.11930071078129845
993.0,0.11821604440661537
992.0,0.11702034596270106
991.0,0.11582793047608719
990.0,0.11469533241103202
989.0,0.11367851344052027
988.0,0.1130019543289007
987.0,0.112945621949043
986.0,0.11356568037106163
985.0,0.11475189221861393
984.0,0.11565785235294102
983.0,0.11548784080960606
982.0,0.1141301390960936
981.0,0.11198908775497118
980.0,0.10974669484546551
979.0,0.10779405402422748
978.0,0.10612732120491852
977.0,0.10468797552421272
976.0,0.10347378251044459
975.0,0.10237290870955862
974.0,0.10138450258381404
973.0,0.1005078038618683
972.0,0.09974214156222239
971.0,0.09892328427374508
970.0,0.09821485469640057
969.0,0.09750757884139638
968.0,0.09691001300805646
967.0,0.09625905937846135
966.0,0.09566320779750503
965.0,0.0950141189006366
964.0,0.09441997176475758
963.0,0.0937727369476411
962.0,0.09318028453345462
961.0,0.09258863922541383
960.0,0.0919977988274463
959.0,0.09146136782804049
958.0,0.09087205801073917
957.0,0.09033701484598189
956.0,0.08985603893548699
955.0,0.08942895151874142
954.0,0.08900228368935714
953.0,0.0885227828938977
952.0,0.08804381092731295
951.0,0.08756536662442538
950.0,0.0870343792958963
949.0,0.08655704514060414
948.0,0.0861331881037608
947.0,0.08570974433405087
946.0,0.08528671302637614
945.0,0.08491689834879956
944.0,0.08454739831152125
943.0,0.08423093401631587
942.0,0.0838620168928248
941.0,0.08344078069888616
940.0,0.08301995267961781
939.0,0.08254700807033655
938.0,0.08207457793525874
937.0,0.08170748724464438
936.0,0.08139308485501817
935.0,0.08102656950704579
934.0,0.08071265949561734
933.0,0.08039897621588898
932.0,0.08008551934056851
931.0,0.07982447798997727
930.0,0.0794592834975203
929.0,0.07914650387874067
928.0,0.07878187880504961
927.0,0.07846958649875768
926.0,0.0781575185941421
925.0,0.07784567476894111
924.0,0.07763790321520991
923.0,0.07737832847680104
922.0,0.07711890879170658
921.0,0.07685964397479927
920.0,0.07665234350217442
919.0,0.0763933569825408
918.0,0.07613452481449845
917.0,0.07592757008963713
916.0,0.07566901529132153
915.0,0.07541061433058172
914.0,0.07504911108438939
913.0,0.07473949048056472
912.0,0.07443009045662374
911.0,0.07422394616325367
910.0,0.07401789967289685
909.0,0.07386342893255127
908.0,0.07376047895413773
907.0,0.07360609973031784
906.0,0.0734517753643813
905.0,0.07329750581735506
904.0,0.07304051161972436
903.0,0.07278366940873537
902.0,0.07252697900472405
901.0,0.07232173586200852
900.0,0.07211658966929302
899.0,0.07196279359311708
898.0,0.07175781684269089
897.0,0.07155293679081787
896.0,0.0713481533463054
895.0,0.07114346641808922
894.0,0.07088774334533943
893.0,0.07078549626260622
892.0,0.07068327324650436
891.0,0.07063217075990047
890.0,0.07047889936889606
889.0,0.07037674848475972
888.0,0.07032568205141221
887.0,0.07022356719509815
886.0,0.07017251876930874
885.0,0.07012147634321675
884.0,0.07001940948448526
883.0,0.0699173666076287
882.0,0.06971335275448043
881.0,0.06956040523329987
880.0,0.06935655895783555
879.0,0.06925467168888666
878.0,0.06915280831750303
877.0,0.06905096883247697
876.0,0.06905096883247697
875.0,0.06905096883247697
874.0,0.06894915322260897
873.0,0.06879647454924775
872.0,0.06859298644342648
871.0,0.06833876031551878
870.0,0.0680846829187538
869.0,0.06793230779927839
868.0,0.06793230779927839
867.0,0.06798309356579857
866.0,0.06798309356579857
865.0,0.06793230779927839
864.0,0.06788152797087754
863.0,0.06777998612288094
862.0,0.06772922410050963
861.0,0.0676277178520861
860.0,0.0675769736232612
859.0,0.06747550294945781
858.0,0.06742477650170953
857.0,0.06742477650170953
856.0,0.06747550294945781
855.0,0.06742477650170953
854.0,0.06732334137759932
853.0,0.06727263269847072
852.0,0.06732334137759932
851.0,0.06742477650170953
850.0,0.06752623532284674
849.0,0.0676277178520861
848.0,0.06772922410050963
847.0,0.06777998612288094
846.0,0.06772922410050963
845.0,0.06767846801070698
844.0,0.0676277178520861
843.0,0.0676277178520861
842.0,0.0676277178520861
841.0,0.06772922410050963
840.0,0.06788152797087754
839.0,0.0678307540792078
838.0,0.0676277178520861
837.0,0.06737405597821788
836.0,0.06727263269847072
835.0,0.06727263269847072
834.0,0.06727263269847072
833.0,0.06732334137759932
832.0,0.06742477650170953
831.0,0.0675769736232612
830.0,0.06777998612288094
829.0,0.06793230779927839
828.0,0.06798309356579857
827.0,0.06793230779927839
826.0,0.06788152797087754
825.0,0.06793230779927839
824.0,0.06813548650796819
823.0,0.06833876031551878
822.0,0.0684912781333824
821.0,0.06859298644342648
820.0,0.06869471857832687
819.0,0.06879647454924775
818.0,0.06884736147670667
817.0,0.06894915322260897
816.0,0.0691018855898955
815.0,0.06930561233546473
814.0,0.06956040523329987
813.0,0.06981534770138009
812.0,0.06996838504902692
811.0,0.07007043991541217
810.0,0.07001940948448526
809.0,0.07007043991541217
808.0,0.07022356719509815
807.0,0.07047889936889606
806.0,0.07078549626260622
805.0,0.07109230975604719
804.0,0.0713481533463054
803.0,0.07155293679081787
802.0,0.0718090519612431
801.0,0.07211658966929302
800.0,0.07252697900472405
799.0,0.07283502570063005
798.0,0.07314329105030759
797.0,0.07350321072677968
796.0,0.07391491307485598
795.0,0.07432700607875953
794.0,0.07468790850035045
793.0,0.07504911108438939
792.0,0.07541061433058172
791.0,0.07577241873988227
790.0,0.0760310351245288
789.0,0.07634157820669385
788.0,0.07670415934449615
787.0,0.07706704344478843
786.0,0.07748213975538865
785.0,0.07789763319239285
784.0,0.07836553894629472
783.0,0.07883394936226118
782.0,0.07919861817434581
781.0,0.07966792846041071
780.0,0.08018997982980403
779.0,0.08076496207674921
778.0,0.0812359689720008
777.0,0.08170748724464438
776.0,0.08212704480115218
775.0,0.08259953204474924
774.0,0.08312512146131668
773.0,0.08375666953466032
772.0,0.08438913733853282
771.0,0.08486409337798806
770.0,0.08518101955252688
769.0,0.08549817717268593
768.0,0.08592141461088798
767.0,0.08639805027084257
766.0,0.08692825969074924
765.0,0.08735289378168276
764.0,0.0877779434675845
763.0,0.08825662214406838
762.0,0.08878910686244668
761.0,0.08932224525729482
760.0,0.08974922769985194
759.0,0.09012318200960712
758.0,0.09039048950983108
757.0,0.09071147583774919
756.0,0.09108625997902897
755.0,0.09140776115243066
754.0,0.09183679994445204
753.0,0.09242742120144909
752.0,0.09312646527792956
751.0,0.0937727369476411
750.0,0.09425807260839858
749.0,0.09463593123310776
748.0,0.09506817260434741
747.0,0.09550084460218011
746.0,0.09604229147682952
745.0,0.09663866374468144
744.0,0.09712721455392082
743.0,0.09734452478207412
742.0,0.09745322068600859
741.0,0.09767069414168117
740.0,0.09805153492691598
739.0,0.09848719087006019
738.0,0.09886874864462802
737.0,0.09935981601739963
736.0,0.10012480397898926
735.0,0.10111034407341357
734.0,0.10231793820358015
733.0,0.10419084983086901
732.0,0.10668218838388821
731.0,0.10935546370475246
730.0,0.11165198982195101
729.0,0.11305829401658474
728.0,0.1137349409702435
727.0,0.11390426756225258
726.0,0.11401718864502697
725.0,0.11463877996848804
724.0,0.11582793047608719
723.0,0.11764625361128611
722.0,0.1202162199095842
721.0,0.12389767862220635
720.0,0.12784372725170723
719.0,0.1308856730206247
718.0,0.1322379753497993
717.0,0.1322379753497993
716.0,0.13159069668503998
715.0,0.1306509192409071
714.0,0.1295960947209729
713.0,0.1287190271420271
712.0,0.1282519810081284
711.0,0.1280186461566306
710.0,0.1280769681176266
709.0,0.12842706445412122
708.0,0.12901118623942476
707.0,0.1294790499872358
706.0,0.12988884463559924
705.0,0.13041629228657614
704.0,0.13094438129809216
703.0,0.1311205537629121
702.0,0.13106182166708868
701.0,0.13106182166708868
700.0,0.1316495003520317
699.0,0.13282724882135022
698.0,0.13424477592854833
697.0,0.13560759484941132
696.0,0.13661765155921235
695.0,0.13715334001706125
694.0,0.13774932540207496
693.0,0.13912320359670227
692.0,0.14110204276799654
691.0,0.14296920172737604
690.0,0.14405705376768396
689.0,0.14417809459397013
688.0,0.14333151638846497
687.0,0.14170347546611461
686.0,0.14056146454494378
685.0,0.1413425159091921
684.0,0.14405705376768396
683.0,0.1472760892087941
682.0,0.14966014541652073
681.0,0.15131834597604965
680.0,0.15298290206464582
679.0,0.1545918603782066
678.0,0.1559579579589836
677.0,0.15726598105173029
676.0,0.15857795559764076
675.0,0.15970566838856382
674.0,0.1605219526258017
673.0,0.16127680996862814
672.0,0.16209605540705763
671.0,0.16298005145909156
670.0,0.16418264570652719
669.0,0.1674910872937636
668.0,0.1733422081241307
667.0,0.17698247655395072
666.0,0.1775703762206431
665.0,0.17802818235795725
664.0,0.1791420105603001
663.0,0.18025870272698952
662.0,0.18144422070219735
661.0,0.18362611124763806
660.0,0.1871534630329288
659.0,0.19050762306265812
658.0,0.19253262431572216
657.0,0.19388788983090888
656.0,0.19572423287090612
655.0,0.1980477651457182
654.0,0.20065945054641832
653.0,0.20418947533259169
652.0,0.2088709992727138
651.0,0.2137456042102197
650.0,0.21745571598998992
649.0,0.22025924882325953
648.0,0.22264568691579112
647.0,0.22453519065426075
646.0,0.22570206150072258
645.0,0.22650610772902935
644.0,0.22716507276098175
643.0,0.22753159694671954
642.0,0.2277516600281464
641.0,0.2286330291422194
640.0,0.23040115161255348
639.0,0.23202827861838116
638.0,0.23336411368973242
637.0,0.23537560214901854
636.0,0.23844801143581806
635.0,0.24116377525304178
634.0,0.2420728168866706
633.0,0.24169381827469305
632.0,0.24101245313238073
631.0,0.24018112262517377
630.0,0.23942674605560588
629.0,0.23965292147009354
628.0,0.24101245313238073
627.0,0.24245214653075609
626.0,0.24313577593945102
625.0,0.24336389175415185
624.0,0.24351603555739065
623.0,0.24321180123188202
622.0,0.24275584897802993
621.0,0.24313577593945102
620.0,0.24465881618845242
619.0,0.24603413413483977
618.0,0.24695343837347083
617.0,0.24795155218056153
616.0,0.24926024876464936
615.0,0.2500319164905971
614.0,0.2501091587285782
613.0,0.2508049577803275
612.0,0.252432837262375
611.0,0.25375512827980184
610.0,0.25430077339749424
609.0,0.255237762934422
608.0,0.25703932978584754
607.0,0.2582183038568333
606.0,0.2582183038568333
605.0,0.2587695889745292
604.0,0.2612194415156308
603.0,0.26376290109527134
602.0,0.26464066699828925
601.0,0.264480941184829
600.0,0.26520017041115307
