cm-1,A
4000.0,0.0133
3999.0,0.0133
3998.0,0.0134
3997.0,0.0134
3996.0,0.0134
3995.0,0.0134
3994.0,0.0135
3993.0,0.0135
3992.0,0.0136
3991.0,0.0136
3990.0,0.0136
3989.0,0.0137
3988.0,0.0137
3987.0,0.0137
3986.0,0.0136
3985.0,0.0135
3984.0,0.0134
3983.0,0.0134
3982.0,0.0134
3981.0,0.0135
3980.0,0.0136
3979.0,0.0136
3978.0,0.0137
3977.0,0.0137
3976.0,0.0137
3975.0,0.0137
3974.0,0.0137
3973.0,0.0137
3972.0,0.0136
3971.0,0.0136
3970.0,0.0135
3969.0,0.0135
3968.0,0.0135
3967.0,0.0135
3966.0,0.0136
3965.0,0.0137
3964.0,0.0138
3963.0,0.0138
3962.0,0.0137
3961.0,0.0137
3960.0,0.0137
3959.0,0.0136
3958.0,0.0135
3957.0,0.0135
3956.0,0.0134
3955.0,0.0134
3954.0,0.0135
3953.0,0.0136
3952.0,0.0138
3951.0,0.0139
3950.0,0.014
3949.0,0.014
3948.0,0.014
3947.0,0.0141
3946.0,0.0141
3945.0,0.0139
3944.0,0.0138
3943.0,0.0137
3942.0,0.0138
3941.0,0.0138
3940.0,0.0139
3939.0,0.0138
3938.0,0.0137
3937.0,0.0137
3936.0,0.0137
3935.0,0.0137
3934.0,0.0137
3933.0,0.0137
3932.0,0.0138
3931.0,0.0138
3930.0,0.0139
3929.0,0.014
3928.0,0.014
3927.0,0.0141
3926.0,0.0141
3925.0,0.0141
3924.0,0.0142
3923.0,0.0143
3922.0,0.0143
3921.0,0.0142
3920.0,0.0142
3919.0,0.0141
3918.0,0.0141
3917.0,0.0141
3916.0,0.0141
3915.0,0.0139
3914.0,0.0138
3913.0,0.0136
3912.0,0.0135
3911.0,0.0135
3910.0,0.0137
3909.0,0.0139
3908.0,0.0141
3907.0,0.0142
3906.0,0.0142
3905.0,0.0143
3904.0,0.0145
3903.0,0.0147
3902.0,0.0147
3901.0,0.0145
3900.0,0.0142
3899.0,0.014
3898.0,0.014
3897.0,0.014
3896.0,0.0141
3895.0,0.0142
3894.0,0.0141
3893.0,0.0139
3892.0,0.0138
3891.0,0.0138
3890.0,0.014
3889.0,0.0142
3888.0,0.0142
3887.0,0.014
3886.0,0.0139
3885.0,0.0141
3884.0,0.0144
3883.0,0.0145
3882.0,0.0144
3881.0,0.0142
3880.0,0.0142
3879.0,0.0142
3878.0,0.0144
3877.0,0.0143
3876.0,0.0141
3875.0,0.014
3874.0,0.0142
3873.0,0.0145
3872.0,0.0145
3871.0,0.0143
3870.0,0.0143
3869.0,0.0145
3868.0,0.0147
3867.0,0.0147
3866.0,0.0144
3865.0,0.0142
3864.0,0.0143
3863.0,0.0144
3862.0,0.0143
3861.0,0.0142
3860.0,0.0139
3859.0,0.0138
3858.0,0.0139
3857.0,0.0141
3856.0,0.014
3855.0,0.0138
3854.0,0.0139
3853.0,0.0143
3852.0,0.0145
3851.0,0.0144
3850.0,0.0143
3849.0,0.0142
3848.0,0.0143
3847.0,0.0143
3846.0,0.0144
3845.0,0.0144
3844.0,0.0144
3843.0,0.0144
3842.0,0.0145
3841.0,0.0146
3840.0,0.0147
3839.0,0.0147
3838.0,0.0147
3837.0,0.0146
3836.0,0.0146
3835.0,0.0147
3834.0,0.0146
3833.0,0.0145
3832.0,0.0145
3831.0,0.0145
3830.0,0.0146
3829.0,0.0146
3828.0,0.0144
3827.0,0.0143
3826.0,0.0145
3825.0,0.0147
3824.0,0.0148
3823.0,0.0145
3822.0,0.0143
3821.0,0.0145
3820.0,0.0149
3819.0,0.0151
3818.0,0.0149
3817.0,0.0146
3816.0,0.0145
3815.0,0.0145
3814.0,0.0145
3813.0,0.0144
3812.0,0.0142
3811.0,0.0142
3810.0,0.0143
3809.0,0.0142
3808.0,0.014
3807.0,0.014
3806.0,0.0144
3805.0,0.0148
3804.0,0.0149
3803.0,0.0146
3802.0,0.0144
3801.0,0.0146
3800.0,0.0147
3799.0,0.0148
3798.0,0.0146
3797.0,0.0145
3796.0,0.0145
3795.0,0.0145
3794.0,0.0145
3793.0,0.0144
3792.0,0.0144
3791.0,0.0144
3790.0,0.0144
3789.0,0.0145
3788.0,0.0145
3787.0,0.0145
3786.0,0.0145
3785.0,0.0146
3784.0,0.0147
3783.0,0.0148
3782.0,0.0148
3781.0,0.0147
3780.0,0.0145
3779.0,0.0145
3778.0,0.0146
3777.0,0.0146
3776.0,0.0145
3775.0,0.0145
3774.0,0.0146
3773.0,0.0147
3772.0,0.0146
3771.0,0.0146
3770.0,0.0147
3769.0,0.0149
3768.0,0.0149
3767.0,0.0148
3766.0,0.0147
3765.0,0.0146
3764.0,0.0147
3763.0,0.0148
3762.0,0.0147
3761.0,0.0146
3760.0,0.0148
3759.0,0.015
3758.0,0.0151
3757.0,0.0152
3756.0,0.0153
3755.0,0.0153
3754.0,0.0151
3753.0,0.0148
3752.0,0.0146
3751.0,0.0145
3750.0,0.0145
3749.0,0.0146
3748.0,0.0149
3747.0,0.0151
3746.0,0.0149
3745.0,0.0149
3744.0,0.015
3743.0,0.015
3742.0,0.0149
3741.0,0.0147
3740.0,0.0145
3739.0,0.0146
3738.0,0.0146
3737.0,0.0146
3736.0,0.0147
3735.0,0.0147
3734.0,0.0145
3733.0,0.014
3732.0,0.0137
3731.0,0.0137
3730.0,0.0139
3729.0,0.014
3728.0,0.0141
3727.0,0.0142
3726.0,0.0144
3725.0,0.0145
3724.0,0.0144
3723.0,0.0143
3722.0,0.0142
3721.0,0.0143
3720.0,0.0144
3719.0,0.0144
3718.0,0.0145
3717.0,0.0146
3716.0,0.0148
3715.0,0.015
3714.0,0.0149
3713.0,0.0148
3712.0,0.0147
3711.0,0.0146
3710.0,0.0145
3709.0,0.0144
3708.0,0.0142
3707.0,0.0142
3706.0,0.0143
3705.0,0.0144
3704.0,0.0144
3703.0,0.0145
3702.0,0.0145
3701.0,0.0145
3700.0,0.0145
3699.0,0.0145
3698.0,0.0144
3697.0,0.0143
3696.0,0.0144
3695.0,0.0146
3694.0,0.0148
3693.0,0.0149
3692.0,0.015
3691.0,0.015
3690.0,0.015
3689.0,0.0151
3688.0,0.0151
3687.0,0.0152
3686.0,0.0152
3685.0,0.0152
3684.0,0.0152
3683.0,0.0153
3682.0,0.0153
3681.0,0.0153
3680.0,0.0154
3679.0,0.0157
3678.0,0.0159
3677.0,0.0159
3676.0,0.016
3675.0,0.0162
3674.0,0.0164
3673.0,0.0164
3672.0,0.0161
3671.0,0.016
3670.0,0.0162
3669.0,0.0164
3668.0,0.0165
3667.0,0.0164
3666.0,0.0163
3665.0,0.0162
3664.0,0.0163
3663.0,0.0163
3662.0,0.0164
3661.0,0.0165
3660.0,0.0166
3659.0,0.0167
3658.0,0.0167
3657.0,0.0166
3656.0,0.0167
3655.0,0.017
3654.0,0.0173
3653.0,0.0175
3652.0,0.0175
3651.0,0.0176
3650.0,0.018
3649.0,0.0184
3648.0,0.0185
3647.0,0.0184
3646.0,0.0183
3645.0,0.0182
3644.0,0.0182
3643.0,0.0181
3642.0,0.018
3641.0,0.018
3640.0,0.0179
3639.0,0.0179
3638.0,0.0179
3637.0,0.018
3636.0,0.018
3635.0,0.018
3634.0,0.0181
3633.0,0.0183
3632.0,0.0186
3631.0,0.0185
3630.0,0.0184
3629.0,0.0186
3628.0,0.0188
3627.0,0.0189
3626.0,0.0188
3625.0,0.0188
3624.0,0.019
3623.0,0.0192
3622.0,0.0194
3621.0,0.0195
3620.0,0.0197
3619.0,0.02
3618.0,0.0203
3617.0,0.0205
3616.0,0.0207
3615.0,0.0207
3614.0,0.0207
3613.0,0.0208
3612.0,0.021
3611.0,0.021
3610.0,0.021
3609.0,0.0209
3608.0,0.0209
3607.0,0.0209
3606.0,0.0209
3605.0,0.0208
3604.0,0.0208
3603.0,0.0208
3602.0,0.0208
3601.0,0.021
3600.0,0.0212
3599.0,0.0214
3598.0,0.0214
3597.0,0.0214
3596.0,0.0213
3595.0,0.0214
3594.0,0.0215
3593.0,0.0218
3592.0,0.0221
3591.0,0.0224
3590.0,0.0226
3589.0,0.0228
3588.0,0.023
3587.0,0.0233
3586.0,0.0233
3585.0,0.0233
3584.0,0.0233
3583.0,0.0233
3582.0,0.0233
3581.0,0.0234
3580.0,0.0235
3579.0,0.0236
3578.0,0.0237
3577.0,0.0239
3576.0,0.024
3575.0,0.0241
3574.0,0.0243
3573.0,0.0245
3572.0,0.0248
3571.0,0.0251
3570.0,0.0253
3569.0,0.0255
3568.0,0.0259
3567.0,0.0264
3566.0,0.0266
3565.0,0.0266
3564.0,0.0265
3563.0,0.0264
3562.0,0.0264
3561.0,0.0265
3560.0,0.0267
3559.0,0.0269
3558.0,0.027
3557.0,0.0271
3556.0,0.0271
3555.0,0.027
3554.0,0.0271
3553.0,0.0273
3552.0,0.0276
3551.0,0.0279
3550.0,0.0281
3549.0,0.0282
3548.0,0.0282
3547.0,0.0282
3546.0,0.0282
3545.0,0.0282
3544.0,0.0282
3543.0,0.0283
3542.0,0.0284
3541.0,0.0286
3540.0,0.0288
3539.0,0.0289
3538.0,0.0289
3537.0,0.0289
3536.0,0.029
3535.0,0.0291
3534.0,0.0292
3533.0,0.0293
3532.0,0.0294
3531.0,0.0295
3530.0,0.0296
3529.0,0.0298
3528.0,0.03
3527.0,0.0302
3526.0,0.0303
3525.0,0.0304
3524.0,0.0305
3523.0,0.0306
3522.0,0.0307
3521.0,0.0307
3520.0,0.0307
3519.0,0.0306
3518.0,0.0306
3517.0,0.0307
3516.0,0.0308
3515.0,0.031
3514.0,0.0312
3513.0,0.0314
3512.0,0.0315
3511.0,0.0316
3510.0,0.0316
3509.0,0.0317
3508.0,0.0318
3507.0,0.0319
3506.0,0.0321
3505.0,0.0323
3504.0,0.0325
3503.0,0.0328
3502.0,0.033
3501.0,0.0331
3500.0,0.0332
3499.0,0.0334
3498.0,0.0335
3497.0,0.0337
3496.0,0.0339
3495.0,0.034
3494.0,0.0341
3493.0,0.0341
3492.0,0.0342
3491.0,0.0344
3490.0,0.0346
3489.0,0.0349
3488.0,0.0352
3487.0,0.0355
3486.0,0.0358
3485.0,0.036
3484.0,0.0362
3483.0,0.0364
3482.0,0.0366
3481.0,0.0368
3480.0,0.037
3479.0,0.0371
3478.0,0.0371
3477.0,0.0373
3476.0,0.0375
3475.0,0.0378
3474.0,0.0381
3473.0,0.0383
3472.0,0.0385
3471.0,0.0386
3470.0,0.0387
3469.0,0.0389
3468.0,0.0393
3467.0,0.0396
3466.0,0.0399
3465.0,0.0401
3464.0,0.0402
3463.0,0.0404
3462.0,0.0407
3461.0,0.0411
3460.0,0.0415
3459.0,0.0419
3458.0,0.0423
3457.0,0.0426
3456.0,0.0429
3455.0,0.0431
3454.0,0.0433
3453.0,0.0435
3452.0,0.0439
3451.0,0.0443
3450.0,0.0446
3449.0,0.045
3448.0,0.0453
3447.0,0.0458
3446.0,0.0462
3445.0,0.0465
3444.0,0.0469
3443.0,0.0472
3442.0,0.0476
3441.0,0.0479
3440.0,0.0482
3439.0,0.0486
3438.0,0.049
3437.0,0.0495
3436.0,0.0499
3435.0,0.0503
3434.0,0.0507
3433.0,0.0511
3432.0,0.0515
3431.0,0.0519
3430.0,0.0523
3429.0,0.0526
3428.0,0.0529
3427.0,0.0532
3426.0,0.0535
3425.0,0.0537
3424.0,0.0539
3423.0,0.0542
3422.0,0.0544
3421.0,0.0547
3420.0,0.055
3419.0,0.0552
3418.0,0.0553
3417.0,0.0553
3416.0,0.0554
3415.0,0.0555
3414.0,0.0557
3413.0,0.0558
3412.0,0.056
3411.0,0.056
3410.0,0.0561
3409.0,0.0561
3408.0,0.0561
3407.0,0.0562
3406.0,0.0563
3405.0,0.0564
3404.0,0.0565
3403.0,0.0566
3402.0,0.0567
3401.0,0.0568
3400.0,0.0569
3399.0,0.0569
3398.0,0.0568
3397.0,0.0567
3396.0,0.0566
3395.0,0.0565
3394.0,0.0564
3393.0,0.0563
3392.0,0.0562
3391.0,0.056
3390.0,0.0558
3389.0,0.0555
3388.0,0.0552
3387.0,0.055
3386.0,0.0549
3385.0,0.0547
3384.0,0.0545
3383.0,0.0542
3382.0,0.0539
3381.0,0.0536
3380.0,0.0533
3379.0,0.0529
3378.0,0.0525
3377.0,0.0522
3376.0,0.0518
3375.0,0.0515
3374.0,0.0512
3373.0,0.0509
3372.0,0.0505
3371.0,0.0503
3370.0,0.0501
3369.0,0.05
3368.0,0.0498
3367.0,0.0495
3366.0,0.0492
3365.0,0.0487
3364.0,0.0483
3363.0,0.048
3362.0,0.0476
3361.0,0.0473
3360.0,0.047
3359.0,0.0468
3358.0,0.0465
3357.0,0.0462
3356.0,0.0459
3355.0,0.0457
3354.0,0.0455
3353.0,0.0453
3352.0,0.045
3351.0,0.0447
3350.0,0.0444
3349.0,0.0441
3348.0,0.0439
3347.0,0.0438
3346.0,0.0436
3345.0,0.0434
3344.0,0.0432
3343.0,0.043
3342.0,0.0428
3341.0,0.0426
3340.0,0.0424
3339.0,0.0423
3338.0,0.0422
3337.0,0.0421
3336.0,0.0419
3335.0,0.0417
3334.0,0.0415
3333.0,0.0412
3332.0,0.041
3331.0,0.0408
3330.0,0.0406
3329.0,0.0404
3328.0,0.0401
3327.0,0.0399
3326.0,0.0397
3325.0,0.0394
3324.0,0.0393
3323.0,0.0392
3322.0,0.0391
3321.0,0.039
3320.0,0.0389
3319.0,0.0388
3318.0,0.0386
3317.0,0.0385
3316.0,0.0383
3315.0,0.0382
3314.0,0.0381
3313.0,0.038
3312.0,0.0379
3311.0,0.0377
3310.0,0.0374
3309.0,0.0372
3308.0,0.0371
3307.0,0.0371
3306.0,0.0371
3305.0,0.0371
3304.0,0.037
3303.0,0.0369
3302.0,0.0367
3301.0,0.0366
3300.0,0.0365
3299.0,0.0364
3298.0,0.0363
3297.0,0.0363
3296.0,0.0363
3295.0,0.0363
3294.0,0.0363
3293.0,0.0363
3292.0,0.0363
3291.0,0.0363
3290.0,0.0362
3289.0,0.036
3288.0,0.0357
3287.0,0.0355
3286.0,0.0354
3285.0,0.0354
3284.0,0.0354
3283.0,0.0353
3282.0,0.0353
3281.0,0.0352
3280.0,0.0352
3279.0,0.0351
3278.0,0.0351
3277.0,0.0351
3276.0,0.0351
3275.0,0.035
3274.0,0.035
3273.0,0.0349
3272.0,0.0348
3271.0,0.0348
3270.0,0.0348
3269.0,0.0347
3268.0,0.0347
3267.0,0.0346
3266.0,0.0345
3265.0,0.0345
3264.0,0.0345
3263.0,0.0345
3262.0,0.0346
3261.0,0.0347
3260.0,0.0348
3259.0,0.0349
3258.0,0.035
3257.0,0.0349
3256.0,0.0348
3255.0,0.0347
3254.0,0.0346
3253.0,0.0346
3252.0,0.0346
3251.0,0.0346
3250.0,0.0346
3249.0,0.0345
3248.0,0.0345
3247.0,0.0345
3246.0,0.0344
3245.0,0.0343
3244.0,0.0342
3243.0,0.034
3242.0,0.0339
3241.0,0.0337
3240.0,0.0336
3239.0,0.0335
3238.0,0.0333
3237.0,0.033
3236.0,0.0328
3235.0,0.0325
3234.0,0.0323
3233.0,0.0321
3232.0,0.032
3231.0,0.0319
3230.0,0.0317
3229.0,0.0316
3228.0,0.0314
3227.0,0.0313
3226.0,0.0311
3225.0,0.0309
3224.0,0.0308
3223.0,0.0306
3222.0,0.0305
3221.0,0.0304
3220.0,0.0302
3219.0,0.0301
3218.0,0.0299
3217.0,0.0297
3216.0,0.0296
3215.0,0.0295
3214.0,0.0294
3213.0,0.0293
3212.0,0.0292
3211.0,0.0291
3210.0,0.029
3209.0,0.0289
3208.0,0.0287
3207.0,0.0285
3206.0,0.0283
3205.0,0.0282
3204.0,0.028
3203.0,0.0278
3202.0,0.0277
3201.0,0.0275
3200.0,0.0275
3199.0,0.0276
3198.0,0.0276
3197.0,0.0276
3196.0,0.0276
3195.0,0.0275
3194.0,0.0273
3193.0,0.0272
3192.0,0.0271
3191.0,0.0269
3190.0,0.0267
3189.0,0.0265
3188.0,0.0264
3187.0,0.0263
3186.0,0.0262
3185.0,0.0261
3184.0,0.026
3183.0,0.0259
3182.0,0.0258
3181.0,0.0258
3180.0,0.0257
3179.0,0.0256
3178.0,0.0255
3177.0,0.0253
3176.0,0.0252
3175.0,0.0251
3174.0,0.0251
3173.0,0.025
3172.0,0.025
3171.0,0.0248
3170.0,0.0247
3169.0,0.0246
3168.0,0.0244
3167.0,0.0244
3166.0,0.0243
3165.0,0.0243
3164.0,0.0243
3163.0,0.0242
3162.0,0.0241
3161.0,0.024
3160.0,0.024
3159.0,0.024
3158.0,0.024
3157.0,0.0239
3156.0,0.0238
3155.0,0.0237
3154.0,0.0236
3153.0,0.0234
3152.0,0.0233
3151.0,0.0232
3150.0,0.0232
3149.0,0.0233
3148.0,0.0233
3147.0,0.0232
3146.0,0.0231
3145.0,0.023
3144.0,0.023
3143.0,0.023
3142.0,0.0231
3141.0,0.0231
3140.0,0.0231
3139.0,0.023
3138.0,0.0229
3137.0,0.0227
3136.0,0.0227
3135.0,0.0227
3134.0,0.0227
3133.0,0.0228
3132.0,0.0229
3131.0,0.0229
3130.0,0.0229
3129.0,0.0229
3128.0,0.0229
3127.0,0.0228
3126.0,0.0228
3125.0,0.0226
3124.0,0.0225
3123.0,0.0223
3122.0,0.0222
3121.0,0.0221
3120.0,0.022
3119.0,0.022
3118.0,0.0221
3117.0,0.0221
3116.0,0.0222
3115.0,0.0223
3114.0,0.0223
3113.0,0.0224
3112.0,0.0224
3111.0,0.0225
3110.0,0.0225
3109.0,0.0226
3108.0,0.0226
3107.0,0.0226
3106.0,0.0227
3105.0,0.0228
3104.0,0.0228
3103.0,0.0228
3102.0,0.0228
3101.0,0.0226
3100.0,0.0226
3099.0,0.0225
3098.0,0.0224
3097.0,0.0222
3096.0,0.022
3095.0,0.0219
3094.0,0.0218
3093.0,0.0218
3092.0,0.0219
3091.0,0.022
3090.0,0.0221
3089.0,0.0221
3088.0,0.0222
3087.0,0.0222
3086.0,0.0223
3085.0,0.0223
3084.0,0.0224
3083.0,0.0224
3082.0,0.0225
3081.0,0.0225
3080.0,0.0225
3079.0,0.0225
3078.0,0.0224
3077.0,0.0224
3076.0,0.0224
3075.0,0.0224
3074.0,0.0225
3073.0,0.0225
3072.0,0.0225
3071.0,0.0225
3070.0,0.0224
3069.0,0.0224
3068.0,0.0224
3067.0,0.0224
3066.0,0.0223
3065.0,0.0222
3064.0,0.0221
3063.0,0.022
3062.0,0.0219
3061.0,0.0219
3060.0,0.0219
3059.0,0.022
3058.0,0.0221
3057.0,0.0222
3056.0,0.0223
3055.0,0.0223
3054.0,0.0223
3053.0,0.0222
3052.0,0.022
3051.0,0.0218
3050.0,0.0216
3049.0,0.0214
3048.0,0.0211
3047.0,0.0209
3046.0,0.0206
3045.0,0.0205
3044.0,0.0203
3043.0,0.0201
3042.0,0.02
3041.0,0.0198
3040.0,0.0197
3039.0,0.0197
3038.0,0.0196
3037.0,0.0196
3036.0,0.0196
3035.0,0.0197
3034.0,0.0197
3033.0,0.0197
3032.0,0.0197
3031.0,0.0197
3030.0,0.0197
3029.0,0.0198
3028.0,0.0198
3027.0,0.0198
3026.0,0.0199
3025.0,0.0199
3024.0,0.02
3023.0,0.0201
3022.0,0.0202
3021.0,0.0202
3020.0,0.0203
3019.0,0.0204
3018.0,0.0205
3017.0,0.0207
3016.0,0.0209
3015.0,0.0211
3014.0,0.0212
3013.0,0.0214
3012.0,0.0216
3011.0,0.0218
3010.0,0.0221
3009.0,0.0223
3008.0,0.0225
3007.0,0.0226
3006.0,0.0226
3005.0,0.0227
3004.0,0.0229
3003.0,0.023
3002.0,0.0232
3001.0,0.0233
3000.0,0.0234
2999.0,0.0236
2998.0,0.0237
2997.0,0.0238
2996.0,0.0239
2995.0,0.0241
2994.0,0.0242
2993.0,0.0244
2992.0,0.0245
2991.0,0.0246
2990.0,0.0247
2989.0,0.0249
2988.0,0.0252
2987.0,0.0255
2986.0,0.0259
2985.0,0.0263
2984.0,0.0267
2983.0,0.027
2982.0,0.0274
2981.0,0.0277
2980.0,0.0281
2979.0,0.0285
2978.0,0.0289
2977.0,0.0293
2976.0,0.0297
2975.0,0.0302
2974.0,0.0306
2973.0,0.0311
2972.0,0.0315
2971.0,0.032
2970.0,0.0324
2969.0,0.0328
2968.0,0.0331
2967.0,0.0335
2966.0,0.0338
2965.0,0.0341
2964.0,0.0344
2963.0,0.0347
2962.0,0.0349
2961.0,0.035
2960.0,0.035
2959.0,0.0349
2958.0,0.0349
2957.0,0.0347
2956.0,0.0344
2955.0,0.0341
2954.0,0.0337
2953.0,0.0333
2952.0,0.0328
2951.0,0.0324
2950.0,0.032
2949.0,0.0315
2948.0,0.0312
2947.0,0.0308
2946.0,0.0305
2945.0,0.0302
2944.0,0.03
2943.0,0.0298
2942.0,0.0297
2941.0,0.0296
2940.0,0.0297
2939.0,0.0298
2938.0,0.0299
2937.0,0.03
2936.0,0.0301
2935.0,0.0303
2934.0,0.0305
2933.0,0.0307
2932.0,0.031
2931.0,0.0312
2930.0,0.0315
2929.0,0.0317
2928.0,0.032
2927.0,0.0323
2926.0,0.0325
2925.0,0.0327
2924.0,0.0328
2923.0,0.0328
2922.0,0.0328
2921.0,0.0327
2920.0,0.0325
2919.0,0.0323
2918.0,0.032
2917.0,0.0317
2916.0,0.0313
2915.0,0.0308
2914.0,0.0303
2913.0,0.0298
2912.0,0.0294
2911.0,0.0291
2910.0,0.0289
2909.0,0.0286
2908.0,0.0284
2907.0,0.0281
2906.0,0.0279
2905.0,0.0276
2904.0,0.0273
2903.0,0.027
2902.0,0.0267
2901.0,0.0265
2900.0,0.0262
2899.0,0.026
2898.0,0.0259
2897.0,0.0257
2896.0,0.0256
2895.0,0.0254
2894.0,0.0253
2893.0,0.0252
2892.0,0.0251
2891.0,0.025
2890.0,0.0249
2889.0,0.0247
2888.0,0.0245
2887.0,0.0244
2886.0,0.0242
2885.0,0.0241
2884.0,0.024
2883.0,0.0239
2882.0,0.0238
2881.0,0.0237
2880.0,0.0237
2879.0,0.0237
2878.0,0.0236
2877.0,0.0236
2876.0,0.0236
2875.0,0.0236
2874.0,0.0236
2873.0,0.0236
2872.0,0.0236
2871.0,0.0235
2870.0,0.0234
2869.0,0.0234
2868.0,0.0233
2867.0,0.0234
2866.0,0.0235
2865.0,0.0236
2864.0,0.0238
2863.0,0.024
2862.0,0.0243
2861.0,0.0246
2860.0,0.0249
2859.0,0.0252
2858.0,0.0256
2857.0,0.0258
2856.0,0.0261
2855.0,0.0263
2854.0,0.0264
2853.0,0.0264
2852.0,0.0263
2851.0,0.026
2850.0,0.0256
2849.0,0.025
2848.0,0.0242
2847.0,0.0235
2846.0,0.0229
2845.0,0.0223
2844.0,0.0218
2843.0,0.0214
2842.0,0.021
2841.0,0.0206
2840.0,0.0204
2839.0,0.0202
2838.0,0.02
2837.0,0.0198
2836.0,0.0196
2835.0,0.0195
2834.0,0.0193
2833.0,0.0191
2832.0,0.019
2831.0,0.0189
2830.0,0.0188
2829.0,0.0187
2828.0,0.0187
2827.0,0.0187
2826.0,0.0186
2825.0,0.0186
2824.0,0.0185
2823.0,0.0183
2822.0,0.0183
2821.0,0.0182
2820.0,0.0181
2819.0,0.0181
2818.0,0.0182
2817.0,0.0182
2816.0,0.0182
2815.0,0.0182
2814.0,0.0181
2813.0,0.018
2812.0,0.018
2811.0,0.018
2810.0,0.0181
2809.0,0.0181
2808.0,0.0181
2807.0,0.0181
2806.0,0.018
2805.0,0.018
2804.0,0.018
2803.0,0.0179
2802.0,0.0179
2801.0,0.0178
2800.0,0.0178
2799.0,0.0177
2798.0,0.0176
2797.0,0.0175
2796.0,0.0175
2795.0,0.0174
2794.0,0.0174
2793.0,0.0175
2792.0,0.0175
2791.0,0.0175
2790.0,0.0175
2789.0,0.0175
2788.0,0.0174
2787.0,0.0173
2786.0,0.0172
2785.0,0.0172
2784.0,0.0171
2783.0,0.0171
2782.0,0.0171
2781.0,0.0171
2780.0,0.0171
2779.0,0.0171
2778.0,0.0171
2777.0,0.017
2776.0,0.017
2775.0,0.0171
2774.0,0.0171
2773.0,0.0171
2772.0,0.017
2771.0,0.0169
2770.0,0.0169
2769.0,0.0168
2768.0,0.0168
2767.0,0.0168
2766.0,0.0169
2765.0,0.0169
2764.0,0.0168
2763.0,0.0168
2762.0,0.0169
2761.0,0.0169
2760.0,0.0168
2759.0,0.0168
2758.0,0.0168
2757.0,0.0168
2756.0,0.0168
2755.0,0.0168
2754.0,0.0168
2753.0,0.0168
2752.0,0.0168
2751.0,0.0167
2750.0,0.0167
2749.0,0.0167
2748.0,0.0167
2747.0,0.0167
2746.0,0.0166
2745.0,0.0166
2744.0,0.0166
2743.0,0.0165
2742.0,0.0165
2741.0,0.0165
2740.0,0.0165
2739.0,0.0165
2738.0,0.0165
2737.0,0.0165
2736.0,0.0166
2735.0,0.0166
2734.0,0.0166
2733.0,0.0166
2732.0,0.0166
2731.0,0.0166
2730.0,0.0165
2729.0,0.0164
2728.0,0.0164
2727.0,0.0163
2726.0,0.0163
2725.0,0.0163
2724.0,0.0163
2723.0,0.0163
2722.0,0.0163
2721.0,0.0163
2720.0,0.0163
2719.0,0.0162
2718.0,0.0162
2717.0,0.0161
2716.0,0.0161
2715.0,0.0162
2714.0,0.0162
2713.0,0.0162
2712.0,0.0162
2711.0,0.0162
2710.0,0.0161
2709.0,0.0161
2708.0,0.016
2707.0,0.016
2706.0,0.0159
2705.0,0.0159
2704.0,0.0159
2703.0,0.0159
2702.0,0.0158
2701.0,0.0158
2700.0,0.0158
2699.0,0.0159
2698.0,0.0159
2697.0,0.016
2696.0,0.016
2695.0,0.016
2694.0,0.016
2693.0,0.016
2692.0,0.0159
2691.0,0.0158
2690.0,0.0158
2689.0,0.0158
2688.0,0.0158
2687.0,0.0158
2686.0,0.0158
2685.0,0.0158
2684.0,0.0157
2683.0,0.0157
2682.0,0.0157
2681.0,0.0157
2680.0,0.0158
2679.0,0.0157
2678.0,0.0157
2677.0,0.0157
2676.0,0.0157
2675.0,0.0157
2674.0,0.0158
2673.0,0.0158
2672.0,0.0158
2671.0,0.0158
2670.0,0.0157
2669.0,0.0157
2668.0,0.0156
2667.0,0.0155
2666.0,0.0155
2665.0,0.0155
2664.0,0.0155
2663.0,0.0155
2662.0,0.0155
2661.0,0.0155
2660.0,0.0155
2659.0,0.0155
2658.0,0.0156
2657.0,0.0156
2656.0,0.0156
2655.0,0.0156
2654.0,0.0156
2653.0,0.0155
2652.0,0.0155
2651.0,0.0155
2650.0,0.0155
2649.0,0.0155
2648.0,0.0155
2647.0,0.0155
2646.0,0.0154
2645.0,0.0154
2644.0,0.0153
2643.0,0.0153
2642.0,0.0153
2641.0,0.0154
2640.0,0.0155
2639.0,0.0155
2638.0,0.0156
2637.0,0.0156
2636.0,0.0156
2635.0,0.0156
2634.0,0.0156
2633.0,0.0156
2632.0,0.0155
2631.0,0.0155
2630.0,0.0155
2629.0,0.0155
2628.0,0.0155
2627.0,0.0155
2626.0,0.0155
2625.0,0.0155
2624.0,0.0155
2623.0,0.0155
2622.0,0.0155
2621.0,0.0155
2620.0,0.0155
2619.0,0.0154
2618.0,0.0154
2617.0,0.0154
2616.0,0.0154
2615.0,0.0154
2614.0,0.0154
2613.0,0.0154
2612.0,0.0154
2611.0,0.0154
2610.0,0.0154
2609.0,0.0154
2608.0,0.0153
2607.0,0.0154
2606.0,0.0154
2605.0,0.0155
2604.0,0.0155
2603.0,0.0155
2602.0,0.0154
2601.0,0.0154
2600.0,0.0153
2599.0,0.0153
2598.0,0.0153
2597.0,0.0154
2596.0,0.0154
2595.0,0.0154
2594.0,0.0155
2593.0,0.0155
2592.0,0.0155
2591.0,0.0155
2590.0,0.0155
2589.0,0.0155
2588.0,0.0155
2587.0,0.0155
2586.0,0.0156
2585.0,0.0156
2584.0,0.0157
2583.0,0.0156
2582.0,0.0155
2581.0,0.0155
2580.0,0.0155
2579.0,0.0155
2578.0,0.0156
2577.0,0.0156
2576.0,0.0156
2575.0,0.0156
2574.0,0.0156
2573.0,0.0156
2572.0,0.0156
2571.0,0.0156
2570.0,0.0155
2569.0,0.0155
2568.0,0.0154
2567.0,0.0155
2566.0,0.0155
2565.0,0.0155
2564.0,0.0155
2563.0,0.0154
2562.0,0.0154
2561.0,0.0154
2560.0,0.0154
2559.0,0.0154
2558.0,0.0155
2557.0,0.0155
2556.0,0.0155
2555.0,0.0155
2554.0,0.0155
2553.0,0.0155
2552.0,0.0155
2551.0,0.0155
2550.0,0.0154
2549.0,0.0154
2548.0,0.0154
2547.0,0.0154
2546.0,0.0154
2545.0,0.0153
2544.0,0.0153
2543.0,0.0153
2542.0,0.0153
2541.0,0.0152
2540.0,0.0153
2539.0,0.0153
2538.0,0.0153
2537.0,0.0154
2536.0,0.0154
2535.0,0.0154
2534.0,0.0154
2533.0,0.0154
2532.0,0.0154
2531.0,0.0153
2530.0,0.0153
2529.0,0.0153
2528.0,0.0152
2527.0,0.0152
2526.0,0.0153
2525.0,0.0153
2524.0,0.0153
2523.0,0.0154
2522.0,0.0153
2521.0,0.0152
2520.0,0.0151
2519.0,0.0151
2518.0,0.0151
2517.0,0.0151
2516.0,0.0151
2515.0,0.0151
2514.0,0.0151
2513.0,0.0151
2512.0,0.0151
2511.0,0.015
2510.0,0.015
2509.0,0.015
2508.0,0.015
2507.0,0.015
2506.0,0.015
2505.0,0.015
2504.0,0.015
2503.0,0.015
2502.0,0.015
2501.0,0.0149
2500.0,0.0149
2499.0,0.0149
2498.0,0.0149
2497.0,0.0148
2496.0,0.0147
2495.0,0.0147
2494.0,0.0147
2493.0,0.0147
2492.0,0.0146
2491.0,0.0146
2490.0,0.0146
2489.0,0.0145
2488.0,0.0145
2487.0,0.0145
2486.0,0.0146
2485.0,0.0146
2484.0,0.0146
2483.0,0.0146
2482.0,0.0146
2481.0,0.0145
2480.0,0.0144
2479.0,0.0144
2478.0,0.0144
2477.0,0.0144
2476.0,0.0145
2475.0,0.0145
2474.0,0.0145
2473.0,0.0145
2472.0,0.0144
2471.0,0.0143
2470.0,0.0142
2469.0,0.0141
2468.0,0.014
2467.0,0.014
2466.0,0.014
2465.0,0.0141
2464.0,0.0141
2463.0,0.0142
2462.0,0.0142
2461.0,0.0141
2460.0,0.0141
2459.0,0.014
2458.0,0.014
2457.0,0.014
2456.0,0.014
2455.0,0.0139
2454.0,0.0139
2453.0,0.0139
2452.0,0.0139
2451.0,0.0139
2450.0,0.0139
2449.0,0.0139
2448.0,0.0139
2447.0,0.0138
2446.0,0.0138
2445.0,0.0138
2444.0,0.0138
2443.0,0.0139
2442.0,0.0139
2441.0,0.0139
2440.0,0.0139
2439.0,0.0139
2438.0,0.0139
2437.0,0.0139
2436.0,0.0139
2435.0,0.0139
2434.0,0.0139
2433.0,0.0139
2432.0,0.0139
2431.0,0.0139
2430.0,0.0139
2429.0,0.014
2428.0,0.014
2427.0,0.014
2426.0,0.0141
2425.0,0.0141
2424.0,0.0141
2423.0,0.0142
2422.0,0.0142
2421.0,0.0142
2420.0,0.0142
2419.0,0.0142
2418.0,0.0143
2417.0,0.0143
2416.0,0.0144
2415.0,0.0144
2414.0,0.0144
2413.0,0.0144
2412.0,0.0143
2411.0,0.0142
2410.0,0.0142
2409.0,0.0141
2408.0,0.0141
2407.0,0.0142
2406.0,0.0142
2405.0,0.0142
2404.0,0.0142
2403.0,0.0143
2402.0,0.0143
2401.0,0.0143
2400.0,0.0144
2399.0,0.0144
2398.0,0.0144
2397.0,0.0144
2396.0,0.0144
2395.0,0.0145
2394.0,0.0145
2393.0,0.0145
2392.0,0.0145
2391.0,0.0144
2390.0,0.0144
2389.0,0.0143
2388.0,0.0141
2387.0,0.014
2386.0,0.0137
2385.0,0.0134
2384.0,0.013
2383.0,0.0126
2382.0,0.0123
2381.0,0.012
2380.0,0.0118
2379.0,0.0117
2378.0,0.0118
2377.0,0.0118
2376.0,0.0118
2375.0,0.0116
2374.0,0.0113
2373.0,0.0109
2372.0,0.0107
2371.0,0.0107
2370.0,0.0107
2369.0,0.0105
2368.0,0.0099
2367.0,0.0092
2366.0,0.0089
2365.0,0.0093
2364.0,0.0102
2363.0,0.0107
2362.0,0.0103
2361.0,0.0094
2360.0,0.0091
2359.0,0.0096
2358.0,0.01
2357.0,0.0098
2356.0,0.0095
2355.0,0.0093
2354.0,0.009
2353.0,0.0087
2352.0,0.0086
2351.0,0.0087
2350.0,0.0087
2349.0,0.0084
2348.0,0.0077
2347.0,0.007
2346.0,0.0066
2345.0,0.0064
2344.0,0.0064
2343.0,0.0067
2342.0,0.0075
2341.0,0.0082
2340.0,0.0087
2339.0,0.0089
2338.0,0.0088
2337.0,0.0084
2336.0,0.0082
2335.0,0.0083
2334.0,0.0086
2333.0,0.0088
2332.0,0.0088
2331.0,0.0085
2330.0,0.0084
2329.0,0.0085
2328.0,0.0088
2327.0,0.0091
2326.0,0.0094
2325.0,0.0096
2324.0,0.0099
2323.0,0.0101
2322.0,0.0104
2321.0,0.0105
2320.0,0.0108
2319.0,0.0111
2318.0,0.0113
2317.0,0.0113
2316.0,0.0111
2315.0,0.0108
2314.0,0.0106
2313.0,0.0103
2312.0,0.0102
2311.0,0.0103
2310.0,0.0104
2309.0,0.0105
2308.0,0.0107
2307.0,0.0108
2306.0,0.011
2305.0,0.0111
2304.0,0.0112
2303.0,0.0113
2302.0,0.0113
2301.0,0.0114
2300.0,0.0115
2299.0,0.0117
2298.0,0.0117
2297.0,0.0118
2296.0,0.012
2295.0,0.0122
2294.0,0.0123
2293.0,0.0125
2292.0,0.0126
2291.0,0.0128
2290.0,0.0129
2289.0,0.0131
2288.0,0.0132
2287.0,0.0134
2286.0,0.0134
2285.0,0.0135
2284.0,0.0135
2283.0,0.0135
2282.0,0.0135
2281.0,0.0134
2280.0,0.0134
2279.0,0.0133
2278.0,0.0133
2277.0,0.0132
2276.0,0.0132
2275.0,0.0131
2274.0,0.013
2273.0,0.013
2272.0,0.0129
2271.0,0.0129
2270.0,0.0129
2269.0,0.0129
2268.0,0.0128
2267.0,0.0129
2266.0,0.0129
2265.0,0.0129
2264.0,0.0129
2263.0,0.013
2262.0,0.013
2261.0,0.013
2260.0,0.013
2259.0,0.0131
2258.0,0.013
2257.0,0.013
2256.0,0.0129
2255.0,0.0129
2254.0,0.0129
2253.0,0.0128
2252.0,0.0128
2251.0,0.0128
2250.0,0.0129
2249.0,0.0129
2248.0,0.0129
2247.0,0.0129
2246.0,0.0129
2245.0,0.0129
2244.0,0.013
2243.0,0.013
2242.0,0.013
2241.0,0.013
2240.0,0.0129
2239.0,0.0129
2238.0,0.0128
2237.0,0.0128
2236.0,0.0128
2235.0,0.0128
2234.0,0.0128
2233.0,0.0128
2232.0,0.0128
2231.0,0.0127
2230.0,0.0127
2229.0,0.0127
2228.0,0.0127
2227.0,0.0126
2226.0,0.0126
2225.0,0.0126
2224.0,0.0126
2223.0,0.0126
2222.0,0.0125
2221.0,0.0124
2220.0,0.0124
2219.0,0.0124
2218.0,0.0124
2217.0,0.0124
2216.0,0.0124
2215.0,0.0124
2214.0,0.0124
2213.0,0.0124
2212.0,0.0124
2211.0,0.0123
2210.0,0.0122
2209.0,0.0121
2208.0,0.0121
2207.0,0.0121
2206.0,0.0121
2205.0,0.0121
2204.0,0.012
2203.0,0.0119
2202.0,0.0119
2201.0,0.0119
2200.0,0.0119
2199.0,0.0119
2198.0,0.0119
2197.0,0.0118
2196.0,0.0118
2195.0,0.0118
2194.0,0.0118
2193.0,0.0117
2192.0,0.0117
2191.0,0.0117
2190.0,0.0117
2189.0,0.0118
2188.0,0.0118
2187.0,0.0118
2186.0,0.0117
2185.0,0.0116
2184.0,0.0116
2183.0,0.0115
2182.0,0.0115
2181.0,0.0115
2180.0,0.0115
2179.0,0.0115
2178.0,0.0115
2177.0,0.0115
2176.0,0.0115
2175.0,0.0115
2174.0,0.0115
2173.0,0.0115
2172.0,0.0114
2171.0,0.0114
2170.0,0.0114
2169.0,0.0113
2168.0,0.0113
2167.0,0.0114
2166.0,0.0114
2165.0,0.0115
2164.0,0.0115
2163.0,0.0115
2162.0,0.0116
2161.0,0.0116
2160.0,0.0116
2159.0,0.0116
2158.0,0.0116
2157.0,0.0116
2156.0,0.0116
2155.0,0.0116
2154.0,0.0117
2153.0,0.0117
2152.0,0.0117
2151.0,0.0117
2150.0,0.0117
2149.0,0.0117
2148.0,0.0116
2147.0,0.0116
2146.0,0.0116
2145.0,0.0116
2144.0,0.0116
2143.0,0.0117
2142.0,0.0117
2141.0,0.0116
2140.0,0.0116
2139.0,0.0117
2138.0,0.0117
2137.0,0.0116
2136.0,0.0116
2135.0,0.0116
2134.0,0.0115
2133.0,0.0115
2132.0,0.0115
2131.0,0.0116
2130.0,0.0116
2129.0,0.0116
2128.0,0.0116
2127.0,0.0116
2126.0,0.0116
2125.0,0.0116
2124.0,0.0117
2123.0,0.0117
2122.0,0.0117
2121.0,0.0117
2120.0,0.0117
2119.0,0.0117
2118.0,0.0116
2117.0,0.0115
2116.0,0.0115
2115.0,0.0115
2114.0,0.0115
2113.0,0.0115
2112.0,0.0115
2111.0,0.0115
2110.0,0.0115
2109.0,0.0115
2108.0,0.0115
2107.0,0.0115
2106.0,0.0115
2105.0,0.0115
2104.0,0.0115
2103.0,0.0115
2102.0,0.0115
2101.0,0.0114
2100.0,0.0114
2099.0,0.0113
2098.0,0.0113
2097.0,0.0114
2096.0,0.0114
2095.0,0.0114
2094.0,0.0114
2093.0,0.0114
2092.0,0.0113
2091.0,0.0114
2090.0,0.0113
2089.0,0.0113
2088.0,0.0112
2087.0,0.0112
2086.0,0.0112
2085.0,0.0111
2084.0,0.0111
2083.0,0.0111
2082.0,0.0111
2081.0,0.0111
2080.0,0.0111
2079.0,0.0111
2078.0,0.0111
2077.0,0.011
2076.0,0.0109
2075.0,0.0108
2074.0,0.0108
2073.0,0.0107
2072.0,0.0106
2071.0,0.0105
2070.0,0.0105
2069.0,0.0105
2068.0,0.0104
2067.0,0.0104
2066.0,0.0103
2065.0,0.0102
2064.0,0.0102
2063.0,0.0101
2062.0,0.01
2061.0,0.0099
2060.0,0.0099
2059.0,0.0098
2058.0,0.0098
2057.0,0.0097
2056.0,0.0097
2055.0,0.0096
2054.0,0.0096
2053.0,0.0095
2052.0,0.0094
2051.0,0.0094
2050.0,0.0094
2049.0,0.0094
2048.0,0.0093
2047.0,0.0093
2046.0,0.0093
2045.0,0.0093
2044.0,0.0093
2043.0,0.0092
2042.0,0.0092
2041.0,0.0091
2040.0,0.0091
2039.0,0.009
2038.0,0.009
2037.0,0.009
2036.0,0.009
2035.0,0.009
2034.0,0.009
2033.0,0.009
2032.0,0.0089
2031.0,0.0089
2030.0,0.0088
2029.0,0.0087
2028.0,0.0087
2027.0,0.0088
2026.0,0.0088
2025.0,0.0088
2024.0,0.0087
2023.0,0.0087
2022.0,0.0087
2021.0,0.0087
2020.0,0.0087
2019.0,0.0088
2018.0,0.0088
2017.0,0.0087
2016.0,0.0087
2015.0,0.0086
2014.0,0.0086
2013.0,0.0086
2012.0,0.0086
2011.0,0.0086
2010.0,0.0085
2009.0,0.0085
2008.0,0.0085
2007.0,0.0085
2006.0,0.0085
2005.0,0.0085
2004.0,0.0086
2003.0,0.0087
2002.0,0.0087
2001.0,0.0087
2000.0,0.0087
1999.0,0.0087
1998.0,0.0087
1997.0,0.0087
1996.0,0.0088
1995.0,0.0089
1994.0,0.009
1993.0,0.009
1992.0,0.009
1991.0,0.009
1990.0,0.009
1989.0,0.009
1988.0,0.009
1987.0,0.009
1986.0,0.009
1985.0,0.009
1984.0,0.009
1983.0,0.009
1982.0,0.009
1981.0,0.009
1980.0,0.009
1979.0,0.0091
1978.0,0.0092
1977.0,0.0092
1976.0,0.0091
1975.0,0.0092
1974.0,0.0092
1973.0,0.0093
1972.0,0.0094
1971.0,0.0095
1970.0,0.0096
1969.0,0.0097
1968.0,0.0097
1967.0,0.0099
1966.0,0.01
1965.0,0.0101
1964.0,0.0101
1963.0,0.0103
1962.0,0.0104
1961.0,0.0105
1960.0,0.0106
1959.0,0.0107
1958.0,0.0108
1957.0,0.0109
1956.0,0.0109
1955.0,0.011
1954.0,0.011
1953.0,0.011
1952.0,0.011
1951.0,0.011
1950.0,0.0111
1949.0,0.011
1948.0,0.011
1947.0,0.0109
1946.0,0.0109
1945.0,0.0108
1944.0,0.0106
1943.0,0.0105
1942.0,0.0103
1941.0,0.01
1940.0,0.0098
1939.0,0.0096
1938.0,0.0094
1937.0,0.0092
1936.0,0.009
1935.0,0.0089
1934.0,0.0088
1933.0,0.0086
1932.0,0.0085
1931.0,0.0083
1930.0,0.0082
1929.0,0.008
1928.0,0.0078
1927.0,0.0077
1926.0,0.0076
1925.0,0.0075
1924.0,0.0074
1923.0,0.0074
1922.0,0.0073
1921.0,0.0072
1920.0,0.0071
1919.0,0.0069
1918.0,0.0068
1917.0,0.0066
1916.0,0.0064
1915.0,0.0064
1914.0,0.0063
1913.0,0.0063
1912.0,0.0062
1911.0,0.0061
1910.0,0.006
1909.0,0.0059
1908.0,0.0058
1907.0,0.0057
1906.0,0.0056
1905.0,0.0055
1904.0,0.0054
1903.0,0.0053
1902.0,0.0052
1901.0,0.0051
1900.0,0.005
1899.0,0.005
1898.0,0.005
1897.0,0.0049
1896.0,0.0048
1895.0,0.0046
1894.0,0.0045
1893.0,0.0045
1892.0,0.0045
1891.0,0.0044
1890.0,0.0042
1889.0,0.004
1888.0,0.0039
1887.0,0.0038
1886.0,0.0038
1885.0,0.0037
1884.0,0.0036
1883.0,0.0036
1882.0,0.0035
1881.0,0.0034
1880.0,0.0034
1879.0,0.0033
1878.0,0.0032
1877.0,0.0031
1876.0,0.003
1875.0,0.0029
1874.0,0.0029
1873.0,0.0029
1872.0,0.003
1871.0,0.003
1870.0,0.003
1869.0,0.0028
1868.0,0.0026
1867.0,0.0024
1866.0,0.0023
1865.0,0.0022
1864.0,0.0022
1863.0,0.0022
1862.0,0.0021
1861.0,0.0021
1860.0,0.002
1859.0,0.002
1858.0,0.002
1857.0,0.002
1856.0,0.0019
1855.0,0.0019
1854.0,0.0019
1853.0,0.0019
1852.0,0.0019
1851.0,0.002
1850.0,0.0021
1849.0,0.0021
1848.0,0.0022
1847.0,0.0023
1846.0,0.0023
1845.0,0.0022
1844.0,0.002
1843.0,0.002
1842.0,0.0021
1841.0,0.0022
1840.0,0.0022
1839.0,0.0023
1838.0,0.0023
1837.0,0.0023
1836.0,0.0023
1835.0,0.0024
1834.0,0.0026
1833.0,0.0027
1832.0,0.0027
1831.0,0.0028
1830.0,0.0028
1829.0,0.0027
1828.0,0.0027
1827.0,0.0028
1826.0,0.0028
1825.0,0.0026
1824.0,0.0025
1823.0,0.0024
1822.0,0.0023
1821.0,0.0021
1820.0,0.002
1819.0,0.0019
1818.0,0.0018
1817.0,0.0017
1816.0,0.0016
1815.0,0.0016
1814.0,0.0016
1813.0,0.0015
1812.0,0.0014
1811.0,0.0012
1810.0,0.001
1809.0,0.0008
1808.0,0.0005
1807.0,0.0004
1806.0,0.0004
1805.0,0.0003
1804.0,0.0003
1803.0,0.0002
1802.0,0.0002
1801.0,-0.0
1800.0,-0.0003
1799.0,-0.0004
1798.0,-0.0005
1797.0,-0.0006
1796.0,-0.0006
1795.0,-0.0007
1794.0,-0.0008
1793.0,-0.0011
1792.0,-0.0016
1791.0,-0.0018
1790.0,-0.0019
1789.0,-0.002
1788.0,-0.002
1787.0,-0.002
1786.0,-0.002
1785.0,-0.0022
1784.0,-0.0024
1783.0,-0.0025
1782.0,-0.0025
1781.0,-0.0027
1780.0,-0.0029
1779.0,-0.0028
1778.0,-0.0027
1777.0,-0.0027
1776.0,-0.0027
1775.0,-0.0026
1774.0,-0.0026
1773.0,-0.0028
1772.0,-0.003
1771.0,-0.0029
1770.0,-0.0027
1769.0,-0.0026
1768.0,-0.0027
1767.0,-0.0024
1766.0,-0.0021
1765.0,-0.0017
1764.0,-0.0014
1763.0,-0.0009
1762.0,-0.0005
1761.0,-0.0
1760.0,0.0006
1759.0,0.0014
1758.0,0.0024
1757.0,0.0033
1756.0,0.0043
1755.0,0.0056
1754.0,0.0071
1753.0,0.0086
1752.0,0.0106
1751.0,0.0135
1750.0,0.0171
1749.0,0.0209
1748.0,0.025
1747.0,0.0298
1746.0,0.0351
1745.0,0.0412
1744.0,0.0484
1743.0,0.0565
1742.0,0.0648
1741.0,0.0742
1740.0,0.0858
1739.0,0.098
1738.0,0.1077
1737.0,0.1151
1736.0,0.1232
1735.0,0.1377
1734.0,0.1582
1733.0,0.175
1732.0,0.1868
1731.0,0.1988
1730.0,0.2128
1729.0,0.2277
1728.0,0.242
1727.0,0.2559
1726.0,0.2704
1725.0,0.2864
1724.0,0.3038
1723.0,0.3213
1722.0,0.3364
1721.0,0.3482
1720.0,0.3584
1719.0,0.372
1718.0,0.3916
1717.0,0.4087
1716.0,0.4161
1715.0,0.4171
1714.0,0.4137
1713.0,0.405
1712.0,0.3913
1711.0,0.3739
1710.0,0.3547
1709.0,0.3346
1708.0,0.3137
1707.0,0.2908
1706.0,0.2667
1705.0,0.2459
1704.0,0.2311
1703.0,0.2198
1702.0,0.2078
1701.0,0.1924
1700.0,0.1773
1699.0,0.1674
1698.0,0.1607
1697.0,0.1538
1696.0,0.1459
1695.0,0.1391
1694.0,0.1345
1693.0,0.1312
1692.0,0.1279
1691.0,0.1243
1690.0,0.1207
1689.0,0.118
1688.0,0.1159
1687.0,0.1138
1686.0,0.1113
1685.0,0.1088
1684.0,0.1068
1683.0,0.1049
1682.0,0.103
1681.0,0.1011
1680.0,0.0992
1679.0,0.0972
1678.0,0.0952
1677.0,0.0933
1676.0,0.0914
1675.0,0.0897
1674.0,0.0882
1673.0,0.087
1672.0,0.0858
1671.0,0.0843
1670.0,0.0827
1669.0,0.0815
1668.0,0.0805
1667.0,0.0793
1666.0,0.0781
1665.0,0.0769
1664.0,0.0757
1663.0,0.0746
1662.0,0.0737
1661.0,0.0729
1660.0,0.0722
1659.0,0.0715
1658.0,0.0709
1657.0,0.0705
1656.0,0.07
1655.0,0.0692
1654.0,0.0688
1653.0,0.0696
1652.0,0.0698
1651.0,0.0695
1650.0,0.0692
1649.0,0.0689
1648.0,0.0688
1647.0,0.069
1646.0,0.0692
1645.0,0.0691
1644.0,0.0688
1643.0,0.0684
1642.0,0.0679
1641.0,0.0674
1640.0,0.0667
1639.0,0.0657
1638.0,0.0642
1637.0,0.0622
1636.0,0.0598
1635.0,0.0573
1634.0,0.0555
1633.0,0.0541
1632.0,0.0529
1631.0,0.0517
1630.0,0.0504
1629.0,0.0494
1628.0,0.0485
1627.0,0.0477
1626.0,0.0469
1625.0,0.0463
1624.0,0.0457
1623.0,0.0453
1622.0,0.0449
1621.0,0.0447
1620.0,0.0446
1619.0,0.0445
1618.0,0.0448
1617.0,0.0457
1616.0,0.0468
1615.0,0.0472
1614.0,0.0471
1613.0,0.0468
1612.0,0.0462
1611.0,0.0455
1610.0,0.0447
1609.0,0.0439
1608.0,0.043
1607.0,0.042
1606.0,0.041
1605.0,0.0401
1604.0,0.0392
1603.0,0.0383
1602.0,0.0374
1601.0,0.0366
1600.0,0.0359
1599.0,0.0352
1598.0,0.0345
1597.0,0.034
1596.0,0.0336
1595.0,0.0332
1594.0,0.0329
1593.0,0.0327
1592.0,0.0326
1591.0,0.0325
1590.0,0.0325
1589.0,0.0326
1588.0,0.0327
1587.0,0.0329
1586.0,0.0333
1585.0,0.0342
1584.0,0.0356
1583.0,0.0374
1582.0,0.0394
1581.0,0.0415
1580.0,0.0434
1579.0,0.0446
1578.0,0.0449
1577.0,0.0442
1576.0,0.0426
1575.0,0.0409
1574.0,0.0395
1573.0,0.0383
1572.0,0.037
1571.0,0.0355
1570.0,0.0339
1569.0,0.0327
1568.0,0.0318
1567.0,0.0311
1566.0,0.0304
1565.0,0.0298
1564.0,0.0294
1563.0,0.0291
1562.0,0.0289
1561.0,0.0286
1560.0,0.0282
1559.0,0.0279
1558.0,0.0273
1557.0,0.0267
1556.0,0.0264
1555.0,0.0261
1554.0,0.0257
1553.0,0.0255
1552.0,0.0253
1551.0,0.0251
1550.0,0.0248
1549.0,0.0245
1548.0,0.0243
1547.0,0.024
1546.0,0.0239
1545.0,0.0239
1544.0,0.0239
1543.0,0.0238
1542.0,0.0235
1541.0,0.0232
1540.0,0.023
1539.0,0.0224
1538.0,0.0221
1537.0,0.0221
1536.0,0.0222
1535.0,0.0222
1534.0,0.0223
1533.0,0.0225
1532.0,0.0226
1531.0,0.0226
1530.0,0.0226
1529.0,0.0228
1528.0,0.0229
1527.0,0.0229
1526.0,0.0227
1525.0,0.0226
1524.0,0.0225
1523.0,0.0223
1522.0,0.0219
1521.0,0.0216
1520.0,0.0213
1519.0,0.0211
1518.0,0.021
1517.0,0.0208
1516.0,0.0207
1515.0,0.0205
1514.0,0.0206
1513.0,0.0211
1512.0,0.0222
1511.0,0.0237
1510.0,0.0256
1509.0,0.0283
1508.0,0.0339
1507.0,0.0428
1506.0,0.048
1505.0,0.0482
1504.0,0.0461
1503.0,0.0428
1502.0,0.0388
1501.0,0.0346
1500.0,0.0307
1499.0,0.0273
1498.0,0.0244
1497.0,0.0222
1496.0,0.0206
1495.0,0.0196
1494.0,0.019
1493.0,0.0187
1492.0,0.0187
1491.0,0.0186
1490.0,0.0187
1489.0,0.0192
1488.0,0.0197
1487.0,0.0202
1486.0,0.0207
1485.0,0.0215
1484.0,0.0225
1483.0,0.0237
1482.0,0.0251
1481.0,0.0267
1480.0,0.0282
1479.0,0.0294
1478.0,0.0304
1477.0,0.0316
1476.0,0.0326
1475.0,0.0333
1474.0,0.0338
1473.0,0.0345
1472.0,0.035
1471.0,0.0351
1470.0,0.0351
1469.0,0.0353
1468.0,0.0357
1467.0,0.0361
1466.0,0.0368
1465.0,0.0382
1464.0,0.0398
1463.0,0.0412
1462.0,0.0425
1461.0,0.0439
1460.0,0.0453
1459.0,0.0467
1458.0,0.0487
1457.0,0.0509
1456.0,0.0521
1455.0,0.0523
1454.0,0.0522
1453.0,0.052
1452.0,0.0515
1451.0,0.0507
1450.0,0.0499
1449.0,0.0491
1448.0,0.0482
1447.0,0.0474
1446.0,0.0468
1445.0,0.0463
1444.0,0.0459
1443.0,0.0455
1442.0,0.0451
1441.0,0.0447
1440.0,0.0443
1439.0,0.0436
1438.0,0.0424
1437.0,0.0407
1436.0,0.0387
1435.0,0.0368
1434.0,0.0351
1433.0,0.0333
1432.0,0.0314
1431.0,0.0292
1430.0,0.0271
1429.0,0.0253
1428.0,0.0238
1427.0,0.0228
1426.0,0.0221
1425.0,0.0215
1424.0,0.0212
1423.0,0.0214
1422.0,0.0218
1421.0,0.0227
1420.0,0.0248
1419.0,0.0287
1418.0,0.0338
1417.0,0.0397
1416.0,0.0467
1415.0,0.0554
1414.0,0.0661
1413.0,0.0789
1412.0,0.093
1411.0,0.1061
1410.0,0.1161
1409.0,0.1218
1408.0,0.123
1407.0,0.1194
1406.0,0.1118
1405.0,0.102
1404.0,0.0924
1403.0,0.0844
1402.0,0.0779
1401.0,0.0722
1400.0,0.0665
1399.0,0.0611
1398.0,0.0567
1397.0,0.0533
1396.0,0.0503
1395.0,0.0472
1394.0,0.0444
1393.0,0.0423
1392.0,0.0407
1391.0,0.0394
1390.0,0.0382
1389.0,0.0371
1388.0,0.0362
1387.0,0.0356
1386.0,0.0352
1385.0,0.0351
1384.0,0.0354
1383.0,0.0359
1382.0,0.0367
1381.0,0.0378
1380.0,0.0391
1379.0,0.0406
1378.0,0.042
1377.0,0.0435
1376.0,0.045
1375.0,0.0466
1374.0,0.048
1373.0,0.0489
1372.0,0.0495
1371.0,0.0496
1370.0,0.0492
1369.0,0.0483
1368.0,0.0466
1367.0,0.0445
1366.0,0.0419
1365.0,0.0392
1364.0,0.036
1363.0,0.0327
1362.0,0.0296
1361.0,0.0274
1360.0,0.0259
1359.0,0.0249
1358.0,0.0242
1357.0,0.0239
1356.0,0.0239
1355.0,0.0242
1354.0,0.025
1353.0,0.0261
1352.0,0.0278
1351.0,0.03
1350.0,0.0329
1349.0,0.0366
1348.0,0.0411
1347.0,0.0464
1346.0,0.0526
1345.0,0.0597
1344.0,0.0673
1343.0,0.075
1342.0,0.0823
1341.0,0.0889
1340.0,0.0938
1339.0,0.0954
1338.0,0.0929
1337.0,0.087
1336.0,0.0789
1335.0,0.0694
1334.0,0.0597
1333.0,0.0506
1332.0,0.0428
1331.0,0.0366
1330.0,0.032
1329.0,0.0289
1328.0,0.0269
1327.0,0.0259
1326.0,0.0256
1325.0,0.0259
1324.0,0.0266
1323.0,0.0276
1322.0,0.0289
1321.0,0.0303
1320.0,0.0318
1319.0,0.0334
1318.0,0.035
1317.0,0.0367
1316.0,0.0384
1315.0,0.0403
1314.0,0.0423
1313.0,0.0445
1312.0,0.0469
1311.0,0.0494
1310.0,0.0519
1309.0,0.0546
1308.0,0.0573
1307.0,0.06
1306.0,0.0625
1305.0,0.065
1304.0,0.0677
1303.0,0.0707
1302.0,0.0741
1301.0,0.0783
1300.0,0.0832
1299.0,0.0887
1298.0,0.0946
1297.0,0.101
1296.0,0.1075
1295.0,0.1141
1294.0,0.1205
1293.0,0.1269
1292.0,0.1332
1291.0,0.1393
1290.0,0.1452
1289.0,0.1509
1288.0,0.1565
1287.0,0.1618
1286.0,0.1666
1285.0,0.1711
1284.0,0.1754
1283.0,0.1794
1282.0,0.1831
1281.0,0.1866
1280.0,0.1901
1279.0,0.1935
1278.0,0.1968
1277.0,0.2006
1276.0,0.205
1275.0,0.2102
1274.0,0.2162
1273.0,0.2237
1272.0,0.2327
1271.0,0.2431
1270.0,0.2546
1269.0,0.2671
1268.0,0.2806
1267.0,0.2945
1266.0,0.3084
1265.0,0.3223
1264.0,0.3359
1263.0,0.3484
1262.0,0.3594
1261.0,0.3689
1260.0,0.3769
1259.0,0.383
1258.0,0.3873
1257.0,0.391
1256.0,0.3949
1255.0,0.399
1254.0,0.4037
1253.0,0.4098
1252.0,0.4176
1251.0,0.4264
1250.0,0.4359
1249.0,0.4465
1248.0,0.458
1247.0,0.4694
1246.0,0.4801
1245.0,0.4902
1244.0,0.4992
1243.0,0.5057
1242.0,0.5089
1241.0,0.5091
1240.0,0.5061
1239.0,0.4993
1238.0,0.4885
1237.0,0.475
1236.0,0.4593
1235.0,0.4416
1234.0,0.4225
1233.0,0.4032
1232.0,0.3843
1231.0,0.3658
1230.0,0.3479
1229.0,0.3311
1228.0,0.3154
1227.0,0.3005
1226.0,0.2861
1225.0,0.2726
1224.0,0.2599
1223.0,0.2478
1222.0,0.2362
1221.0,0.2254
1220.0,0.2152
1219.0,0.2056
1218.0,0.1964
1217.0,0.1879
1216.0,0.1802
1215.0,0.1731
1214.0,0.1664
1213.0,0.1603
1212.0,0.1547
1211.0,0.1494
1210.0,0.1445
1209.0,0.1399
1208.0,0.1357
1207.0,0.1316
1206.0,0.1277
1205.0,0.124
1204.0,0.1205
1203.0,0.1171
1202.0,0.1138
1201.0,0.1107
1200.0,0.1077
1199.0,0.1048
1198.0,0.1019
1197.0,0.0991
1196.0,0.0964
1195.0,0.0938
1194.0,0.0913
1193.0,0.0889
1192.0,0.0867
1191.0,0.0847
1190.0,0.0829
1189.0,0.0813
1188.0,0.0799
1187.0,0.0789
1186.0,0.0782
1185.0,0.0778
1184.0,0.0779
1183.0,0.0785
1182.0,0.0795
1181.0,0.0809
1180.0,0.0824
1179.0,0.0841
1178.0,0.0856
1177.0,0.087
1176.0,0.0881
1175.0,0.0886
1174.0,0.0884
1173.0,0.0876
1172.0,0.086
1171.0,0.0836
1170.0,0.0807
1169.0,0.0775
1168.0,0.0744
1167.0,0.0717
1166.0,0.0694
1165.0,0.0677
1164.0,0.0665
1163.0,0.0656
1162.0,0.065
1161.0,0.0646
1160.0,0.0643
1159.0,0.0642
1158.0,0.0643
1157.0,0.0646
1156.0,0.0652
1155.0,0.0661
1154.0,0.0675
1153.0,0.0692
1152.0,0.0714
1151.0,0.0738
1150.0,0.0765
1149.0,0.0795
1148.0,0.0828
1147.0,0.0864
1146.0,0.0902
1145.0,0.0945
1144.0,0.099
1143.0,0.1037
1142.0,0.1085
1141.0,0.1134
1140.0,0.1185
1139.0,0.1235
1138.0,0.1286
1137.0,0.1339
1136.0,0.1395
1135.0,0.1453
1134.0,0.1515
1133.0,0.1582
1132.0,0.1654
1131.0,0.1732
1130.0,0.1815
1129.0,0.1904
1128.0,0.2001
1127.0,0.2103
1126.0,0.2208
1125.0,0.2318
1124.0,0.2432
1123.0,0.2545
1122.0,0.2655
1121.0,0.2758
1120.0,0.2853
1119.0,0.2931
1118.0,0.2988
1117.0,0.3023
1116.0,0.3035
1115.0,0.3022
1114.0,0.299
1113.0,0.2954
1112.0,0.293
1111.0,0.2927
1110.0,0.2957
1109.0,0.3026
1108.0,0.3135
1107.0,0.3275
1106.0,0.3436
1105.0,0.3614
1104.0,0.38
1103.0,0.3985
1102.0,0.4164
1101.0,0.4337
1100.0,0.45
1099.0,0.4642
1098.0,0.4757
1097.0,0.4847
1096.0,0.4912
1095.0,0.4945
1094.0,0.4945
1093.0,0.4921
1092.0,0.4875
1091.0,0.4805
1090.0,0.4715
1089.0,0.4616
1088.0,0.4515
1087.0,0.4407
1086.0,0.4295
1085.0,0.4185
1084.0,0.4074
1083.0,0.3955
1082.0,0.3825
1081.0,0.3688
1080.0,0.3543
1079.0,0.3389
1078.0,0.3229
1077.0,0.3071
1076.0,0.2917
1075.0,0.277
1074.0,0.2629
1073.0,0.2499
1072.0,0.2381
1071.0,0.2273
1070.0,0.2174
1069.0,0.2086
1068.0,0.2007
1067.0,0.1934
1066.0,0.1866
1065.0,0.1804
1064.0,0.1749
1063.0,0.1698
1062.0,0.1651
1061.0,0.1609
1060.0,0.1574
1059.0,0.1544
1058.0,0.1521
1057.0,0.1504
1056.0,0.1495
1055.0,0.1491
1054.0,0.1491
1053.0,0.1497
1052.0,0.1507
1051.0,0.152
1050.0,0.1534
1049.0,0.155
1048.0,0.1567
1047.0,0.1582
1046.0,0.1595
1045.0,0.1605
1044.0,0.1611
1043.0,0.1612
1042.0,0.1606
1041.0,0.1595
1040.0,0.1579
1039.0,0.156
1038.0,0.1538
1037.0,0.1513
1036.0,0.1489
1035.0,0.1463
1034.0,0.1438
1033.0,0.1415
1032.0,0.1394
1031.0,0.1374
1030.0,0.1356
1029.0,0.1344
1028.0,0.1343
1027.0,0.136
1026.0,0.1403
1025.0,0.1481
1024.0,0.1602
1023.0,0.1769
1022.0,0.1981
1021.0,0.2232
1020.0,0.25
1019.0,0.2746
1018.0,0.2921
1017.0,0.2981
1016.0,0.291
1015.0,0.2728
1014.0,0.2486
1013.0,0.2238
1012.0,0.2017
1011.0,0.1837
1010.0,0.1694
1009.0,0.1583
1008.0,0.1495
1007.0,0.1423
1006.0,0.1364
1005.0,0.1317
1004.0,0.1279
1003.0,0.1247
1002.0,0.1219
1001.0,0.1195
1000.0,0.1173
999.0,0.1153
998.0,0.1136
997.0,0.112
996.0,0.1106
995.0,0.1093
994.0,0.1081
993.0,0.1071
992.0,0.1062
991.0,0.1055
990.0,0.1049
989.0,0.1045
988.0,0.1044
987.0,0.1045
986.0,0.1047
985.0,0.1052
984.0,0.1058
983.0,0.1066
982.0,0.1075
981.0,0.1087
980.0,0.1101
979.0,0.1117
978.0,0.1132
977.0,0.1147
976.0,0.116
975.0,0.1172
974.0,0.1179
973.0,0.1184
972.0,0.1184
971.0,0.1179
970.0,0.1171
969.0,0.1158
968.0,0.1143
967.0,0.1124
966.0,0.1104
965.0,0.1082
964.0,0.1059
963.0,0.1036
962.0,0.1014
961.0,0.0993
960.0,0.0974
959.0,0.0956
958.0,0.0938
957.0,0.0922
956.0,0.0907
955.0,0.0893
954.0,0.088
953.0,0.0868
952.0,0.0857
951.0,0.0846
950.0,0.0836
949.0,0.0828
948.0,0.082
947.0,0.0812
946.0,0.0805
945.0,0.0799
944.0,0.0793
943.0,0.0787
942.0,0.0781
941.0,0.0776
940.0,0.0771
939.0,0.0766
938.0,0.0761
937.0,0.0756
936.0,0.0752
935.0,0.0748
934.0,0.0743
933.0,0.0739
932.0,0.0735
931.0,0.0731
930.0,0.0726
929.0,0.0722
928.0,0.0717
927.0,0.0712
926.0,0.0706
925.0,0.07
924.0,0.0695
923.0,0.069
922.0,0.0684
921.0,0.0679
920.0,0.0675
919.0,0.0672
918.0,0.0669
917.0,0.0668
916.0,0.0668
915.0,0.067
914.0,0.0672
913.0,0.0676
912.0,0.0682
911.0,0.069
910.0,0.07
909.0,0.0714
908.0,0.0729
907.0,0.0745
906.0,0.0763
905.0,0.0782
904.0,0.0801
903.0,0.082
902.0,0.0837
901.0,0.0852
900.0,0.0863
899.0,0.087
898.0,0.0873
897.0,0.0875
896.0,0.0876
895.0,0.0874
894.0,0.0872
893.0,0.0868
892.0,0.0865
891.0,0.0863
890.0,0.0864
889.0,0.0869
888.0,0.0877
887.0,0.089
886.0,0.0907
885.0,0.0932
884.0,0.0965
883.0,0.1009
882.0,0.1064
881.0,0.113
880.0,0.1208
879.0,0.1296
878.0,0.1392
877.0,0.1494
876.0,0.16
875.0,0.1698
874.0,0.1777
873.0,0.1822
872.0,0.182
871.0,0.177
870.0,0.1685
869.0,0.1585
868.0,0.1487
867.0,0.1399
866.0,0.1326
865.0,0.127
864.0,0.1227
863.0,0.1194
862.0,0.1167
861.0,0.1147
860.0,0.1132
859.0,0.1121
858.0,0.1111
857.0,0.1104
856.0,0.1099
855.0,0.1095
854.0,0.1092
853.0,0.1093
852.0,0.1096
851.0,0.1101
850.0,0.1105
849.0,0.1109
848.0,0.1113
847.0,0.1115
846.0,0.1115
845.0,0.1113
844.0,0.111
843.0,0.1105
842.0,0.1098
841.0,0.1091
840.0,0.1082
839.0,0.1071
838.0,0.1058
837.0,0.1043
836.0,0.1026
835.0,0.1008
834.0,0.0989
833.0,0.0971
832.0,0.0954
831.0,0.0939
830.0,0.0923
829.0,0.0909
828.0,0.0895
827.0,0.0883
826.0,0.0872
825.0,0.0863
824.0,0.0857
823.0,0.085
822.0,0.0845
821.0,0.084
820.0,0.0837
819.0,0.0834
818.0,0.0831
817.0,0.0827
816.0,0.0823
815.0,0.0819
814.0,0.0815
813.0,0.0813
812.0,0.0811
811.0,0.0807
810.0,0.0803
809.0,0.08
808.0,0.0797
807.0,0.0793
806.0,0.0789
805.0,0.0785
804.0,0.078
803.0,0.0773
802.0,0.0765
801.0,0.0757
800.0,0.0755
799.0,0.0762
798.0,0.0782
797.0,0.0817
796.0,0.0861
795.0,0.0902
794.0,0.093
793.0,0.0939
792.0,0.0931
791.0,0.0907
790.0,0.0876
789.0,0.0843
788.0,0.0812
787.0,0.0783
786.0,0.0758
785.0,0.0735
784.0,0.0715
783.0,0.0697
782.0,0.068
781.0,0.0666
780.0,0.0654
779.0,0.0643
778.0,0.0632
777.0,0.0624
776.0,0.0616
775.0,0.0608
774.0,0.0597
773.0,0.0584
772.0,0.0569
771.0,0.0553
770.0,0.0536
769.0,0.0519
768.0,0.0504
767.0,0.0489
766.0,0.0474
765.0,0.0459
764.0,0.0445
763.0,0.043
762.0,0.0415
761.0,0.0401
760.0,0.0389
759.0,0.0376
758.0,0.0364
757.0,0.0352
756.0,0.0342
755.0,0.0331
754.0,0.032
753.0,0.031
752.0,0.0299
751.0,0.029
750.0,0.0283
749.0,0.0279
748.0,0.0277
747.0,0.0277
746.0,0.0282
745.0,0.0296
744.0,0.0322
743.0,0.0364
742.0,0.0426
741.0,0.0515
740.0,0.0634
739.0,0.0783
738.0,0.096
737.0,0.1161
736.0,0.1382
735.0,0.1615
734.0,0.1858
733.0,0.2115
732.0,0.2392
731.0,0.2695
730.0,0.3032
729.0,0.3413
728.0,0.3835
727.0,0.427
726.0,0.4668
725.0,0.497
724.0,0.5123
723.0,0.5102
722.0,0.4933
721.0,0.4668
720.0,0.4359
719.0,0.4041
718.0,0.3737
717.0,0.3463
716.0,0.3224
715.0,0.302
714.0,0.2848
713.0,0.2707
712.0,0.2588
711.0,0.2482
710.0,0.2387
709.0,0.2305
708.0,0.2236
707.0,0.2173
706.0,0.2111
705.0,0.205
704.0,0.1993
703.0,0.1936
702.0,0.1876
701.0,0.1811
700.0,0.1745
699.0,0.168
698.0,0.1617
697.0,0.1562
696.0,0.1517
695.0,0.1478
694.0,0.1444
693.0,0.1414
692.0,0.1386
691.0,0.1359
690.0,0.1333
689.0,0.1313
688.0,0.13
687.0,0.1287
686.0,0.127
685.0,0.1256
684.0,0.1254
683.0,0.1261
682.0,0.1269
681.0,0.1271
680.0,0.1267
679.0,0.1257
678.0,0.1243
677.0,0.1228
676.0,0.1212
675.0,0.1193
674.0,0.1172
673.0,0.1153
672.0,0.1139
671.0,0.1132
670.0,0.1135
669.0,0.1145
668.0,0.1156
667.0,0.115
666.0,0.1122
665.0,0.1093
664.0,0.1076
663.0,0.1066
662.0,0.1051
661.0,0.1032
660.0,0.1015
659.0,0.1002
658.0,0.0995
657.0,0.0995
656.0,0.1001
655.0,0.1006
654.0,0.1004
653.0,0.0997
652.0,0.0986
651.0,0.0973
650.0,0.0961
649.0,0.0959
648.0,0.0968
647.0,0.0978
646.0,0.0979
645.0,0.0972
644.0,0.0963
643.0,0.0957
642.0,0.0957
641.0,0.0963
640.0,0.0975
639.0,0.0987
638.0,0.0996
637.0,0.1004
636.0,0.1021
635.0,0.1047
634.0,0.108
633.0,0.1111
632.0,0.1127
631.0,0.1115
630.0,0.108
629.0,0.1042
628.0,0.1011
627.0,0.0989
626.0,0.097
625.0,0.0955
624.0,0.0946
623.0,0.0942
622.0,0.0938
621.0,0.0936
620.0,0.0933
619.0,0.0928
618.0,0.0923
617.0,0.0922
616.0,0.0925
615.0,0.0924
614.0,0.0913
613.0,0.0898
612.0,0.0889
611.0,0.0885
610.0,0.0879
609.0,0.0872
608.0,0.0869
607.0,0.0872
606.0,0.0877
605.0,0.0879
604.0,0.088
603.0,0.0874
602.0,0.0857
601.0,0.0837
600.0,0.0825
