cm-1,A
4000.0,0.016058141016111804
3999.0,0.016148281008528276
3998.0,0.016238439713835096
3997.0,0.01628352608625061
3996.0,0.01632861713980338
3995.0,0.01632861713980338
3994.0,0.01628352608625061
3993.0,0.016238439713835096
3992.0,0.016238439713835096
3991.0,0.016238439713835096
3990.0,0.01628352608625061
3989.0,0.016373712875465518
3988.0,0.016418813294209356
3987.0,0.016418813294209356
3986.0,0.016373712875465518
3985.0,0.01628352608625061
3984.0,0.016238439713835096
3983.0,0.01628352608625061
3982.0,0.01632861713980338
3981.0,0.016418813294209356
3980.0,0.01646391839700767
3979.0,0.016373712875465518
3978.0,0.01628352608625061
3977.0,0.016193358021584725
3976.0,0.016148281008528276
3975.0,0.016193358021584725
3974.0,0.01628352608625061
3973.0,0.01632861713980338
3972.0,0.01628352608625061
3971.0,0.016193358021584725
3970.0,0.016103208673694303
3969.0,0.016058141016111804
3968.0,0.016103208673694303
3967.0,0.016193358021584725
3966.0,0.01632861713980338
3965.0,0.016418813294209356
3964.0,0.016418813294209356
3963.0,0.016418813294209356
3962.0,0.016373712875465518
3961.0,0.01632861713980338
3960.0,0.016373712875465518
3959.0,0.016418813294209356
3958.0,0.016509028184833463
3957.0,0.016554142658660398
3956.0,0.016599261819461697
3955.0,0.016554142658660398
3954.0,0.01646391839700767
3953.0,0.016373712875465518
3952.0,0.016238439713835096
3951.0,0.016193358021584725
3950.0,0.016148281008528276
3949.0,0.016058141016111804
3948.0,0.015922966097169144
3947.0,0.01578783323856614
3946.0,0.015742798294583915
3945.0,0.01578783323856614
3944.0,0.015922966097169144
3943.0,0.01596801972881945
3942.0,0.015877917138889863
3941.0,0.01578783323856614
3940.0,0.015742798294583915
3939.0,0.015877917138889863
3938.0,0.016013078034810446
3937.0,0.016103208673694303
3936.0,0.016103208673694303
3935.0,0.016103208673694303
3934.0,0.016058141016111804
3933.0,0.016058141016111804
3932.0,0.016103208673694303
3931.0,0.016148281008528276
3930.0,0.016238439713835096
3929.0,0.016238439713835096
3928.0,0.016238439713835096
3927.0,0.016193358021584725
3926.0,0.016193358021584725
3925.0,0.016103208673694303
3924.0,0.01596801972881945
3923.0,0.015922966097169144
3922.0,0.015922966097169144
3921.0,0.016013078034810446
3920.0,0.016013078034810446
3919.0,0.01596801972881945
3918.0,0.016013078034810446
3917.0,0.016013078034810446
3916.0,0.016058141016111804
3915.0,0.016148281008528276
3914.0,0.01632861713980338
3913.0,0.016509028184833463
3912.0,0.016599261819461697
3911.0,0.016599261819461697
3910.0,0.016509028184833463
3909.0,0.01628352608625061
3908.0,0.016013078034810446
3907.0,0.015697768020096703
3906.0,0.01547268665620738
3905.0,0.01538268676325183
3904.0,0.015292705517326866
3903.0,0.015202742910707112
3902.0,0.015157768594724175
3901.0,0.015292705517326866
3900.0,0.015607721475734415
3899.0,0.015832872853011715
3898.0,0.01596801972881945
3897.0,0.016103208673694303
3896.0,0.016238439713835096
3895.0,0.016238439713835096
3894.0,0.016148281008528276
3893.0,0.016148281008528276
3892.0,0.016193358021584725
3891.0,0.016058141016111804
3890.0,0.01578783323856614
3889.0,0.015742798294583915
3888.0,0.016058141016111804
3887.0,0.01632861713980338
3886.0,0.016373712875465518
3885.0,0.01596801972881945
3884.0,0.015427684378367834
3883.0,0.015292705517326866
3882.0,0.015517693597737248
3881.0,0.015832872853011715
3880.0,0.015922966097169144
3879.0,0.015742798294583915
3878.0,0.015652742414136167
3877.0,0.01578783323856614
3876.0,0.015877917138889863
3875.0,0.015742798294583915
3874.0,0.015427684378367834
3873.0,0.015157768594724175
3872.0,0.015337693809893471
3871.0,0.01578783323856614
3870.0,0.016058141016111804
3869.0,0.015742798294583915
3868.0,0.01538268676325183
3867.0,0.015427684378367834
3866.0,0.015742798294583915
3865.0,0.015922966097169144
3864.0,0.01596801972881945
3863.0,0.015922966097169144
3862.0,0.01596801972881945
3861.0,0.016058141016111804
3860.0,0.016103208673694303
3859.0,0.016013078034810446
3858.0,0.015742798294583915
3857.0,0.015292705517326866
3856.0,0.014843078722943437
3855.0,0.014888020460646079
3854.0,0.015607721475734415
3853.0,0.015877917138889863
3852.0,0.01547268665620738
3851.0,0.015517693597737248
3850.0,0.016148281008528276
3849.0,0.016554142658660398
3848.0,0.016554142658660398
3847.0,0.016373712875465518
3846.0,0.016193358021584725
3845.0,0.01596801972881945
3844.0,0.015742798294583915
3843.0,0.015427684378367834
3842.0,0.015112798935672522
3841.0,0.015022873584506602
3840.0,0.015247721884586563
3839.0,0.015607721475734415
3838.0,0.015742798294583915
3837.0,0.015562705203923999
3836.0,0.01538268676325183
3835.0,0.015427684378367834
3834.0,0.01578783323856614
3833.0,0.016238439713835096
3832.0,0.016554142658660398
3831.0,0.016689514205884493
3830.0,0.016599261819461697
3829.0,0.016554142658660398
3828.0,0.016509028184833463
3827.0,0.016418813294209356
3826.0,0.016148281008528276
3825.0,0.015742798294583915
3824.0,0.015517693597737248
3823.0,0.015517693597737248
3822.0,0.01578783323856614
3821.0,0.01578783323856614
3820.0,0.01538268676325183
3819.0,0.015202742910707112
3818.0,0.015697768020096703
3817.0,0.016418813294209356
3816.0,0.01677978535189717
3815.0,0.016644385668211692
3814.0,0.016599261819461697
3813.0,0.016915227262211507
3812.0,0.017186237868137555
3811.0,0.017050711425501408
3810.0,0.016734647433454652
3809.0,0.016554142658660398
3808.0,0.016599261819461697
3807.0,0.016554142658660398
3806.0,0.016058141016111804
3805.0,0.015607721475734415
3804.0,0.015607721475734415
3803.0,0.015877917138889863
3802.0,0.016193358021584725
3801.0,0.016013078034810446
3800.0,0.015562705203923999
3799.0,0.015607721475734415
3798.0,0.016193358021584725
3797.0,0.016734647433454652
3796.0,0.016960383953898095
3795.0,0.016960383953898095
3794.0,0.017050711425501408
3793.0,0.017231422748988034
3792.0,0.017367005605150476
3791.0,0.017321806616515723
3790.0,0.01727661233145472
3789.0,0.017231422748988034
3788.0,0.017231422748988034
3787.0,0.01727661233145472
3786.0,0.017321806616515723
3785.0,0.017231422748988034
3784.0,0.017005545341335804
3783.0,0.01677978535189717
3782.0,0.016689514205884493
3781.0,0.016734647433454652
3780.0,0.016915227262211507
3779.0,0.016960383953898095
3778.0,0.016960383953898095
3777.0,0.017050711425501408
3776.0,0.01727661233145472
3775.0,0.017457417697056554
3774.0,0.017412209298337533
3773.0,0.01727661233145472
3772.0,0.017186237868137555
3771.0,0.017231422748988034
3770.0,0.017141057687924732
3769.0,0.016870075265299933
3768.0,0.016599261819461697
3767.0,0.016599261819461697
3766.0,0.016824927962187042
3765.0,0.016915227262211507
3764.0,0.016915227262211507
3763.0,0.016915227262211507
3762.0,0.016960383953898095
3761.0,0.016915227262211507
3760.0,0.016824927962187042
3759.0,0.016734647433454652
3758.0,0.016644385668211692
3757.0,0.016509028184833463
3756.0,0.01632861713980338
3755.0,0.016148281008528276
3754.0,0.015922966097169144
3753.0,0.015832872853011715
3752.0,0.016013078034810446
3751.0,0.01646391839700767
3750.0,0.016599261819461697
3749.0,0.01632861713980338
3748.0,0.016148281008528276
3747.0,0.016373712875465518
3746.0,0.016824927962187042
3745.0,0.017186237868137555
3744.0,0.016870075265299933
3743.0,0.016193358021584725
3742.0,0.016103208673694303
3741.0,0.01646391839700767
3740.0,0.01646391839700767
3739.0,0.016058141016111804
3738.0,0.015652742414136167
3737.0,0.015652742414136167
3736.0,0.015922966097169144
3735.0,0.016148281008528276
3734.0,0.01632861713980338
3733.0,0.016554142658660398
3732.0,0.016870075265299933
3731.0,0.017050711425501408
3730.0,0.017231422748988034
3729.0,0.017457417697056554
3728.0,0.01759307113620534
3727.0,0.017547848615010242
3726.0,0.017321806616515723
3725.0,0.017141057687924732
3724.0,0.017050711425501408
3723.0,0.017095882207371904
3722.0,0.017186237868137555
3721.0,0.01727661233145472
3720.0,0.017412209298337533
3719.0,0.017638298366853045
3718.0,0.017728766960431575
3717.0,0.017638298366853045
3716.0,0.017412209298337533
3715.0,0.017050711425501408
3714.0,0.016689514205884493
3713.0,0.016418813294209356
3712.0,0.01646391839700767
3711.0,0.016599261819461697
3710.0,0.016824927962187042
3709.0,0.017141057687924732
3708.0,0.01759307113620534
3707.0,0.017955020928509757
3706.0,0.018136109008649592
3705.0,0.018136109008649592
3704.0,0.01809082990920774
3703.0,0.018136109008649592
3702.0,0.018181392829336396
3701.0,0.018226681372252695
3700.0,0.018271974638383703
3699.0,0.01845319495476394
3698.0,0.018725167293411005
3697.0,0.018770512579999288
3696.0,0.01858915983411169
3695.0,0.018226681372252695
3694.0,0.017864505196230507
3693.0,0.017502630802287644
3692.0,0.017186237868137555
3691.0,0.017095882207371904
3690.0,0.017367005605150476
3689.0,0.017728766960431575
3688.0,0.01781925440359733
3687.0,0.017955020928509757
3686.0,0.01831727262871463
3685.0,0.018634490921455527
3684.0,0.018679826740892747
3683.0,0.01845319495476394
3682.0,0.018181392829336396
3681.0,0.017909760704207134
3680.0,0.01759307113620534
3679.0,0.017186237868137555
3678.0,0.016915227262211507
3677.0,0.017095882207371904
3676.0,0.017638298366853045
3675.0,0.017502630802287644
3674.0,0.01677978535189717
3673.0,0.016599261819461697
3672.0,0.016870075265299933
3671.0,0.017231422748988034
3670.0,0.01759307113620534
3669.0,0.017728766960431575
3668.0,0.017864505196230507
3667.0,0.01831727262871463
3666.0,0.018861217359339655
3665.0,0.019133445417920836
3664.0,0.019269623464054586
3663.0,0.019315025636685412
3662.0,0.019269623464054586
3661.0,0.019133445417920836
3660.0,0.018906576854070378
3659.0,0.018725167293411005
3658.0,0.018725167293411005
3657.0,0.018815862601645694
3656.0,0.018634490921455527
3655.0,0.018136109008649592
3654.0,0.01759307113620534
3653.0,0.017141057687924732
3652.0,0.016644385668211692
3651.0,0.01632861713980338
3650.0,0.016599261819461697
3649.0,0.017005545341335804
3648.0,0.017050711425501408
3647.0,0.017095882207371904
3646.0,0.017412209298337533
3645.0,0.017909760704207134
3644.0,0.01840788278591865
3643.0,0.018770512579999288
3642.0,0.018951941086827073
3641.0,0.019042683770379876
3640.0,0.0190880622231564
3639.0,0.019133445417920836
3638.0,0.019133445417920836
3637.0,0.0190880622231564
3636.0,0.019042683770379876
3635.0,0.018951941086827073
3634.0,0.018725167293411005
3633.0,0.018362575344230914
3632.0,0.01800028587012159
3631.0,0.017909760704207134
3630.0,0.018271974638383703
3629.0,0.018725167293411005
3628.0,0.01858915983411169
3627.0,0.01831727262871463
3626.0,0.018498511851753108
3625.0,0.018861217359339655
3624.0,0.018906576854070378
3623.0,0.018679826740892747
3622.0,0.01840788278591865
3621.0,0.018226681372252695
3620.0,0.018181392829336396
3619.0,0.018136109008649592
3618.0,0.017909760704207134
3617.0,0.017774008325325275
3616.0,0.017955020928509757
3615.0,0.018271974638383703
3614.0,0.018634490921455527
3613.0,0.018725167293411005
3612.0,0.01858915983411169
3611.0,0.01840788278591865
3610.0,0.018362575344230914
3609.0,0.018498511851753108
3608.0,0.018770512579999288
3607.0,0.01899731005860028
3606.0,0.019133445417920836
3605.0,0.0192242260373785
3604.0,0.019269623464054586
3603.0,0.0192242260373785
3602.0,0.0192242260373785
3601.0,0.019360432556262852
3600.0,0.019451260640229506
3599.0,0.01949668180660491
3598.0,0.01940584422377989
3597.0,0.019315025636685412
3596.0,0.019178833355664393
3595.0,0.019042683770379876
3594.0,0.018951941086827073
3593.0,0.018815862601645694
3592.0,0.018679826740892747
3591.0,0.018634490921455527
3590.0,0.018634490921455527
3589.0,0.018861217359339655
3588.0,0.019178833355664393
3587.0,0.019315025636685412
3586.0,0.019178833355664393
3585.0,0.019178833355664393
3584.0,0.01940584422377989
3583.0,0.019723858922159776
3582.0,0.02004210665933459
3581.0,0.020178569969774962
3580.0,0.02013307743509718
3579.0,0.01995115493504329
3578.0,0.019769308608968306
3577.0,0.019723858922159776
3576.0,0.019723858922159776
3575.0,0.019814763052665052
3574.0,0.019814763052665052
3573.0,0.019723858922159776
3572.0,0.01949668180660491
3571.0,0.0190880622231564
3570.0,0.018725167293411005
3569.0,0.018498511851753108
3568.0,0.018543833477873584
3567.0,0.018815862601645694
3566.0,0.018906576854070378
3565.0,0.018951941086827073
3564.0,0.019133445417920836
3563.0,0.01940584422377989
3562.0,0.019678413991243593
3561.0,0.01990568621470623
3560.0,0.020087589665283012
3559.0,0.02026956933771462
3558.0,0.020406104151069693
3557.0,0.020406104151069693
3556.0,0.02026956933771462
3555.0,0.02013307743509718
3554.0,0.02004210665933459
3553.0,0.020087589665283012
3552.0,0.020087589665283012
3551.0,0.020087589665283012
3550.0,0.02004210665933459
3549.0,0.02004210665933459
3548.0,0.020087589665283012
3547.0,0.02022406727031445
3546.0,0.020315076172974234
3545.0,0.020406104151069693
3544.0,0.02045162529590483
3543.0,0.020497151212598652
3542.0,0.02058821736556471
3541.0,0.02067930261797568
3540.0,0.020770406977844713
3539.0,0.020861530453190058
3538.0,0.020952673052035298
3537.0,0.021043834782408455
3536.0,0.021043834782408455
3535.0,0.020907099361673565
3534.0,0.020724852408976924
3533.0,0.020633757603838898
3532.0,0.020633757603838898
3531.0,0.020724852408976924
3530.0,0.020724852408976924
3529.0,0.020633757603838898
3528.0,0.02045162529590483
3527.0,0.020315076172974234
3526.0,0.02022406727031445
3525.0,0.02022406727031445
3524.0,0.020315076172974234
3523.0,0.020406104151069693
3522.0,0.020542681902151694
3521.0,0.020724852408976924
3520.0,0.020907099361673565
3519.0,0.021089422824428272
3518.0,0.021135015652343103
3517.0,0.021089422824428272
3516.0,0.0209982515252789
3515.0,0.020952673052035298
3514.0,0.020861530453190058
3513.0,0.020770406977844713
3512.0,0.020633757603838898
3511.0,0.020542681902151694
3510.0,0.02058821736556471
3509.0,0.020724852408976924
3508.0,0.020770406977844713
3507.0,0.020770406977844713
3506.0,0.020633757603838898
3505.0,0.020497151212598652
3504.0,0.02045162529590483
3503.0,0.020497151212598652
3502.0,0.02067930261797568
3501.0,0.020861530453190058
3500.0,0.0209982515252789
3499.0,0.0211806132671577
3498.0,0.021317434843055594
3497.0,0.0214542995372613
3496.0,0.021545566634771474
3495.0,0.02159120737696063
3494.0,0.02159120737696063
3493.0,0.021499930688540836
3492.0,0.02140867317992523
3491.0,0.021363051615525652
3490.0,0.021317434843055594
3489.0,0.021317434843055594
3488.0,0.021363051615525652
3487.0,0.021363051615525652
3486.0,0.021271822861508305
3485.0,0.02122621566987748
3484.0,0.0211806132671577
3483.0,0.021135015652343103
3482.0,0.021135015652343103
3481.0,0.021089422824428272
3480.0,0.021089422824428272
3479.0,0.021089422824428272
3478.0,0.0211806132671577
3477.0,0.02122621566987748
3476.0,0.021271822861508305
3475.0,0.021317434843055594
3474.0,0.021363051615525652
3473.0,0.02140867317992523
3472.0,0.02140867317992523
3471.0,0.02140867317992523
3470.0,0.02140867317992523
3469.0,0.02140867317992523
3468.0,0.021363051615525652
3467.0,0.021363051615525652
3466.0,0.021317434843055594
3465.0,0.021363051615525652
3464.0,0.02140867317992523
3463.0,0.021545566634771474
3462.0,0.021636852916117055
3461.0,0.02168250325324883
3460.0,0.02168250325324883
3459.0,0.021636852916117055
3458.0,0.02159120737696063
3457.0,0.021545566634771474
3456.0,0.021499930688540836
3455.0,0.021499930688540836
3454.0,0.021499930688540836
3453.0,0.021545566634771474
3452.0,0.02159120737696063
3451.0,0.02159120737696063
3450.0,0.021545566634771474
3449.0,0.021499930688540836
3448.0,0.021545566634771474
3447.0,0.021636852916117055
3446.0,0.021773818325474092
3445.0,0.021865152601710403
3444.0,0.021910826943857264
3443.0,0.021865152601710403
3442.0,0.021819483062586187
3441.0,0.021728158389364705
3440.0,0.02168250325324883
3439.0,0.021728158389364705
3438.0,0.021773818325474092
3437.0,0.021819483062586187
3436.0,0.021819483062586187
3435.0,0.021819483062586187
3434.0,0.021773818325474092
3433.0,0.021773818325474092
3432.0,0.021773818325474092
3431.0,0.021819483062586187
3430.0,0.021819483062586187
3429.0,0.021773818325474092
3428.0,0.021773818325474092
3427.0,0.021773818325474092
3426.0,0.021773818325474092
3425.0,0.021773818325474092
3424.0,0.021728158389364705
3423.0,0.02168250325324883
3422.0,0.02168250325324883
3421.0,0.021728158389364705
3420.0,0.021773818325474092
3419.0,0.021819483062586187
3418.0,0.021865152601710403
3417.0,0.021865152601710403
3416.0,0.021865152601710403
3415.0,0.021956506090037076
3414.0,0.022139270735302752
3413.0,0.022230681908425698
3412.0,0.02227639471115217
3411.0,0.022230681908425698
3410.0,0.022139270735302752
3409.0,0.022139270735302752
3408.0,0.022139270735302752
3407.0,0.0221849739168134
3406.0,0.0221849739168134
3405.0,0.022139270735302752
3404.0,0.02204787879853809
3403.0,0.02200219004126036
3402.0,0.02204787879853809
3401.0,0.022093572362881675
3400.0,0.022093572362881675
3399.0,0.02204787879853809
3398.0,0.02200219004126036
3397.0,0.021910826943857264
3396.0,0.021865152601710403
3395.0,0.021773818325474092
3394.0,0.021728158389364705
3393.0,0.021728158389364705
3392.0,0.021819483062586187
3391.0,0.021956506090037076
3390.0,0.022093572362881675
3389.0,0.022230681908425698
3388.0,0.02227639471115217
3387.0,0.022230681908425698
3386.0,0.0221849739168134
3385.0,0.022139270735302752
3384.0,0.0221849739168134
3383.0,0.022230681908425698
3382.0,0.02227639471115217
3381.0,0.022230681908425698
3380.0,0.0221849739168134
3379.0,0.022139270735302752
3378.0,0.022139270735302752
3377.0,0.022139270735302752
3376.0,0.022093572362881675
3375.0,0.022093572362881675
3374.0,0.02204787879853809
3373.0,0.02204787879853809
3372.0,0.022093572362881675
3371.0,0.0221849739168134
3370.0,0.022322112326006227
3369.0,0.02245929405346514
3368.0,0.022505030926963654
3367.0,0.022505030926963654
3366.0,0.022413561996148967
3365.0,0.022322112326006227
3364.0,0.0221849739168134
3363.0,0.022139270735302752
3362.0,0.022139270735302752
3361.0,0.022230681908425698
3360.0,0.022322112326006227
3359.0,0.022322112326006227
3358.0,0.022230681908425698
3357.0,0.022093572362881675
3356.0,0.021956506090037076
3355.0,0.021956506090037076
3354.0,0.02204787879853809
3353.0,0.022139270735302752
3352.0,0.02227639471115217
3351.0,0.022322112326006227
3350.0,0.022367834754000393
3349.0,0.022367834754000393
3348.0,0.022322112326006227
3347.0,0.0221849739168134
3346.0,0.02204787879853809
3345.0,0.021910826943857264
3344.0,0.021865152601710403
3343.0,0.021910826943857264
3342.0,0.021956506090037076
3341.0,0.02200219004126036
3340.0,0.02200219004126036
3339.0,0.02204787879853809
3338.0,0.022093572362881675
3337.0,0.0221849739168134
3336.0,0.022139270735302752
3335.0,0.022093572362881675
3334.0,0.02200219004126036
3333.0,0.021910826943857264
3332.0,0.021956506090037076
3331.0,0.02200219004126036
3330.0,0.022139270735302752
3329.0,0.0221849739168134
3328.0,0.022230681908425698
3327.0,0.0221849739168134
3326.0,0.022230681908425698
3325.0,0.02227639471115217
3324.0,0.022367834754000393
3323.0,0.022367834754000393
3322.0,0.022322112326006227
3321.0,0.022230681908425698
3320.0,0.0221849739168134
3319.0,0.0221849739168134
3318.0,0.022230681908425698
3317.0,0.022230681908425698
3316.0,0.0221849739168134
3315.0,0.0221849739168134
3314.0,0.0221849739168134
3313.0,0.022230681908425698
3312.0,0.022322112326006227
3311.0,0.022367834754000393
3310.0,0.02245929405346514
3309.0,0.022505030926963654
3308.0,0.02259651912656535
3307.0,0.022642270454698687
3306.0,0.02259651912656535
3305.0,0.02245929405346514
3304.0,0.02227639471115217
3303.0,0.022139270735302752
3302.0,0.02204787879853809
3301.0,0.02200219004126036
3300.0,0.02204787879853809
3299.0,0.02204787879853809
3298.0,0.02204787879853809
3297.0,0.02200219004126036
3296.0,0.021956506090037076
3295.0,0.021910826943857264
3294.0,0.021956506090037076
3293.0,0.02200219004126036
3292.0,0.02200219004126036
3291.0,0.02204787879853809
3290.0,0.02204787879853809
3289.0,0.02204787879853809
3288.0,0.022093572362881675
3287.0,0.022139270735302752
3286.0,0.0221849739168134
3285.0,0.022139270735302752
3284.0,0.02200219004126036
3283.0,0.021910826943857264
3282.0,0.021865152601710403
3281.0,0.021910826943857264
3280.0,0.02204787879853809
3279.0,0.022093572362881675
3278.0,0.022139270735302752
3277.0,0.022093572362881675
3276.0,0.02200219004126036
3275.0,0.021910826943857264
3274.0,0.021910826943857264
3273.0,0.021956506090037076
3272.0,0.02204787879853809
3271.0,0.02204787879853809
3270.0,0.02200219004126036
3269.0,0.021956506090037076
3268.0,0.021910826943857264
3267.0,0.021910826943857264
3266.0,0.021910826943857264
3265.0,0.021956506090037076
3264.0,0.021956506090037076
3263.0,0.021956506090037076
3262.0,0.021956506090037076
3261.0,0.021910826943857264
3260.0,0.021956506090037076
3259.0,0.02200219004126036
3258.0,0.022093572362881675
3257.0,0.022139270735302752
3256.0,0.022139270735302752
3255.0,0.022093572362881675
3254.0,0.02204787879853809
3253.0,0.02204787879853809
3252.0,0.022093572362881675
3251.0,0.0221849739168134
3250.0,0.022230681908425698
3249.0,0.022230681908425698
3248.0,0.022230681908425698
3247.0,0.02227639471115217
3246.0,0.02227639471115217
3245.0,0.02227639471115217
3244.0,0.0221849739168134
3243.0,0.022093572362881675
3242.0,0.021956506090037076
3241.0,0.021819483062586187
3240.0,0.021728158389364705
3239.0,0.02168250325324883
3238.0,0.021728158389364705
3237.0,0.021773818325474092
3236.0,0.021865152601710403
3235.0,0.021956506090037076
3234.0,0.02204787879853809
3233.0,0.02204787879853809
3232.0,0.02200219004126036
3231.0,0.021956506090037076
3230.0,0.021865152601710403
3229.0,0.021865152601710403
3228.0,0.021865152601710403
3227.0,0.021819483062586187
3226.0,0.021773818325474092
3225.0,0.02168250325324883
3224.0,0.02159120737696063
3223.0,0.02159120737696063
3222.0,0.02159120737696063
3221.0,0.021636852916117055
3220.0,0.021728158389364705
3219.0,0.021865152601710403
3218.0,0.021956506090037076
3217.0,0.02200219004126036
3216.0,0.02200219004126036
3215.0,0.021956506090037076
3214.0,0.021865152601710403
3213.0,0.021773818325474092
3212.0,0.02168250325324883
3211.0,0.02159120737696063
3210.0,0.02159120737696063
3209.0,0.021636852916117055
3208.0,0.021636852916117055
3207.0,0.021728158389364705
3206.0,0.021819483062586187
3205.0,0.021910826943857264
3204.0,0.021910826943857264
3203.0,0.021910826943857264
3202.0,0.021865152601710403
3201.0,0.021819483062586187
3200.0,0.021819483062586187
3199.0,0.021773818325474092
3198.0,0.02168250325324883
3197.0,0.021636852916117055
3196.0,0.021636852916117055
3195.0,0.021636852916117055
3194.0,0.02159120737696063
3193.0,0.021545566634771474
3192.0,0.021499930688540836
3191.0,0.0214542995372613
3190.0,0.02140867317992523
3189.0,0.021271822861508305
3188.0,0.0211806132671577
3187.0,0.021135015652343103
3186.0,0.0211806132671577
3185.0,0.021363051615525652
3184.0,0.021545566634771474
3183.0,0.021773818325474092
3182.0,0.021956506090037076
3181.0,0.022093572362881675
3180.0,0.022093572362881675
3179.0,0.02200219004126036
3178.0,0.021865152601710403
3177.0,0.021819483062586187
3176.0,0.021773818325474092
3175.0,0.021773818325474092
3174.0,0.021773818325474092
3173.0,0.021728158389364705
3172.0,0.02168250325324883
3171.0,0.02159120737696063
3170.0,0.021499930688540836
3169.0,0.021499930688540836
3168.0,0.021499930688540836
3167.0,0.021545566634771474
3166.0,0.021499930688540836
3165.0,0.02140867317992523
3164.0,0.021363051615525652
3163.0,0.021317434843055594
3162.0,0.021317434843055594
3161.0,0.0214542995372613
3160.0,0.02159120737696063
3159.0,0.02168250325324883
3158.0,0.02168250325324883
3157.0,0.021636852916117055
3156.0,0.021545566634771474
3155.0,0.0214542995372613
3154.0,0.02140867317992523
3153.0,0.021317434843055594
3152.0,0.021271822861508305
3151.0,0.0211806132671577
3150.0,0.021089422824428272
3149.0,0.021089422824428272
3148.0,0.021135015652343103
3147.0,0.0211806132671577
3146.0,0.02122621566987748
3145.0,0.021271822861508305
3144.0,0.021271822861508305
3143.0,0.021271822861508305
3142.0,0.021271822861508305
3141.0,0.021363051615525652
3140.0,0.0214542995372613
3139.0,0.021499930688540836
3138.0,0.0214542995372613
3137.0,0.021317434843055594
3136.0,0.0211806132671577
3135.0,0.021135015652343103
3134.0,0.021089422824428272
3133.0,0.021089422824428272
3132.0,0.0209982515252789
3131.0,0.020907099361673565
3130.0,0.020861530453190058
3129.0,0.020861530453190058
3128.0,0.020861530453190058
3127.0,0.020907099361673565
3126.0,0.0209982515252789
3125.0,0.021135015652343103
3124.0,0.021271822861508305
3123.0,0.021317434843055594
3122.0,0.021317434843055594
3121.0,0.021271822861508305
3120.0,0.02122621566987748
3119.0,0.0211806132671577
3118.0,0.021043834782408455
3117.0,0.020952673052035298
3116.0,0.020952673052035298
3115.0,0.0209982515252789
3114.0,0.021089422824428272
3113.0,0.02122621566987748
3112.0,0.021317434843055594
3111.0,0.0214542995372613
3110.0,0.02159120737696063
3109.0,0.021773818325474092
3108.0,0.021956506090037076
3107.0,0.02204787879853809
3106.0,0.02204787879853809
3105.0,0.02200219004126036
3104.0,0.021956506090037076
3103.0,0.021910826943857264
3102.0,0.021910826943857264
3101.0,0.021910826943857264
3100.0,0.021910826943857264
3099.0,0.021865152601710403
3098.0,0.021773818325474092
3097.0,0.021728158389364705
3096.0,0.021636852916117055
3095.0,0.021545566634771474
3094.0,0.021545566634771474
3093.0,0.021636852916117055
3092.0,0.021865152601710403
3091.0,0.0221849739168134
3090.0,0.02259651912656535
3089.0,0.023054249440757957
3088.0,0.023604163388120325
3087.0,0.024292536462819925
3086.0,0.025028005701930978
3085.0,0.02558042614771394
3084.0,0.025949097207122573
3083.0,0.026087429580295085
3082.0,0.025995203102585407
3081.0,0.025810808881832736
3080.0,0.02558042614771394
3079.0,0.02539620791296726
3078.0,0.02521206778644225
3077.0,0.025074013910237447
3076.0,0.024890010313838973
3075.0,0.02461415101053266
3074.0,0.02438440203310499
3073.0,0.024246610963712723
3072.0,0.024246610963712723
3071.0,0.024430342106337877
3070.0,0.024660115394541604
3069.0,0.02498200236711723
3068.0,0.025350165561278004
3067.0,0.025764722556973707
3066.0,0.026271941311972746
3065.0,0.02682594731702781
3064.0,0.027426919073445077
3063.0,0.027936083991977778
3062.0,0.028353117935693284
3061.0,0.02858497661500481
3060.0,0.028770552723758724
3059.0,0.028816959143838528
3058.0,0.028770552723758724
3057.0,0.02858497661500481
3056.0,0.028214062120885508
3055.0,0.027797161620935595
3054.0,0.02738066094037661
3053.0,0.02691835039863255
3052.0,0.026456531467510258
3051.0,0.026041313893296225
3050.0,0.025718641122169483
3049.0,0.02539620791296726
3048.0,0.02516604495145991
3047.0,0.02498200236711723
3046.0,0.024798037742147727
3045.0,0.024660115394541604
3044.0,0.024568191490736968
3043.0,0.024568191490736968
3042.0,0.024660115394541604
3041.0,0.02475205875931885
3040.0,0.024936003904763915
3039.0,0.02521206778644225
3038.0,0.02558042614771394
3037.0,0.026087429580295085
3036.0,0.026733563891471412
3035.0,0.027565723042634938
3034.0,0.02863136320857662
3033.0,0.029885677714903025
3032.0,0.03133029827960798
3031.0,0.032873418923587305
3030.0,0.034469056377139484
3029.0,0.03597620715996652
3028.0,0.037346595106788616
3027.0,0.03838909190871931
3026.0,0.03910132267333921
3025.0,0.03929144831144349
3024.0,0.038958783046687984
3023.0,0.038199360808321536
3022.0,0.0371573187987575
3021.0,0.03592902944204468
3020.0,0.03475124903287918
3019.0,0.03357665405630694
3018.0,0.03240522732811035
3017.0,0.03137697904301118
3016.0,0.030490901403433135
3015.0,0.029746130405213123
3014.0,0.029188389127482228
3013.0,0.028770552723758724
3012.0,0.02849221828874393
3011.0,0.028306761050139073
3010.0,0.028214062120885508
3009.0,0.028167720075074953
3008.0,0.028167720075074953
3007.0,0.028214062120885508
3006.0,0.028353117935693284
3005.0,0.02849221828874393
3004.0,0.028677754757187035
3003.0,0.028816959143838528
3002.0,0.028863370523193765
3001.0,0.028863370523193765
3000.0,0.02872415126189476
2999.0,0.028445846553939003
2998.0,0.028167720075074953
2997.0,0.027843464140506313
2996.0,0.02751945012352408
2995.0,0.027195677663422346
2994.0,0.02691835039863255
2993.0,0.026687379547098322
2992.0,0.02664120011360227
2991.0,0.026687379547098322
2990.0,0.026733563891471412
2989.0,0.026687379547098322
2988.0,0.026595025589939425
2987.0,0.026502691267936695
2986.0,0.026410376572743033
2985.0,0.026318081496016443
2984.0,0.026225806029419818
2983.0,0.026087429580295085
2982.0,0.025995203102585407
2981.0,0.025949097207122573
2980.0,0.025949097207122573
2979.0,0.025995203102585407
2978.0,0.026041313893296225
2977.0,0.02617967564731627
2976.0,0.026271941311972746
2975.0,0.02636422658259252
2974.0,0.02636422658259252
2973.0,0.02636422658259252
2972.0,0.026318081496016443
2971.0,0.02636422658259252
2970.0,0.026410376572743033
2969.0,0.026502691267936695
2968.0,0.02664120011360227
2967.0,0.02682594731702781
2966.0,0.02696455931306696
2965.0,0.027056991894431892
2964.0,0.027056991894431892
2963.0,0.02710321556345563
2962.0,0.02724191609646076
2961.0,0.02738066094037661
2960.0,0.027612000892527133
2959.0,0.027843464140506313
2958.0,0.028028723600243666
2957.0,0.02826040911222183
2956.0,0.028445846553939003
2955.0,0.028677754757187035
2954.0,0.028863370523193765
2953.0,0.029002634427514717
2952.0,0.029234840219232394
2951.0,0.029467170231675777
2950.0,0.029746130405213123
2949.0,0.030071810571884017
2948.0,0.030351159519274695
2947.0,0.03067729388779794
2946.0,0.03105031901865729
2945.0,0.03151705144606498
2944.0,0.032031037121307726
2943.0,0.032545631817259224
2942.0,0.033060836978886954
2941.0,0.03367050483612166
2940.0,0.034469056377139484
2939.0,0.03545753392086315
2938.0,0.036542739883292485
2937.0,0.03767802727041558
2936.0,0.03886378261277468
2935.0,0.0400527842915015
2934.0,0.04124505013091051
2933.0,0.04244059810252043
2932.0,0.04368746915880539
2931.0,0.044937930324967956
2930.0,0.04609540658654021
2929.0,0.04720755695590784
2928.0,0.04827402457540786
2927.0,0.049245818406496555
2926.0,0.050171041064686284
2925.0,0.05095170768433621
2924.0,0.0515870342213991
2923.0,0.05207638016827354
2922.0,0.052419250695677544
2921.0,0.05261529831525902
2920.0,0.05266432405126009
2919.0,0.0525172634430815
2918.0,0.05227227303668425
2917.0,0.05197846685889629
2916.0,0.05163594401163074
2915.0,0.05119595406718891
2914.0,0.050707598587974356
2913.0,0.05021979163799939
2912.0,0.04968383607539972
2911.0,0.04919717703534143
2910.0,0.04866248120408234
2909.0,0.04807992647970649
2908.0,0.04749815213697639
2907.0,0.04696554274964315
2906.0,0.04643358574299339
2905.0,0.04599883231842972
2904.0,0.045564513671517703
2903.0,0.04513062893352182
2902.0,0.04460091336073302
2901.0,0.04402377775167454
2900.0,0.04344740808260106
2899.0,0.04291974034210022
2898.0,0.04229695845116854
2897.0,0.04167506835594681
2896.0,0.041101805289228244
2895.0,0.04062466342415694
2894.0,0.0402909757535701
2893.0,0.03995754427315856
2892.0,0.03962436858984186
2891.0,0.03924390909822728
2890.0,0.038958783046687984
2889.0,0.038673844065289176
2888.0,0.03838909190871931
2887.0,0.03810452633214956
2886.0,0.03786753070176463
2885.0,0.03763066432997886
2884.0,0.03739392707587297
2883.0,0.0371100126082089
2882.0,0.03682628362474838
2881.0,0.03649550058570927
2880.0,0.036117771071222604
2879.0,0.035740369803151095
2878.0,0.03541041251009669
2877.0,0.03522197797762394
2876.0,0.03512779136222477
2875.0,0.03508070571335731
2874.0,0.03508070571335731
2873.0,0.03498654972775217
2872.0,0.0349394793888016
2871.0,0.03479829897408804
2870.0,0.03465716443937783
2869.0,0.034516075754861264
2868.0,0.034469056377139484
2867.0,0.034469056377139484
2866.0,0.034516075754861264
2865.0,0.03465716443937783
2864.0,0.03489241415094413
2863.0,0.03522197797762394
2862.0,0.035646070707806565
2861.0,0.036117771071222604
2860.0,0.03663723389626394
2859.0,0.03720463014276687
2858.0,0.03777276864991497
2857.0,0.03838909190871931
2856.0,0.038958783046687984
2855.0,0.03948165721929198
2854.0,0.039909932095080425
2853.0,0.040243327009005014
2852.0,0.04057697805689475
2851.0,0.04076775094900409
2850.0,0.04081545726880842
2849.0,0.040672354027829094
2848.0,0.040481623027001756
2847.0,0.04019568349166214
2846.0,0.039909932095080425
2845.0,0.03952922246570112
2844.0,0.03905380426616856
2843.0,0.038531444649213764
2842.0,0.03791491948264003
2841.0,0.037251946641359446
2840.0,0.036542739883292485
2839.0,0.03583468937826462
2838.0,0.03512779136222477
2837.0,0.034516075754861264
2836.0,0.033952178923546183
2835.0,0.03343591590268957
2834.0,0.033060836978886954
2833.0,0.03273290844021437
2832.0,0.03249882527715853
2831.0,0.032311649546687526
2830.0,0.032124554451966825
2829.0,0.03193753992355086
2828.0,0.03170388495374454
2827.0,0.03147035562516054
2826.0,0.031236951802751545
2825.0,0.03105031901865729
2824.0,0.030957032694186815
2823.0,0.030863766403287585
2822.0,0.03081714076773867
2821.0,0.0307239045110681
2820.0,0.03063068826647264
2819.0,0.030490901403433135
2818.0,0.030397735151460825
2817.0,0.03030458888152676
2816.0,0.03025802323714588
2815.0,0.03025802323714588
2814.0,0.03025802323714588
2813.0,0.03030458888152676
2812.0,0.03030458888152676
2811.0,0.03025802323714588
2810.0,0.030211462585061133
2809.0,0.030164906924202484
2808.0,0.030071810571884017
2807.0,0.029978734171634214
2806.0,0.029885677714903025
2805.0,0.029839156962686353
2804.0,0.029792641193145286
2803.0,0.029746130405213123
2802.0,0.02969962459782227
2801.0,0.029560137048236124
2800.0,0.029467170231675777
2799.0,0.029374223311705583
2798.0,0.029281296279810798
2797.0,0.029188389127482228
2796.0,0.029141943003497595
2795.0,0.029188389127482228
2794.0,0.029234840219232394
2793.0,0.029234840219232394
2792.0,0.029234840219232394
2791.0,0.029188389127482228
2790.0,0.029141943003497595
2789.0,0.029141943003497595
2788.0,0.029141943003497595
2787.0,0.029141943003497595
2786.0,0.029141943003497595
2785.0,0.029141943003497595
2784.0,0.029095501846216454
2783.0,0.029141943003497595
2782.0,0.029095501846216454
2781.0,0.029095501846216454
2780.0,0.029002634427514717
2779.0,0.028956208163971375
2778.0,0.02890978686288448
2777.0,0.028956208163971375
2776.0,0.028956208163971375
2775.0,0.028956208163971375
2774.0,0.028956208163971375
2773.0,0.02890978686288448
2772.0,0.028816959143838528
2771.0,0.02863136320857662
2770.0,0.02849221828874393
2769.0,0.02839947976994095
2768.0,0.02839947976994095
2767.0,0.028445846553939003
2766.0,0.02839947976994095
2765.0,0.028353117935693284
2764.0,0.028353117935693284
2763.0,0.028353117935693284
2762.0,0.02839947976994095
2761.0,0.02839947976994095
2760.0,0.028445846553939003
2759.0,0.02839947976994095
2758.0,0.028353117935693284
2757.0,0.028306761050139073
2756.0,0.028306761050139073
2755.0,0.028353117935693284
2754.0,0.02839947976994095
2753.0,0.028445846553939003
2752.0,0.028445846553939003
2751.0,0.028445846553939003
2750.0,0.028445846553939003
2749.0,0.028353117935693284
2748.0,0.028306761050139073
2747.0,0.028214062120885508
2746.0,0.028167720075074953
2745.0,0.028167720075074953
2744.0,0.028167720075074953
2743.0,0.028214062120885508
2742.0,0.02826040911222183
2741.0,0.028306761050139073
2740.0,0.028353117935693284
2739.0,0.028353117935693284
2738.0,0.028306761050139073
2737.0,0.028306761050139073
2736.0,0.028306761050139073
2735.0,0.028353117935693284
2734.0,0.028353117935693284
2733.0,0.028353117935693284
2732.0,0.028306761050139073
2731.0,0.02826040911222183
2730.0,0.028214062120885508
2729.0,0.02812138297373412
2728.0,0.028075050815808744
2727.0,0.028028723600243666
2726.0,0.028075050815808744
2725.0,0.02812138297373412
2724.0,0.02812138297373412
2723.0,0.028167720075074953
2722.0,0.028214062120885508
2721.0,0.02826040911222183
2720.0,0.028306761050139073
2719.0,0.028306761050139073
2718.0,0.028306761050139073
2717.0,0.028306761050139073
2716.0,0.028306761050139073
2715.0,0.02826040911222183
2714.0,0.02826040911222183
2713.0,0.028214062120885508
2712.0,0.028167720075074953
2711.0,0.028167720075074953
2710.0,0.028167720075074953
2709.0,0.02826040911222183
2708.0,0.028306761050139073
2707.0,0.028306761050139073
2706.0,0.028353117935693284
2705.0,0.028306761050139073
2704.0,0.02826040911222183
2703.0,0.028214062120885508
2702.0,0.028167720075074953
2701.0,0.028167720075074953
2700.0,0.028167720075074953
2699.0,0.02812138297373412
2698.0,0.028075050815808744
2697.0,0.028075050815808744
2696.0,0.02812138297373412
2695.0,0.028214062120885508
2694.0,0.028214062120885508
2693.0,0.028167720075074953
2692.0,0.02812138297373412
2691.0,0.02812138297373412
2690.0,0.028075050815808744
2689.0,0.028028723600243666
2688.0,0.02798240132598462
2687.0,0.02798240132598462
2686.0,0.028028723600243666
2685.0,0.028075050815808744
2684.0,0.02812138297373412
2683.0,0.02812138297373412
2682.0,0.028075050815808744
2681.0,0.028075050815808744
2680.0,0.02812138297373412
2679.0,0.028214062120885508
2678.0,0.028214062120885508
2677.0,0.028214062120885508
2676.0,0.028167720075074953
2675.0,0.02812138297373412
2674.0,0.028075050815808744
2673.0,0.028075050815808744
2672.0,0.028075050815808744
2671.0,0.028167720075074953
2670.0,0.028214062120885508
2669.0,0.028306761050139073
2668.0,0.028353117935693284
2667.0,0.028353117935693284
2666.0,0.02826040911222183
2665.0,0.028167720075074953
2664.0,0.028028723600243666
2663.0,0.027889771597169544
2662.0,0.027843464140506313
2661.0,0.027889771597169544
2660.0,0.02798240132598462
2659.0,0.02812138297373412
2658.0,0.028167720075074953
2657.0,0.028167720075074953
2656.0,0.02812138297373412
2655.0,0.028075050815808744
2654.0,0.028028723600243666
2653.0,0.02798240132598462
2652.0,0.02798240132598462
2651.0,0.02798240132598462
2650.0,0.02798240132598462
2649.0,0.028028723600243666
2648.0,0.028028723600243666
2647.0,0.02798240132598462
2646.0,0.027936083991977778
2645.0,0.027889771597169544
2644.0,0.027843464140506313
2643.0,0.027889771597169544
2642.0,0.027936083991977778
2641.0,0.02798240132598462
2640.0,0.028028723600243666
2639.0,0.028028723600243666
2638.0,0.028028723600243666
2637.0,0.028028723600243666
2636.0,0.02812138297373412
2635.0,0.028167720075074953
2634.0,0.028167720075074953
2633.0,0.028167720075074953
2632.0,0.028075050815808744
2631.0,0.028028723600243666
2630.0,0.02798240132598462
2629.0,0.028028723600243666
2628.0,0.028075050815808744
2627.0,0.028075050815808744
2626.0,0.02812138297373412
2625.0,0.02812138297373412
2624.0,0.02812138297373412
2623.0,0.02812138297373412
2622.0,0.028075050815808744
2621.0,0.028028723600243666
2620.0,0.027936083991977778
2619.0,0.027889771597169544
2618.0,0.027889771597169544
2617.0,0.027889771597169544
2616.0,0.027889771597169544
2615.0,0.027936083991977778
2614.0,0.02798240132598462
2613.0,0.02798240132598462
2612.0,0.02798240132598462
2611.0,0.02798240132598462
2610.0,0.02798240132598462
2609.0,0.02798240132598462
2608.0,0.02798240132598462
2607.0,0.02798240132598462
2606.0,0.02798240132598462
2605.0,0.02798240132598462
2604.0,0.028028723600243666
2603.0,0.028028723600243666
2602.0,0.028075050815808744
2601.0,0.028075050815808744
2600.0,0.028075050815808744
2599.0,0.028075050815808744
2598.0,0.028028723600243666
2597.0,0.028028723600243666
2596.0,0.028028723600243666
2595.0,0.028028723600243666
2594.0,0.028075050815808744
2593.0,0.02812138297373412
2592.0,0.028167720075074953
2591.0,0.028214062120885508
2590.0,0.028167720075074953
2589.0,0.028075050815808744
2588.0,0.02798240132598462
2587.0,0.027936083991977778
2586.0,0.027936083991977778
2585.0,0.027936083991977778
2584.0,0.027936083991977778
2583.0,0.027936083991977778
2582.0,0.027936083991977778
2581.0,0.02798240132598462
2580.0,0.028075050815808744
2579.0,0.02812138297373412
2578.0,0.028075050815808744
2577.0,0.02798240132598462
2576.0,0.027889771597169544
2575.0,0.027843464140506313
2574.0,0.027889771597169544
2573.0,0.027936083991977778
2572.0,0.02798240132598462
2571.0,0.02798240132598462
2570.0,0.027936083991977778
2569.0,0.027936083991977778
2568.0,0.027889771597169544
2567.0,0.027843464140506313
2566.0,0.027843464140506313
2565.0,0.027936083991977778
2564.0,0.028075050815808744
2563.0,0.028167720075074953
2562.0,0.028167720075074953
2561.0,0.02812138297373412
2560.0,0.02798240132598462
2559.0,0.027843464140506313
2558.0,0.027750864037404455
2557.0,0.0277045713888604
2556.0,0.027658283674251827
2555.0,0.027658283674251827
2554.0,0.0277045713888604
2553.0,0.027797161620935595
2552.0,0.027936083991977778
2551.0,0.028028723600243666
2550.0,0.028028723600243666
2549.0,0.028028723600243666
2548.0,0.028028723600243666
2547.0,0.02798240132598462
2546.0,0.027936083991977778
2545.0,0.027889771597169544
2544.0,0.027889771597169544
2543.0,0.027889771597169544
2542.0,0.027936083991977778
2541.0,0.027889771597169544
2540.0,0.027843464140506313
2539.0,0.027843464140506313
2538.0,0.027889771597169544
2537.0,0.027889771597169544
2536.0,0.027843464140506313
2535.0,0.027797161620935595
2534.0,0.027843464140506313
2533.0,0.027936083991977778
2532.0,0.028028723600243666
2531.0,0.02812138297373412
2530.0,0.02812138297373412
2529.0,0.02812138297373412
2528.0,0.028075050815808744
2527.0,0.028075050815808744
2526.0,0.028075050815808744
2525.0,0.028075050815808744
2524.0,0.028075050815808744
2523.0,0.028075050815808744
2522.0,0.028028723600243666
2521.0,0.028075050815808744
2520.0,0.02812138297373412
2519.0,0.02812138297373412
2518.0,0.02812138297373412
2517.0,0.028075050815808744
2516.0,0.028075050815808744
2515.0,0.02812138297373412
2514.0,0.02812138297373412
2513.0,0.028075050815808744
2512.0,0.02798240132598462
2511.0,0.027936083991977778
2510.0,0.027936083991977778
2509.0,0.027936083991977778
2508.0,0.02798240132598462
2507.0,0.028028723600243666
2506.0,0.028075050815808744
2505.0,0.028075050815808744
2504.0,0.02812138297373412
2503.0,0.028167720075074953
2502.0,0.02826040911222183
2501.0,0.028353117935693284
2500.0,0.028353117935693284
2499.0,0.028306761050139073
2498.0,0.028214062120885508
2497.0,0.028167720075074953
2496.0,0.028167720075074953
2495.0,0.028214062120885508
2494.0,0.028214062120885508
2493.0,0.028214062120885508
2492.0,0.028214062120885508
2491.0,0.028214062120885508
2490.0,0.02812138297373412
2489.0,0.028028723600243666
2488.0,0.028028723600243666
2487.0,0.028075050815808744
2486.0,0.028214062120885508
2485.0,0.028353117935693284
2484.0,0.02849221828874393
2483.0,0.02858497661500481
2482.0,0.028538594975413334
2481.0,0.02849221828874393
2480.0,0.02839947976994095
2479.0,0.028306761050139073
2478.0,0.028306761050139073
2477.0,0.028306761050139073
2476.0,0.028306761050139073
2475.0,0.028353117935693284
2474.0,0.028353117935693284
2473.0,0.02839947976994095
2472.0,0.02839947976994095
2471.0,0.02839947976994095
2470.0,0.028445846553939003
2469.0,0.028445846553939003
2468.0,0.028445846553939003
2467.0,0.028445846553939003
2466.0,0.028353117935693284
2465.0,0.028306761050139073
2464.0,0.02826040911222183
2463.0,0.028214062120885508
2462.0,0.028167720075074953
2461.0,0.028167720075074953
2460.0,0.028167720075074953
2459.0,0.028214062120885508
2458.0,0.028306761050139073
2457.0,0.028306761050139073
2456.0,0.028306761050139073
2455.0,0.028306761050139073
2454.0,0.02826040911222183
2453.0,0.028214062120885508
2452.0,0.02812138297373412
2451.0,0.028075050815808744
2450.0,0.02812138297373412
2449.0,0.028214062120885508
2448.0,0.02826040911222183
2447.0,0.028214062120885508
2446.0,0.02812138297373412
2445.0,0.028075050815808744
2444.0,0.02812138297373412
2443.0,0.028214062120885508
2442.0,0.028306761050139073
2441.0,0.028353117935693284
2440.0,0.028306761050139073
2439.0,0.02826040911222183
2438.0,0.02826040911222183
2437.0,0.028306761050139073
2436.0,0.028353117935693284
2435.0,0.028353117935693284
2434.0,0.028306761050139073
2433.0,0.028306761050139073
2432.0,0.028306761050139073
2431.0,0.028306761050139073
2430.0,0.028353117935693284
2429.0,0.028353117935693284
2428.0,0.028353117935693284
2427.0,0.028353117935693284
2426.0,0.02839947976994095
2425.0,0.028445846553939003
2424.0,0.02849221828874393
2423.0,0.02849221828874393
2422.0,0.02849221828874393
2421.0,0.02849221828874393
2420.0,0.028538594975413334
2419.0,0.028538594975413334
2418.0,0.028538594975413334
2417.0,0.02849221828874393
2416.0,0.02849221828874393
2415.0,0.02849221828874393
2414.0,0.028538594975413334
2413.0,0.028538594975413334
2412.0,0.028538594975413334
2411.0,0.02849221828874393
2410.0,0.028445846553939003
2409.0,0.02839947976994095
2408.0,0.02839947976994095
2407.0,0.02839947976994095
2406.0,0.02839947976994095
2405.0,0.028353117935693284
2404.0,0.028306761050139073
2403.0,0.028306761050139073
2402.0,0.028306761050139073
2401.0,0.028353117935693284
2400.0,0.02839947976994095
2399.0,0.028445846553939003
2398.0,0.02849221828874393
2397.0,0.02849221828874393
2396.0,0.02849221828874393
2395.0,0.02849221828874393
2394.0,0.02849221828874393
2393.0,0.028445846553939003
2392.0,0.028445846553939003
2391.0,0.02839947976994095
2390.0,0.02839947976994095
2389.0,0.02839947976994095
2388.0,0.028445846553939003
2387.0,0.02849221828874393
2386.0,0.028538594975413334
2385.0,0.028538594975413334
2384.0,0.02858497661500481
2383.0,0.028677754757187035
2382.0,0.028816959143838528
2381.0,0.02890978686288448
2380.0,0.02890978686288448
2379.0,0.02872415126189476
2378.0,0.028445846553939003
2377.0,0.028306761050139073
2376.0,0.02839947976994095
2375.0,0.02863136320857662
2374.0,0.028863370523193765
2373.0,0.02904906565457588
2372.0,0.029234840219232394
2371.0,0.029513651152349718
2370.0,0.029932203450862893
2369.0,0.030397735151460825
2368.0,0.03067729388779794
2367.0,0.03063068826647264
2366.0,0.03025802323714588
2365.0,0.029467170231675777
2364.0,0.028677754757187035
2363.0,0.02826040911222183
2362.0,0.02849221828874393
2361.0,0.029095501846216454
2360.0,0.029653123769906697
2359.0,0.029978734171634214
2358.0,0.029978734171634214
2357.0,0.029792641193145286
2356.0,0.029467170231675777
2355.0,0.029234840219232394
2354.0,0.029281296279810798
2353.0,0.029467170231675777
2352.0,0.029560137048236124
2351.0,0.029560137048236124
2350.0,0.02960662792039992
2349.0,0.029746130405213123
2348.0,0.029746130405213123
2347.0,0.029653123769906697
2346.0,0.029653123769906697
2345.0,0.029932203450862893
2344.0,0.030071810571884017
2343.0,0.029978734171634214
2342.0,0.029746130405213123
2341.0,0.029653123769906697
2340.0,0.029746130405213123
2339.0,0.029792641193145286
2338.0,0.029792641193145286
2337.0,0.029746130405213123
2336.0,0.029792641193145286
2335.0,0.029885677714903025
2334.0,0.029839156962686353
2333.0,0.029792641193145286
2332.0,0.029839156962686353
2331.0,0.030118356253500123
2330.0,0.030444315779156517
2329.0,0.030490901403433135
2328.0,0.03030458888152676
2327.0,0.030071810571884017
2326.0,0.029978734171634214
2325.0,0.029978734171634214
2324.0,0.029885677714903025
2323.0,0.02969962459782227
2322.0,0.029513651152349718
2321.0,0.02942069428514915
2320.0,0.029374223311705583
2319.0,0.02942069428514915
2318.0,0.02960662792039992
2317.0,0.029885677714903025
2316.0,0.030211462585061133
2315.0,0.030444315779156517
2314.0,0.030537492025363155
2313.0,0.030537492025363155
2312.0,0.030490901403433135
2311.0,0.030397735151460825
2310.0,0.030444315779156517
2309.0,0.030537492025363155
2308.0,0.03063068826647264
2307.0,0.03063068826647264
2306.0,0.030490901403433135
2305.0,0.03030458888152676
2304.0,0.030164906924202484
2303.0,0.030071810571884017
2302.0,0.030118356253500123
2301.0,0.030164906924202484
2300.0,0.030164906924202484
2299.0,0.030164906924202484
2298.0,0.030164906924202484
2297.0,0.030164906924202484
2296.0,0.030118356253500123
2295.0,0.029978734171634214
2294.0,0.029746130405213123
2293.0,0.029560137048236124
2292.0,0.029467170231675777
2291.0,0.029467170231675777
2290.0,0.029513651152349718
2289.0,0.029560137048236124
2288.0,0.029513651152349718
2287.0,0.029467170231675777
2286.0,0.02942069428514915
2285.0,0.029467170231675777
2284.0,0.029467170231675777
2283.0,0.029467170231675777
2282.0,0.02942069428514915
2281.0,0.029374223311705583
2280.0,0.02932775731028059
2279.0,0.02932775731028059
2278.0,0.02932775731028059
2277.0,0.02932775731028059
2276.0,0.02932775731028059
2275.0,0.029281296279810798
2274.0,0.029234840219232394
2273.0,0.029141943003497595
2272.0,0.029141943003497595
2271.0,0.029188389127482228
2270.0,0.029281296279810798
2269.0,0.02932775731028059
2268.0,0.029374223311705583
2267.0,0.029374223311705583
2266.0,0.029374223311705583
2265.0,0.029374223311705583
2264.0,0.02942069428514915
2263.0,0.029467170231675777
2262.0,0.029513651152349718
2261.0,0.029513651152349718
2260.0,0.029560137048236124
2259.0,0.02960662792039992
2258.0,0.029653123769906697
2257.0,0.02960662792039992
2256.0,0.029560137048236124
2255.0,0.029467170231675777
2254.0,0.02942069428514915
2253.0,0.029467170231675777
2252.0,0.029513651152349718
2251.0,0.029560137048236124
2250.0,0.029560137048236124
2249.0,0.029560137048236124
2248.0,0.02960662792039992
2247.0,0.02960662792039992
2246.0,0.02960662792039992
2245.0,0.029653123769906697
2244.0,0.029653123769906697
2243.0,0.029653123769906697
2242.0,0.02960662792039992
2241.0,0.02960662792039992
2240.0,0.02960662792039992
2239.0,0.029560137048236124
2238.0,0.029467170231675777
2237.0,0.029374223311705583
2236.0,0.02932775731028059
2235.0,0.02932775731028059
2234.0,0.029374223311705583
2233.0,0.02942069428514915
2232.0,0.029467170231675777
2231.0,0.029513651152349718
2230.0,0.029560137048236124
2229.0,0.02960662792039992
2228.0,0.029560137048236124
2227.0,0.029560137048236124
2226.0,0.02960662792039992
2225.0,0.02969962459782227
2224.0,0.029746130405213123
2223.0,0.029792641193145286
2222.0,0.029746130405213123
2221.0,0.029653123769906697
2220.0,0.029560137048236124
2219.0,0.029560137048236124
2218.0,0.02960662792039992
2217.0,0.029653123769906697
2216.0,0.02969962459782227
2215.0,0.029792641193145286
2214.0,0.029839156962686353
2213.0,0.029839156962686353
2212.0,0.029839156962686353
2211.0,0.029839156962686353
2210.0,0.029792641193145286
2209.0,0.029839156962686353
2208.0,0.029839156962686353
2207.0,0.029792641193145286
2206.0,0.02969962459782227
2205.0,0.029653123769906697
2204.0,0.02960662792039992
2203.0,0.029653123769906697
2202.0,0.029746130405213123
2201.0,0.029792641193145286
2200.0,0.029746130405213123
2199.0,0.02969962459782227
2198.0,0.02969962459782227
2197.0,0.029746130405213123
2196.0,0.029839156962686353
2195.0,0.029885677714903025
2194.0,0.029839156962686353
2193.0,0.029839156962686353
2192.0,0.029792641193145286
2191.0,0.029839156962686353
2190.0,0.029839156962686353
2189.0,0.029885677714903025
2188.0,0.029932203450862893
2187.0,0.029978734171634214
2186.0,0.029978734171634214
2185.0,0.029885677714903025
2184.0,0.029746130405213123
2183.0,0.029653123769906697
2182.0,0.029653123769906697
2181.0,0.029746130405213123
2180.0,0.029839156962686353
2179.0,0.029932203450862893
2178.0,0.03002526987828502
2177.0,0.03002526987828502
2176.0,0.029932203450862893
2175.0,0.029792641193145286
2174.0,0.02969962459782227
2173.0,0.02969962459782227
2172.0,0.029746130405213123
2171.0,0.029839156962686353
2170.0,0.029885677714903025
2169.0,0.029885677714903025
2168.0,0.029885677714903025
2167.0,0.029885677714903025
2166.0,0.029885677714903025
2165.0,0.029932203450862893
2164.0,0.029978734171634214
2163.0,0.029978734171634214
2162.0,0.03002526987828502
2161.0,0.029978734171634214
2160.0,0.029978734171634214
2159.0,0.029932203450862893
2158.0,0.029978734171634214
2157.0,0.03002526987828502
2156.0,0.030071810571884017
2155.0,0.030071810571884017
2154.0,0.03002526987828502
2153.0,0.029932203450862893
2152.0,0.029885677714903025
2151.0,0.029839156962686353
2150.0,0.029885677714903025
2149.0,0.029978734171634214
2148.0,0.030071810571884017
2147.0,0.030071810571884017
2146.0,0.03002526987828502
2145.0,0.029978734171634214
2144.0,0.029978734171634214
2143.0,0.029978734171634214
2142.0,0.029932203450862893
2141.0,0.029932203450862893
2140.0,0.029932203450862893
2139.0,0.029978734171634214
2138.0,0.029978734171634214
2137.0,0.029932203450862893
2136.0,0.029932203450862893
2135.0,0.029885677714903025
2134.0,0.029885677714903025
2133.0,0.029932203450862893
2132.0,0.03002526987828502
2131.0,0.030071810571884017
2130.0,0.030118356253500123
2129.0,0.030118356253500123
2128.0,0.03002526987828502
2127.0,0.029932203450862893
2126.0,0.029885677714903025
2125.0,0.029885677714903025
2124.0,0.029885677714903025
2123.0,0.029885677714903025
2122.0,0.029932203450862893
2121.0,0.029978734171634214
2120.0,0.030071810571884017
2119.0,0.030164906924202484
2118.0,0.030164906924202484
2117.0,0.030118356253500123
2116.0,0.030071810571884017
2115.0,0.03002526987828502
2114.0,0.029978734171634214
2113.0,0.03002526987828502
2112.0,0.030071810571884017
2111.0,0.030164906924202484
2110.0,0.030211462585061133
2109.0,0.03025802323714588
2108.0,0.03025802323714588
2107.0,0.030211462585061133
2106.0,0.030164906924202484
2105.0,0.030164906924202484
2104.0,0.030118356253500123
2103.0,0.030118356253500123
2102.0,0.030118356253500123
2101.0,0.030118356253500123
2100.0,0.030118356253500123
2099.0,0.030118356253500123
2098.0,0.030118356253500123
2097.0,0.030164906924202484
2096.0,0.030118356253500123
2095.0,0.030118356253500123
2094.0,0.030071810571884017
2093.0,0.03002526987828502
2092.0,0.029978734171634214
2091.0,0.029978734171634214
2090.0,0.029978734171634214
2089.0,0.029978734171634214
2088.0,0.029978734171634214
2087.0,0.029978734171634214
2086.0,0.03002526987828502
2085.0,0.03002526987828502
2084.0,0.030071810571884017
2083.0,0.030071810571884017
2082.0,0.030071810571884017
2081.0,0.030118356253500123
2080.0,0.030164906924202484
2079.0,0.030211462585061133
2078.0,0.03025802323714588
2077.0,0.03025802323714588
2076.0,0.030211462585061133
2075.0,0.030118356253500123
2074.0,0.029978734171634214
2073.0,0.029839156962686353
2072.0,0.029792641193145286
2071.0,0.029839156962686353
2070.0,0.029932203450862893
2069.0,0.029978734171634214
2068.0,0.029978734171634214
2067.0,0.029978734171634214
2066.0,0.029978734171634214
2065.0,0.03002526987828502
2064.0,0.030071810571884017
2063.0,0.030118356253500123
2062.0,0.030118356253500123
2061.0,0.030118356253500123
2060.0,0.030164906924202484
2059.0,0.030211462585061133
2058.0,0.03025802323714588
2057.0,0.03025802323714588
2056.0,0.03030458888152676
2055.0,0.03030458888152676
2054.0,0.030211462585061133
2053.0,0.030118356253500123
2052.0,0.03002526987828502
2051.0,0.03002526987828502
2050.0,0.030071810571884017
2049.0,0.030164906924202484
2048.0,0.030211462585061133
2047.0,0.030211462585061133
2046.0,0.030164906924202484
2045.0,0.030164906924202484
2044.0,0.030164906924202484
2043.0,0.030164906924202484
2042.0,0.030211462585061133
2041.0,0.03025802323714588
2040.0,0.03030458888152676
2039.0,0.03025802323714588
2038.0,0.030211462585061133
2037.0,0.030211462585061133
2036.0,0.030164906924202484
2035.0,0.030164906924202484
2034.0,0.030118356253500123
2033.0,0.030118356253500123
2032.0,0.030071810571884017
2031.0,0.030071810571884017
2030.0,0.030071810571884017
2029.0,0.030118356253500123
2028.0,0.030118356253500123
2027.0,0.030118356253500123
2026.0,0.03002526987828502
2025.0,0.029978734171634214
2024.0,0.029978734171634214
2023.0,0.029978734171634214
2022.0,0.03002526987828502
2021.0,0.03002526987828502
2020.0,0.03002526987828502
2019.0,0.029978734171634214
2018.0,0.029885677714903025
2017.0,0.029885677714903025
2016.0,0.029932203450862893
2015.0,0.03002526987828502
2014.0,0.030071810571884017
2013.0,0.030118356253500123
2012.0,0.030118356253500123
2011.0,0.030071810571884017
2010.0,0.030071810571884017
2009.0,0.030118356253500123
2008.0,0.030118356253500123
2007.0,0.030071810571884017
2006.0,0.03002526987828502
2005.0,0.029978734171634214
2004.0,0.029978734171634214
2003.0,0.03002526987828502
2002.0,0.03002526987828502
2001.0,0.030071810571884017
2000.0,0.030118356253500123
1999.0,0.030118356253500123
1998.0,0.030118356253500123
1997.0,0.030118356253500123
1996.0,0.030118356253500123
1995.0,0.030118356253500123
1994.0,0.030071810571884017
1993.0,0.030071810571884017
1992.0,0.030118356253500123
1991.0,0.030211462585061133
1990.0,0.03025802323714588
1989.0,0.03025802323714588
1988.0,0.030118356253500123
1987.0,0.03002526987828502
1986.0,0.029932203450862893
1985.0,0.029932203450862893
1984.0,0.029978734171634214
1983.0,0.03002526987828502
1982.0,0.030071810571884017
1981.0,0.030118356253500123
1980.0,0.030118356253500123
1979.0,0.030071810571884017
1978.0,0.030071810571884017
1977.0,0.030118356253500123
1976.0,0.030164906924202484
1975.0,0.03025802323714588
1974.0,0.03025802323714588
1973.0,0.03025802323714588
1972.0,0.030211462585061133
1971.0,0.030211462585061133
1970.0,0.030211462585061133
1969.0,0.030211462585061133
1968.0,0.03025802323714588
1967.0,0.030351159519274695
1966.0,0.030490901403433135
1965.0,0.03063068826647264
1964.0,0.0307239045110681
1963.0,0.030770520137356927
1962.0,0.03081714076773867
1961.0,0.030863766403287585
1960.0,0.030910397045078586
1959.0,0.030957032694186815
1958.0,0.030957032694186815
1957.0,0.030957032694186815
1956.0,0.03105031901865729
1955.0,0.031143625385307683
1954.0,0.03133029827960798
1953.0,0.03147035562516054
1952.0,0.031563752288295444
1951.0,0.03161045815293173
1950.0,0.031657169041054534
1949.0,0.03175060589208267
1948.0,0.03184406285002961
1947.0,0.031984286006358165
1946.0,0.03207779326948268
1945.0,0.032218091924200776
1944.0,0.03235843591698884
1943.0,0.03249882527715853
1942.0,0.032592443402527316
1941.0,0.032592443402527316
1940.0,0.03263926003405038
1939.0,0.032592443402527316
1938.0,0.032545631817259224
1937.0,0.03240522732811035
1936.0,0.032311649546687526
1935.0,0.032218091924200776
1934.0,0.032124554451966825
1933.0,0.031984286006358165
1932.0,0.03184406285002961
1931.0,0.03170388495374454
1930.0,0.031563752288295444
1929.0,0.03147035562516054
1928.0,0.03137697904301118
1927.0,0.03133029827960798
1926.0,0.031236951802751545
1925.0,0.031143625385307683
1924.0,0.03105031901865729
1923.0,0.031003673351687855
1922.0,0.03105031901865729
1921.0,0.031096969696171817
1920.0,0.031143625385307683
1919.0,0.031096969696171817
1918.0,0.031003673351687855
1917.0,0.030910397045078586
1916.0,0.03081714076773867
1915.0,0.0307239045110681
1914.0,0.03063068826647264
1913.0,0.03058408764601861
1912.0,0.030537492025363155
1911.0,0.030490901403433135
1910.0,0.030537492025363155
1909.0,0.030537492025363155
1908.0,0.030537492025363155
1907.0,0.030537492025363155
1906.0,0.030490901403433135
1905.0,0.030444315779156517
1904.0,0.030397735151460825
1903.0,0.030444315779156517
1902.0,0.030490901403433135
1901.0,0.03058408764601861
1900.0,0.030537492025363155
1899.0,0.030490901403433135
1898.0,0.030444315779156517
1897.0,0.030397735151460825
1896.0,0.030444315779156517
1895.0,0.030537492025363155
1894.0,0.03063068826647264
1893.0,0.0307239045110681
1892.0,0.030770520137356927
1891.0,0.03081714076773867
1890.0,0.030957032694186815
1889.0,0.031096969696171817
1888.0,0.031143625385307683
1887.0,0.031190286087141805
1886.0,0.03128362253321426
1885.0,0.03147035562516054
1884.0,0.03161045815293173
1883.0,0.03170388495374454
1882.0,0.03179733185715028
1881.0,0.03184406285002961
1880.0,0.03184406285002961
1879.0,0.03189079887180224
1878.0,0.03193753992355086
1877.0,0.031984286006358165
1876.0,0.032031037121307726
1875.0,0.03207779326948268
1874.0,0.032124554451966825
1873.0,0.032124554451966825
1872.0,0.03207779326948268
1871.0,0.031984286006358165
1870.0,0.03189079887180224
1869.0,0.031984286006358165
1868.0,0.032124554451966825
1867.0,0.032218091924200776
1866.0,0.032311649546687526
1865.0,0.03235843591698884
1864.0,0.032311649546687526
1863.0,0.03226486821611996
1862.0,0.03217132066984485
1861.0,0.031984286006358165
1860.0,0.03184406285002961
1859.0,0.03170388495374454
1858.0,0.031657169041054534
1857.0,0.031657169041054534
1856.0,0.03161045815293173
1855.0,0.03151705144606498
1854.0,0.03137697904301118
1853.0,0.031236951802751545
1852.0,0.031096969696171817
1851.0,0.03105031901865729
1850.0,0.031003673351687855
1849.0,0.030910397045078586
1848.0,0.03081714076773867
1847.0,0.030770520137356927
1846.0,0.030770520137356927
1845.0,0.03081714076773867
1844.0,0.03081714076773867
1843.0,0.0307239045110681
1842.0,0.03063068826647264
1841.0,0.03058408764601861
1840.0,0.030490901403433135
1839.0,0.030351159519274695
1838.0,0.03030458888152676
1837.0,0.030351159519274695
1836.0,0.030351159519274695
1835.0,0.03030458888152676
1834.0,0.03025802323714588
1833.0,0.03025802323714588
1832.0,0.03025802323714588
1831.0,0.030211462585061133
1830.0,0.03025802323714588
1829.0,0.03030458888152676
1828.0,0.030397735151460825
1827.0,0.030537492025363155
1826.0,0.030537492025363155
1825.0,0.030537492025363155
1824.0,0.03058408764601861
1823.0,0.03063068826647264
1822.0,0.030770520137356927
1821.0,0.030863766403287585
1820.0,0.030957032694186815
1819.0,0.031003673351687855
1818.0,0.031003673351687855
1817.0,0.03105031901865729
1816.0,0.031143625385307683
1815.0,0.031236951802751545
1814.0,0.03128362253321426
1813.0,0.03133029827960798
1812.0,0.03142366482450232
1811.0,0.03151705144606498
1810.0,0.03161045815293173
1809.0,0.03170388495374454
1808.0,0.03179733185715028
1807.0,0.03189079887180224
1806.0,0.031984286006358165
1805.0,0.032031037121307726
1804.0,0.031984286006358165
1803.0,0.03189079887180224
1802.0,0.03184406285002961
1801.0,0.03193753992355086
1800.0,0.03207779326948268
1799.0,0.032124554451966825
1798.0,0.03207779326948268
1797.0,0.032031037121307726
1796.0,0.03193753992355086
1795.0,0.03179733185715028
1794.0,0.031657169041054534
1793.0,0.031563752288295444
1792.0,0.03151705144606498
1791.0,0.03147035562516054
1790.0,0.03147035562516054
1789.0,0.03147035562516054
1788.0,0.03137697904301118
1787.0,0.031236951802751545
1786.0,0.031143625385307683
1785.0,0.031096969696171817
1784.0,0.03105031901865729
1783.0,0.030957032694186815
1782.0,0.030863766403287585
1781.0,0.03081714076773867
1780.0,0.030770520137356927
1779.0,0.030770520137356927
1778.0,0.03067729388779794
1777.0,0.03058408764601861
1776.0,0.030537492025363155
1775.0,0.030490901403433135
1774.0,0.030444315779156517
1773.0,0.030397735151460825
1772.0,0.030444315779156517
1771.0,0.03058408764601861
1770.0,0.030770520137356927
1769.0,0.031003673351687855
1768.0,0.031096969696171817
1767.0,0.030957032694186815
1766.0,0.030770520137356927
1765.0,0.03063068826647264
1764.0,0.03058408764601861
1763.0,0.03058408764601861
1762.0,0.03067729388779794
1761.0,0.030770520137356927
1760.0,0.03081714076773867
1759.0,0.030910397045078586
1758.0,0.031003673351687855
1757.0,0.031143625385307683
1756.0,0.031236951802751545
1755.0,0.03137697904301118
1754.0,0.03142366482450232
1753.0,0.03142366482450232
1752.0,0.03142366482450232
1751.0,0.03151705144606498
1750.0,0.03170388495374454
1749.0,0.03193753992355086
1748.0,0.032218091924200776
1747.0,0.03249882527715853
1746.0,0.03263926003405038
1745.0,0.03282657704446046
1744.0,0.033060836978886954
1743.0,0.03334211579824231
1742.0,0.033482823553208085
1741.0,0.03362357691107709
1740.0,0.03367050483612166
1739.0,0.03367050483612166
1738.0,0.03371743783253667
1737.0,0.0338113190438627
1736.0,0.03376437590141812
1735.0,0.03376437590141812
1734.0,0.0338113190438627
1733.0,0.03371743783253667
1732.0,0.03357665405630694
1731.0,0.03357665405630694
1730.0,0.033482823553208085
1729.0,0.033295223342125535
1728.0,0.033154576345083564
1727.0,0.03301397488206215
1726.0,0.032873418923587305
1725.0,0.032686081712916426
1724.0,0.032592443402527316
1723.0,0.03245202378113787
1722.0,0.032311649546687526
1721.0,0.032218091924200776
1720.0,0.031984286006358165
1719.0,0.03161045815293173
1718.0,0.03137697904301118
1717.0,0.03147035562516054
1716.0,0.031563752288295444
1715.0,0.031657169041054534
1714.0,0.03175060589208267
1713.0,0.03175060589208267
1712.0,0.031657169041054534
1711.0,0.03151705144606498
1710.0,0.03133029827960798
1709.0,0.031190286087141805
1708.0,0.03105031901865729
1707.0,0.030910397045078586
1706.0,0.03081714076773867
1705.0,0.030863766403287585
1704.0,0.03105031901865729
1703.0,0.03137697904301118
1702.0,0.031563752288295444
1701.0,0.031563752288295444
1700.0,0.03147035562516054
1699.0,0.031236951802751545
1698.0,0.03133029827960798
1697.0,0.031657169041054534
1696.0,0.03179733185715028
1695.0,0.031563752288295444
1694.0,0.03137697904301118
1693.0,0.03137697904301118
1692.0,0.03137697904301118
1691.0,0.031190286087141805
1690.0,0.03105031901865729
1689.0,0.031003673351687855
1688.0,0.031096969696171817
1687.0,0.031236951802751545
1686.0,0.031190286087141805
1685.0,0.03128362253321426
1684.0,0.03161045815293173
1683.0,0.031563752288295444
1682.0,0.031657169041054534
1681.0,0.03175060589208267
1680.0,0.03175060589208267
1679.0,0.03175060589208267
1678.0,0.03179733185715028
1677.0,0.03179733185715028
1676.0,0.03189079887180224
1675.0,0.032031037121307726
1674.0,0.03207779326948268
1673.0,0.032031037121307726
1672.0,0.032031037121307726
1671.0,0.03207779326948268
1670.0,0.03226486821611996
1669.0,0.03240522732811035
1668.0,0.03235843591698884
1667.0,0.032311649546687526
1666.0,0.032311649546687526
1665.0,0.03226486821611996
1664.0,0.03217132066984485
1663.0,0.032218091924200776
1662.0,0.03235843591698884
1661.0,0.03235843591698884
1660.0,0.03235843591698884
1659.0,0.032311649546687526
1658.0,0.03217132066984485
1657.0,0.03207779326948268
1656.0,0.03207779326948268
1655.0,0.03193753992355086
1654.0,0.031984286006358165
1653.0,0.03207779326948268
1652.0,0.03147035562516054
1651.0,0.031236951802751545
1650.0,0.03128362253321426
1649.0,0.031143625385307683
1648.0,0.030957032694186815
1647.0,0.031143625385307683
1646.0,0.03137697904301118
1645.0,0.03137697904301118
1644.0,0.03137697904301118
1643.0,0.03133029827960798
1642.0,0.03128362253321426
1641.0,0.031143625385307683
1640.0,0.030957032694186815
1639.0,0.03081714076773867
1638.0,0.03067729388779794
1637.0,0.03058408764601861
1636.0,0.0307239045110681
1635.0,0.030770520137356927
1634.0,0.03063068826647264
1633.0,0.03063068826647264
1632.0,0.03058408764601861
1631.0,0.030537492025363155
1630.0,0.030490901403433135
1629.0,0.030397735151460825
1628.0,0.030351159519274695
1627.0,0.03030458888152676
1626.0,0.03025802323714588
1625.0,0.030164906924202484
1624.0,0.030118356253500123
1623.0,0.03002526987828502
1622.0,0.029932203450862893
1621.0,0.029792641193145286
1620.0,0.029792641193145286
1619.0,0.029792641193145286
1618.0,0.029792641193145286
1617.0,0.029792641193145286
1616.0,0.02960662792039992
1615.0,0.029467170231675777
1614.0,0.029513651152349718
1613.0,0.02960662792039992
1612.0,0.02969962459782227
1611.0,0.03002526987828502
1610.0,0.03063068826647264
1609.0,0.03151705144606498
1608.0,0.03282657704446046
1607.0,0.034469056377139484
1606.0,0.036542739883292485
1605.0,0.038816290187564384
1604.0,0.041340572947066834
1603.0,0.043735497301724546
1602.0,0.045516282844447975
1601.0,0.04633693625290869
1600.0,0.046143701775014145
1599.0,0.0451788169482068
1598.0,0.04368746915880539
1597.0,0.04200982159316968
1596.0,0.04043395336207234
1595.0,0.03919637508823026
1594.0,0.038199360808321536
1593.0,0.03739392707587297
1592.0,0.036731748473764814
1591.0,0.03616496929785207
1590.0,0.035740369803151095
1589.0,0.03541041251009669
1588.0,0.035363296211498474
1587.0,0.035693217696063595
1586.0,0.03630659476198117
1585.0,0.03701541568300293
1584.0,0.037583306554248797
1583.0,0.03786753070176463
1582.0,0.03763066432997886
1581.0,0.03692083935817303
1580.0,0.03616496929785207
1579.0,0.03545753392086315
1578.0,0.03475124903287918
1577.0,0.03409308450480819
1576.0,0.03362357691107709
1575.0,0.033295223342125535
1574.0,0.03310770413286357
1573.0,0.0329671178412978
1572.0,0.03273290844021437
1571.0,0.03240522732811035
1570.0,0.032218091924200776
1569.0,0.032124554451966825
1568.0,0.03207779326948268
1567.0,0.032031037121307726
1566.0,0.03184406285002961
1565.0,0.031563752288295444
1564.0,0.03142366482450232
1563.0,0.03151705144606498
1562.0,0.031657169041054534
1561.0,0.03137697904301118
1560.0,0.030863766403287585
1559.0,0.031190286087141805
1558.0,0.03128362253321426
1557.0,0.031236951802751545
1556.0,0.03133029827960798
1555.0,0.03137697904301118
1554.0,0.031236951802751545
1553.0,0.031096969696171817
1552.0,0.03105031901865729
1551.0,0.031096969696171817
1550.0,0.031190286087141805
1549.0,0.03128362253321426
1548.0,0.03128362253321426
1547.0,0.031236951802751545
1546.0,0.031003673351687855
1545.0,0.0307239045110681
1544.0,0.03063068826647264
1543.0,0.03067729388779794
1542.0,0.03067729388779794
1541.0,0.030910397045078586
1540.0,0.03128362253321426
1539.0,0.031143625385307683
1538.0,0.030863766403287585
1537.0,0.03081714076773867
1536.0,0.03081714076773867
1535.0,0.03063068826647264
1534.0,0.030444315779156517
1533.0,0.03030458888152676
1532.0,0.030211462585061133
1531.0,0.030118356253500123
1530.0,0.029885677714903025
1529.0,0.02960662792039992
1528.0,0.029374223311705583
1527.0,0.029234840219232394
1526.0,0.029095501846216454
1525.0,0.028956208163971375
1524.0,0.028863370523193765
1523.0,0.02872415126189476
1522.0,0.028677754757187035
1521.0,0.028677754757187035
1520.0,0.02858497661500481
1519.0,0.02849221828874393
1518.0,0.028306761050139073
1517.0,0.028167720075074953
1516.0,0.02812138297373412
1515.0,0.02812138297373412
1514.0,0.028028723600243666
1513.0,0.027843464140506313
1512.0,0.027565723042634938
1511.0,0.02724191609646076
1510.0,0.026872146400301444
1509.0,0.026410376572743033
1508.0,0.025995203102585407
1507.0,0.025995203102585407
1506.0,0.025856900097785074
1505.0,0.025672564576383117
1504.0,0.025764722556973707
1503.0,0.025995203102585407
1502.0,0.02617967564731627
1501.0,0.026595025589939425
1500.0,0.02751945012352408
1499.0,0.02969962459782227
1498.0,0.03437503289075727
1497.0,0.04287180232318688
1496.0,0.053596866100945384
1495.0,0.06318476880236723
1494.0,0.06981534770138009
1493.0,0.07334892291111106
1492.0,0.07350321072677968
1491.0,0.0699173666076287
1490.0,0.06363708040225546
1489.0,0.05729763111133224
1488.0,0.05261529831525902
1487.0,0.049148541111453614
1486.0,0.04643358574299339
1485.0,0.04421607108308856
1484.0,0.042344833056508824
1483.0,0.04062466342415694
1482.0,0.03919637508823026
1481.0,0.03810452633214956
1480.0,0.03720463014276687
1479.0,0.036401037402758574
1478.0,0.035693217696063595
1477.0,0.03503362516890207
1476.0,0.034516075754861264
1475.0,0.03399914237121604
1474.0,0.03357665405630694
1473.0,0.033482823553208085
1472.0,0.033482823553208085
1471.0,0.03334211579824231
1470.0,0.033201453616638954
1469.0,0.033154576345083564
1468.0,0.033154576345083564
1467.0,0.03310770413286357
1466.0,0.032920265855503006
1465.0,0.03277974021703267
1464.0,0.03263926003405038
1463.0,0.03235843591698884
1462.0,0.032124554451966825
1461.0,0.03193753992355086
1460.0,0.032031037121307726
1459.0,0.032920265855503006
1458.0,0.0371100126082089
1457.0,0.046192002334692894
1456.0,0.05610995175152733
1455.0,0.06373765809652254
1454.0,0.06986635415888243
1453.0,0.07463633264589853
1452.0,0.07727454200674
1451.0,0.07727454200674
1450.0,0.07541061433058172
1449.0,0.07268097504034388
1448.0,0.0699173666076287
1447.0,0.06747550294945781
1446.0,0.0654005617819271
1445.0,0.06353652599525317
1444.0,0.061580354206806964
1443.0,0.05963295401433477
1442.0,0.057743849580535134
1441.0,0.05606053552778367
1440.0,0.05458065739693696
1439.0,0.05325306496641513
1438.0,0.05197846685889629
1437.0,0.0506099933550872
1436.0,0.04919717703534143
1435.0,0.0478374257855374
1434.0,0.04667530361081473
1433.0,0.045516282844447975
1432.0,0.044312249686494276
1431.0,0.04315950984076644
1430.0,0.04224908912272074
1429.0,0.041483896576958834
1428.0,0.04091088563260792
1427.0,0.040338629726504704
1426.0,0.03981472339538916
1425.0,0.039338992729018196
1424.0,0.038958783046687984
1423.0,0.038721320914956836
1422.0,0.03848398855105106
1421.0,0.038151940981675736
1420.0,0.03786753070176463
1419.0,0.03782014709123227
1418.0,0.03782014709123227
1417.0,0.03772539537668518
1416.0,0.03763066432997886
1415.0,0.03744126420403626
1414.0,0.03720463014276687
1413.0,0.03701541568300293
1412.0,0.03682628362474838
1411.0,0.036731748473764814
1410.0,0.03668448861388862
1409.0,0.036542739883292485
1408.0,0.036401037402758574
1407.0,0.03621217265444465
1406.0,0.0360705779734416
1405.0,0.03602339000339416
1404.0,0.0360705779734416
1403.0,0.03602339000339416
1402.0,0.03588185684851508
1401.0,0.03559892883726867
1400.0,0.03531618502395939
1399.0,0.03517488211661135
1398.0,0.03517488211661135
1397.0,0.03526907894637077
1396.0,0.03550466044490741
1395.0,0.03583468937826462
1394.0,0.0360705779734416
1393.0,0.03616496929785207
1392.0,0.036117771071222604
1391.0,0.03616496929785207
1390.0,0.03621217265444465
1389.0,0.03635381351515665
1388.0,0.03668448861388862
1387.0,0.0371573187987575
1386.0,0.03763066432997886
1385.0,0.038057116858612794
1384.0,0.038341651362284734
1383.0,0.03862637240519895
1382.0,0.038911280232103884
1381.0,0.03919637508823026
1380.0,0.03957679292217042
1379.0,0.03995754427315856
1378.0,0.040243327009005014
1377.0,0.04043395336207234
1376.0,0.04062466342415694
1375.0,0.04091088563260792
1374.0,0.04129280891271536
1373.0,0.04153168163305643
1372.0,0.041579471947481794
1371.0,0.041483896576958834
1370.0,0.04129280891271536
1369.0,0.041149548320321694
1368.0,0.04105406750606355
1367.0,0.041006334969674096
1366.0,0.040958607678906356
1365.0,0.04091088563260792
1364.0,0.04086316882962593
1363.0,0.04091088563260792
1362.0,0.041006334969674096
1361.0,0.04091088563260792
1360.0,0.04072004986906119
1359.0,0.040529297924893015
1358.0,0.040338629726504704
1357.0,0.04019568349166214
1356.0,0.0400527842915015
1355.0,0.03986232513620536
1354.0,0.039767126871487646
1353.0,0.03967194946985697
1352.0,0.03962436858984186
1351.0,0.03967194946985697
1350.0,0.039719535563357944
1349.0,0.039767126871487646
1348.0,0.039719535563357944
1347.0,0.03962436858984186
1346.0,0.03948165721929198
1345.0,0.039338992729018196
1344.0,0.03919637508823026
1343.0,0.038958783046687984
1342.0,0.038721320914956836
1341.0,0.038436537637930535
1340.0,0.03824678581321739
1339.0,0.038151940981675736
1338.0,0.038151940981675736
1337.0,0.038199360808321536
1336.0,0.03824678581321739
1335.0,0.03838909190871931
1334.0,0.03857890593355173
1333.0,0.038816290187564384
1332.0,0.03905380426616856
1331.0,0.03924390909822728
1330.0,0.03943409718180235
1329.0,0.03952922246570112
1328.0,0.03962436858984186
1327.0,0.03962436858984186
1326.0,0.03962436858984186
1325.0,0.03952922246570112
1324.0,0.03943409718180235
1323.0,0.03929144831144349
1322.0,0.03914884628031379
1321.0,0.03905380426616856
1320.0,0.039006291057664066
1319.0,0.03905380426616856
1318.0,0.03914884628031379
1317.0,0.03924390909822728
1316.0,0.039338992729018196
1315.0,0.03943409718180235
1314.0,0.03957679292217042
1313.0,0.03967194946985697
1312.0,0.039719535563357944
1311.0,0.039719535563357944
1310.0,0.039719535563357944
1309.0,0.039719535563357944
1308.0,0.03962436858984186
1307.0,0.03952922246570112
1306.0,0.03943409718180235
1305.0,0.039338992729018196
1304.0,0.03919637508823026
1303.0,0.03910132267333921
1302.0,0.038958783046687984
1301.0,0.03876880295533702
1300.0,0.03862637240519895
1299.0,0.03848398855105106
1298.0,0.038341651362284734
1297.0,0.03829421599749461
1296.0,0.03824678581321739
1295.0,0.03829421599749461
1294.0,0.03829421599749461
1293.0,0.03824678581321739
1292.0,0.038199360808321536
1291.0,0.03810452633214956
1290.0,0.03800971255993524
1289.0,0.03791491948264003
1288.0,0.03782014709123227
1287.0,0.03772539537668518
1286.0,0.03767802727041558
1285.0,0.03767802727041558
1284.0,0.03767802727041558
1283.0,0.03767802727041558
1282.0,0.03767802727041558
1281.0,0.03763066432997886
1280.0,0.03753595394209874
1279.0,0.03744126420403626
1278.0,0.037299268295658994
1277.0,0.03720463014276687
1276.0,0.0371100126082089
1275.0,0.03701541568300293
1274.0,0.03692083935817303
1273.0,0.03682628362474838
1272.0,0.036779013477011624
1271.0,0.03668448861388862
1270.0,0.03663723389626394
1269.0,0.03658998431977123
1268.0,0.03658998431977123
1267.0,0.03658998431977123
1266.0,0.03658998431977123
1265.0,0.03663723389626394
1264.0,0.03663723389626394
1263.0,0.03658998431977123
1262.0,0.036542739883292485
1261.0,0.03649550058570927
1260.0,0.03649550058570927
1259.0,0.03649550058570927
1258.0,0.036542739883292485
1257.0,0.036542739883292485
1256.0,0.03649550058570927
1255.0,0.03644826642590382
1254.0,0.036401037402758574
1253.0,0.03635381351515665
1252.0,0.03635381351515665
1251.0,0.036401037402758574
1250.0,0.03644826642590382
1249.0,0.03644826642590382
1248.0,0.03644826642590382
1247.0,0.036401037402758574
1246.0,0.03635381351515665
1245.0,0.036401037402758574
1244.0,0.03644826642590382
1243.0,0.03649550058570927
1242.0,0.03649550058570927
1241.0,0.036401037402758574
1240.0,0.03630659476198117
1239.0,0.03616496929785207
1238.0,0.036117771071222604
1237.0,0.036117771071222604
1236.0,0.036117771071222604
1235.0,0.036117771071222604
1234.0,0.0360705779734416
1233.0,0.03592902944204468
1232.0,0.03578752703018084
1231.0,0.035740369803151095
1230.0,0.035740369803151095
1229.0,0.035740369803151095
1228.0,0.035693217696063595
1227.0,0.03559892883726867
1226.0,0.03545753392086315
1225.0,0.03531618502395939
1224.0,0.03522197797762394
1223.0,0.03512779136222477
1222.0,0.03508070571335731
1221.0,0.03503362516890207
1220.0,0.03489241415094413
1219.0,0.03479829897408804
1218.0,0.03475124903287918
1217.0,0.03475124903287918
1216.0,0.03475124903287918
1215.0,0.03470420418834386
1214.0,0.03465716443937783
1213.0,0.03461012978487776
1212.0,0.03456310022373987
1211.0,0.03461012978487776
1210.0,0.03465716443937783
1209.0,0.03470420418834386
1208.0,0.03475124903287918
1207.0,0.03484535401307465
1206.0,0.0349394793888016
1205.0,0.03508070571335731
1204.0,0.03522197797762394
1203.0,0.03541041251009669
1202.0,0.03559892883726867
1201.0,0.03578752703018084
1200.0,0.03597620715996652
1199.0,0.03616496929785207
1198.0,0.03625938114211591
1197.0,0.03630659476198117
1196.0,0.036401037402758574
1195.0,0.03649550058570927
1194.0,0.03658998431977123
1193.0,0.03663723389626394
1192.0,0.03663723389626394
1191.0,0.03663723389626394
1190.0,0.03663723389626394
1189.0,0.036731748473764814
1188.0,0.03692083935817303
1187.0,0.037251946641359446
1186.0,0.03767802727041558
1185.0,0.03824678581321739
1184.0,0.03886378261277468
1183.0,0.03948165721929198
1182.0,0.0400527842915015
1181.0,0.04038628892895613
1180.0,0.04043395336207234
1179.0,0.04010041213405646
1178.0,0.03952922246570112
1177.0,0.038911280232103884
1176.0,0.038341651362284734
1175.0,0.03786753070176463
1174.0,0.03753595394209874
1173.0,0.037299268295658994
1172.0,0.03701541568300293
1171.0,0.03682628362474838
1170.0,0.036731748473764814
1169.0,0.03663723389626394
1168.0,0.03649550058570927
1167.0,0.03635381351515665
1166.0,0.03625938114211591
1165.0,0.03621217265444465
1164.0,0.03621217265444465
1163.0,0.03625938114211591
1162.0,0.03644826642590382
1161.0,0.03668448861388862
1160.0,0.037062711569998186
1159.0,0.03763066432997886
1158.0,0.038341651362284734
1157.0,0.03914884628031379
1156.0,0.039909932095080425
1155.0,0.040481623027001756
1154.0,0.04072004986906119
1153.0,0.04062466342415694
1152.0,0.04010041213405646
1151.0,0.03938654235209116
1150.0,0.03862637240519895
1149.0,0.03791491948264003
1148.0,0.037299268295658994
1147.0,0.036779013477011624
1146.0,0.03630659476198117
1145.0,0.03583468937826462
1144.0,0.03545753392086315
1143.0,0.03522197797762394
1142.0,0.03503362516890207
1141.0,0.03484535401307465
1140.0,0.034516075754861264
1139.0,0.03423403581731388
1138.0,0.03399914237121604
1137.0,0.03385826726096752
1136.0,0.0338113190438627
1135.0,0.03371743783253667
1134.0,0.03362357691107709
1133.0,0.03343591590268957
1132.0,0.0332483359486222
1131.0,0.03310770413286357
1130.0,0.033060836978886954
1129.0,0.033060836978886954
1128.0,0.033060836978886954
1127.0,0.03310770413286357
1126.0,0.033201453616638954
1125.0,0.03334211579824231
1124.0,0.03343591590268957
1123.0,0.03343591590268957
1122.0,0.033482823553208085
1121.0,0.03352973627071565
1120.0,0.03367050483612166
1119.0,0.033905220553829274
1118.0,0.034187046963396917
1117.0,0.03437503289075727
1116.0,0.03456310022373987
1115.0,0.03479829897408804
1114.0,0.03508070571335731
1113.0,0.03526907894637077
1112.0,0.035363296211498474
1111.0,0.03531618502395939
1110.0,0.03522197797762394
1109.0,0.03508070571335731
1108.0,0.0349394793888016
1107.0,0.0349394793888016
1106.0,0.03498654972775217
1105.0,0.03498654972775217
1104.0,0.0349394793888016
1103.0,0.03489241415094413
1102.0,0.03484535401307465
1101.0,0.03489241415094413
1100.0,0.0349394793888016
1099.0,0.0349394793888016
1098.0,0.03498654972775217
1097.0,0.03503362516890207
1096.0,0.03508070571335731
1095.0,0.03508070571335731
1094.0,0.03508070571335731
1093.0,0.03508070571335731
1092.0,0.03517488211661135
1091.0,0.03531618502395939
1090.0,0.03545753392086315
1089.0,0.03555179208333925
1088.0,0.035693217696063595
1087.0,0.03588185684851508
1086.0,0.03621217265444465
1085.0,0.03658998431977123
1084.0,0.03692083935817303
1083.0,0.037251946641359446
1082.0,0.03763066432997886
1081.0,0.03800971255993524
1080.0,0.03838909190871931
1079.0,0.038721320914956836
1078.0,0.039006291057664066
1077.0,0.03938654235209116
1076.0,0.03986232513620536
1075.0,0.04043395336207234
1074.0,0.04105406750606355
1073.0,0.04172287445230238
1072.0,0.042344833056508824
1071.0,0.042967683653061695
1070.0,0.0435434165901003
1069.0,0.04411991377462465
1068.0,0.04455278942230456
1067.0,0.044793462458058375
1066.0,0.04464904263234004
1065.0,0.04426415772233416
1064.0,0.04368746915880539
1063.0,0.0431115453499229
1062.0,0.04268010314465909
1061.0,0.042344833056508824
1060.0,0.04200982159316968
1059.0,0.04167506835594681
1058.0,0.04129280891271536
1057.0,0.04081545726880842
1056.0,0.04038628892895613
1055.0,0.040005161671583744
1054.0,0.03967194946985697
1053.0,0.03929144831144349
1052.0,0.038958783046687984
1051.0,0.03862637240519895
1050.0,0.038341651362284734
1049.0,0.03810452633214956
1048.0,0.03782014709123227
1047.0,0.03753595394209874
1046.0,0.037251946641359446
1045.0,0.03692083935817303
1044.0,0.03658998431977123
1043.0,0.03630659476198117
1042.0,0.0360705779734416
1041.0,0.03588185684851508
1040.0,0.035693217696063595
1039.0,0.035646070707806565
1038.0,0.035740369803151095
1037.0,0.03625938114211591
1036.0,0.037251946641359446
1035.0,0.038816290187564384
1034.0,0.04086316882962593
1033.0,0.04325545471730896
1032.0,0.04575749056067524
1031.0,0.048128442871635535
1030.0,0.050317309204795935
1029.0,0.05217431555754937
1028.0,0.053351266093323746
1027.0,0.05354773498692689
1026.0,0.05271335532220167
1025.0,0.05129369109514803
1024.0,0.04968383607539972
1023.0,0.04832256265669943
1022.0,0.04711073508906982
1021.0,0.04609540658654021
1020.0,0.0451788169482068
1019.0,0.044312249686494276
1018.0,0.043495409683302455
1017.0,0.042775942156833
1016.0,0.04210551278710151
1015.0,0.04153168163305643
1014.0,0.040958607678906356
1013.0,0.040481623027001756
1012.0,0.04010041213405646
1011.0,0.039767126871487646
1010.0,0.03948165721929198
1009.0,0.03924390909822728
1008.0,0.03910132267333921
1007.0,0.03910132267333921
1006.0,0.039338992729018196
1005.0,0.03962436858984186
1004.0,0.039909932095080425
1003.0,0.0400527842915015
1002.0,0.039909932095080425
1001.0,0.03948165721929198
1000.0,0.038816290187564384
999.0,0.03810452633214956
998.0,0.03739392707587297
997.0,0.03692083935817303
996.0,0.036542739883292485
995.0,0.03635381351515665
994.0,0.03616496929785207
993.0,0.03597620715996652
992.0,0.03578752703018084
991.0,0.035693217696063595
990.0,0.035646070707806565
989.0,0.035693217696063595
988.0,0.035740369803151095
987.0,0.03588185684851508
986.0,0.03602339000339416
985.0,0.03625938114211591
984.0,0.03644826642590382
983.0,0.03658998431977123
982.0,0.036731748473764814
981.0,0.036873558918095295
980.0,0.03692083935817303
979.0,0.0369681249461018
978.0,0.036873558918095295
977.0,0.03668448861388862
976.0,0.03644826642590382
975.0,0.03621217265444465
974.0,0.03597620715996652
973.0,0.035740369803151095
972.0,0.03555179208333925
971.0,0.03545753392086315
970.0,0.03550466044490741
969.0,0.035740369803151095
968.0,0.03616496929785207
967.0,0.03663723389626394
966.0,0.037062711569998186
965.0,0.03739392707587297
964.0,0.03753595394209874
963.0,0.037488606492403154
962.0,0.037251946641359446
961.0,0.03682628362474838
960.0,0.03635381351515665
959.0,0.03588185684851508
958.0,0.03550466044490741
957.0,0.03517488211661135
956.0,0.0349394793888016
955.0,0.03475124903287918
954.0,0.03456310022373987
953.0,0.034469056377139484
952.0,0.03437503289075727
951.0,0.03432802877989327
950.0,0.03442204208947208
949.0,0.03456310022373987
948.0,0.03479829897408804
947.0,0.03498654972775217
946.0,0.03526907894637077
945.0,0.03550466044490741
944.0,0.035646070707806565
943.0,0.035740369803151095
942.0,0.03578752703018084
941.0,0.035740369803151095
940.0,0.035646070707806565
939.0,0.03545753392086315
938.0,0.03517488211661135
937.0,0.0349394793888016
936.0,0.03465716443937783
935.0,0.03437503289075727
934.0,0.03414006319292828
933.0,0.033952178923546183
932.0,0.0338113190438627
931.0,0.03371743783253667
930.0,0.03352973627071565
929.0,0.033295223342125535
928.0,0.03310770413286357
927.0,0.0329671178412978
926.0,0.0329671178412978
925.0,0.03301397488206215
924.0,0.033060836978886954
923.0,0.03310770413286357
922.0,0.033154576345083564
921.0,0.033154576345083564
920.0,0.033060836978886954
919.0,0.033060836978886954
918.0,0.0332483359486222
917.0,0.03371743783253667
916.0,0.034469056377139484
915.0,0.035363296211498474
914.0,0.03630659476198117
913.0,0.037299268295658994
912.0,0.03829421599749461
911.0,0.03943409718180235
910.0,0.04072004986906119
909.0,0.04215336629184985
908.0,0.04344740808260106
907.0,0.04450467081587295
906.0,0.04513062893352182
905.0,0.045323413081356456
904.0,0.04503426894157925
903.0,0.04426415772233416
902.0,0.04315950984076644
901.0,0.04181850243505214
900.0,0.040481623027001756
899.0,0.03919637508823026
898.0,0.038057116858612794
897.0,0.0371573187987575
896.0,0.036401037402758574
895.0,0.035740369803151095
894.0,0.03517488211661135
893.0,0.03470420418834386
892.0,0.03437503289075727
891.0,0.03409308450480819
890.0,0.03385826726096752
889.0,0.03362357691107709
888.0,0.03343591590268957
887.0,0.0332483359486222
886.0,0.03310770413286357
885.0,0.0329671178412978
884.0,0.03277974021703267
883.0,0.032545631817259224
882.0,0.032311649546687526
881.0,0.03217132066984485
880.0,0.032031037121307726
879.0,0.03189079887180224
878.0,0.03179733185715028
877.0,0.03170388495374454
876.0,0.031657169041054534
875.0,0.03161045815293173
874.0,0.031563752288295444
873.0,0.031563752288295444
872.0,0.03161045815293173
871.0,0.031657169041054534
870.0,0.03170388495374454
869.0,0.031657169041054534
868.0,0.03151705144606498
867.0,0.03128362253321426
866.0,0.030957032694186815
865.0,0.03063068826647264
864.0,0.030397735151460825
863.0,0.03030458888152676
862.0,0.03025802323714588
861.0,0.030164906924202484
860.0,0.029885677714903025
859.0,0.029467170231675777
858.0,0.029188389127482228
857.0,0.02904906565457588
856.0,0.029002634427514717
855.0,0.028956208163971375
854.0,0.028956208163971375
853.0,0.029002634427514717
852.0,0.029188389127482228
851.0,0.02942069428514915
850.0,0.029746130405213123
849.0,0.030071810571884017
848.0,0.030444315779156517
847.0,0.030863766403287585
846.0,0.03137697904301118
845.0,0.03189079887180224
844.0,0.03235843591698884
843.0,0.03273290844021437
842.0,0.032873418923587305
841.0,0.03282657704446046
840.0,0.032592443402527316
839.0,0.032311649546687526
838.0,0.03189079887180224
837.0,0.03137697904301118
836.0,0.03081714076773867
835.0,0.030211462585061133
834.0,0.029560137048236124
833.0,0.02890978686288448
832.0,0.028306761050139073
831.0,0.027797161620935595
830.0,0.02738066094037661
829.0,0.027056991894431892
828.0,0.026733563891471412
827.0,0.026410376572743033
826.0,0.02613355016462182
825.0,0.025902996205869
824.0,0.025856900097785074
823.0,0.025856900097785074
822.0,0.025902996205869
821.0,0.025764722556973707
820.0,0.02553436426275746
819.0,0.02521206778644225
818.0,0.025028005701930978
817.0,0.02498200236711723
816.0,0.025028005701930978
815.0,0.025028005701930978
814.0,0.025028005701930978
813.0,0.02498200236711723
812.0,0.024936003904763915
811.0,0.024936003904763915
810.0,0.024936003904763915
809.0,0.024798037742147727
808.0,0.024476287039668643
807.0,0.024017056287453542
806.0,0.023604163388120325
805.0,0.023237476732539397
804.0,0.02291687968414724
803.0,0.022733787572707387
802.0,0.022688026603074007
801.0,0.022688026603074007
800.0,0.022688026603074007
799.0,0.022642270454698687
798.0,0.02259651912656535
797.0,0.02245929405346514
796.0,0.022230681908425698
795.0,0.02204787879853809
794.0,0.021956506090037076
793.0,0.022093572362881675
792.0,0.022322112326006227
791.0,0.022688026603074007
790.0,0.02314585342378117
789.0,0.023604163388120325
788.0,0.023879381700184332
787.0,0.023971159908874107
786.0,0.023971159908874107
785.0,0.024154774532432866
784.0,0.024706084643793647
783.0,0.02553436426275746
782.0,0.026502691267936695
781.0,0.02747318213414429
780.0,0.02849221828874393
779.0,0.029653123769906697
778.0,0.031003673351687855
777.0,0.03263926003405038
776.0,0.03456310022373987
775.0,0.03682628362474838
774.0,0.03948165721929198
773.0,0.042344833056508824
772.0,0.04537162249272897
771.0,0.04866248120408234
770.0,0.05222329153526162
769.0,0.05601112492622806
768.0,0.05983228596592505
767.0,0.06353652599525317
766.0,0.06706985716921054
765.0,0.07073438174693436
764.0,0.07458476291575367
763.0,0.07867775641617802
762.0,0.08301995267961781
761.0,0.08756536662442538
760.0,0.09226626300234453
759.0,0.09685572959046151
758.0,0.10105553313349058
757.0,0.10441172433373724
756.0,0.10662666975397506
755.0,0.10779405402422748
754.0,0.10812816955441629
753.0,0.1081838804751396
752.0,0.1081838804751396
751.0,0.10835105612944096
750.0,0.10846254232743546
749.0,0.10846254232743546
748.0,0.10801676914803293
747.0,0.10701544928928342
746.0,0.10513034325474746
745.0,0.1022080180607754
744.0,0.09810596802617932
743.0,0.09307265269104414
742.0,0.08767164203958999
741.0,0.0823369756726251
740.0,0.07743023101428781
739.0,0.07288638806623937
738.0,0.0684912781333824
737.0,0.06419054619006714
736.0,0.05998184499233683
735.0,0.05586292684190197
734.0,0.05178270644002936
733.0,0.047691990337874746
732.0,0.0435434165901003
731.0,0.03957679292217042
730.0,0.036117771071222604
729.0,0.03338901331806565
728.0,0.03128362253321426
727.0,0.029560137048236124
726.0,0.028167720075074953
725.0,0.027056991894431892
724.0,0.026041313893296225
723.0,0.025028005701930978
722.0,0.023879381700184332
721.0,0.02259651912656535
720.0,0.021135015652343103
719.0,0.01954210772389997
718.0,0.01809082990920774
717.0,0.016915227262211507
716.0,0.016058141016111804
715.0,0.01578783323856614
714.0,0.016238439713835096
713.0,0.01768353030793479
712.0,0.02026956933771462
711.0,0.024246610963712723
710.0,0.029839156962686353
709.0,0.037251946641359446
708.0,0.04677202844014605
707.0,0.05863766428823891
706.0,0.07283502570063005
705.0,0.08948231448273347
704.0,0.10840679565103484
703.0,0.12953756841108
702.0,0.1527358982292355
701.0,0.1778319206319825
700.0,0.20481541031757589
699.0,0.23314118897858238
698.0,0.261615876487844
697.0,0.2875186621980814
696.0,0.30627305107635316
695.0,0.3126494304419727
694.0,0.30451832350980257
693.0,0.2850837520064151
692.0,0.2598742630342694
691.0,0.23328979273774086
690.0,0.20823919598709506
689.0,0.18635230465310326
688.0,0.16813022571949832
687.0,0.1531682471767426
686.0,0.1408016384661226
685.0,0.1305922506177981
684.0,0.12211057462851604
683.0,0.1149782051377024
682.0,0.10929960230112479
681.0,0.10496440254767725
680.0,0.1014393550602879
679.0,0.09799710864927058
678.0,0.09425807260839858
677.0,0.09039048950983108
676.0,0.08650404038287651
675.0,0.08275714209253371
674.0,0.07977228854307139
673.0,0.07800156869172903
672.0,0.07717078033335123
671.0,0.07618627890881036
670.0,0.07406940213152868
669.0,0.07058107428570715
668.0,0.06747550294945781
667.0,0.06646209802829528
666.0,0.06656333217371957
665.0,0.06620911585658007
664.0,0.06489597884855036
663.0,0.06283329628496737
662.0,0.060730413661268745
661.0,0.05898575629443026
660.0,0.057743849580535134
659.0,0.057000406633959555
658.0,0.0567528748621382
657.0,0.05680236993107379
656.0,0.05690137699451481
655.0,0.05685187064143715
654.0,0.05670338543334519
653.0,0.05665390164340933
652.0,0.05665390164340933
651.0,0.05655495097496965
650.0,0.05601112492622806
649.0,0.05502409158795207
648.0,0.05369514500652506
647.0,0.05197846685889629
646.0,0.050073556332087765
645.0,0.048468209457651845
644.0,0.047885915093007325
643.0,0.0486139051197072
642.0,0.05002482217034632
641.0,0.05139145012356372
640.0,0.05212534510230182
639.0,0.052468254304406825
638.0,0.05271335532220167
637.0,0.05330216275425803
636.0,0.05423607688882637
635.0,0.05551732784983132
634.0,0.057049929922901255
633.0,0.0583395216116076
632.0,0.05848856736559682
631.0,0.057198533682059516
630.0,0.055122694036304765
629.0,0.05305672930217464
628.0,0.0515870342213991
627.0,0.05085404758005607
626.0,0.05095170768433621
625.0,0.0515870342213991
624.0,0.05217431555754937
623.0,0.05237025261564554
622.0,0.05217431555754937
621.0,0.05197846685889629
620.0,0.0518316382728683
619.0,0.05173378011970464
618.0,0.05148923116234294
617.0,0.05114709380028648
616.0,0.050707598587974356
615.0,0.05002482217034632
614.0,0.049245818406496555
613.0,0.04866248120408234
612.0,0.04841965509660828
611.0,0.048468209457651845
610.0,0.04875964967565971
609.0,0.049294465226138895
608.0,0.04968383607539972
607.0,0.049148541111453614
606.0,0.04725597598510167
605.0,0.04455278942230456
604.0,0.04224908912272074
603.0,0.04167506835594681
602.0,0.04325545471730896
601.0,0.04609540658654021
600.0,0.04832256265669943
