cm-1,A
4000.0,0.09712721455392082
3999.0,0.09718153191774648
3998.0,0.09729018703012282
3997.0,0.09734452478207412
3996.0,0.09745322068600859
3995.0,0.09767069414168117
3994.0,0.0978882765519955
3993.0,0.09799710864927058
3992.0,0.09810596802617932
3991.0,0.09810596802617932
3990.0,0.09805153492691598
3989.0,0.09783387072894878
3988.0,0.09767069414168117
3987.0,0.09761631556752848
3986.0,0.09767069414168117
3985.0,0.09783387072894878
3984.0,0.09805153492691598
3983.0,0.09816040794877057
3982.0,0.09821485469640057
3981.0,0.09816040794877057
3980.0,0.09805153492691598
3979.0,0.09799710864927058
3978.0,0.09805153492691598
3977.0,0.09805153492691598
3976.0,0.09805153492691598
3975.0,0.09794268919153337
3974.0,0.09777947172068524
3973.0,0.09761631556752848
3972.0,0.0975619438013351
3971.0,0.09767069414168117
3970.0,0.0978882765519955
3969.0,0.09816040794877057
3968.0,0.09837823590664274
3967.0,0.09854167860388774
3966.0,0.09854167860388774
3965.0,0.09854167860388774
3964.0,0.09848719087006019
3963.0,0.09848719087006019
3962.0,0.09854167860388774
3961.0,0.09865067458435761
3960.0,0.09875969792669093
3959.0,0.09881421986284966
3958.0,0.09886874864462802
3957.0,0.09881421986284966
3956.0,0.09865067458435761
3955.0,0.09843270997155007
3954.0,0.09821485469640057
3953.0,0.09805153492691598
3952.0,0.0978882765519955
3951.0,0.09777947172068524
3950.0,0.09777947172068524
3949.0,0.09794268919153337
3948.0,0.09816040794877057
3947.0,0.09837823590664274
3946.0,0.09837823590664274
3945.0,0.09837823590664274
3944.0,0.09843270997155007
3943.0,0.09854167860388774
3942.0,0.09859617317474823
3941.0,0.09859617317474823
3940.0,0.09859617317474823
3939.0,0.09870518283443275
3938.0,0.09881421986284966
3937.0,0.09875969792669093
3936.0,0.09859617317474823
3935.0,0.09854167860388774
3934.0,0.09854167860388774
3933.0,0.09848719087006019
3932.0,0.09837823590664274
3931.0,0.09837823590664274
3930.0,0.09837823590664274
3929.0,0.09843270997155007
3928.0,0.09832376867362447
3927.0,0.09821485469640057
3926.0,0.09816040794877057
3925.0,0.09810596802617932
3924.0,0.0978882765519955
3923.0,0.09761631556752848
3922.0,0.0975619438013351
3921.0,0.09777947172068524
3920.0,0.0978882765519955
3919.0,0.0978882765519955
3918.0,0.09799710864927058
3917.0,0.09832376867362447
3916.0,0.09870518283443275
3915.0,0.09886874864462802
3914.0,0.0989778267519208
3913.0,0.09925064193892053
3912.0,0.09941441335003853
3911.0,0.09946901754724413
3910.0,0.09935981601739963
3909.0,0.09919606518963042
3908.0,0.09892328427374508
3907.0,0.09859617317474823
3906.0,0.09816040794877057
3905.0,0.09777947172068524
3904.0,0.09739886933346864
3903.0,0.09707290398273716
3902.0,0.09696430321150284
3901.0,0.09739886933346864
3900.0,0.09826930827078129
3899.0,0.09903237608087578
3898.0,0.0990869322623309
3897.0,0.09881421986284966
3896.0,0.09854167860388774
3895.0,0.09837823590664274
3894.0,0.09826930827078129
3893.0,0.09837823590664274
3892.0,0.09892328427374508
3891.0,0.09952362861074304
3890.0,0.09925064193892053
3889.0,0.09826930827078129
3888.0,0.09794268919153337
3887.0,0.09865067458435761
3886.0,0.09935981601739963
3885.0,0.09914149529800831
3884.0,0.09821485469640057
3883.0,0.09767069414168117
3882.0,0.09810596802617932
3881.0,0.09914149529800831
3880.0,0.09974214156222239
3879.0,0.09963287134352972
3878.0,0.0989778267519208
3877.0,0.09854167860388774
3876.0,0.09865067458435761
3875.0,0.09859617317474823
3874.0,0.0978882765519955
3873.0,0.09680145295702158
3872.0,0.09636748391576244
3871.0,0.09718153191774648
3870.0,0.09843270997155007
3869.0,0.09870518283443275
3868.0,0.09783387072894878
3867.0,0.09729018703012282
3866.0,0.0978882765519955
3865.0,0.09832376867362447
3864.0,0.0978882765519955
3863.0,0.09750757884139638
3862.0,0.09777947172068524
3861.0,0.09837823590664274
3860.0,0.09865067458435761
3859.0,0.09859617317474823
3858.0,0.09832376867362447
3857.0,0.09799710864927058
3856.0,0.09777947172068524
3855.0,0.0978882765519955
3854.0,0.09875969792669093
3853.0,0.10017949757290379
3852.0,0.1005078038618683
3851.0,0.09919606518963042
3850.0,0.09886874864462802
3849.0,0.09985143928065598
3848.0,0.10039834085387778
3847.0,0.10023419805561384
3846.0,0.09996076451267522
3845.0,0.09968750301627338
3844.0,0.09935981601739963
3843.0,0.09881421986284966
3842.0,0.09799710864927058
3841.0,0.09734452478207412
3840.0,0.09712721455392082
3839.0,0.09739886933346864
3838.0,0.09783387072894878
3837.0,0.09810596802617932
3836.0,0.09794268919153337
3835.0,0.09761631556752848
3834.0,0.09772507952549825
3833.0,0.09826930827078129
3832.0,0.09886874864462802
3831.0,0.09919606518963042
3830.0,0.0990869322623309
3829.0,0.0990869322623309
3828.0,0.09935981601739963
3827.0,0.09979678698310646
3826.0,0.09979678698310646
3825.0,0.09919606518963042
3824.0,0.09848719087006019
3823.0,0.09843270997155007
3822.0,0.09870518283443275
3821.0,0.09881421986284966
3820.0,0.09821485469640057
3819.0,0.0972358560759139
3818.0,0.0975619438013351
3817.0,0.09952362861074304
3816.0,0.1012199867101744
3815.0,0.10149421446564144
3814.0,0.10094593200182911
3813.0,0.10094593200182911
3812.0,0.10182351650232357
3811.0,0.10226297465457268
3810.0,0.10187842445889239
3809.0,0.10138450258381404
3808.0,0.10138450258381404
3807.0,0.10160395406999112
3806.0,0.10111034407341357
3805.0,0.10001543745060903
3804.0,0.09957824654226233
3803.0,0.10034361969436434
3802.0,0.10116516193172598
3801.0,0.10094593200182911
3800.0,0.09952362861074304
3799.0,0.09821485469640057
3798.0,0.09848719087006019
3797.0,0.09979678698310646
3796.0,0.10072681268239614
3795.0,0.10094593200182911
3794.0,0.10105553313349058
3793.0,0.10138450258381404
3792.0,0.10182351650232357
3791.0,0.10204318999304807
3790.0,0.10204318999304807
3789.0,0.10215306842042837
3788.0,0.1022080180607754
3787.0,0.10215306842042837
3786.0,0.10204318999304807
3785.0,0.10193333935836524
3784.0,0.1017686154869033
3783.0,0.10138450258381404
3782.0,0.10111034407341357
3781.0,0.10127481841050656
3780.0,0.10171372141087698
3779.0,0.10215306842042837
3778.0,0.10237290870955862
3777.0,0.10248287059947447
3776.0,0.10275789719463457
3775.0,0.10314322726279568
3774.0,0.10308815917397474
3773.0,0.10264786565568684
3772.0,0.10237290870955862
3771.0,0.10237290870955862
3770.0,0.10242788617426934
3769.0,0.1022080180607754
3768.0,0.10182351650232357
3767.0,0.1017686154869033
3766.0,0.10226297465457268
3765.0,0.10253786198693682
3764.0,0.10226297465457268
3763.0,0.10187842445889239
3762.0,0.10182351650232357
3761.0,0.10182351650232357
3760.0,0.10138450258381404
3759.0,0.10078158214862709
3758.0,0.1005625457138224
3757.0,0.10067205012234592
3756.0,0.1005625457138224
3755.0,0.10028890542885538
3754.0,0.10012480397898926
3753.0,0.09990609845660159
3752.0,0.09957824654226233
3751.0,0.09985143928065598
3750.0,0.10111034407341357
3749.0,0.10165883427249067
3748.0,0.10067205012234592
3747.0,0.09990609845660159
3746.0,0.10072681268239614
3745.0,0.10231793820358015
3744.0,0.1033635694704158
3743.0,0.10270287794050348
3742.0,0.1012199867101744
3741.0,0.1012199867101744
3740.0,0.10198826120249849
3739.0,0.10182351650232357
3738.0,0.10105553313349058
3737.0,0.1005625457138224
3736.0,0.10028890542885538
3735.0,0.10001543745060903
3734.0,0.10012480397898926
3733.0,0.10100072911021085
3732.0,0.10226297465457268
3731.0,0.1028679566179056
3730.0,0.10281292341984649
3729.0,0.10281292341984649
3728.0,0.10330847343711591
3727.0,0.10374943753836186
3726.0,0.10374943753836186
3725.0,0.10347378251044459
3724.0,0.10319830233507843
3723.0,0.10297804393963661
3722.0,0.10270287794050348
3721.0,0.10242788617426934
3720.0,0.10237290870955862
3719.0,0.10259286033841963
3718.0,0.10292299679057959
3717.0,0.10297804393963661
3716.0,0.10270287794050348
3715.0,0.10231793820358015
3714.0,0.10204318999304807
3713.0,0.10171372141087698
3712.0,0.10138450258381404
3711.0,0.1014393550602879
3710.0,0.10198826120249849
3709.0,0.10253786198693682
3708.0,0.10297804393963661
3707.0,0.10341867249426717
3706.0,0.10363915453068362
3705.0,0.10363915453068362
3704.0,0.10358402352687701
3703.0,0.10352889952072264
3702.0,0.10341867249426717
3701.0,0.10330847343711591
3700.0,0.10314322726279568
3699.0,0.10314322726279568
3698.0,0.10369429253391926
3697.0,0.10435649517592083
3696.0,0.10446696051592963
3695.0,0.10391491457671487
3694.0,0.10319830233507843
3693.0,0.10264786565568684
3692.0,0.10209812573177213
3691.0,0.10182351650232357
3690.0,0.10215306842042837
3689.0,0.10319830233507843
3688.0,0.10391491457671487
3687.0,0.10374943753836186
3686.0,0.10352889952072264
3685.0,0.10413564875270076
3684.0,0.10501970907203151
3683.0,0.10529634739076998
3682.0,0.10496440254767725
3681.0,0.10446696051592963
3680.0,0.10385974855798041
3679.0,0.10281292341984649
3678.0,0.1017686154869033
3677.0,0.10132965703447017
3676.0,0.1017686154869033
3675.0,0.10237290870955862
3674.0,0.10193333935836524
3673.0,0.10111034407341357
3672.0,0.10182351650232357
3671.0,0.10330847343711591
3670.0,0.10402526764093545
3669.0,0.10397008760377302
3668.0,0.10385974855798041
3667.0,0.10413564875270076
3666.0,0.10501970907203151
3665.0,0.10585015323207791
3664.0,0.1061827760325369
3663.0,0.10612732120491852
3662.0,0.10601643278815298
3661.0,0.10590557267730127
3660.0,0.10562854614376227
3659.0,0.10535169620648288
3658.0,0.10529634739076998
3657.0,0.10557316203581202
3656.0,0.10585015323207791
3655.0,0.10557316203581202
3654.0,0.10501970907203151
3653.0,0.10468797552421272
3652.0,0.10457745396059215
3651.0,0.1038045895457893
3650.0,0.10253786198693682
3649.0,0.10204318999304807
3648.0,0.10253786198693682
3647.0,0.10308815917397474
3646.0,0.10347378251044459
3645.0,0.10430127304069425
3644.0,0.10551778498990938
3643.0,0.10668218838388821
3642.0,0.10734896612269962
3641.0,0.1075158206353124
3640.0,0.10757145305477
3639.0,0.10757145305477
3638.0,0.10746019534136453
3637.0,0.10718217569042365
3636.0,0.10690433390377163
3635.0,0.10690433390377163
3634.0,0.10684878687013422
3633.0,0.10640466618011679
3632.0,0.10573933555301185
3631.0,0.10546241500425357
3630.0,0.10579474085791629
3629.0,0.10662666975397506
3628.0,0.1075158206353124
3627.0,0.10768273927751948
3626.0,0.10757145305477
3625.0,0.10807246577932506
3624.0,0.10840679565103484
3623.0,0.10801676914803293
3622.0,0.10729336219433439
3621.0,0.10684878687013422
3620.0,0.10662666975397506
3619.0,0.1063491830140364
3618.0,0.10590557267730127
3617.0,0.10535169620648288
3616.0,0.10518567091669917
3615.0,0.10562854614376227
3614.0,0.10623823794205656
3613.0,0.10657115822045493
3612.0,0.10668218838388821
3611.0,0.10668218838388821
3610.0,0.10695988804288215
3609.0,0.1075158206353124
3608.0,0.10812816955441629
3607.0,0.10868560061785693
3606.0,0.10907622851098608
3605.0,0.10913206118855912
3604.0,0.10907622851098608
3603.0,0.10890877353227624
3602.0,0.10874138309586101
3601.0,0.10868560061785693
3600.0,0.10862982530385179
3599.0,0.10840679565103484
3598.0,0.10812816955441629
3597.0,0.10790539730951965
3596.0,0.10773839308446487
3595.0,0.10779405402422748
3594.0,0.10807246577932506
3593.0,0.10835105612944096
3592.0,0.10857405715200596
3591.0,0.10862982530385179
3590.0,0.10857405715200596
3589.0,0.10840679565103484
3588.0,0.1082953237608173
3587.0,0.10840679565103484
3586.0,0.10874138309586101
3585.0,0.10896458468468917
3584.0,0.10924374808178183
3583.0,0.10957898119908571
3582.0,0.10974669484546551
3581.0,0.10969078310005154
3580.0,0.10969078310005154
3579.0,0.10974669484546551
3578.0,0.10974669484546551
3577.0,0.10963487855187593
3576.0,0.10946720807225518
3575.0,0.10935546370475246
3574.0,0.10941133229451272
3573.0,0.10957898119908571
3572.0,0.10980261378997125
3571.0,0.10980261378997125
3570.0,0.10957898119908571
3569.0,0.10902040301031102
3568.0,0.10823959854332843
3567.0,0.10768273927751948
3566.0,0.10757145305477
3565.0,0.10790539730951965
3564.0,0.10840679565103484
3563.0,0.10902040301031102
3562.0,0.10957898119908571
3561.0,0.11008231656379408
3560.0,0.11047420332880886
3559.0,0.11092250734993603
3558.0,0.11125903931710734
3557.0,0.1114835389250548
3556.0,0.11159583226295333
3555.0,0.11159583226295333
3554.0,0.11159583226295333
3553.0,0.11159583226295333
3552.0,0.11153968196461372
3551.0,0.11137127461477392
3550.0,0.11131515334030118
3549.0,0.11142740314240007
3548.0,0.11159583226295333
3547.0,0.11176432672943282
3546.0,0.11193288659256306
3545.0,0.11221396516162851
3544.0,0.1125514997500463
3543.0,0.11272036546997688
3542.0,0.11266406960083297
3541.0,0.11249522576462212
3540.0,0.11227020271196975
3539.0,0.11210151190312767
3538.0,0.11210151190312767
3537.0,0.11227020271196975
3536.0,0.11243895906999102
3535.0,0.1125514997500463
3534.0,0.11249522576462212
3533.0,0.11238269966426384
3532.0,0.11215773489264302
3531.0,0.11198908775497118
3530.0,0.11193288659256306
3529.0,0.11193288659256306
3528.0,0.11193288659256306
3527.0,0.11182050608167504
3526.0,0.11182050608167504
3525.0,0.1120452961911984
3524.0,0.11249522576462212
3523.0,0.11305829401658474
3522.0,0.11322735694556196
3521.0,0.11305829401658474
3520.0,0.11277666863747693
3519.0,0.1125514997500463
3518.0,0.1125514997500463
3517.0,0.11260778102815316
3516.0,0.11272036546997688
3515.0,0.11277666863747693
3514.0,0.1128329791052256
3513.0,0.11277666863747693
3512.0,0.11272036546997688
3511.0,0.11266406960083297
3510.0,0.11277666863747693
3509.0,0.11288929687511629
3508.0,0.112945621949043
3507.0,0.112945621949043
3506.0,0.112945621949043
3505.0,0.112945621949043
3504.0,0.1130019543289007
3503.0,0.11305829401658474
3502.0,0.11305829401658474
3501.0,0.11305829401658474
3500.0,0.11305829401658474
3499.0,0.11305829401658474
3498.0,0.11311464101399138
3497.0,0.11322735694556196
3496.0,0.11345287660889425
3495.0,0.1136220932414278
3494.0,0.1136220932414278
3493.0,0.11356568037106163
3492.0,0.11345287660889425
3491.0,0.11339648571328764
3490.0,0.1133401021387972
3489.0,0.11328372588352176
3488.0,0.11317099532301778
3487.0,0.11305829401658474
3486.0,0.11305829401658474
3485.0,0.11311464101399138
3484.0,0.11311464101399138
3483.0,0.1130019543289007
3482.0,0.112945621949043
3481.0,0.11305829401658474
3480.0,0.1133401021387972
3479.0,0.11379137583250243
3478.0,0.1141301390960936
3477.0,0.11424311893073247
3476.0,0.11401718864502697
3475.0,0.11367851344052027
3474.0,0.11339648571328764
3473.0,0.11350927482751816
3472.0,0.1138478180292033
3471.0,0.1141301390960936
3470.0,0.11418662533951118
3469.0,0.1141301390960936
3468.0,0.1141301390960936
3467.0,0.11435612816423602
3466.0,0.11469533241103202
3465.0,0.1149782051377024
3464.0,0.11514801725400226
3463.0,0.11526126223036814
3462.0,0.11537453674376552
3461.0,0.11543118508166672
3460.0,0.11543118508166672
3459.0,0.11543118508166672
3458.0,0.11560117444331386
3457.0,0.11594135290606156
3456.0,0.11628179803604044
3455.0,0.1163953390777075
3454.0,0.11633856484638239
3453.0,0.11622503864474187
3452.0,0.11616828667054757
3451.0,0.11611154211151953
3450.0,0.11599807523121286
3449.0,0.11599807523121286
3448.0,0.11605480496572018
3447.0,0.11628179803604044
3446.0,0.1165089098110701
3445.0,0.11690664142431006
3444.0,0.11736163830396129
3443.0,0.11781711236973003
3442.0,0.11815903167507247
3441.0,0.1183871275216517
3440.0,0.11844417020668851
3439.0,0.11855827805860697
3438.0,0.11855827805860697
3437.0,0.11855827805860697
3436.0,0.11855827805860697
3435.0,0.11867241589944855
3434.0,0.11895789180659433
3433.0,0.11930071078129845
3432.0,0.11947222180119477
3431.0,0.11947222180119477
3430.0,0.11935787359571504
3429.0,0.11930071078129845
3428.0,0.11941504393502012
3427.0,0.11964380058076385
3426.0,0.11992991593593283
3425.0,0.12027350336042275
3424.0,0.12050271275057156
3423.0,0.12056003400478299
3422.0,0.12033079436794658
3421.0,0.1199871616332282
3420.0,0.11952940719622163
3419.0,0.11907213473291511
3418.0,0.11867241589944855
3417.0,0.11850122038501709
3416.0,0.11850122038501709
3415.0,0.11872949607064243
3414.0,0.11895789180659433
3413.0,0.11907213473291511
3412.0,0.1190150095132465
3411.0,0.11884367892443626
3410.0,0.11872949607064243
3409.0,0.11872949607064243
3408.0,0.11890078161098283
3407.0,0.11907213473291511
3406.0,0.11918640771920863
3405.0,0.1190150095132465
3404.0,0.11867241589944855
3403.0,0.11821604440661537
3402.0,0.11781711236973003
3401.0,0.11764625361128611
3400.0,0.11764625361128611
3399.0,0.11764625361128611
3398.0,0.11758931562603192
3397.0,0.11736163830396129
3396.0,0.11719095860756013
3395.0,0.11713408027837091
3394.0,0.11719095860756013
3393.0,0.11730473761840288
3392.0,0.11736163830396129
3391.0,0.11736163830396129
3390.0,0.1174754620451195
3389.0,0.1175323851046286
3388.0,0.1175323851046286
3387.0,0.11741854644554883
3386.0,0.11730473761840288
3385.0,0.11730473761840288
3384.0,0.11741854644554883
3383.0,0.1174754620451195
3382.0,0.11741854644554883
3381.0,0.11730473761840288
3380.0,0.1170772093974013
3379.0,0.1170772093974013
3378.0,0.11724784438692004
3377.0,0.1175323851046286
3376.0,0.11776015198117662
3375.0,0.11787408022996826
3374.0,0.11787408022996826
3373.0,0.11787408022996826
3372.0,0.11787408022996826
3371.0,0.11776015198117662
3370.0,0.11758931562603192
3369.0,0.1175323851046286
3368.0,0.1175323851046286
3367.0,0.1175323851046286
3366.0,0.11741854644554883
3365.0,0.11724784438692004
3364.0,0.11713408027837091
3363.0,0.11713408027837091
3362.0,0.11730473761840288
3361.0,0.1175323851046286
3360.0,0.11776015198117662
3359.0,0.11776015198117662
3358.0,0.11770319906234805
3357.0,0.1174754620451195
3356.0,0.11730473761840288
3355.0,0.11724784438692004
3354.0,0.11730473761840288
3353.0,0.11741854644554883
3352.0,0.11758931562603192
3351.0,0.11770319906234805
3350.0,0.11776015198117662
3349.0,0.11770319906234805
3348.0,0.1175323851046286
3347.0,0.11730473761840288
3346.0,0.11719095860756013
3345.0,0.11719095860756013
3344.0,0.11730473761840288
3343.0,0.1174754620451195
3342.0,0.11764625361128611
3341.0,0.11776015198117662
3340.0,0.11787408022996826
3339.0,0.11815903167507247
3338.0,0.11850122038501709
3337.0,0.11884367892443626
3336.0,0.11907213473291511
3335.0,0.11907213473291511
3334.0,0.11884367892443626
3333.0,0.11844417020668851
3332.0,0.11804502866039956
3331.0,0.11770319906234805
3330.0,0.11764625361128611
3329.0,0.11776015198117662
3328.0,0.11804502866039956
3327.0,0.11821604440661537
3326.0,0.11821604440661537
3325.0,0.11810202642698875
3324.0,0.11793105556385153
3323.0,0.11776015198117662
3322.0,0.11770319906234805
3321.0,0.11764625361128611
3320.0,0.11764625361128611
3319.0,0.11781711236973003
3318.0,0.11804502866039956
3317.0,0.11827306462358211
3316.0,0.11833009232793867
3315.0,0.11810202642698875
3314.0,0.11787408022996826
3313.0,0.11776015198117662
3312.0,0.11787408022996826
3311.0,0.11815903167507247
3310.0,0.11833009232793867
3309.0,0.11821604440661537
3308.0,0.11798803837334138
3307.0,0.11787408022996826
3306.0,0.11793105556385153
3305.0,0.11821604440661537
3304.0,0.11855827805860697
3303.0,0.11878658374498086
3302.0,0.11884367892443626
3301.0,0.11867241589944855
3300.0,0.11833009232793867
3299.0,0.11804502866039956
3298.0,0.11793105556385153
3297.0,0.11798803837334138
3296.0,0.11821604440661537
3295.0,0.11844417020668851
3294.0,0.11855827805860697
3293.0,0.11855827805860697
3292.0,0.11850122038501709
3291.0,0.11850122038501709
3290.0,0.11855827805860697
3289.0,0.11867241589944855
3288.0,0.11867241589944855
3287.0,0.11850122038501709
3286.0,0.11833009232793867
3285.0,0.11827306462358211
3284.0,0.11827306462358211
3283.0,0.11827306462358211
3282.0,0.11810202642698875
3281.0,0.11781711236973003
3280.0,0.11770319906234805
3279.0,0.11781711236973003
3278.0,0.11815903167507247
3277.0,0.1183871275216517
3276.0,0.11855827805860697
3275.0,0.11850122038501709
3274.0,0.1183871275216517
3273.0,0.11833009232793867
3272.0,0.1183871275216517
3271.0,0.11855827805860697
3270.0,0.11872949607064243
3269.0,0.11878658374498086
3268.0,0.11878658374498086
3267.0,0.11872949607064243
3266.0,0.11872949607064243
3265.0,0.11884367892443626
3264.0,0.11895789180659433
3263.0,0.1190150095132465
3262.0,0.11884367892443626
3261.0,0.11861534322942724
3260.0,0.11833009232793867
3259.0,0.11815903167507247
3258.0,0.11810202642698875
3257.0,0.11821604440661537
3256.0,0.1183871275216517
3255.0,0.11855827805860697
3254.0,0.11861534322942724
3253.0,0.11855827805860697
3252.0,0.11844417020668851
3251.0,0.1183871275216517
3250.0,0.1183871275216517
3249.0,0.11855827805860697
3248.0,0.11872949607064243
3247.0,0.11890078161098283
3246.0,0.1190150095132465
3245.0,0.1190150095132465
3244.0,0.11895789180659433
3243.0,0.11878658374498086
3242.0,0.11861534322942724
3241.0,0.11850122038501709
3240.0,0.11855827805860697
3239.0,0.11867241589944855
3238.0,0.11872949607064243
3237.0,0.11855827805860697
3236.0,0.1183871275216517
3235.0,0.11833009232793867
3234.0,0.11850122038501709
3233.0,0.11867241589944855
3232.0,0.11861534322942724
3231.0,0.11844417020668851
3230.0,0.11821604440661537
3229.0,0.11815903167507247
3228.0,0.11821604440661537
3227.0,0.1183871275216517
3226.0,0.11867241589944855
3225.0,0.1190150095132465
3224.0,0.11935787359571504
3223.0,0.11958660012208333
3222.0,0.11970100857424737
3221.0,0.11958660012208333
3220.0,0.11941504393502012
3219.0,0.11907213473291511
3218.0,0.11872949607064243
3217.0,0.11850122038501709
3216.0,0.11855827805860697
3215.0,0.11884367892443626
3214.0,0.11930071078129845
3213.0,0.11970100857424737
3212.0,0.11975822410451964
3211.0,0.11958660012208333
3210.0,0.11941504393502012
3209.0,0.11930071078129845
3208.0,0.11930071078129845
3207.0,0.11947222180119477
3206.0,0.11947222180119477
3205.0,0.11935787359571504
3204.0,0.11918640771920863
3203.0,0.11907213473291511
3202.0,0.11907213473291511
3201.0,0.11907213473291511
3200.0,0.11907213473291511
3199.0,0.1190150095132465
3198.0,0.11890078161098283
3197.0,0.11890078161098283
3196.0,0.1190150095132465
3195.0,0.11918640771920863
3194.0,0.11930071078129845
3193.0,0.11924355548978971
3192.0,0.11912926746757657
3191.0,0.11895789180659433
3190.0,0.11895789180659433
3189.0,0.1190150095132465
3188.0,0.11907213473291511
3187.0,0.1190150095132465
3186.0,0.11890078161098283
3185.0,0.11872949607064243
3184.0,0.11872949607064243
3183.0,0.11878658374498086
3182.0,0.11884367892443626
3181.0,0.11878658374498086
3180.0,0.11861534322942724
3179.0,0.11850122038501709
3178.0,0.11855827805860697
3177.0,0.11872949607064243
3176.0,0.11890078161098283
3175.0,0.1190150095132465
3174.0,0.11912926746757657
3173.0,0.11924355548978971
3172.0,0.11935787359571504
3171.0,0.11935787359571504
3170.0,0.11935787359571504
3169.0,0.11935787359571504
3168.0,0.11935787359571504
3167.0,0.11924355548978971
3166.0,0.1190150095132465
3165.0,0.11890078161098283
3164.0,0.11890078161098283
3163.0,0.11918640771920863
3162.0,0.11952940719622163
3161.0,0.11970100857424737
3160.0,0.11970100857424737
3159.0,0.11952940719622163
3158.0,0.11941504393502012
3157.0,0.11935787359571504
3156.0,0.11941504393502012
3155.0,0.11947222180119477
3154.0,0.11952940719622163
3153.0,0.11952940719622163
3152.0,0.11958660012208333
3151.0,0.11958660012208333
3150.0,0.11958660012208333
3149.0,0.11952940719622163
3148.0,0.11947222180119477
3147.0,0.11958660012208333
3146.0,0.11992991593593283
3145.0,0.1202162199095842
3144.0,0.12027350336042275
3143.0,0.12015894401343741
3142.0,0.1199871616332282
3141.0,0.11987267778337518
3140.0,0.11987267778337518
3139.0,0.11992991593593283
3138.0,0.1201016756699902
3137.0,0.12027350336042275
3136.0,0.1203880929341492
3135.0,0.12044539906102569
3134.0,0.1203880929341492
3133.0,0.12027350336042275
3132.0,0.1201016756699902
3131.0,0.11987267778337518
3130.0,0.11981544717356662
3129.0,0.12004441487725082
3128.0,0.12033079436794658
3127.0,0.12061736282565727
3126.0,0.12067469921519258
3125.0,0.12061736282565727
3124.0,0.12056003400478299
3123.0,0.12044539906102569
3122.0,0.1203880929341492
3121.0,0.12033079436794658
3120.0,0.12033079436794658
3119.0,0.12033079436794658
3118.0,0.12050271275057156
3117.0,0.1207320431753871
3116.0,0.12107626603243293
3115.0,0.12136332697348307
3114.0,0.12147820449879343
3113.0,0.12136332697348307
3112.0,0.12119106764079435
3111.0,0.12101887660626365
3110.0,0.12101887660626365
3109.0,0.12113366304327466
3108.0,0.12136332697348307
3107.0,0.12153565465853111
3106.0,0.12159311241900439
3105.0,0.12159311241900439
3104.0,0.12159311241900439
3103.0,0.12153565465853111
3102.0,0.12153565465853111
3101.0,0.12159311241900439
3100.0,0.12153565465853111
3099.0,0.12142076193778073
3098.0,0.12136332697348307
3097.0,0.1213058996038916
3096.0,0.12136332697348307
3095.0,0.12136332697348307
3094.0,0.1213058996038916
3093.0,0.1213058996038916
3092.0,0.12136332697348307
3091.0,0.12147820449879343
3090.0,0.12153565465853111
3089.0,0.12165057778222454
3088.0,0.12176553132495593
3087.0,0.12182301950849372
3086.0,0.1219955297319748
3085.0,0.12216810850710624
3084.0,0.12228319913502328
3083.0,0.12239832027072817
3082.0,0.12251347193039863
3081.0,0.12262865413022594
3080.0,0.12285911021517903
3079.0,0.12308968865537295
3078.0,0.12326270285933538
3077.0,0.12337808396572703
3076.0,0.12343578601615435
3075.0,0.12337808396572703
3074.0,0.12326270285933538
3073.0,0.12314735239865637
3072.0,0.12303203256741524
3071.0,0.12297438413275108
3070.0,0.12303203256741524
3069.0,0.12320502379929943
3068.0,0.12337808396572703
3067.0,0.12355121312165873
3066.0,0.12360893818081231
3065.0,0.12360893818081231
3064.0,0.12360893818081231
3063.0,0.12360893818081231
3062.0,0.12349349573411894
3061.0,0.1233203895807995
3060.0,0.12320502379929943
3059.0,0.12314735239865637
3058.0,0.1233203895807995
3057.0,0.1236666709136196
3056.0,0.12407101507707297
3055.0,0.12436006299583169
3054.0,0.12453358413361437
3053.0,0.12453358413361437
3052.0,0.1244757360506914
3051.0,0.12441789567211425
3050.0,0.12436006299583169
3049.0,0.12412880927263426
3048.0,0.12372441132212098
3047.0,0.12337808396572703
3046.0,0.12314735239865637
3045.0,0.12297438413275108
3044.0,0.12285911021517903
3043.0,0.12268625668776156
3042.0,0.12251347193039863
3041.0,0.12239832027072817
3040.0,0.12216810850710624
3039.0,0.12188051530283239
3038.0,0.12159311241900439
3037.0,0.12136332697348307
3036.0,0.12124847982699793
3035.0,0.12113366304327466
3034.0,0.12096149476276286
3033.0,0.1207893947082408
3032.0,0.12061736282565727
3031.0,0.12061736282565727
3030.0,0.12067469921519258
3029.0,0.12084675381575383
3028.0,0.12107626603243293
3027.0,0.12119106764079435
3026.0,0.12119106764079435
3025.0,0.12101887660626365
3024.0,0.1207893947082408
3023.0,0.12067469921519258
3022.0,0.12067469921519258
3021.0,0.1207893947082408
3020.0,0.12101887660626365
3019.0,0.12119106764079435
3018.0,0.12136332697348307
3017.0,0.12153565465853111
3016.0,0.12170805075020397
3015.0,0.1219955297319748
3014.0,0.12234075588839133
3013.0,0.12274386688641381
3012.0,0.12314735239865637
3011.0,0.12337808396572703
3010.0,0.12349349573411894
3009.0,0.12355121312165873
3008.0,0.12349349573411894
3007.0,0.12349349573411894
3006.0,0.12355121312165873
3005.0,0.12372441132212098
3004.0,0.12407101507707297
3003.0,0.12436006299583169
3002.0,0.12470717462899183
3001.0,0.125054563914468
3000.0,0.12540223129680017
2999.0,0.1258081953209289
2998.0,0.12621453918179926
2997.0,0.126621263590859
2996.0,0.12691201440971422
2995.0,0.12714475529518965
2994.0,0.12726117252733116
2993.0,0.12737762097471172
2992.0,0.1275523522109867
2991.0,0.1277271537757949
2990.0,0.12790202572577325
2989.0,0.1280186461566306
2988.0,0.1281352979118051
2987.0,0.1282519810081284
2986.0,0.1284854412916181
2985.0,0.12866061890013913
2984.0,0.12889429901441463
2983.0,0.12924505510985984
2982.0,0.12971317100740865
2981.0,0.1304749371427727
2980.0,0.13135556160517425
2979.0,0.13212021654162043
2978.0,0.13276828548110586
2977.0,0.13324021650489182
2976.0,0.13365357725039817
2975.0,0.13418561983203192
2974.0,0.13483678049391368
2973.0,0.13554825284181704
2972.0,0.1363797797296844
2971.0,0.13715334001706125
2970.0,0.13780896894840278
2969.0,0.13822670328130693
2968.0,0.1385253311428314
2967.0,0.1388839558386048
2966.0,0.13936258322624528
2965.0,0.13984173868172167
2964.0,0.14026143380285316
2963.0,0.14062149557439896
2962.0,0.1409217752530305
2961.0,0.1410419452819942
2960.0,0.1410419452819942
2959.0,0.1409818561111058
2958.0,0.14086170270546927
2957.0,0.14062149557439896
2956.0,0.1404414273739465
2955.0,0.1402014525194344
2954.0,0.14002155835797914
2953.0,0.13990167030148193
2952.0,0.1396619934290062
2951.0,0.13936258322624528
2950.0,0.13894375542312654
2949.0,0.1385253311428314
2948.0,0.1381073096085541
2947.0,0.13768969004572962
2946.0,0.1373320497714121
2945.0,0.13685565374733244
2944.0,0.1363797797296844
2943.0,0.13584504399797437
2942.0,0.13537027545448765
2941.0,0.13489602535887202
2940.0,0.13448148092522594
2939.0,0.13418561983203192
2938.0,0.1340081998737246
2937.0,0.1337717526203528
2936.0,0.13335827943396006
2935.0,0.13294519952329842
2934.0,0.13259144347720886
2933.0,0.13235576609690147
2932.0,0.132179091954427
2931.0,0.13212021654162043
2930.0,0.13212021654162043
2929.0,0.1320613491092153
2928.0,0.13194363817695853
2927.0,0.13176713157753506
2926.0,0.13170831198214428
2925.0,0.1316495003520317
2924.0,0.1316495003520317
2923.0,0.1316495003520317
2922.0,0.13159069668503998
2921.0,0.13135556160517425
2920.0,0.13106182166708868
2919.0,0.1308269726783169
2918.0,0.1308269726783169
2917.0,0.13100309751286465
2916.0,0.1312967977214634
2915.0,0.13159069668503998
2914.0,0.1318847946727828
2913.0,0.132179091954427
2912.0,0.13259144347720886
2911.0,0.1331221856625011
2910.0,0.13365357725039817
2909.0,0.13406733180681396
2908.0,0.13436311230037123
2907.0,0.13448148092522594
2906.0,0.1345998818206986
2905.0,0.13471831500438958
2904.0,0.13477754370982087
2903.0,0.13477754370982087
2902.0,0.1345998818206986
2901.0,0.13430394008392943
2900.0,0.13406733180681396
2899.0,0.1337717526203528
2898.0,0.13347637446715632
2897.0,0.13318119707395182
2896.0,0.13300418688935212
2895.0,0.13300418688935212
2894.0,0.1331221856625011
2893.0,0.13324021650489182
2892.0,0.13318119707395182
2891.0,0.1331221856625011
2890.0,0.1331221856625011
2889.0,0.1331221856625011
2888.0,0.13306318226836056
2887.0,0.13288622016802298
2886.0,0.13270933014511588
2885.0,0.13265038281120756
2884.0,0.13265038281120756
2883.0,0.13265038281120756
2882.0,0.1325325121409484
2881.0,0.13241467345296387
2880.0,0.1322379753497993
2879.0,0.13212021654162043
2878.0,0.13200248965504868
2877.0,0.13194363817695853
2876.0,0.13194363817695853
2875.0,0.13200248965504868
2874.0,0.132179091954427
2873.0,0.13235576609690147
2872.0,0.13235576609690147
2871.0,0.13229686672990226
2870.0,0.13212021654162043
2869.0,0.13212021654162043
2868.0,0.132179091954427
2867.0,0.13235576609690147
2866.0,0.13235576609690147
2865.0,0.132179091954427
2864.0,0.13194363817695853
2863.0,0.13170831198214428
2862.0,0.13170831198214428
2861.0,0.1318847946727828
2860.0,0.1322379753497993
2859.0,0.13265038281120756
2858.0,0.13294519952329842
2857.0,0.13300418688935212
2856.0,0.13282724882135022
2855.0,0.13259144347720886
2854.0,0.13229686672990226
2853.0,0.13200248965504868
2852.0,0.13176713157753506
2851.0,0.13153190097901324
2850.0,0.13141433344123432
2849.0,0.13135556160517425
2848.0,0.13141433344123432
2847.0,0.1314731132317961
2846.0,0.13141433344123432
2845.0,0.1312967977214634
2844.0,0.1311792938024825
2843.0,0.13106182166708868
2842.0,0.13094438129809216
2841.0,0.13070959579060148
2840.0,0.13041629228657614
2839.0,0.13024040521758962
2838.0,0.13018179202067182
2837.0,0.13012318673323353
2836.0,0.13000599987825812
2835.0,0.12994741830645506
2834.0,0.12988884463559924
2833.0,0.12994741830645506
2832.0,0.12994741830645506
2831.0,0.13000599987825812
2830.0,0.13000599987825812
2829.0,0.13000599987825812
2828.0,0.12994741830645506
2827.0,0.12977172098820566
2826.0,0.1295960947209729
2825.0,0.12942053944731513
2824.0,0.12924505510985984
2823.0,0.1290696416513042
2822.0,0.12889429901441463
2821.0,0.12877744324029283
2820.0,0.12877744324029283
2819.0,0.12895273869450063
2818.0,0.12924505510985984
2817.0,0.1295960947209729
2816.0,0.12977172098820566
2815.0,0.12971317100740865
2814.0,0.1295960947209729
2813.0,0.12942053944731513
2812.0,0.12936203678919433
2811.0,0.12942053944731513
2810.0,0.12953756841108
2809.0,0.12965462891904034
2808.0,0.12971317100740865
2807.0,0.12971317100740865
2806.0,0.12965462891904034
2805.0,0.1295960947209729
2804.0,0.12971317100740865
2803.0,0.12983027886355947
2802.0,0.12988884463559924
2801.0,0.12988884463559924
2800.0,0.12971317100740865
2799.0,0.12953756841108
2798.0,0.12936203678919433
2797.0,0.12942053944731513
2796.0,0.1295960947209729
2795.0,0.12971317100740865
2794.0,0.12983027886355947
2793.0,0.12977172098820566
2792.0,0.12965462891904034
2791.0,0.1294790499872358
2790.0,0.12936203678919433
2789.0,0.12924505510985984
2788.0,0.12924505510985984
2787.0,0.12924505510985984
2786.0,0.12924505510985984
2785.0,0.12924505510985984
2784.0,0.12924505510985984
2783.0,0.12930354201075
2782.0,0.12930354201075
2781.0,0.12912810493225724
2780.0,0.12889429901441463
2779.0,0.12866061890013913
2778.0,0.1286022185125162
2777.0,0.1287190271420271
2776.0,0.12883586719705065
2775.0,0.12895273869450063
2774.0,0.12901118623942476
2773.0,0.12901118623942476
2772.0,0.12901118623942476
2771.0,0.12901118623942476
2770.0,0.12901118623942476
2769.0,0.12895273869450063
2768.0,0.12895273869450063
2767.0,0.12889429901441463
2766.0,0.12889429901441463
2765.0,0.12889429901441463
2764.0,0.12883586719705065
2763.0,0.12889429901441463
2762.0,0.12901118623942476
2761.0,0.12912810493225724
2760.0,0.12924505510985984
2759.0,0.12936203678919433
2758.0,0.12936203678919433
2757.0,0.12936203678919433
2756.0,0.12930354201075
2755.0,0.12918657608440243
2754.0,0.12901118623942476
2753.0,0.12883586719705065
2752.0,0.12877744324029283
2751.0,0.12889429901441463
2750.0,0.1290696416513042
2749.0,0.12924505510985984
2748.0,0.12930354201075
2747.0,0.12936203678919433
2746.0,0.12942053944731513
2745.0,0.12953756841108
2744.0,0.12965462891904034
2743.0,0.12971317100740865
2742.0,0.12965462891904034
2741.0,0.1295960947209729
2740.0,0.1294790499872358
2739.0,0.12942053944731513
2738.0,0.12936203678919433
2737.0,0.12930354201075
2736.0,0.12936203678919433
2735.0,0.12942053944731513
2734.0,0.12942053944731513
2733.0,0.12930354201075
2732.0,0.12912810493225724
2731.0,0.12901118623942476
2730.0,0.12901118623942476
2729.0,0.12924505510985984
2728.0,0.1294790499872358
2727.0,0.1295960947209729
2726.0,0.1295960947209729
2725.0,0.12953756841108
2724.0,0.1294790499872358
2723.0,0.12942053944731513
2722.0,0.12936203678919433
2721.0,0.12936203678919433
2720.0,0.12936203678919433
2719.0,0.12936203678919433
2718.0,0.12930354201075
2717.0,0.12912810493225724
2716.0,0.12895273869450063
2715.0,0.12877744324029283
2714.0,0.1287190271420271
2713.0,0.12877744324029283
2712.0,0.12895273869450063
2711.0,0.12918657608440243
2710.0,0.12936203678919433
2709.0,0.12936203678919433
2708.0,0.12918657608440243
2707.0,0.1290696416513042
2706.0,0.12895273869450063
2705.0,0.12883586719705065
2704.0,0.12883586719705065
2703.0,0.12883586719705065
2702.0,0.12889429901441463
2701.0,0.12901118623942476
2700.0,0.12918657608440243
2699.0,0.12936203678919433
2698.0,0.12942053944731513
2697.0,0.12942053944731513
2696.0,0.12930354201075
2695.0,0.1290696416513042
2694.0,0.12895273869450063
2693.0,0.12883586719705065
2692.0,0.12889429901441463
2691.0,0.12901118623942476
2690.0,0.12912810493225724
2689.0,0.12930354201075
2688.0,0.12942053944731513
2687.0,0.1294790499872358
2686.0,0.1294790499872358
2685.0,0.12953756841108
2684.0,0.1294790499872358
2683.0,0.12942053944731513
2682.0,0.12936203678919433
2681.0,0.12930354201075
2680.0,0.12930354201075
2679.0,0.12930354201075
2678.0,0.12930354201075
2677.0,0.12936203678919433
2676.0,0.12953756841108
2675.0,0.12971317100740865
2674.0,0.12983027886355947
2673.0,0.12971317100740865
2672.0,0.1294790499872358
2671.0,0.12924505510985984
2670.0,0.12901118623942476
2669.0,0.12901118623942476
2668.0,0.12912810493225724
2667.0,0.12936203678919433
2666.0,0.12953756841108
2665.0,0.1295960947209729
2664.0,0.12965462891904034
2663.0,0.1295960947209729
2662.0,0.12953756841108
2661.0,0.12942053944731513
2660.0,0.12936203678919433
2659.0,0.12924505510985984
2658.0,0.12918657608440243
2657.0,0.12912810493225724
2656.0,0.1290696416513042
2655.0,0.12918657608440243
2654.0,0.12936203678919433
2653.0,0.1294790499872358
2652.0,0.12953756841108
2651.0,0.1294790499872358
2650.0,0.12936203678919433
2649.0,0.12918657608440243
2648.0,0.1290696416513042
2647.0,0.1290696416513042
2646.0,0.12912810493225724
2645.0,0.1290696416513042
2644.0,0.12901118623942476
2643.0,0.12889429901441463
2642.0,0.12895273869450063
2641.0,0.12918657608440243
2640.0,0.12942053944731513
2639.0,0.1295960947209729
2638.0,0.12965462891904034
2637.0,0.12965462891904034
2636.0,0.12953756841108
2635.0,0.12942053944731513
2634.0,0.12936203678919433
2633.0,0.12930354201075
2632.0,0.12942053944731513
2631.0,0.1294790499872358
2630.0,0.12953756841108
2629.0,0.12942053944731513
2628.0,0.12930354201075
2627.0,0.12924505510985984
2626.0,0.12936203678919433
2625.0,0.12942053944731513
2624.0,0.12942053944731513
2623.0,0.12936203678919433
2622.0,0.1294790499872358
2621.0,0.12971317100740865
2620.0,0.12988884463559924
2619.0,0.12994741830645506
2618.0,0.12994741830645506
2617.0,0.12994741830645506
2616.0,0.12988884463559924
2615.0,0.12988884463559924
2614.0,0.12977172098820566
2613.0,0.12965462891904034
2612.0,0.1295960947209729
2611.0,0.12953756841108
2610.0,0.12942053944731513
2609.0,0.12942053944731513
2608.0,0.12953756841108
2607.0,0.12983027886355947
2606.0,0.13006458935314003
2605.0,0.13024040521758962
2604.0,0.13024040521758962
2603.0,0.13018179202067182
2602.0,0.13018179202067182
2601.0,0.13035765534840538
2600.0,0.1304749371427727
2599.0,0.13053358991913355
2598.0,0.13053358991913355
2597.0,0.13053358991913355
2596.0,0.1306509192409071
2595.0,0.13070959579060148
2594.0,0.13070959579060148
2593.0,0.1305922506177981
2592.0,0.1305922506177981
2591.0,0.1306509192409071
2590.0,0.13076828026902376
2589.0,0.13070959579060148
2588.0,0.1306509192409071
2587.0,0.13070959579060148
2586.0,0.1308269726783169
2585.0,0.13106182166708868
2584.0,0.1311792938024825
2583.0,0.1312967977214634
2582.0,0.1312967977214634
2581.0,0.13123804178794973
2580.0,0.13123804178794973
2579.0,0.13123804178794973
2578.0,0.13123804178794973
2577.0,0.1312967977214634
2576.0,0.13123804178794973
2575.0,0.13123804178794973
2574.0,0.1311792938024825
2573.0,0.1311205537629121
2572.0,0.1311205537629121
2571.0,0.13123804178794973
2570.0,0.13153190097901324
2569.0,0.13176713157753506
2568.0,0.13176713157753506
2567.0,0.1316495003520317
2566.0,0.1314731132317961
2565.0,0.13135556160517425
2564.0,0.13135556160517425
2563.0,0.13141433344123432
2562.0,0.1314731132317961
2561.0,0.13141433344123432
2560.0,0.13135556160517425
2559.0,0.13123804178794973
2558.0,0.13123804178794973
2557.0,0.1312967977214634
2556.0,0.13141433344123432
2555.0,0.13159069668503998
2554.0,0.13182595914036166
2553.0,0.1320613491092153
2552.0,0.132179091954427
2551.0,0.132179091954427
2550.0,0.132179091954427
2549.0,0.1322379753497993
2548.0,0.13235576609690147
2547.0,0.13235576609690147
2546.0,0.1322379753497993
2545.0,0.13212021654162043
2544.0,0.13200248965504868
2543.0,0.13200248965504868
2542.0,0.13212021654162043
2541.0,0.132179091954427
2540.0,0.132179091954427
2539.0,0.13212021654162043
2538.0,0.13212021654162043
2537.0,0.13212021654162043
2536.0,0.132179091954427
2535.0,0.132179091954427
2534.0,0.13212021654162043
2533.0,0.1320613491092153
2532.0,0.13212021654162043
2531.0,0.132179091954427
2530.0,0.13235576609690147
2529.0,0.13247358880025661
2528.0,0.13247358880025661
2527.0,0.13247358880025661
2526.0,0.13241467345296387
2525.0,0.13235576609690147
2524.0,0.13229686672990226
2523.0,0.1322379753497993
2522.0,0.13229686672990226
2521.0,0.13229686672990226
2520.0,0.13235576609690147
2519.0,0.13241467345296387
2518.0,0.13247358880025661
2517.0,0.13265038281120756
2516.0,0.13276828548110586
2515.0,0.13288622016802298
2514.0,0.13294519952329842
2513.0,0.13294519952329842
2512.0,0.13288622016802298
2511.0,0.13282724882135022
2510.0,0.13282724882135022
2509.0,0.13276828548110586
2508.0,0.13270933014511588
2507.0,0.13270933014511588
2506.0,0.13276828548110586
2505.0,0.13294519952329842
2504.0,0.1331221856625011
2503.0,0.13318119707395182
2502.0,0.13306318226836056
2501.0,0.13294519952329842
2500.0,0.13288622016802298
2499.0,0.13288622016802298
2498.0,0.13288622016802298
2497.0,0.13282724882135022
2496.0,0.13276828548110586
2495.0,0.13276828548110586
2494.0,0.13276828548110586
2493.0,0.13270933014511588
2492.0,0.13265038281120756
2491.0,0.13259144347720886
2490.0,0.1325325121409484
2489.0,0.13247358880025661
2488.0,0.13247358880025661
2487.0,0.13265038281120756
2486.0,0.13300418688935212
2485.0,0.13341732293645103
2484.0,0.13359450162194508
2483.0,0.13353543402825974
2482.0,0.13318119707395182
2481.0,0.13282724882135022
2480.0,0.13259144347720886
2479.0,0.13241467345296387
2478.0,0.13235576609690147
2477.0,0.13229686672990226
2476.0,0.1322379753497993
2475.0,0.1322379753497993
2474.0,0.13229686672990226
2473.0,0.13241467345296387
2472.0,0.13247358880025661
2471.0,0.13259144347720886
2470.0,0.13270933014511588
2469.0,0.13282724882135022
2468.0,0.13294519952329842
2467.0,0.13300418688935212
2466.0,0.13306318226836056
2465.0,0.1331221856625011
2464.0,0.13306318226836056
2463.0,0.13288622016802298
2462.0,0.13276828548110586
2461.0,0.13270933014511588
2460.0,0.13265038281120756
2459.0,0.13270933014511588
2458.0,0.13276828548110586
2457.0,0.13276828548110586
2456.0,0.13276828548110586
2455.0,0.13270933014511588
2454.0,0.13265038281120756
2453.0,0.13265038281120756
2452.0,0.13259144347720886
2451.0,0.13265038281120756
2450.0,0.13270933014511588
2449.0,0.13282724882135022
2448.0,0.13288622016802298
2447.0,0.13288622016802298
2446.0,0.13282724882135022
2445.0,0.13270933014511588
2444.0,0.13259144347720886
2443.0,0.13265038281120756
2442.0,0.13270933014511588
2441.0,0.13276828548110586
2440.0,0.13276828548110586
2439.0,0.13276828548110586
2438.0,0.13270933014511588
2437.0,0.13265038281120756
2436.0,0.1325325121409484
2435.0,0.13241467345296387
2434.0,0.13241467345296387
2433.0,0.1325325121409484
2432.0,0.13265038281120756
2431.0,0.13270933014511588
2430.0,0.13270933014511588
2429.0,0.13270933014511588
2428.0,0.13265038281120756
2427.0,0.13265038281120756
2426.0,0.13265038281120756
2425.0,0.13265038281120756
2424.0,0.13276828548110586
2423.0,0.13288622016802298
2422.0,0.13300418688935212
2421.0,0.1331221856625011
2420.0,0.1331221856625011
2419.0,0.13318119707395182
2418.0,0.1331221856625011
2417.0,0.1331221856625011
2416.0,0.13306318226836056
2415.0,0.13300418688935212
2414.0,0.13306318226836056
2413.0,0.13318119707395182
2412.0,0.13318119707395182
2411.0,0.13318119707395182
2410.0,0.1331221856625011
2409.0,0.13318119707395182
2408.0,0.13324021650489182
2407.0,0.13329924395750092
2406.0,0.13335827943396006
2405.0,0.13341732293645103
2404.0,0.13347637446715632
2403.0,0.13347637446715632
2402.0,0.13347637446715632
2401.0,0.13353543402825974
2400.0,0.13353543402825974
2399.0,0.13359450162194508
2398.0,0.13365357725039817
2397.0,0.1337717526203528
2396.0,0.13394907599072514
2395.0,0.1340081998737246
2394.0,0.13394907599072514
2393.0,0.13383085236622927
2392.0,0.13365357725039817
2391.0,0.13365357725039817
2390.0,0.13371266091580503
2389.0,0.13394907599072514
2388.0,0.1341264717921853
2387.0,0.13430394008392943
2386.0,0.13430394008392943
2385.0,0.13430394008392943
2384.0,0.13424477592854833
2383.0,0.13424477592854833
2382.0,0.13424477592854833
2381.0,0.13424477592854833
2380.0,0.13418561983203192
2379.0,0.13406733180681396
2378.0,0.13383085236622927
2377.0,0.13335827943396006
2376.0,0.13282724882135022
2375.0,0.13247358880025661
2374.0,0.13247358880025661
2373.0,0.13259144347720886
2372.0,0.13265038281120756
2371.0,0.13288622016802298
2370.0,0.13406733180681396
2369.0,0.1360826230421397
2368.0,0.1381073096085541
2367.0,0.1387643813659596
2366.0,0.13774932540207496
2365.0,0.13560759484941132
2364.0,0.13318119707395182
2363.0,0.13141433344123432
2362.0,0.13123804178794973
2361.0,0.13294519952329842
2360.0,0.13566694496660703
2359.0,0.13780896894840278
2358.0,0.1384058553561347
2357.0,0.1374512304752069
2356.0,0.136142038116027
2355.0,0.13513308567147386
2354.0,0.134659094375416
2353.0,0.13454067733803532
2352.0,0.13424477592854833
2351.0,0.13353543402825974
2350.0,0.13282724882135022
2349.0,0.13270933014511588
2348.0,0.13318119707395182
2347.0,0.1337717526203528
2346.0,0.13418561983203192
2345.0,0.13448148092522594
2344.0,0.13442229258007088
2343.0,0.13383085236622927
2342.0,0.13341732293645103
2341.0,0.13347637446715632
2340.0,0.13335827943396006
2339.0,0.13270933014511588
2338.0,0.13182595914036166
2337.0,0.13141433344123432
2336.0,0.1316495003520317
2335.0,0.1322379753497993
2334.0,0.13259144347720886
2333.0,0.13265038281120756
2332.0,0.13241467345296387
2331.0,0.132179091954427
2330.0,0.13212021654162043
2329.0,0.13241467345296387
2328.0,0.13306318226836056
2327.0,0.13383085236622927
2326.0,0.1345998818206986
2325.0,0.13513308567147386
2324.0,0.13531096586314884
2323.0,0.13501453934020602
2322.0,0.13442229258007088
2321.0,0.1337717526203528
2320.0,0.13335827943396006
2319.0,0.13341732293645103
2318.0,0.13371266091580503
2317.0,0.1340081998737246
2316.0,0.13406733180681396
2315.0,0.13394907599072514
2314.0,0.13365357725039817
2313.0,0.13324021650489182
2312.0,0.13300418688935212
2311.0,0.13306318226836056
2310.0,0.13341732293645103
2309.0,0.1337717526203528
2308.0,0.1340081998737246
2307.0,0.13406733180681396
2306.0,0.13406733180681396
2305.0,0.13406733180681396
2304.0,0.13406733180681396
2303.0,0.1341264717921853
2302.0,0.13424477592854833
2301.0,0.13424477592854833
2300.0,0.13430394008392943
2299.0,0.13430394008392943
2298.0,0.13430394008392943
2297.0,0.13424477592854833
2296.0,0.13418561983203192
2295.0,0.1341264717921853
2294.0,0.1341264717921853
2293.0,0.13418561983203192
2292.0,0.13430394008392943
2291.0,0.13448148092522594
2290.0,0.13471831500438958
2289.0,0.13489602535887202
2288.0,0.1349552783069008
2287.0,0.13489602535887202
2286.0,0.13471831500438958
2285.0,0.13454067733803532
2284.0,0.13442229258007088
2283.0,0.13424477592854833
2282.0,0.13424477592854833
2281.0,0.13430394008392943
2280.0,0.13442229258007088
2279.0,0.13454067733803532
2278.0,0.1345998818206986
2277.0,0.134659094375416
2276.0,0.13483678049391368
2275.0,0.1349552783069008
2274.0,0.1349552783069008
2273.0,0.13483678049391368
2272.0,0.13471831500438958
2271.0,0.1345998818206986
2270.0,0.13454067733803532
2269.0,0.13454067733803532
2268.0,0.13454067733803532
2267.0,0.13454067733803532
2266.0,0.13454067733803532
2265.0,0.13454067733803532
2264.0,0.1345998818206986
2263.0,0.13471831500438958
2262.0,0.13483678049391368
2261.0,0.13489602535887202
2260.0,0.13483678049391368
2259.0,0.13477754370982087
2258.0,0.134659094375416
2257.0,0.1345998818206986
2256.0,0.13454067733803532
2255.0,0.13448148092522594
2254.0,0.13436311230037123
2253.0,0.13430394008392943
2252.0,0.13430394008392943
2251.0,0.13436311230037123
2250.0,0.13436311230037123
2249.0,0.13436311230037123
2248.0,0.13436311230037123
2247.0,0.13436311230037123
2246.0,0.13436311230037123
2245.0,0.13430394008392943
2244.0,0.13424477592854833
2243.0,0.13424477592854833
2242.0,0.13430394008392943
2241.0,0.13442229258007088
2240.0,0.13442229258007088
2239.0,0.13442229258007088
2238.0,0.13448148092522594
2237.0,0.13454067733803532
2236.0,0.13454067733803532
2235.0,0.13448148092522594
2234.0,0.13436311230037123
2233.0,0.13418561983203192
2232.0,0.1341264717921853
2231.0,0.13406733180681396
2230.0,0.1341264717921853
2229.0,0.13418561983203192
2228.0,0.13430394008392943
2227.0,0.13436311230037123
2226.0,0.13436311230037123
2225.0,0.13430394008392943
2224.0,0.13430394008392943
2223.0,0.13424477592854833
2222.0,0.13418561983203192
2221.0,0.1341264717921853
2220.0,0.13406733180681396
2219.0,0.13394907599072514
2218.0,0.1337717526203528
2217.0,0.13359450162194508
2216.0,0.13353543402825974
2215.0,0.13365357725039817
2214.0,0.13371266091580503
2213.0,0.13371266091580503
2212.0,0.13371266091580503
2211.0,0.13365357725039817
2210.0,0.13359450162194508
2209.0,0.13353543402825974
2208.0,0.13341732293645103
2207.0,0.13335827943396006
2206.0,0.13329924395750092
2205.0,0.13335827943396006
2204.0,0.13347637446715632
2203.0,0.13353543402825974
2202.0,0.13353543402825974
2201.0,0.13359450162194508
2200.0,0.13359450162194508
2199.0,0.13365357725039817
2198.0,0.13365357725039817
2197.0,0.13359450162194508
2196.0,0.13347637446715632
2195.0,0.13335827943396006
2194.0,0.13335827943396006
2193.0,0.13329924395750092
2192.0,0.13324021650489182
2191.0,0.13318119707395182
2190.0,0.1331221856625011
2189.0,0.13306318226836056
2188.0,0.13306318226836056
2187.0,0.1331221856625011
2186.0,0.1331221856625011
2185.0,0.13318119707395182
2184.0,0.13318119707395182
2183.0,0.13318119707395182
2182.0,0.1331221856625011
2181.0,0.13306318226836056
2180.0,0.13294519952329842
2179.0,0.13288622016802298
2178.0,0.13288622016802298
2177.0,0.13282724882135022
2176.0,0.13276828548110586
2175.0,0.13270933014511588
2174.0,0.13265038281120756
2173.0,0.13270933014511588
2172.0,0.13276828548110586
2171.0,0.13276828548110586
2170.0,0.13270933014511588
2169.0,0.13265038281120756
2168.0,0.13265038281120756
2167.0,0.13270933014511588
2166.0,0.13270933014511588
2165.0,0.13270933014511588
2164.0,0.13265038281120756
2163.0,0.13265038281120756
2162.0,0.13270933014511588
2161.0,0.13270933014511588
2160.0,0.13270933014511588
2159.0,0.13259144347720886
2158.0,0.13247358880025661
2157.0,0.13241467345296387
2156.0,0.13241467345296387
2155.0,0.13241467345296387
2154.0,0.13241467345296387
2153.0,0.13259144347720886
2152.0,0.13276828548110586
2151.0,0.13300418688935212
2150.0,0.1331221856625011
2149.0,0.13318119707395182
2148.0,0.13318119707395182
2147.0,0.1331221856625011
2146.0,0.13306318226836056
2145.0,0.13294519952329842
2144.0,0.13288622016802298
2143.0,0.13282724882135022
2142.0,0.13282724882135022
2141.0,0.13276828548110586
2140.0,0.13282724882135022
2139.0,0.13294519952329842
2138.0,0.13318119707395182
2137.0,0.13341732293645103
2136.0,0.13353543402825974
2135.0,0.13353543402825974
2134.0,0.13341732293645103
2133.0,0.13329924395750092
2132.0,0.13324021650489182
2131.0,0.13324021650489182
2130.0,0.13324021650489182
2129.0,0.13324021650489182
2128.0,0.13324021650489182
2127.0,0.1331221856625011
2126.0,0.13300418688935212
2125.0,0.13282724882135022
2124.0,0.13270933014511588
2123.0,0.13270933014511588
2122.0,0.13288622016802298
2121.0,0.13318119707395182
2120.0,0.13341732293645103
2119.0,0.13353543402825974
2118.0,0.13359450162194508
2117.0,0.13347637446715632
2116.0,0.13335827943396006
2115.0,0.13329924395750092
2114.0,0.13329924395750092
2113.0,0.13335827943396006
2112.0,0.13335827943396006
2111.0,0.13335827943396006
2110.0,0.13335827943396006
2109.0,0.13329924395750092
2108.0,0.13324021650489182
2107.0,0.13324021650489182
2106.0,0.13329924395750092
2105.0,0.13341732293645103
2104.0,0.13341732293645103
2103.0,0.13341732293645103
2102.0,0.13341732293645103
2101.0,0.13341732293645103
2100.0,0.13347637446715632
2099.0,0.13353543402825974
2098.0,0.13359450162194508
2097.0,0.13365357725039817
2096.0,0.13365357725039817
2095.0,0.13359450162194508
2094.0,0.13347637446715632
2093.0,0.13335827943396006
2092.0,0.13318119707395182
2091.0,0.13300418688935212
2090.0,0.13288622016802298
2089.0,0.13282724882135022
2088.0,0.13288622016802298
2087.0,0.13300418688935212
2086.0,0.13318119707395182
2085.0,0.13335827943396006
2084.0,0.13335827943396006
2083.0,0.13329924395750092
2082.0,0.13318119707395182
2081.0,0.1331221856625011
2080.0,0.13306318226836056
2079.0,0.13294519952329842
2078.0,0.13276828548110586
2077.0,0.1325325121409484
2076.0,0.13235576609690147
2075.0,0.13229686672990226
2074.0,0.13235576609690147
2073.0,0.13247358880025661
2072.0,0.13259144347720886
2071.0,0.13265038281120756
2070.0,0.13259144347720886
2069.0,0.13241467345296387
2068.0,0.132179091954427
2067.0,0.13194363817695853
2066.0,0.1318847946727828
2065.0,0.1318847946727828
2064.0,0.13182595914036166
2063.0,0.13170831198214428
2062.0,0.1314731132317961
2061.0,0.1312967977214634
2060.0,0.1311792938024825
2059.0,0.1311205537629121
2058.0,0.1311205537629121
2057.0,0.1311205537629121
2056.0,0.13106182166708868
2055.0,0.1311205537629121
2054.0,0.1311792938024825
2053.0,0.13123804178794973
2052.0,0.1311792938024825
2051.0,0.13100309751286465
2050.0,0.1308269726783169
2049.0,0.1306509192409071
2048.0,0.1304749371427727
2047.0,0.13035765534840538
2046.0,0.13024040521758962
2045.0,0.13012318673323353
2044.0,0.12994741830645506
2043.0,0.12983027886355947
2042.0,0.12971317100740865
2041.0,0.12965462891904034
2040.0,0.12965462891904034
2039.0,0.1295960947209729
2038.0,0.1294790499872358
2037.0,0.12930354201075
2036.0,0.12924505510985984
2035.0,0.12918657608440243
2034.0,0.12912810493225724
2033.0,0.12901118623942476
2032.0,0.12889429901441463
2031.0,0.12877744324029283
2030.0,0.12877744324029283
2029.0,0.12883586719705065
2028.0,0.12877744324029283
2027.0,0.12866061890013913
2026.0,0.12854382597704617
2025.0,0.1284854412916181
2024.0,0.12842706445412122
2023.0,0.1283103343144847
2022.0,0.12819363554127072
2021.0,0.1280186461566306
2020.0,0.12784372725170723
2019.0,0.1276688787697493
2018.0,0.1276688787697493
2017.0,0.1276688787697493
2016.0,0.1276688787697493
2015.0,0.12761061158217912
2014.0,0.1275523522109867
2013.0,0.12749410065407507
2012.0,0.12737762097471172
2011.0,0.12720296001040166
2010.0,0.12714475529518965
2009.0,0.1270865583796048
2008.0,0.12702836926155658
2007.0,0.12697018793895576
2006.0,0.12691201440971422
2005.0,0.12697018793895576
2004.0,0.12697018793895576
2003.0,0.12702836926155658
2002.0,0.12702836926155658
2001.0,0.12714475529518965
2000.0,0.12726117252733116
1999.0,0.12737762097471172
1998.0,0.12731939284807026
1997.0,0.12720296001040166
1996.0,0.12697018793895576
1995.0,0.12685384867174432
1994.0,0.12679569072295926
1993.0,0.12685384867174432
1992.0,0.12697018793895576
1991.0,0.1270865583796048
1990.0,0.12714475529518965
1989.0,0.12714475529518965
1988.0,0.12702836926155658
1987.0,0.12691201440971422
1986.0,0.12679569072295926
1985.0,0.12679569072295926
1984.0,0.12679569072295926
1983.0,0.12685384867174432
1982.0,0.12685384867174432
1981.0,0.12685384867174432
1980.0,0.12685384867174432
1979.0,0.12679569072295926
1978.0,0.12679569072295926
1977.0,0.1267375405612734
1976.0,0.12667939818460128
1975.0,0.12667939818460128
1974.0,0.1267375405612734
1973.0,0.1267375405612734
1972.0,0.12679569072295926
1971.0,0.12685384867174432
1970.0,0.12691201440971422
1969.0,0.12691201440971422
1968.0,0.12697018793895576
1967.0,0.12697018793895576
1966.0,0.12702836926155658
1965.0,0.12702836926155658
1964.0,0.12702836926155658
1963.0,0.1270865583796048
1962.0,0.12720296001040166
1961.0,0.12737762097471172
1960.0,0.12761061158217912
1959.0,0.12784372725170723
1958.0,0.1281352979118051
1957.0,0.1283103343144847
1956.0,0.12842706445412122
1955.0,0.1284854412916181
1954.0,0.12854382597704617
1953.0,0.1284854412916181
1952.0,0.12836869546244634
1951.0,0.1283103343144847
1950.0,0.1282519810081284
1949.0,0.12819363554127072
1948.0,0.1281352979118051
1947.0,0.1280186461566306
1946.0,0.12784372725170723
1945.0,0.1275523522109867
1944.0,0.12731939284807026
1943.0,0.12720296001040166
1942.0,0.12714475529518965
1941.0,0.12714475529518965
1940.0,0.12702836926155658
1939.0,0.12697018793895576
1938.0,0.12679569072295926
1937.0,0.12644690648638135
1936.0,0.12592425477696523
1935.0,0.12551818230053358
1934.0,0.12522836281570182
1933.0,0.124996646399959
1932.0,0.1248808345374317
1931.0,0.12470717462899183
1930.0,0.1244757360506914
1929.0,0.12424442074194553
1928.0,0.12395544975390482
1927.0,0.1236666709136196
1926.0,0.12337808396572703
1925.0,0.12308968865537295
1924.0,0.12274386688641381
1923.0,0.12234075588839133
1922.0,0.1219955297319748
1921.0,0.12176553132495593
1920.0,0.12170805075020397
1919.0,0.12170805075020397
1918.0,0.12165057778222454
1917.0,0.12136332697348307
1916.0,0.12101887660626365
1915.0,0.12067469921519258
1914.0,0.12044539906102569
1913.0,0.12027350336042275
1912.0,0.1201016756699902
1911.0,0.11987267778337518
1910.0,0.11970100857424737
1909.0,0.11952940719622163
1908.0,0.11935787359571504
1907.0,0.11918640771920863
1906.0,0.1190150095132465
1905.0,0.11884367892443626
1904.0,0.11861534322942724
1903.0,0.11833009232793867
1902.0,0.11810202642698875
1901.0,0.11793105556385153
1900.0,0.11770319906234805
1899.0,0.11736163830396129
1898.0,0.11702034596270106
1897.0,0.11662251025166115
1896.0,0.11633856484638239
1895.0,0.11611154211151953
1894.0,0.11599807523121286
1893.0,0.11588463798833115
1892.0,0.11577123036739612
1891.0,0.11560117444331386
1890.0,0.11543118508166672
1889.0,0.11514801725400226
1888.0,0.11475189221861393
1887.0,0.11435612816423602
1886.0,0.11407366019856902
1885.0,0.11379137583250243
1884.0,0.11356568037106163
1883.0,0.11322735694556196
1882.0,0.1130019543289007
1881.0,0.1128329791052256
1880.0,0.1125514997500463
1879.0,0.11227020271196975
1878.0,0.11198908775497118
1877.0,0.11165198982195101
1876.0,0.11137127461477392
1875.0,0.11109074073646874
1874.0,0.11086644403327606
1873.0,0.1106422631110684
1872.0,0.11041819785037621
1871.0,0.11019424813191447
1870.0,0.10997041383658313
1869.0,0.10969078310005154
1868.0,0.10941133229451272
1867.0,0.10907622851098608
1866.0,0.10868560061785693
1865.0,0.10840679565103484
1864.0,0.1081838804751396
1863.0,0.10790539730951965
1862.0,0.10773839308446487
1861.0,0.10757145305477
1860.0,0.10740457717110186
1859.0,0.1071265931112344
1858.0,0.10684878687013422
1857.0,0.10651565378151395
1856.0,0.10623823794205656
1855.0,0.10596099919539115
1854.0,0.10579474085791629
1853.0,0.10557316203581202
1852.0,0.10529634739076998
1851.0,0.10496440254767725
1850.0,0.10463271122663809
1849.0,0.10430127304069425
1848.0,0.10402526764093545
1847.0,0.10391491457671487
1846.0,0.10402526764093545
1845.0,0.10402526764093545
1844.0,0.1038045895457893
1843.0,0.10325338439259446
1842.0,0.1028679566179056
1841.0,0.10275789719463457
1840.0,0.10281292341984649
1839.0,0.10281292341984649
1838.0,0.10264786565568684
1837.0,0.10248287059947447
1836.0,0.10231793820358015
1835.0,0.1022080180607754
1834.0,0.10204318999304807
1833.0,0.10187842445889239
1832.0,0.10165883427249067
1831.0,0.10138450258381404
1830.0,0.10111034407341357
1829.0,0.10078158214862709
1828.0,0.1005625457138224
1827.0,0.1005625457138224
1826.0,0.10061729446673495
1825.0,0.1005078038618683
1824.0,0.10012480397898926
1823.0,0.09968750301627338
1822.0,0.09925064193892053
1821.0,0.09881421986284966
1820.0,0.09843270997155007
1819.0,0.09810596802617932
1818.0,0.09783387072894878
1817.0,0.09750757884139638
1816.0,0.09707290398273716
1815.0,0.09653017149282994
1814.0,0.09604229147682952
1813.0,0.0955549589230904
1812.0,0.09512223303659528
1811.0,0.09463593123310776
1810.0,0.09409623378338305
1809.0,0.0935572061829677
1808.0,0.09307265269104414
1807.0,0.09253489323414388
1806.0,0.0919441259012328
1805.0,0.09130056764777605
1804.0,0.09065796163869155
1803.0,0.09012318200960712
1802.0,0.08964244272712252
1801.0,0.08905559425002108
1800.0,0.08830984124613894
1799.0,0.08740600224789441
1798.0,0.08661005636824437
1797.0,0.08608023504853413
1796.0,0.08560394787021397
1795.0,0.08523386307414738
1794.0,0.08475850269380558
1793.0,0.08396738981143059
1792.0,0.08286224724355584
1791.0,0.08155025759884227
1790.0,0.08034671768963575
1789.0,0.07951143534170213
1788.0,0.07883394936226118
1787.0,0.0781575185941421
1786.0,0.07737832847680104
1785.0,0.07644514193245056
1784.0,0.07535895258283709
1783.0,0.07417242537525759
1782.0,0.07314329105030759
1781.0,0.0720140529005715
1780.0,0.07068327324650436
1779.0,0.06940751155740177
1778.0,0.06844043290919477
1777.0,0.0675769736232612
1776.0,0.06671522765130522
1775.0,0.06600683616875758
1774.0,0.06519865825346338
1773.0,0.0636873663378068
1772.0,0.06118017497378969
1771.0,0.058737090681050264
1770.0,0.05729763111133224
1769.0,0.05660442349104544
1768.0,0.05566540802921782
1767.0,0.054186873412661596
1766.0,0.05271335532220167
1765.0,0.05173378011970464
1764.0,0.05095170768433621
1763.0,0.049927370249842395
1762.0,0.048225491918274965
1761.0,0.04609540658654021
1760.0,0.044360346976747955
1759.0,0.043495409683302455
1758.0,0.043063586155803746
1757.0,0.04215336629184985
1756.0,0.04081545726880842
1755.0,0.03995754427315856
1754.0,0.04014804520039483
1753.0,0.04091088563260792
1752.0,0.041579471947481794
1751.0,0.04224908912272074
1750.0,0.04339941178682327
1749.0,0.04541983725624266
1748.0,0.04837110616336182
1747.0,0.0525172634430815
1746.0,0.05769424710410598
1745.0,0.06378795567975115
1744.0,0.07114346641808922
1743.0,0.07987667370927598
1742.0,0.08948231448273347
1741.0,0.09979678698310646
1740.0,0.11153968196461372
1739.0,0.124996646399959
1738.0,0.13828641242856565
1737.0,0.1497214474819628
1736.0,0.1600822243213189
1735.0,0.17230771132555445
1734.0,0.19003647828598602
1733.0,0.21056031543282083
1732.0,0.2276049389179997
1731.0,0.24214865631442017
1730.0,0.2577463300934064
1729.0,0.2754783728814374
1728.0,0.29422178717140235
1727.0,0.31291715539562936
1726.0,0.3318005158013382
1725.0,0.35144484433732925
1724.0,0.37335173152598977
1723.0,0.3973974795797435
1722.0,0.42170469487917384
1721.0,0.44393884099046743
1720.0,0.46382046786277464
1719.0,0.4845235586176242
1718.0,0.5113083016830593
1717.0,0.5446982283429236
1716.0,0.5749551254486112
1715.0,0.5956795327782693
1714.0,0.609594843519919
1713.0,0.6172627342386696
1712.0,0.6178027896225464
1711.0,0.6120765330265634
1710.0,0.6022337438735499
1709.0,0.5895602137896534
1708.0,0.5744657795017365
1707.0,0.5575202309355514
1706.0,0.538351431936545
1705.0,0.5181275896893365
1704.0,0.5008630054626173
1703.0,0.4877159367181465
1702.0,0.4759935544426275
1701.0,0.46155194828978274
1700.0,0.4430947309445521
1699.0,0.4264322269607814
1698.0,0.4153296155356512
1697.0,0.40638169187046413
1696.0,0.39599006758776967
1695.0,0.38489201255680605
1694.0,0.37582107425197764
1693.0,0.369470428573176
1692.0,0.364013888199167
1691.0,0.3580304022979406
1690.0,0.3515424057174774
1689.0,0.34543844525825684
1688.0,0.3404640928457836
1687.0,0.3362048777805924
1686.0,0.33170728955177897
1685.0,0.3264262035769485
1684.0,0.32184596198956283
1683.0,0.3188492500675786
1682.0,0.31659270086790503
1681.0,0.3140792078054646
1680.0,0.3109576609718283
1679.0,0.3075937651663696
1678.0,0.30434324006380975
1677.0,0.30120374820956886
1676.0,0.2978280491422889
1675.0,0.2943073034622965
1674.0,0.29098458302788277
1673.0,0.28777133038046476
1672.0,0.28483264215154214
1671.0,0.2819137052169085
1670.0,0.27909682918654255
1669.0,0.2766264329810155
1668.0,0.2740883677049517
1667.0,0.27164621797877153
1666.0,0.2692984557181548
1665.0,0.26664221207441474
1664.0,0.26376290109527134
1663.0,0.26082336808927
1662.0,0.2582183038568333
1661.0,0.25586354759875274
1660.0,0.2536772349100471
1659.0,0.25142438306900816
1658.0,0.24926024876464936
1657.0,0.24703013497091586
1656.0,0.24488773360492888
1655.0,0.24245214653075609
1654.0,0.23957751657678794
1653.0,0.2376966367122315
1652.0,0.23589862352377122
1651.0,0.2336615247487126
1650.0,0.23247310059161808
1649.0,0.23158391178366822
1648.0,0.2301797422364078
1647.0,0.22892721677880523
1646.0,0.2280452510360509
1645.0,0.22694530663573742
1644.0,0.22555603107503486
1643.0,0.22424396215590203
1642.0,0.2231535913047007
1641.0,0.221921138062545
1640.0,0.22054781659593825
1639.0,0.21903497039168318
1638.0,0.21752737583371373
1637.0,0.21602499658732888
1636.0,0.21502629004559926
1635.0,0.21474136664229881
1634.0,0.2141009716156166
1633.0,0.21317762050081246
1632.0,0.212185432936977
1631.0,0.21105427297625234
1630.0,0.20992605157369537
1629.0,0.2088709992727138
1628.0,0.20795868928791772
1627.0,0.20711825461460287
1626.0,0.206349282292827
1625.0,0.2054422487452383
1624.0,0.20453710560962013
1623.0,0.20384212309308558
1622.0,0.2032175882986922
1621.0,0.20245548563827365
1620.0,0.20155653964981246
1619.0,0.20065945054641832
1618.0,0.19983300979863605
1617.0,0.19955787866374353
1616.0,0.19997064075586568
1615.0,0.20065945054641832
1614.0,0.20141840527145227
1613.0,0.20197120659592693
1612.0,0.20204035626280392
1611.0,0.2016256233184388
1610.0,0.2010042655561186
1609.0,0.200246033588114
1608.0,0.19935164463601196
1607.0,0.19845909380968174
1606.0,0.19749993223560658
1605.0,0.19647460442346754
1604.0,0.19517932127883775
1603.0,0.1940236492824372
1602.0,0.19300648631789286
1601.0,0.1919917000896001
1600.0,0.19084446825281964
1599.0,0.18963304631837485
1598.0,0.18842499412940672
1597.0,0.1872871332346313
1596.0,0.18615224577114575
1595.0,0.1849538239353694
1594.0,0.18395765907800343
1593.0,0.18309616062433975
1592.0,0.18223636771963214
1591.0,0.18157614490792118
1590.0,0.18104868835982724
1589.0,0.18071935302751885
1588.0,0.18032448000570733
1587.0,0.17992996568767428
1586.0,0.17953580942231584
1585.0,0.17933886535640453
1584.0,0.17940450345550985
1583.0,0.180127178049454
1582.0,0.18157614490792118
1581.0,0.18342730397389695
1580.0,0.18535293054814383
1579.0,0.18722029299103604
1578.0,0.1886261029461067
1577.0,0.18956584407732735
1576.0,0.18996921359416064
1575.0,0.18963304631837485
1574.0,0.1887602272467106
1573.0,0.1878891587969005
1572.0,0.1867526991023949
1571.0,0.18528638730402336
1570.0,0.1835598320438614
1569.0,0.18203819546800593
1568.0,0.180587688790675
1567.0,0.17947015147648027
1566.0,0.17842097208799124
1565.0,0.17730898922394545
1564.0,0.17613469067548881
1563.0,0.17535358528164813
1562.0,0.17476867680009978
1561.0,0.17386038206408516
1560.0,0.17224313702138327
1559.0,0.17153345264732156
1558.0,0.17192040944325404
1557.0,0.1711468403233598
1556.0,0.1705032502798176
1555.0,0.16998906406388214
1554.0,0.1693471862025755
1553.0,0.16857818293497795
1552.0,0.16793838540927308
1551.0,0.1673633724032968
1550.0,0.16685288808721488
1549.0,0.16627930955536674
1548.0,0.16564288728159493
1547.0,0.16494389827988365
1546.0,0.16411926818260536
1545.0,0.16323295260579473
1544.0,0.16247469055039865
1543.0,0.16178077809237412
1542.0,0.16096212661169407
1541.0,0.159956669396506
1540.0,0.15914144595812063
1539.0,0.15832774992636556
1538.0,0.15751557558842988
1537.0,0.157390760389438
1536.0,0.15757799664235028
1535.0,0.15751557558842988
1534.0,0.15707887924001773
1533.0,0.15682953548010214
1532.0,0.1567049172634929
1531.0,0.15664262156204445
1530.0,0.15645578805436489
1529.0,0.1562690348879079
1528.0,0.15602015552184012
1527.0,0.15564710368910672
1526.0,0.15508812608785938
1525.0,0.1545918603782066
1524.0,0.15415809257824264
1523.0,0.15366288787019466
1522.0,0.15292113793428452
1521.0,0.15205736115477642
1520.0,0.15107228677292173
1519.0,0.15033494452126717
1518.0,0.1497214474819628
1517.0,0.1490476002065071
1516.0,0.1482525808667361
1515.0,0.14733705565543076
1514.0,0.1466060225493342
1513.0,0.1459369881335788
1512.0,0.14539036190420496
1511.0,0.14526898278605782
1510.0,0.14581545616639335
1509.0,0.1471541819850033
1508.0,0.15064201833870117
1507.0,0.1600822243213189
1506.0,0.17418455501479646
1505.0,0.18302996224270052
1504.0,0.1854860476317619
1503.0,0.18462151503408197
1502.0,0.18170810920000413
1501.0,0.17743966305730785
1500.0,0.17237229523256659
1499.0,0.16710805524020933
1498.0,0.16209605540705763
1497.0,0.15757799664235028
1496.0,0.15366288787019466
1495.0,0.15051916275601385
1494.0,0.1482525808667361
1493.0,0.14672777597931685
1492.0,0.14545106418704923
1491.0,0.143996546002779
1490.0,0.14260718907909875
1489.0,0.14182386201765573
1488.0,0.14170347546611461
1487.0,0.14176366457048695
1486.0,0.14182386201765573
1485.0,0.14212497447643746
1484.0,0.1427881576831076
1483.0,0.14369413356670102
1482.0,0.14490504884137811
1481.0,0.14630178822382556
1480.0,0.14776406058811253
1479.0,0.1491088158640761
1478.0,0.15027355580367208
1477.0,0.15162611615539823
1476.0,0.15304467498017615
1475.0,0.15434394001645568
1474.0,0.15533647175976073
1473.0,0.15614457737683884
1472.0,0.15682953548010214
1471.0,0.15682953548010214
1470.0,0.15639352807548912
1469.0,0.1559579579589836
1468.0,0.15558495952617557
1467.0,0.15521228117215347
1466.0,0.1550260618531123
1465.0,0.15521228117215347
1464.0,0.15577141869837208
1463.0,0.15645578805436489
1462.0,0.15720360482441986
1461.0,0.15807768832054925
1460.0,0.1590787998012282
1459.0,0.1600194423216572
1458.0,0.16121385505340546
1457.0,0.16310648362356628
1456.0,0.1646899991309374
1455.0,0.16519794595130088
1454.0,0.16545214231905137
1453.0,0.16564288728159493
1452.0,0.16564288728159493
1451.0,0.165261481096159
1450.0,0.16462654752999129
1449.0,0.16392919108485815
1448.0,0.16304326294044946
1447.0,0.16196991701467978
1446.0,0.16083631708534996
1445.0,0.15976840504189105
1444.0,0.1588909155318461
1443.0,0.15807768832054925
1442.0,0.15732836623921154
1441.0,0.15664262156204445
1440.0,0.15614457737683884
1439.0,0.15564710368910672
1438.0,0.15490195998574308
1437.0,0.15366288787019466
1436.0,0.15181088300860135
1435.0,0.1495988520028415
1434.0,0.14733705565543076
1433.0,0.1450869776921444
1432.0,0.14248658522331015
1431.0,0.13948232253825377
1430.0,0.1363797797296844
1429.0,0.13329924395750092
1428.0,0.1304749371427727
1427.0,0.1280769681176266
1426.0,0.12592425477696523
1425.0,0.1236666709136196
1424.0,0.12136332697348307
1423.0,0.11941504393502012
1422.0,0.11821604440661537
1421.0,0.11741854644554883
1420.0,0.1169634899723202
1419.0,0.11730473761840288
1418.0,0.11912926746757657
1417.0,0.12251347193039863
1416.0,0.12778543660241448
1415.0,0.13537027545448765
1414.0,0.1455724942121388
1413.0,0.15882830550046778
1412.0,0.1752235375244544
1411.0,0.19382002601611292
1410.0,0.212185432936977
1409.0,0.22782503917538577
1408.0,0.23927602785804836
1407.0,0.24542234395526963
1406.0,0.2458811057745871
1405.0,0.24139085734025634
1404.0,0.23388471677858602
1403.0,0.2254100497352054
1402.0,0.21731243176503368
1401.0,0.20964445358561346
1400.0,0.20204035626280392
1399.0,0.19422736806433094
1398.0,0.18701983396051958
1397.0,0.1812464095022832
1396.0,0.1764605663431411
1395.0,0.17192040944325404
1394.0,0.16729952903943257
1393.0,0.16316971351112097
1392.0,0.15989390554324223
1391.0,0.15732836623921154
1390.0,0.15508812608785938
1389.0,0.15298290206464582
1388.0,0.15113378850522063
1387.0,0.14953756723848333
1386.0,0.1482525808667361
1385.0,0.1472760892087941
1384.0,0.1465451586319333
1383.0,0.14599776687301103
1382.0,0.14545106418704923
1381.0,0.14502632627358292
1380.0,0.1447838052666366
1379.0,0.14466259553045968
1378.0,0.14466259553045968
1377.0,0.1447838052666366
1376.0,0.14502632627358292
1375.0,0.14551177495556966
1374.0,0.14624096692523136
1373.0,0.14703230897118158
1372.0,0.14752000636314366
1371.0,0.1477030341730745
1370.0,0.14745901423020125
1369.0,0.14666689499766483
1368.0,0.14526898278605782
1367.0,0.14333151638846497
1366.0,0.1409818561111058
1365.0,0.13816700234205515
1364.0,0.13501453934020602
1363.0,0.1312967977214634
1362.0,0.12743585690934855
1361.0,0.12383991517437187
1360.0,0.12090412049992727
1359.0,0.11855827805860697
1358.0,0.1165657063169907
1357.0,0.114865033936566
1356.0,0.11350927482751816
1355.0,0.11249522576462212
1354.0,0.11176432672943282
1353.0,0.11153968196461372
1352.0,0.11198908775497118
1351.0,0.11322735694556196
1350.0,0.11548784080960606
1349.0,0.11878658374498086
1348.0,0.12337808396572703
1347.0,0.12936203678919433
1346.0,0.1370342410222376
1345.0,0.1466060225493342
1344.0,0.15832774992636556
1343.0,0.17166239994099564
1342.0,0.1862189218259176
1341.0,0.20155653964981246
1340.0,0.21716919479740815
1339.0,0.23106605781321843
1338.0,0.24055880286630238
1337.0,0.24412514432750854
1336.0,0.2423003749122612
1335.0,0.23574912456122687
1334.0,0.2251182341812037
1333.0,0.21140744407964052
1332.0,0.19592875111433883
1331.0,0.17999569319168218
1330.0,0.16507090353942422
1329.0,0.1519957285027318
1328.0,0.1410419452819942
1327.0,0.1320613491092153
1326.0,0.1248808345374317
1325.0,0.11912926746757657
1324.0,0.11463877996848804
1323.0,0.11125903931710734
1322.0,0.10879717273970457
1321.0,0.10695988804288215
1320.0,0.10557316203581202
1319.0,0.10446696051592963
1318.0,0.10374943753836186
1317.0,0.10325338439259446
1316.0,0.10297804393963661
1315.0,0.1028679566179056
1314.0,0.10308815917397474
1313.0,0.10369429253391926
1312.0,0.10463271122663809
1311.0,0.10590557267730127
1310.0,0.10740457717110186
1309.0,0.10907622851098608
1308.0,0.11075433910702048
1307.0,0.11249522576462212
1306.0,0.11424311893073247
1305.0,0.11582793047608719
1304.0,0.11730473761840288
1303.0,0.11895789180659433
1302.0,0.12096149476276286
1301.0,0.12360893818081231
1300.0,0.12702836926155658
1299.0,0.1311792938024825
1298.0,0.1360232160956132
1297.0,0.14140265500530758
1296.0,0.14709324120304634
1295.0,0.15310645668337486
1294.0,0.15920410115290617
1293.0,0.16532502553725603
1292.0,0.1714045436282976
1291.0,0.17743966305730785
1290.0,0.1832285876666535
1289.0,0.18889439298206967
1288.0,0.1944311824514442
1287.0,0.19983300979863605
1286.0,0.2049546295788751
1285.0,0.20985563495709947
1284.0,0.21445663004340698
1283.0,0.21889116427053357
1282.0,0.2231535913047007
1281.0,0.22723835285596783
1280.0,0.23128791962233652
1279.0,0.23530093620163206
1278.0,0.2393513804186438
1277.0,0.24359212745104175
1276.0,0.24848994972995864
1275.0,0.25406684154055714
1274.0,0.26058589730130466
1273.0,0.26833066817136375
1272.0,0.2773660774661879
1271.0,0.28793985753892537
1270.0,0.29990229538694635
1269.0,0.31327437892545795
1268.0,0.32808698755841315
1267.0,0.3442854503812902
1266.0,0.36121133284260165
1265.0,0.37840832414078207
1264.0,0.39555793373927695
1263.0,0.4122890349810886
1262.0,0.4278256863869405
1261.0,0.44201185177508684
1260.0,0.45481663178459386
1259.0,0.4659738939438649
1258.0,0.4750848524601332
1257.0,0.48267211770562657
1256.0,0.48958905198982317
1255.0,0.4967542285348874
1254.0,0.5045944368538067
1253.0,0.5137112390394336
1252.0,0.5247647773958717
1251.0,0.5380515047962382
1250.0,0.5529971015338377
1249.0,0.5696024086130331
1248.0,0.5882119954561311
1247.0,0.6085355881608967
1246.0,0.629301907424423
1245.0,0.6497519816658373
1244.0,0.6695862266508092
1243.0,0.6873995607387406
1242.0,0.7020207558406377
1241.0,0.7126462272852536
1240.0,0.7201050199883618
1239.0,0.7237680420781665
1238.0,0.7228493860362033
1237.0,0.7178312216953584
1236.0,0.7099653886374819
1235.0,0.7000570999772331
1234.0,0.6880343396316337
1233.0,0.6744843366368518
1232.0,0.6607473659673004
1231.0,0.6470460882899123
1230.0,0.63320361671327
1229.0,0.6197887582883941
1228.0,0.6073030467403342
1227.0,0.5953372991262778
1226.0,0.5835259208997792
1225.0,0.5725138909042145
1224.0,0.5624079677460387
1223.0,0.5533075336284727
1222.0,0.5442417968958633
1221.0,0.5353614409049672
1220.0,0.5269511949114623
1219.0,0.5189875790434271
1218.0,0.5108856306210807
1217.0,0.5029320636014951
1216.0,0.4949857599158929
1215.0,0.4871822414351268
1214.0,0.47938547812176413
1213.0,0.4715975620463826
1212.0,0.4640732586044307
1211.0,0.45680141436235333
1210.0,0.4494047925106721
1209.0,0.44225225835853177
1208.0,0.43545228824405213
1207.0,0.42887372291568826
1206.0,0.4222784754909792
1205.0,0.41589502960054725
1204.0,0.41005039867429227
1203.0,0.40439356513439706
1202.0,0.3987006898056624
1201.0,0.3928667956084333
1200.0,0.3870043439676525
1199.0,0.3812199754937853
1198.0,0.37551163748655103
1197.0,0.3700809644964582
1196.0,0.36491856398912703
1195.0,0.3598168080786599
1194.0,0.35457773065090814
1193.0,0.3491099221436875
1192.0,0.3435184842095014
1191.0,0.33799812061008283
1190.0,0.332547047110046
1189.0,0.32725580169340085
1188.0,0.32230181852548934
1187.0,0.31767438133219295
1186.0,0.3131850454926832
1185.0,0.30883006586839623
1184.0,0.3048687022959742
1183.0,0.3012906505574131
1182.0,0.29808678878765615
1181.0,0.29533481454547084
1180.0,0.29319690296266177
1179.0,0.2915790998652872
1178.0,0.2904756441236589
1177.0,0.2896287357392373
1176.0,0.28903688100472436
1175.0,0.2884458317498304
1174.0,0.2874344721266917
1173.0,0.28575408898210597
1172.0,0.2833290244398645
1171.0,0.2800061736323962
1170.0,0.2758880460387878
1169.0,0.2710783536271406
1168.0,0.2658404867555333
1167.0,0.2604276555499081
1166.0,0.25515960321462083
1165.0,0.2501091587285782
1164.0,0.2454987706130829
1163.0,0.24116377525304178
1162.0,0.23702150913225695
1161.0,0.2330669061627162
1160.0,0.22936887222219338
1159.0,0.22577509513108107
1158.0,0.22242819530859004
1157.0,0.2192507688964478
1156.0,0.21631076365268354
1155.0,0.21367456560992992
1154.0,0.21119550695535172
1153.0,0.2089412564081745
1152.0,0.20697834015401684
1151.0,0.2054422487452383
1150.0,0.2043980201058202
1149.0,0.2036338450224786
1148.0,0.2032175882986922
1147.0,0.20307892466983124
1146.0,0.2033562962148836
1145.0,0.2041199826559248
1144.0,0.2054422487452383
1143.0,0.20732821085843267
1142.0,0.20985563495709947
1141.0,0.2128939069634299
1140.0,0.21638223480925123
1139.0,0.22025924882325953
1138.0,0.224608028303388
1137.0,0.22929523178422073
1136.0,0.23462951970835144
1135.0,0.24086118371883347
1134.0,0.24818221226312076
1133.0,0.25649023527157033
1132.0,0.2656803191409931
1131.0,0.2756421957735735
1130.0,0.2863414837916436
1129.0,0.2978280491422889
1128.0,0.3103360349842297
1127.0,0.32358076828164006
1126.0,0.3373365904259624
1125.0,0.35144484433732925
1124.0,0.3659259745125316
1123.0,0.38069792412439196
1122.0,0.39523411529611274
1121.0,0.4094925379914167
1120.0,0.4231981041710875
1119.0,0.43568909003939726
1118.0,0.445995678988097
1117.0,0.4535807331648083
1116.0,0.45804652554176384
1115.0,0.4591701858889201
1114.0,0.4575480526240234
1113.0,0.45419824284072385
1112.0,0.45099673797421214
1111.0,0.4491603949342149
1110.0,0.44989400065240726
1109.0,0.4539511335982658
1108.0,0.4618034216505458
1107.0,0.4730149314400043
1106.0,0.4869156395348557
1105.0,0.5026556189824201
1104.0,0.519561852822183
1103.0,0.5367043900379973
1102.0,0.5533075336284727
1101.0,0.5691190535471087
1100.0,0.5841922723644568
1099.0,0.5982549177629373
1098.0,0.6104795341536227
1097.0,0.6205131862827262
1096.0,0.6285626825958992
1095.0,0.6343248595440822
1094.0,0.6377060620357689
1093.0,0.6390281162740641
1092.0,0.63921731012672
1091.0,0.6382721639824072
1090.0,0.6356366453842692
1089.0,0.6318991482906486
1088.0,0.627824713884936
1087.0,0.6232406045951202
1086.0,0.6179829574251317
1085.0,0.6124322205828114
1084.0,0.6071272545979205
1083.0,0.6020599913279623
1082.0,0.5967078548417457
1081.0,0.5907433479610904
1080.0,0.5843590201038458
1079.0,0.5774101601485178
1078.0,0.5696024086130331
1077.0,0.5609832716124872
1076.0,0.5525318690502443
1075.0,0.5443938874181331
1074.0,0.5359577945611893
1073.0,0.5270973481963359
1072.0,0.5181275896893365
1071.0,0.5094796906366512
1070.0,0.5011383110071159
1069.0,0.4934949675951279
1068.0,0.48678239993206107
1067.0,0.4805658050862971
1066.0,0.474436941729933
1065.0,0.4682656907234497
1064.0,0.46243274284732494
1063.0,0.456925764966468
1062.0,0.45124217142629575
1061.0,0.44563199900991246
1060.0,0.44033272161194237
1059.0,0.4353339357479107
1058.0,0.43062609038495414
1057.0,0.4262004177842593
1056.0,0.4223933226374643
1055.0,0.4189610512278328
1054.0,0.41578188788259496
1053.0,0.4129628822565443
1052.0,0.4103854593687337
1051.0,0.4082677610481644
1050.0,0.4064924106682348
1049.0,0.405165644416682
1048.0,0.40439356513439706
1047.0,0.4038429190838275
1046.0,0.4031830640844094
1045.0,0.4025242101296225
1044.0,0.40208552879747184
1043.0,0.4016472901307162
1042.0,0.40077213722620364
1041.0,0.39913596369016036
1040.0,0.39718065756730025
1039.0,0.3949105381184195
1038.0,0.39211625564301
1037.0,0.38870163770357125
1036.0,0.3851027839668655
1035.0,0.38142897187987024
1034.0,0.3776823391661557
1033.0,0.3737623148530995
1032.0,0.36936875597950003
1031.0,0.36421476446634826
1030.0,0.3583276267753135
1029.0,0.35212823469376753
1028.0,0.34649805303706716
1027.0,0.3423705686110481
1026.0,0.3409399277590617
1025.0,0.34380593782081426
1024.0,0.35163998901906846
1023.0,0.36471736200178806
1022.0,0.3827899054425661
1021.0,0.4054969561799109
1020.0,0.43191566868460596
1019.0,0.4604221166546909
1018.0,0.48758245139916
1017.0,0.5094796906366512
1016.0,0.5225893120927485
1015.0,0.5253467466379373
1014.0,0.5187007266671442
1013.0,0.5062631977231602
1012.0,0.4916049668669469
1011.0,0.4774253673088231
1010.0,0.46470587995722945
1009.0,0.4535807331648083
1008.0,0.4441803169388088
1007.0,0.4364002711184689
1006.0,0.4294570601181025
1005.0,0.4234283159347092
1004.0,0.4179366370882913
1003.0,0.4129628822565443
1002.0,0.40871273494150073
1001.0,0.4050552633049167
1000.0,0.4018663541867622
999.0,0.3988094673846665
998.0,0.3956659268970888
997.0,0.39265222323158655
996.0,0.3898723869240046
995.0,0.38742804593482383
994.0,0.3849973854754116
993.0,0.3825802532628235
992.0,0.3803849942571935
991.0,0.37840832414078207
990.0,0.37675070960209944
989.0,0.37520242103923884
988.0,0.3737623148530995
987.0,0.3725317275402904
986.0,0.37130461728597663
985.0,0.3702846673528677
984.0,0.3697755892475678
983.0,0.36957212497497616
982.0,0.36957212497497616
981.0,0.3697755892475678
980.0,0.3703865546218168
979.0,0.37130461728597663
978.0,0.37242933581945703
977.0,0.3739677521709812
976.0,0.37582107425197764
975.0,0.37778597703370465
974.0,0.37965570024550677
973.0,0.3813244611148603
972.0,0.3828947694976219
971.0,0.38426031138084515
970.0,0.3849973854754116
969.0,0.38541913300251385
968.0,0.3856301604517114
967.0,0.3856301604517114
966.0,0.3849973854754116
965.0,0.383839687152417
964.0,0.38237070224215786
963.0,0.38080228420705264
962.0,0.3790315643557103
961.0,0.3771645204784797
960.0,0.37520242103923884
959.0,0.37314658533327427
958.0,0.37110043557939343
957.0,0.36906388093580866
956.0,0.36744148546732824
955.0,0.3659259745125316
954.0,0.36411431471872735
953.0,0.36211018341920953
952.0,0.35991626862687975
951.0,0.35793137265849584
950.0,0.3561526897002858
949.0,0.3546759984377066
948.0,0.3533022687006655
947.0,0.3520305416370282
946.0,0.35095736591382365
945.0,0.3499840475281615
944.0,0.3493040202393891
943.0,0.3486250560869568
942.0,0.34756025241057986
941.0,0.34620881261218805
940.0,0.3447654929657058
939.0,0.3434227086038859
938.0,0.3419886033428876
937.0,0.3406543642538229
936.0,0.3395139842150323
935.0,0.3386606599939601
934.0,0.33790355458207655
933.0,0.3370533856673754
932.0,0.3362048777805924
931.0,0.33507610656191833
930.0,0.3338565727084417
929.0,0.332547047110046
928.0,0.3314277308154421
927.0,0.33031129194379183
926.0,0.32910504647979
925.0,0.32771737521107935
924.0,0.32651830292665274
923.0,0.3255062827036499
922.0,0.32440494361325367
921.0,0.3230321857052414
920.0,0.3214816209598861
919.0,0.32002730572258153
918.0,0.3186682940308343
917.0,0.31758413832264143
916.0,0.3166827380781174
915.0,0.3158730743869247
914.0,0.3148855309534606
913.0,0.31381076575597633
912.0,0.3128278954052004
911.0,0.3118472444084337
910.0,0.3111354319452082
909.0,0.3105135516357522
908.0,0.3101585908624953
907.0,0.3098925605436693
906.0,0.3098039199714864
905.0,0.3098925605436693
904.0,0.3101585908624953
903.0,0.31060233717871766
902.0,0.31104653736258214
901.0,0.3113132757158765
900.0,0.3114022249188302
899.0,0.3114022249188302
898.0,0.3112243447271552
897.0,0.3108688027655022
896.0,0.3104247842400618
895.0,0.3098039199714864
894.0,0.30883006586839623
893.0,0.30715308072277003
892.0,0.30495634117870596
891.0,0.3025091128289432
890.0,0.3000755972575233
889.0,0.2978280491422889
888.0,0.2956778591777647
887.0,0.29387989029729633
886.0,0.2921744316677686
885.0,0.29073003902416916
884.0,0.28971335229710915
883.0,0.2896287357392373
882.0,0.2912392763096834
881.0,0.29499204066666396
880.0,0.30085631260551615
879.0,0.3084764778318456
878.0,0.317223353685566
877.0,0.3268868957617663
876.0,0.3378090091409929
875.0,0.3502758140704776
874.0,0.36411431471872735
873.0,0.37788963963878053
872.0,0.38944629468290537
871.0,0.3969639437494783
870.0,0.3994627056355311
869.0,0.39772291569980744
868.0,0.3930814740517088
867.0,0.3870043439676525
866.0,0.3805935891132226
865.0,0.374790474618119
864.0,0.3700809644964582
863.0,0.36612773734166737
862.0,0.3630108981877709
861.0,0.36031433875731866
860.0,0.35793137265849584
859.0,0.35595550718525115
858.0,0.35418488170335816
857.0,0.35291057128344505
856.0,0.35232368675912906
855.0,0.35212823469376753
854.0,0.35212823469376753
853.0,0.35222594973116994
852.0,0.35232368675912906
851.0,0.35261702988538013
850.0,0.3533022687006655
849.0,0.35447948509412597
848.0,0.3562513145404742
847.0,0.3581294545236873
846.0,0.3596179552904315
845.0,0.36061313098231595
844.0,0.36121133284260165
843.0,0.36121133284260165
842.0,0.36031433875731866
841.0,0.3585258894959005
840.0,0.3567447749752284
839.0,0.35536449623184696
838.0,0.35457773065090814
837.0,0.3537923877933149
836.0,0.35261702988538013
835.0,0.35095736591382365
834.0,0.3491099221436875
833.0,0.34746358140697464
832.0,0.34611244192902246
831.0,0.34495765866879835
830.0,0.3434227086038859
829.0,0.341606973720876
828.0,0.339608901597533
827.0,0.3377144842778699
826.0,0.3360165453917334
825.0,0.33432521900610657
824.0,0.33292079453578327
823.0,0.3314277308154421
822.0,0.32993978252686573
821.0,0.32854944578750533
820.0,0.3274403722367243
819.0,0.326610421811695
818.0,0.32569011105852286
817.0,0.32449661527204343
816.0,0.3233063903751334
815.0,0.32230181852548934
814.0,0.3214816209598861
813.0,0.32075385458614103
812.0,0.31984585826562695
811.0,0.3186682940308343
810.0,0.31713320433767533
809.0,0.31551370781126575
808.0,0.3141687253739365
807.0,0.31327437892545795
806.0,0.31273865375649357
805.0,0.3119363030536557
804.0,0.3108688027655022
803.0,0.3094495384896414
802.0,0.3078583906332164
801.0,0.30627305107635316
800.0,0.3044307729638145
799.0,0.3025091128289432
798.0,0.30120374820956886
797.0,0.3011168632474097
796.0,0.3027706572402824
795.0,0.30574588797472146
794.0,0.30927245612963317
793.0,0.31247103878536575
792.0,0.3144373888417702
791.0,0.31461659019851274
790.0,0.3130957304318227
789.0,0.3104247842400618
788.0,0.3073293008436311
787.0,0.3040807471686
786.0,0.30094314545233236
785.0,0.29800052511036323
784.0,0.29533481454547084
783.0,0.2927705806727059
782.0,0.2901366825596008
781.0,0.2875186621980814
780.0,0.28516748756666743
779.0,0.28316227670047556
778.0,0.28133226468378925
777.0,0.27909682918654255
776.0,0.27605202356835656
775.0,0.272296116314646
774.0,0.26833066817136375
773.0,0.2648004515776867
772.0,0.261774551857495
771.0,0.25884840114821506
770.0,0.25562877266813944
769.0,0.2521222941802099
768.0,0.2482591261890994
767.0,0.24435378054332002
766.0,0.24025663240227502
765.0,0.23604817396667577
764.0,0.2316579413554667
763.0,0.22687207596666514
762.0,0.22170400891116615
761.0,0.21645371772965016
760.0,0.21105427297625234
759.0,0.20551195334083028
758.0,0.19990181982522426
757.0,0.19429529556613567
756.0,0.18882730493344568
755.0,0.18349356295364294
754.0,0.17802818235795725
753.0,0.1725014918665413
752.0,0.16672536070943655
751.0,0.16039627052916305
750.0,0.1537866361206126
749.0,0.14733705565543076
748.0,0.1414628024303608
747.0,0.13626089265478303
746.0,0.13159069668503998
745.0,0.12749410065407507
744.0,0.12412880927263426
743.0,0.12170805075020397
742.0,0.12056003400478299
741.0,0.12147820449879343
740.0,0.12534426740189897
739.0,0.13306318226836056
738.0,0.14502632627358292
737.0,0.16127680996862814
736.0,0.18071935302751885
735.0,0.20217868863597643
734.0,0.22475374025976347
733.0,0.24848994972995864
732.0,0.2740883677049517
731.0,0.3018124301338776
730.0,0.3315208970674144
729.0,0.3634118162701576
728.0,0.3972890550424426
727.0,0.432268037451931
726.0,0.46584692581493736
725.0,0.4940364819818739
724.0,0.5134278494816436
723.0,0.5231683714877393
722.0,0.525055664534612
721.0,0.523023534240473
720.0,0.5197055399969934
719.0,0.5162701009999762
718.0,0.5128616245228135
717.0,0.5093393466438632
716.0,0.5058454059815571
715.0,0.5021032570867798
714.0,0.4977094720852271
713.0,0.4932244633933567
712.0,0.489454989793388
711.0,0.48678239993206107
710.0,0.4846561069116191
709.0,0.48267211770562657
708.0,0.4805658050862971
707.0,0.4784696587212891
706.0,0.47612352436186867
705.0,0.47340229089654784
704.0,0.47056964563301396
703.0,0.46788288375119613
702.0,0.46546624399488445
701.0,0.4634415574284698
700.0,0.46155194828978274
699.0,0.4591701858889201
698.0,0.4561801948573423
697.0,0.45308735681875745
696.0,0.45050628678498694
695.0,0.44806230463516283
694.0,0.44478459487392685
693.0,0.44033272161194237
692.0,0.4355706730020166
691.0,0.43168091490488836
690.0,0.42887372291568826
689.0,0.4265481779645146
688.0,0.4242350194632807
687.0,0.4219341161639085
686.0,0.4196453388934085
685.0,0.41748211639593746
684.0,0.4156687756324693
683.0,0.41420099098699903
682.0,0.41273815030746586
681.0,0.411056357259985
680.0,0.40871273494150073
679.0,0.4056074496245734
678.0,0.4018663541867622
677.0,0.39891827221597675
676.0,0.3973974795797435
675.0,0.3968556273798176
674.0,0.39609816826832867
673.0,0.39480273261162213
672.0,0.3936186348893951
671.0,0.39265222323158655
670.0,0.39147396642280596
669.0,0.388382889445664
668.0,0.38069792412439196
667.0,0.37448177102836233
666.0,0.3753054687279187
665.0,0.37840832414078207
664.0,0.38048927916150155
663.0,0.38111551500454954
662.0,0.3799681048737027
661.0,0.3774751375964318
660.0,0.37458464784559187
659.0,0.37212230542002844
658.0,0.3700809644964582
657.0,0.3681505378401819
656.0,0.36653154442041336
655.0,0.3651198592334737
654.0,0.363712747901487
653.0,0.36221017063777095
652.0,0.36081244006424606
651.0,0.3597173703033192
650.0,0.358724242768087
649.0,0.3576344191550267
648.0,0.3562513145404742
647.0,0.35447948509412597
646.0,0.35291057128344505
645.0,0.3520305416370282
644.0,0.35163998901906846
643.0,0.35144484433732925
642.0,0.35144484433732925
641.0,0.35222594973116994
640.0,0.35428306063039616
639.0,0.3570411205902093
638.0,0.3597173703033192
637.0,0.3618103598091631
636.0,0.36391348489692743
635.0,0.3658251282373999
634.0,0.36703683183273883
633.0,0.36683464631609675
632.0,0.3653212478213177
631.0,0.3632113109656252
630.0,0.3610118406563181
629.0,0.3589226866746258
628.0,0.35585694949008095
627.0,0.35115229162710637
626.0,0.34620881261218805
625.0,0.34390179798716813
624.0,0.3451499094386059
623.0,0.3481407307530511
622.0,0.3494982051216331
621.0,0.3482375526198891
620.0,0.34534224535047553
619.0,0.3419886033428876
618.0,0.33837659077076987
617.0,0.3355460714188425
616.0,0.3341376997968448
615.0,0.3337629041041956
614.0,0.3336692556980314
613.0,0.3344190089820469
612.0,0.3370533856673754
611.0,0.34122567915564317
610.0,0.34438141645877796
609.0,0.3450537734156558
608.0,0.34380593782081426
607.0,0.34227504579489176
606.0,0.341035157335565
605.0,0.33979879861931805
604.0,0.33856594960608
603.0,0.3369590251060257
602.0,0.3347005005001029
601.0,0.33198702835816785
600.0,0.32947584221792003
