cm-1,A
4000.0,0.011753276624621556
3999.0,0.011753276624621556
3998.0,0.011708658092512314
3997.0,0.011664044143949504
3996.0,0.011619434777991433
3995.0,0.011664044143949504
3994.0,0.011708658092512314
3993.0,0.011753276624621556
3992.0,0.011664044143949504
3991.0,0.011530229790124524
3990.0,0.011396456654336085
3989.0,0.011351874764248926
3988.0,0.011441043121384498
3987.0,0.011574829993696856
3986.0,0.011708658092512314
3985.0,0.011797899741219142
3984.0,0.011797899741219142
3983.0,0.011753276624621556
3982.0,0.011708658092512314
3981.0,0.011664044143949504
3980.0,0.011708658092512314
3979.0,0.011708658092512314
3978.0,0.011708658092512314
3977.0,0.011664044143949504
3976.0,0.011619434777991433
3975.0,0.011619434777991433
3974.0,0.011664044143949504
3973.0,0.011664044143949504
3972.0,0.011708658092512314
3971.0,0.011664044143949504
3970.0,0.011619434777991433
3969.0,0.011619434777991433
3968.0,0.011619434777991433
3967.0,0.011664044143949504
3966.0,0.011664044143949504
3965.0,0.011664044143949504
3964.0,0.011574829993696856
3963.0,0.011530229790124524
3962.0,0.011530229790124524
3961.0,0.011574829993696856
3960.0,0.011619434777991433
3959.0,0.011619434777991433
3958.0,0.011574829993696856
3957.0,0.011530229790124524
3956.0,0.011574829993696856
3955.0,0.011619434777991433
3954.0,0.011619434777991433
3953.0,0.011574829993696856
3952.0,0.011530229790124524
3951.0,0.011441043121384498
3950.0,0.011396456654336085
3949.0,0.011441043121384498
3948.0,0.011530229790124524
3947.0,0.011619434777991433
3946.0,0.011753276624621556
3945.0,0.011753276624621556
3944.0,0.011708658092512314
3943.0,0.011664044143949504
3942.0,0.011708658092512314
3941.0,0.011753276624621556
3940.0,0.011842527443247208
3939.0,0.011842527443247208
3938.0,0.011797899741219142
3937.0,0.011753276624621556
3936.0,0.011753276624621556
3935.0,0.011753276624621556
3934.0,0.011753276624621556
3933.0,0.011708658092512314
3932.0,0.011708658092512314
3931.0,0.011753276624621556
3930.0,0.011753276624621556
3929.0,0.011797899741219142
3928.0,0.011887159731648111
3927.0,0.011887159731648111
3926.0,0.011842527443247208
3925.0,0.011708658092512314
3924.0,0.011574829993696856
3923.0,0.011574829993696856
3922.0,0.011574829993696856
3921.0,0.011574829993696856
3920.0,0.011574829993696856
3919.0,0.011619434777991433
3918.0,0.011664044143949504
3917.0,0.011708658092512314
3916.0,0.011753276624621556
3915.0,0.011753276624621556
3914.0,0.011842527443247208
3913.0,0.011887159731648111
3912.0,0.011931796607364653
3911.0,0.011931796607364653
3910.0,0.011887159731648111
3909.0,0.011753276624621556
3908.0,0.011574829993696856
3907.0,0.011441043121384498
3906.0,0.011351874764248926
3905.0,0.011218156546359825
3904.0,0.01117359295472431
3903.0,0.011218156546359825
3902.0,0.011351874764248926
3901.0,0.011441043121384498
3900.0,0.011441043121384498
3899.0,0.011351874764248926
3898.0,0.011307297450183107
3897.0,0.011262724711199823
3896.0,0.011262724711199823
3895.0,0.011307297450183107
3894.0,0.011441043121384498
3893.0,0.011574829993696856
3892.0,0.011574829993696856
3891.0,0.011441043121384498
3890.0,0.011307297450183107
3889.0,0.011307297450183107
3888.0,0.011441043121384498
3887.0,0.011485634166333858
3886.0,0.011351874764248926
3885.0,0.011262724711199823
3884.0,0.011351874764248926
3883.0,0.011485634166333858
3882.0,0.011530229790124524
3881.0,0.011485634166333858
3880.0,0.011485634166333858
3879.0,0.011530229790124524
3878.0,0.011664044143949504
3877.0,0.011797899741219142
3876.0,0.011797899741219142
3875.0,0.011664044143949504
3874.0,0.011574829993696856
3873.0,0.011708658092512314
3872.0,0.011842527443247208
3871.0,0.011708658092512314
3870.0,0.011396456654336085
3869.0,0.011262724711199823
3868.0,0.011396456654336085
3867.0,0.011619434777991433
3866.0,0.011574829993696856
3865.0,0.011396456654336085
3864.0,0.011351874764248926
3863.0,0.011485634166333858
3862.0,0.011619434777991433
3861.0,0.011664044143949504
3860.0,0.011574829993696856
3859.0,0.011351874764248926
3858.0,0.01117359295472431
3857.0,0.011129033935354915
3856.0,0.011307297450183107
3855.0,0.011307297450183107
3854.0,0.011218156546359825
3853.0,0.01117359295472431
3852.0,0.011218156546359825
3851.0,0.011351874764248926
3850.0,0.011441043121384498
3849.0,0.011485634166333858
3848.0,0.011530229790124524
3847.0,0.011708658092512314
3846.0,0.011931796607364653
3845.0,0.01215504982870197
3844.0,0.012244383261476699
3843.0,0.012289056869694281
3842.0,0.012289056869694281
3841.0,0.012289056869694281
3840.0,0.012244383261476699
3839.0,0.012110390002254778
3838.0,0.0119764380713403
3837.0,0.011842527443247208
3836.0,0.011753276624621556
3835.0,0.011753276624621556
3834.0,0.011842527443247208
3833.0,0.011842527443247208
3832.0,0.011797899741219142
3831.0,0.011797899741219142
3830.0,0.011887159731648111
3829.0,0.012021084124518078
3828.0,0.0119764380713403
3827.0,0.011753276624621556
3826.0,0.011485634166333858
3825.0,0.011396456654336085
3824.0,0.011530229790124524
3823.0,0.011664044143949504
3822.0,0.011574829993696856
3821.0,0.011396456654336085
3820.0,0.011396456654336085
3819.0,0.011530229790124524
3818.0,0.011664044143949504
3817.0,0.011619434777991433
3816.0,0.011530229790124524
3815.0,0.011619434777991433
3814.0,0.011753276624621556
3813.0,0.011797899741219142
3812.0,0.011664044143949504
3811.0,0.011574829993696856
3810.0,0.011664044143949504
3809.0,0.011842527443247208
3808.0,0.011842527443247208
3807.0,0.011708658092512314
3806.0,0.011619434777991433
3805.0,0.011753276624621556
3804.0,0.012021084124518078
3803.0,0.011931796607364653
3802.0,0.011619434777991433
3801.0,0.011441043121384498
3800.0,0.011530229790124524
3799.0,0.011753276624621556
3798.0,0.011842527443247208
3797.0,0.011753276624621556
3796.0,0.011664044143949504
3795.0,0.011664044143949504
3794.0,0.011664044143949504
3793.0,0.011664044143949504
3792.0,0.011530229790124524
3791.0,0.011441043121384498
3790.0,0.011396456654336085
3789.0,0.011441043121384498
3788.0,0.011619434777991433
3787.0,0.011797899741219142
3786.0,0.011887159731648111
3785.0,0.011887159731648111
3784.0,0.011842527443247208
3783.0,0.011797899741219142
3782.0,0.011708658092512314
3781.0,0.011574829993696856
3780.0,0.011351874764248926
3779.0,0.011307297450183107
3778.0,0.011441043121384498
3777.0,0.011619434777991433
3776.0,0.011753276624621556
3775.0,0.011753276624621556
3774.0,0.011753276624621556
3773.0,0.011842527443247208
3772.0,0.011931796607364653
3771.0,0.011931796607364653
3770.0,0.011887159731648111
3769.0,0.011887159731648111
3768.0,0.0119764380713403
3767.0,0.0119764380713403
3766.0,0.011887159731648111
3765.0,0.011708658092512314
3764.0,0.011664044143949504
3763.0,0.011797899741219142
3762.0,0.011931796607364653
3761.0,0.011931796607364653
3760.0,0.011842527443247208
3759.0,0.011753276624621556
3758.0,0.011664044143949504
3757.0,0.011530229790124524
3756.0,0.011485634166333858
3755.0,0.011574829993696856
3754.0,0.011619434777991433
3753.0,0.011530229790124524
3752.0,0.011351874764248926
3751.0,0.011218156546359825
3750.0,0.010995384301463185
3749.0,0.010639186223752484
3748.0,0.01046119667949763
3747.0,0.010505687227290839
3746.0,0.01046119667949763
3745.0,0.010105436281226954
3744.0,0.00974996707218323
3743.0,0.00966114521239847
3742.0,0.009705553871561357
3741.0,0.009616741093766423
3740.0,0.009439170005980158
3739.0,0.00939478857608056
3738.0,0.009483555971770974
3737.0,0.00939478857608056
3736.0,0.009172949432521227
3735.0,0.00908424549391551
3734.0,0.00908424549391551
3733.0,0.008995559669244813
3732.0,0.008773924307505121
3731.0,0.008552401996197112
3730.0,0.008463824699968647
3729.0,0.008463824699968647
3728.0,0.00850811108984062
3727.0,0.00850811108984062
3726.0,0.008640997362049818
3725.0,0.008906891951112605
3724.0,0.009172949432521227
3723.0,0.009306039320248427
3722.0,0.009439170005980158
3721.0,0.009572341514736404
3720.0,0.009794384815193347
3719.0,0.010060986715464404
3718.0,0.010283280051895272
3717.0,0.01046119667949763
3716.0,0.010639186223752484
3715.0,0.01077272626946324
3714.0,0.010728208358306901
3713.0,0.01037222925484893
3712.0,0.009883233932095559
3711.0,0.009572341514736404
3710.0,0.009527946474380489
3709.0,0.009527946474380489
3708.0,0.009483555971770974
3707.0,0.00939478857608056
3706.0,0.00939478857608056
3705.0,0.009483555971770974
3704.0,0.009616741093766423
3703.0,0.009794384815193347
3702.0,0.009794384815193347
3701.0,0.00966114521239847
3700.0,0.009527946474380489
3699.0,0.009439170005980158
3698.0,0.00939478857608056
3697.0,0.009350411681145587
3696.0,0.00939478857608056
3695.0,0.009439170005980158
3694.0,0.009527946474380489
3693.0,0.009616741093766423
3692.0,0.009794384815193347
3691.0,0.010149890396819572
3690.0,0.010505687227290839
3689.0,0.010550182333308289
3688.0,0.01037222925484893
3687.0,0.010194349063173958
3686.0,0.010149890396819572
3685.0,0.010149890396819572
3684.0,0.010194349063173958
3683.0,0.010327752376126709
3682.0,0.01046119667949763
3681.0,0.010505687227290839
3680.0,0.01046119667949763
3679.0,0.010505687227290839
3678.0,0.010683695010048622
3677.0,0.010817248744452446
3676.0,0.01077272626946324
3675.0,0.010728208358306901
3674.0,0.010728208358306901
3673.0,0.010950843561779777
3672.0,0.011129033935354915
3671.0,0.011084479487313281
3670.0,0.010950843561779777
3669.0,0.010906307389674463
3668.0,0.010950843561779777
3667.0,0.010995384301463185
3666.0,0.011084479487313281
3665.0,0.011084479487313281
3664.0,0.011129033935354915
3663.0,0.01117359295472431
3662.0,0.01117359295472431
3661.0,0.011129033935354915
3660.0,0.011129033935354915
3659.0,0.01117359295472431
3658.0,0.011218156546359825
3657.0,0.01117359295472431
3656.0,0.011084479487313281
3655.0,0.011039929609661936
3654.0,0.011129033935354915
3653.0,0.011262724711199823
3652.0,0.011262724711199823
3651.0,0.011084479487313281
3650.0,0.011129033935354915
3649.0,0.011351874764248926
3648.0,0.011485634166333858
3647.0,0.011396456654336085
3646.0,0.011218156546359825
3645.0,0.011129033935354915
3644.0,0.011084479487313281
3643.0,0.010950843561779777
3642.0,0.010817248744452446
3641.0,0.010728208358306901
3640.0,0.010594681998483901
3639.0,0.010505687227290839
3638.0,0.010416710688994968
3637.0,0.010416710688994968
3636.0,0.010416710688994968
3635.0,0.010283280051895272
3634.0,0.009972101229705377
3633.0,0.00974996707218323
3632.0,0.00966114521239847
3631.0,0.009572341514736404
3630.0,0.009306039320248427
3629.0,0.009128595198514056
3628.0,0.009217308196862062
3627.0,0.009527946474380489
3626.0,0.009838807101520963
3625.0,0.010060986715464404
3624.0,0.010327752376126709
3623.0,0.010550182333308289
3622.0,0.01077272626946324
3621.0,0.010995384301463185
3620.0,0.011084479487313281
3619.0,0.01117359295472431
3618.0,0.011262724711199823
3617.0,0.011351874764248926
3616.0,0.011485634166333858
3615.0,0.011530229790124524
3614.0,0.011485634166333858
3613.0,0.011396456654336085
3612.0,0.011396456654336085
3611.0,0.011396456654336085
3610.0,0.011351874764248926
3609.0,0.011218156546359825
3608.0,0.011084479487313281
3607.0,0.011039929609661936
3606.0,0.011129033935354915
3605.0,0.011262724711199823
3604.0,0.011396456654336085
3603.0,0.011396456654336085
3602.0,0.011262724711199823
3601.0,0.011039929609661936
3600.0,0.01086177578421088
3599.0,0.01077272626946324
3598.0,0.01077272626946324
3597.0,0.01077272626946324
3596.0,0.01077272626946324
3595.0,0.01077272626946324
3594.0,0.01086177578421088
3593.0,0.010995384301463185
3592.0,0.01117359295472431
3591.0,0.011351874764248926
3590.0,0.011396456654336085
3589.0,0.011351874764248926
3588.0,0.011307297450183107
3587.0,0.011441043121384498
3586.0,0.011619434777991433
3585.0,0.011842527443247208
3584.0,0.0119764380713403
3583.0,0.012065734767841452
3582.0,0.012065734767841452
3581.0,0.012110390002254778
3580.0,0.01215504982870197
3579.0,0.01215504982870197
3578.0,0.012110390002254778
3577.0,0.012065734767841452
3576.0,0.012065734767841452
3575.0,0.012065734767841452
3574.0,0.01215504982870197
3573.0,0.012199714248127602
3572.0,0.012199714248127602
3571.0,0.012199714248127602
3570.0,0.01215504982870197
3569.0,0.012065734767841452
3568.0,0.012021084124518078
3567.0,0.012199714248127602
3566.0,0.012512493866907004
3565.0,0.012736045877764557
3564.0,0.012780770091995297
3563.0,0.012691326268817527
3562.0,0.012557195064198723
3561.0,0.012423105273012602
3560.0,0.012378417874516323
3559.0,0.012423105273012602
3558.0,0.012467797270160563
3557.0,0.01260190086298274
3556.0,0.012780770091995297
3555.0,0.012914970375878188
3554.0,0.012959713020733288
3553.0,0.012914970375878188
3552.0,0.012780770091995297
3551.0,0.01264661126420652
3550.0,0.012467797270160563
3549.0,0.012333735073725371
3548.0,0.012333735073725371
3547.0,0.012512493866907004
3546.0,0.012780770091995297
3545.0,0.013004460275618523
3544.0,0.013138729709955221
3543.0,0.013138729709955221
3542.0,0.013093968619278806
3541.0,0.012959713020733288
3540.0,0.012825498912458322
3539.0,0.012691326268817527
3538.0,0.01264661126420652
3537.0,0.012736045877764557
3536.0,0.012914970375878188
3535.0,0.013093968619278806
3534.0,0.01322826573375524
3533.0,0.01322826573375524
3532.0,0.01318349541446362
3531.0,0.013049212141483357
3530.0,0.012870232340102872
3529.0,0.012736045877764557
3528.0,0.012691326268817527
3527.0,0.012691326268817527
3526.0,0.012736045877764557
3525.0,0.012780770091995297
3524.0,0.012870232340102872
3523.0,0.012914970375878188
3522.0,0.013049212141483357
3521.0,0.01318349541446362
3520.0,0.013317820220494436
3519.0,0.013317820220494436
3518.0,0.013317820220494436
3517.0,0.013273040668781544
3516.0,0.01322826573375524
3515.0,0.01318349541446362
3514.0,0.013138729709955221
3513.0,0.013093968619278806
3512.0,0.013093968619278806
3511.0,0.013138729709955221
3510.0,0.013138729709955221
3509.0,0.01322826573375524
3508.0,0.013317820220494436
3507.0,0.013407393177789162
3506.0,0.013407393177789162
3505.0,0.013273040668781544
3504.0,0.013093968619278806
3503.0,0.013004460275618523
3502.0,0.013049212141483357
3501.0,0.013138729709955221
3500.0,0.013093968619278806
3499.0,0.012959713020733288
3498.0,0.012870232340102872
3497.0,0.012870232340102872
3496.0,0.013049212141483357
3495.0,0.01318349541446362
3494.0,0.013317820220494436
3493.0,0.013317820220494436
3492.0,0.013273040668781544
3491.0,0.01318349541446362
3490.0,0.013049212141483357
3489.0,0.012959713020733288
3488.0,0.012914970375878188
3487.0,0.012914970375878188
3486.0,0.013004460275618523
3485.0,0.013093968619278806
3484.0,0.01322826573375524
3483.0,0.013317820220494436
3482.0,0.013407393177789162
3481.0,0.013452186585275916
3480.0,0.013407393177789162
3479.0,0.013407393177789162
3478.0,0.013362604389846044
3477.0,0.013317820220494436
3476.0,0.013317820220494436
3475.0,0.013273040668781544
3474.0,0.01322826573375524
3473.0,0.01322826573375524
3472.0,0.013273040668781544
3471.0,0.013362604389846044
3470.0,0.013452186585275916
3469.0,0.013496984613259544
3468.0,0.013407393177789162
3467.0,0.013317820220494436
3466.0,0.01322826573375524
3465.0,0.01322826573375524
3464.0,0.013317820220494436
3463.0,0.013407393177789162
3462.0,0.013407393177789162
3461.0,0.013407393177789162
3460.0,0.013317820220494436
3459.0,0.01322826573375524
3458.0,0.01322826573375524
3457.0,0.013273040668781544
3456.0,0.013362604389846044
3455.0,0.013407393177789162
3454.0,0.013452186585275916
3453.0,0.013496984613259544
3452.0,0.013541787262693505
3451.0,0.013676222949234651
3450.0,0.013765869865004277
3449.0,0.01372104409400876
3448.0,0.013631406429727155
3447.0,0.013452186585275916
3446.0,0.013317820220494436
3445.0,0.013273040668781544
3444.0,0.01322826573375524
3443.0,0.013317820220494436
3442.0,0.013362604389846044
3441.0,0.013407393177789162
3440.0,0.013317820220494436
3439.0,0.01318349541446362
3438.0,0.013004460275618523
3437.0,0.012870232340102872
3436.0,0.012825498912458322
3435.0,0.012870232340102872
3434.0,0.013049212141483357
3433.0,0.013273040668781544
3432.0,0.013452186585275916
3431.0,0.013541787262693505
3430.0,0.013496984613259544
3429.0,0.013407393177789162
3428.0,0.013317820220494436
3427.0,0.013273040668781544
3426.0,0.013273040668781544
3425.0,0.01322826573375524
3424.0,0.013093968619278806
3423.0,0.012959713020733288
3422.0,0.012780770091995297
3421.0,0.012736045877764557
3420.0,0.012825498912458322
3419.0,0.012959713020733288
3418.0,0.013049212141483357
3417.0,0.013138729709955221
3416.0,0.01322826573375524
3415.0,0.013317820220494436
3414.0,0.013407393177789162
3413.0,0.013407393177789162
3412.0,0.013362604389846044
3411.0,0.013317820220494436
3410.0,0.013317820220494436
3409.0,0.013317820220494436
3408.0,0.013273040668781544
3407.0,0.01322826573375524
3406.0,0.013138729709955221
3405.0,0.013093968619278806
3404.0,0.013049212141483357
3403.0,0.013004460275618523
3402.0,0.013004460275618523
3401.0,0.013004460275618523
3400.0,0.013049212141483357
3399.0,0.013093968619278806
3398.0,0.013093968619278806
3397.0,0.013138729709955221
3396.0,0.013138729709955221
3395.0,0.013138729709955221
3394.0,0.013138729709955221
3393.0,0.01318349541446362
3392.0,0.013273040668781544
3391.0,0.013362604389846044
3390.0,0.013362604389846044
3389.0,0.013273040668781544
3388.0,0.013138729709955221
3387.0,0.013049212141483357
3386.0,0.013049212141483357
3385.0,0.013093968619278806
3384.0,0.013138729709955221
3383.0,0.01318349541446362
3382.0,0.01322826573375524
3381.0,0.013362604389846044
3380.0,0.013452186585275916
3379.0,0.013496984613259544
3378.0,0.013496984613259544
3377.0,0.013362604389846044
3376.0,0.01322826573375524
3375.0,0.013138729709955221
3374.0,0.013093968619278806
3373.0,0.013093968619278806
3372.0,0.013138729709955221
3371.0,0.01318349541446362
3370.0,0.01318349541446362
3369.0,0.013138729709955221
3368.0,0.013093968619278806
3367.0,0.013138729709955221
3366.0,0.013273040668781544
3365.0,0.013407393177789162
3364.0,0.013452186585275916
3363.0,0.013452186585275916
3362.0,0.013452186585275916
3361.0,0.013362604389846044
3360.0,0.013317820220494436
3359.0,0.013273040668781544
3358.0,0.01322826573375524
3357.0,0.013138729709955221
3356.0,0.013093968619278806
3355.0,0.013004460275618523
3354.0,0.012914970375878188
3353.0,0.012914970375878188
3352.0,0.012914970375878188
3351.0,0.012959713020733288
3350.0,0.013004460275618523
3349.0,0.013004460275618523
3348.0,0.012959713020733288
3347.0,0.012959713020733288
3346.0,0.013049212141483357
3345.0,0.013138729709955221
3344.0,0.01322826573375524
3343.0,0.013273040668781544
3342.0,0.013273040668781544
3341.0,0.013273040668781544
3340.0,0.01322826573375524
3339.0,0.01322826573375524
3338.0,0.01318349541446362
3337.0,0.01318349541446362
3336.0,0.01322826573375524
3335.0,0.01322826573375524
3334.0,0.01322826573375524
3333.0,0.01318349541446362
3332.0,0.013138729709955221
3331.0,0.013093968619278806
3330.0,0.013093968619278806
3329.0,0.013049212141483357
3328.0,0.013004460275618523
3327.0,0.012959713020733288
3326.0,0.012870232340102872
3325.0,0.012736045877764557
3324.0,0.012557195064198723
3323.0,0.012512493866907004
3322.0,0.012512493866907004
3321.0,0.012691326268817527
3320.0,0.012870232340102872
3319.0,0.013004460275618523
3318.0,0.013049212141483357
3317.0,0.013004460275618523
3316.0,0.012914970375878188
3315.0,0.012780770091995297
3314.0,0.012736045877764557
3313.0,0.012825498912458322
3312.0,0.012914970375878188
3311.0,0.012959713020733288
3310.0,0.012914970375878188
3309.0,0.012870232340102872
3308.0,0.012780770091995297
3307.0,0.012736045877764557
3306.0,0.012736045877764557
3305.0,0.012736045877764557
3304.0,0.012736045877764557
3303.0,0.012736045877764557
3302.0,0.012780770091995297
3301.0,0.012780770091995297
3300.0,0.012780770091995297
3299.0,0.012780770091995297
3298.0,0.012691326268817527
3297.0,0.01260190086298274
3296.0,0.012512493866907004
3295.0,0.012378417874516323
3294.0,0.012289056869694281
3293.0,0.012244383261476699
3292.0,0.012244383261476699
3291.0,0.012244383261476699
3290.0,0.012289056869694281
3289.0,0.012333735073725371
3288.0,0.012333735073725371
3287.0,0.012333735073725371
3286.0,0.012333735073725371
3285.0,0.012333735073725371
3284.0,0.012378417874516323
3283.0,0.012378417874516323
3282.0,0.012378417874516323
3281.0,0.012423105273012602
3280.0,0.012423105273012602
3279.0,0.012467797270160563
3278.0,0.012467797270160563
3277.0,0.012423105273012602
3276.0,0.012333735073725371
3275.0,0.012244383261476699
3274.0,0.012199714248127602
3273.0,0.012199714248127602
3272.0,0.012244383261476699
3271.0,0.012333735073725371
3270.0,0.012423105273012602
3269.0,0.012423105273012602
3268.0,0.012333735073725371
3267.0,0.01215504982870197
3266.0,0.012021084124518078
3265.0,0.0119764380713403
3264.0,0.012021084124518078
3263.0,0.012065734767841452
3262.0,0.012065734767841452
3261.0,0.012110390002254778
3260.0,0.01215504982870197
3259.0,0.012244383261476699
3258.0,0.012289056869694281
3257.0,0.012244383261476699
3256.0,0.012199714248127602
3255.0,0.01215504982870197
3254.0,0.012110390002254778
3253.0,0.01215504982870197
3252.0,0.01215504982870197
3251.0,0.012110390002254778
3250.0,0.0119764380713403
3249.0,0.011797899741219142
3248.0,0.011708658092512314
3247.0,0.011664044143949504
3246.0,0.011708658092512314
3245.0,0.011753276624621556
3244.0,0.011797899741219142
3243.0,0.011797899741219142
3242.0,0.011797899741219142
3241.0,0.011842527443247208
3240.0,0.011887159731648111
3239.0,0.011931796607364653
3238.0,0.011887159731648111
3237.0,0.011797899741219142
3236.0,0.011753276624621556
3235.0,0.011708658092512314
3234.0,0.011753276624621556
3233.0,0.011753276624621556
3232.0,0.011797899741219142
3231.0,0.011842527443247208
3230.0,0.011931796607364653
3229.0,0.012021084124518078
3228.0,0.0119764380713403
3227.0,0.011797899741219142
3226.0,0.011619434777991433
3225.0,0.011530229790124524
3224.0,0.011530229790124524
3223.0,0.011619434777991433
3222.0,0.011708658092512314
3221.0,0.011708658092512314
3220.0,0.011708658092512314
3219.0,0.011619434777991433
3218.0,0.011485634166333858
3217.0,0.011351874764248926
3216.0,0.011262724711199823
3215.0,0.011218156546359825
3214.0,0.01117359295472431
3213.0,0.01117359295472431
3212.0,0.011218156546359825
3211.0,0.011262724711199823
3210.0,0.011262724711199823
3209.0,0.011262724711199823
3208.0,0.011262724711199823
3207.0,0.011218156546359825
3206.0,0.011218156546359825
3205.0,0.01117359295472431
3204.0,0.011084479487313281
3203.0,0.010906307389674463
3202.0,0.010817248744452446
3201.0,0.01077272626946324
3200.0,0.01086177578421088
3199.0,0.010995384301463185
3198.0,0.011129033935354915
3197.0,0.011307297450183107
3196.0,0.011351874764248926
3195.0,0.011351874764248926
3194.0,0.011307297450183107
3193.0,0.011307297450183107
3192.0,0.011307297450183107
3191.0,0.011262724711199823
3190.0,0.01117359295472431
3189.0,0.011129033935354915
3188.0,0.011084479487313281
3187.0,0.010995384301463185
3186.0,0.010950843561779777
3185.0,0.010950843561779777
3184.0,0.010950843561779777
3183.0,0.010906307389674463
3182.0,0.01086177578421088
3181.0,0.010817248744452446
3180.0,0.010817248744452446
3179.0,0.01077272626946324
3178.0,0.010683695010048622
3177.0,0.010550182333308289
3176.0,0.01046119667949763
3175.0,0.010416710688994968
3174.0,0.010416710688994968
3173.0,0.01046119667949763
3172.0,0.010505687227290839
3171.0,0.010505687227290839
3170.0,0.01046119667949763
3169.0,0.01046119667949763
3168.0,0.010416710688994968
3167.0,0.010416710688994968
3166.0,0.01037222925484893
3165.0,0.010283280051895272
3164.0,0.010194349063173958
3163.0,0.010060986715464404
3162.0,0.009972101229705377
3161.0,0.009972101229705377
3160.0,0.010060986715464404
3159.0,0.010194349063173958
3158.0,0.010327752376126709
3157.0,0.01046119667949763
3156.0,0.010550182333308289
3155.0,0.010550182333308289
3154.0,0.01046119667949763
3153.0,0.010283280051895272
3152.0,0.010105436281226954
3151.0,0.01001654169860089
3150.0,0.010060986715464404
3149.0,0.010105436281226954
3148.0,0.010149890396819572
3147.0,0.01001654169860089
3146.0,0.009883233932095559
3145.0,0.009794384815193347
3144.0,0.00974996707218323
3143.0,0.009838807101520963
3142.0,0.009883233932095559
3141.0,0.009927665307847056
3140.0,0.009883233932095559
3139.0,0.009838807101520963
3138.0,0.009794384815193347
3137.0,0.009794384815193347
3136.0,0.00974996707218323
3135.0,0.009705553871561357
3134.0,0.009616741093766423
3133.0,0.009527946474380489
3132.0,0.009483555971770974
3131.0,0.009527946474380489
3130.0,0.009572341514736404
3129.0,0.009616741093766423
3128.0,0.00966114521239847
3127.0,0.00966114521239847
3126.0,0.009616741093766423
3125.0,0.009483555971770974
3124.0,0.009350411681145587
3123.0,0.009217308196862062
3122.0,0.009172949432521227
3121.0,0.009217308196862062
3120.0,0.009261671492462709
3119.0,0.009306039320248427
3118.0,0.009306039320248427
3117.0,0.009261671492462709
3116.0,0.009217308196862062
3115.0,0.009172949432521227
3114.0,0.009172949432521227
3113.0,0.009172949432521227
3112.0,0.009172949432521227
3111.0,0.009128595198514056
3110.0,0.009172949432521227
3109.0,0.009217308196862062
3108.0,0.009306039320248427
3107.0,0.00939478857608056
3106.0,0.00939478857608056
3105.0,0.009350411681145587
3104.0,0.009217308196862062
3103.0,0.00908424549391551
3102.0,0.009039900317800775
3101.0,0.00908424549391551
3100.0,0.009172949432521227
3099.0,0.009261671492462709
3098.0,0.009350411681145587
3097.0,0.009350411681145587
3096.0,0.009306039320248427
3095.0,0.009261671492462709
3094.0,0.009261671492462709
3093.0,0.009261671492462709
3092.0,0.009217308196862062
3091.0,0.009217308196862062
3090.0,0.009172949432521227
3089.0,0.009172949432521227
3088.0,0.009217308196862062
3087.0,0.009217308196862062
3086.0,0.009172949432521227
3085.0,0.009128595198514056
3084.0,0.009128595198514056
3083.0,0.009172949432521227
3082.0,0.009261671492462709
3081.0,0.009306039320248427
3080.0,0.009306039320248427
3079.0,0.009261671492462709
3078.0,0.009128595198514056
3077.0,0.008995559669244813
3076.0,0.008951223547323472
3075.0,0.008906891951112605
3074.0,0.008906891951112605
3073.0,0.008906891951112605
3072.0,0.008862564879688284
3071.0,0.008818242332126802
3070.0,0.008685301823389224
3069.0,0.008640997362049818
3068.0,0.008596697419959609
3067.0,0.008596697419959609
3066.0,0.008685301823389224
3065.0,0.0087296108049002
3064.0,0.0087296108049002
3063.0,0.0087296108049002
3062.0,0.0087296108049002
3061.0,0.008685301823389224
3060.0,0.008596697419959609
3059.0,0.00850811108984062
3058.0,0.008419542825660153
3057.0,0.008330992620051436
3056.0,0.008242460465651913
3055.0,0.008109696063975047
3054.0,0.008109696063975047
3053.0,0.008198201155356077
3052.0,0.008330992620051436
3051.0,0.008463824699968647
3050.0,0.008552401996197112
3049.0,0.00850811108984062
3048.0,0.008375265465994541
3047.0,0.008242460465651913
3046.0,0.008198201155356077
3045.0,0.008198201155356077
3044.0,0.008242460465651913
3043.0,0.008242460465651913
3042.0,0.008198201155356077
3041.0,0.008153946355103248
3040.0,0.008153946355103248
3039.0,0.008153946355103248
3038.0,0.008153946355103248
3037.0,0.008109696063975047
3036.0,0.008065450281052211
3035.0,0.007976972236149349
3034.0,0.007888512213050314
3033.0,0.007755855953228474
3032.0,0.00762324020119709
3031.0,0.007490664932224611
3030.0,0.007490664932224611
3029.0,0.007490664932224611
3028.0,0.0075790439479759275
3027.0,0.0075790439479759275
3026.0,0.007534852191956709
3025.0,0.007490664932224611
3024.0,0.007402303897961815
3023.0,0.007225635744644521
3022.0,0.007004901568658406
3021.0,0.006784279525863024
3020.0,0.006607862550997545
3019.0,0.006519680930003435
3018.0,0.006475596832934416
3017.0,0.006475596832934416
3016.0,0.006431517210272464
3015.0,0.006387442061109638
3014.0,0.006299305179649828
3013.0,0.00621118618129457
3012.0,0.00612308505878878
3011.0,0.006035001804881146
3010.0,0.005946936412324799
3009.0,0.005814871797682919
3008.0,0.005638848091999105
3007.0,0.005506877116487674
3006.0,0.00537494623139545
3005.0,0.005330978174470591
3004.0,0.005243055412371911
3003.0,0.005111204635089406
3002.0,0.00489154225525934
3001.0,0.004671990922590297
3000.0,0.004540313378935901
2999.0,0.004452550524862486
2998.0,0.004452550524862486
2997.0,0.004408675747646695
2996.0,0.004408675747646695
2995.0,0.004408675747646695
2994.0,0.004452550524862486
2993.0,0.004452550524862486
2992.0,0.0043648054024501
2991.0,0.004189368323957332
2990.0,0.00401400208620073
2989.0,0.003970171588923321
2988.0,0.0040578370074493275
2987.0,0.004233220950025984
2986.0,0.004452550524862486
2985.0,0.00458420145758498
2984.0,0.004671990922590297
2983.0,0.004671990922590297
2982.0,0.004628093971837721
2981.0,0.004628093971837721
2980.0,0.004628093971837721
2979.0,0.004671990922590297
2978.0,0.004759798137184523
2977.0,0.004803708402820517
2976.0,0.00489154225525934
2975.0,0.005111204635089406
2974.0,0.005330978174470591
2973.0,0.005638848091999105
2972.0,0.005946936412324799
2971.0,0.00621118618129457
2970.0,0.00656376950238835
2969.0,0.007004901568658406
2968.0,0.007534852191956709
2967.0,0.008109696063975047
2966.0,0.008640997362049818
2965.0,0.009128595198514056
2964.0,0.009572341514736404
2963.0,0.010060986715464404
2962.0,0.010550182333308289
2961.0,0.011039929609661936
2960.0,0.011574829993696856
2959.0,0.01215504982870197
2958.0,0.012691326268817527
2957.0,0.01318349541446362
2956.0,0.013586594534531482
2955.0,0.013990068146738865
2954.0,0.014393916947563534
2953.0,0.014753209197138295
2952.0,0.015157768594724175
2951.0,0.015562705203923999
2950.0,0.016148281008528276
2949.0,0.016960383953898095
2948.0,0.01800028587012159
2947.0,0.019269623464054586
2946.0,0.020770406977844713
2945.0,0.022505030926963654
2944.0,0.024476287039668643
2943.0,0.026687379547098322
2942.0,0.029234840219232394
2941.0,0.03207779326948268
2940.0,0.03517488211661135
2939.0,0.038531444649213764
2938.0,0.04215336629184985
2937.0,0.04609540658654021
2936.0,0.050317309204795935
2935.0,0.054876229877880656
2934.0,0.05968277842578207
2933.0,0.06479513257341862
2932.0,0.07037674848475972
2931.0,0.07644514193245056
2930.0,0.08296737783760655
2929.0,0.0900697402471693
2928.0,0.09767069414168117
2927.0,0.10601643278815298
2926.0,0.11520463605101905
2925.0,0.12522836281570182
2924.0,0.1360826230421397
2923.0,0.14764201633217278
2922.0,0.15976840504189105
2921.0,0.17204947169736973
2920.0,0.18415670933673334
2919.0,0.19524739784953948
2918.0,0.20446755728984556
2917.0,0.21063084640851826
2916.0,0.21282300752944616
2915.0,0.2108425080885603
2914.0,0.20523320205917894
2913.0,0.19708951058096025
2912.0,0.1879561020697733
2911.0,0.17874856845405884
2910.0,0.17018181256112253
2909.0,0.16253782851400533
2908.0,0.1558335895497993
2907.0,0.14990540561329913
2906.0,0.1447838052666366
2905.0,0.14026143380285316
2904.0,0.13632033212410222
2903.0,0.13294519952329842
2902.0,0.13000599987825812
2901.0,0.12743585690934855
2900.0,0.125054563914468
2899.0,0.12285911021517903
2898.0,0.12067469921519258
2897.0,0.11855827805860697
2896.0,0.1165089098110701
2895.0,0.11441264381034388
2894.0,0.11227020271196975
2893.0,0.11002636159600376
2892.0,0.10762709260156367
2891.0,0.10513034325474746
2890.0,0.10264786565568684
2889.0,0.10001543745060903
2888.0,0.09734452478207412
2887.0,0.09458193129745807
2886.0,0.0917831469106074
2885.0,0.08889568219596411
2884.0,0.08608023504853413
2883.0,0.08317771540408803
2882.0,0.08029446545087904
2881.0,0.07737832847680104
2880.0,0.07437854520917098
2879.0,0.0713481533463054
2878.0,0.068389593637038
2877.0,0.0655520510510299
2876.0,0.06288348923294618
2875.0,0.06038092104330195
2874.0,0.05799194697768684
2873.0,0.05581353871631256
2872.0,0.053842605077627725
2871.0,0.05222329153526162
2870.0,0.050902874887084115
2869.0,0.049927370249842395
2868.0,0.049245818406496555
2867.0,0.048905443158337114
2866.0,0.04905128560059957
2865.0,0.04978123335813667
2864.0,0.05119595406718891
2863.0,0.05330216275425803
2862.0,0.05620880107069848
2861.0,0.05998184499233683
2860.0,0.06474471821595262
2859.0,0.07073438174693436
2858.0,0.07820951434181311
2857.0,0.08735289378168276
2856.0,0.09843270997155007
2855.0,0.11142740314240007
2854.0,0.12621453918179926
2853.0,0.14224547794055775
2852.0,0.15845283474344662
2851.0,0.17353645090719882
2850.0,0.18561920553006184
2849.0,0.1932097284159331
2848.0,0.19558794086228604
2847.0,0.192938760082761
2846.0,0.18628560811885508
2845.0,0.17685194018930606
2844.0,0.16596098184053343
2843.0,0.1545918603782066
2842.0,0.14339193156306385
2841.0,0.13288622016802298
2840.0,0.12349349573411894
2839.0,0.11526126223036814
2838.0,0.10812816955441629
2837.0,0.10187842445889239
2836.0,0.09642170633694569
2835.0,0.09156860103399356
2834.0,0.0872997918091396
2833.0,0.08359869639612438
2832.0,0.08024221949810584
2831.0,0.07727454200674
2830.0,0.07453319930846214
2829.0,0.07211658966929302
2828.0,0.06996838504902692
2827.0,0.0680846829187538
2826.0,0.0663102910421054
2825.0,0.06464390705442691
2824.0,0.06303410289212974
2823.0,0.06148027482350815
2822.0,0.06003170944866376
2821.0,0.05868737463933793
2820.0,0.05744631966579017
2819.0,0.05635711724787096
2818.0,0.05531996611868961
2817.0,0.05438372077326825
2816.0,0.0534986094304124
2815.0,0.05266432405126009
2814.0,0.05188057561946402
2813.0,0.051049389754451946
2812.0,0.05026854768429301
2811.0,0.04953778109440221
2810.0,0.04885683989244738
2809.0,0.048225491918274965
2808.0,0.047643522676209304
2807.0,0.047062332249019345
2806.0,0.04638525830935958
2805.0,0.04570923829887308
2804.0,0.04503426894157925
2803.0,0.04440844959427559
2802.0,0.04383156952463674
2801.0,0.04339941178682327
2800.0,0.04301563225723992
2799.0,0.04263219156847242
2798.0,0.042201225070002124
2797.0,0.04167506835594681
2796.0,0.041197296600497646
2795.0,0.04072004986906119
2794.0,0.040338629726504704
2793.0,0.03995754427315856
2792.0,0.03952922246570112
2791.0,0.03914884628031379
2790.0,0.03876880295533702
2789.0,0.03838909190871931
2788.0,0.03800971255993524
2787.0,0.037583306554248797
2786.0,0.0371573187987575
2785.0,0.036731748473764814
2784.0,0.03635381351515665
2783.0,0.03597620715996652
2782.0,0.035646070707806565
2781.0,0.03541041251009669
2780.0,0.03517488211661135
2779.0,0.0349394793888016
2778.0,0.03470420418834386
2777.0,0.03442204208947208
2776.0,0.034187046963396917
2775.0,0.033905220553829274
2774.0,0.03357665405630694
2773.0,0.033295223342125535
2772.0,0.0329671178412978
2771.0,0.03273290844021437
2770.0,0.032592443402527316
2769.0,0.03245202378113787
2768.0,0.032311649546687526
2767.0,0.032124554451966825
2766.0,0.03193753992355086
2765.0,0.03170388495374454
2764.0,0.03142366482450232
2763.0,0.031190286087141805
2762.0,0.030957032694186815
2761.0,0.030770520137356927
2760.0,0.030537492025363155
2759.0,0.030351159519274695
2758.0,0.030118356253500123
2757.0,0.029932203450862893
2756.0,0.029792641193145286
2755.0,0.029746130405213123
2754.0,0.02969962459782227
2753.0,0.02960662792039992
2752.0,0.029513651152349718
2751.0,0.02942069428514915
2750.0,0.02932775731028059
2749.0,0.029188389127482228
2748.0,0.02904906565457588
2747.0,0.028863370523193765
2746.0,0.02872415126189476
2745.0,0.02863136320857662
2744.0,0.028538594975413334
2743.0,0.02849221828874393
2742.0,0.028445846553939003
2741.0,0.028353117935693284
2740.0,0.028306761050139073
2739.0,0.028167720075074953
2738.0,0.028075050815808744
2737.0,0.028028723600243666
2736.0,0.027936083991977778
2735.0,0.027889771597169544
2734.0,0.027843464140506313
2733.0,0.027750864037404455
2732.0,0.027658283674251827
2731.0,0.027565723042634938
2730.0,0.02747318213414429
2729.0,0.027334407733889066
2728.0,0.02724191609646076
2727.0,0.02710321556345563
2726.0,0.02696455931306696
2725.0,0.02682594731702781
2724.0,0.02664120011360227
2723.0,0.026502691267936695
2722.0,0.02636422658259252
2721.0,0.026271941311972746
2720.0,0.026225806029419818
2719.0,0.02617967564731627
2718.0,0.026087429580295085
2717.0,0.025995203102585407
2716.0,0.025856900097785074
2715.0,0.025764722556973707
2714.0,0.025672564576383117
2713.0,0.02562649291857677
2712.0,0.02562649291857677
2711.0,0.02558042614771394
2710.0,0.025488307262671706
2709.0,0.02544225514642018
2708.0,0.025304128090317013
2707.0,0.02516604495145991
2706.0,0.02498200236711723
2705.0,0.024798037742147727
2704.0,0.024706084643793647
2703.0,0.02461415101053266
2702.0,0.024568191490736968
2701.0,0.024568191490736968
2700.0,0.024568191490736968
2699.0,0.024568191490736968
2698.0,0.024568191490736968
2697.0,0.024522236834125355
2696.0,0.024430342106337877
2695.0,0.024338466818941473
2694.0,0.024246610963712723
2693.0,0.024154774532432866
2692.0,0.024108863598207186
2691.0,0.02406295751688936
2690.0,0.024017056287453542
2689.0,0.023925268380126097
2688.0,0.023879381700184332
2687.0,0.023833499868024743
2686.0,0.023787622882622816
2685.0,0.023787622882622816
2684.0,0.023833499868024743
2683.0,0.023833499868024743
2682.0,0.023833499868024743
2681.0,0.023741750742954926
2680.0,0.02365002099672653
2679.0,0.023604163388120325
2678.0,0.02355831062115543
2677.0,0.02355831062115543
2676.0,0.02355831062115543
2675.0,0.02355831062115543
2674.0,0.02355831062115543
2673.0,0.02365002099672653
2672.0,0.023695883447997224
2671.0,0.023741750742954926
2670.0,0.023787622882622816
2669.0,0.023833499868024743
2668.0,0.023925268380126097
2667.0,0.023971159908874107
2666.0,0.023971159908874107
2665.0,0.023971159908874107
2664.0,0.023879381700184332
2663.0,0.023833499868024743
2662.0,0.023787622882622816
2661.0,0.023695883447997224
2660.0,0.02365002099672653
2659.0,0.023604163388120325
2658.0,0.02365002099672653
2657.0,0.023787622882622816
2656.0,0.023833499868024743
2655.0,0.023879381700184332
2654.0,0.023833499868024743
2653.0,0.023741750742954926
2652.0,0.023695883447997224
2651.0,0.02365002099672653
2650.0,0.023604163388120325
2649.0,0.02355831062115543
2648.0,0.023466619608062178
2647.0,0.023374947949272418
2646.0,0.023329119375188556
2645.0,0.023191662661933732
2644.0,0.023100049017062307
2643.0,0.02300845469384938
2642.0,0.02296266477531872
2641.0,0.02296266477531872
2640.0,0.02300845469384938
2639.0,0.023100049017062307
2638.0,0.023100049017062307
2637.0,0.02314585342378117
2636.0,0.02314585342378117
2635.0,0.023191662661933732
2634.0,0.023191662661933732
2633.0,0.02314585342378117
2632.0,0.023054249440757957
2631.0,0.023054249440757957
2630.0,0.02300845469384938
2629.0,0.02300845469384938
2628.0,0.02296266477531872
2627.0,0.022871099419317753
2626.0,0.022733787572707387
2625.0,0.02259651912656535
2624.0,0.022505030926963654
2623.0,0.022413561996148967
2622.0,0.022322112326006227
2621.0,0.022139270735302752
2620.0,0.021956506090037076
2619.0,0.021819483062586187
2618.0,0.021773818325474092
2617.0,0.021773818325474092
2616.0,0.02168250325324883
2615.0,0.021636852916117055
2614.0,0.021545566634771474
2613.0,0.021499930688540836
2612.0,0.02140867317992523
2611.0,0.021317434843055594
2610.0,0.021271822861508305
2609.0,0.02122621566987748
2608.0,0.02122621566987748
2607.0,0.02122621566987748
2606.0,0.0211806132671577
2605.0,0.021089422824428272
2604.0,0.0209982515252789
2603.0,0.020861530453190058
2602.0,0.020770406977844713
2601.0,0.020770406977844713
2600.0,0.020770406977844713
2599.0,0.020770406977844713
2598.0,0.020724852408976924
2597.0,0.02058821736556471
2596.0,0.020497151212598652
2595.0,0.020497151212598652
2594.0,0.020542681902151694
2593.0,0.02058821736556471
2592.0,0.020542681902151694
2591.0,0.020497151212598652
2590.0,0.020406104151069693
2589.0,0.020406104151069693
2588.0,0.020406104151069693
2587.0,0.020406104151069693
2586.0,0.02036058777709271
2585.0,0.02026956933771462
2584.0,0.02013307743509718
2583.0,0.019996628416253603
2582.0,0.01990568621470623
2581.0,0.019814763052665052
2580.0,0.019769308608968306
2579.0,0.019723858922159776
2578.0,0.019678413991243593
2577.0,0.019678413991243593
2576.0,0.019632973815224997
2575.0,0.019678413991243593
2574.0,0.019678413991243593
2573.0,0.019632973815224997
2572.0,0.01958753839310856
2571.0,0.01954210772389997
2570.0,0.01949668180660491
2569.0,0.01940584422377989
2568.0,0.019269623464054586
2567.0,0.019133445417920836
2566.0,0.0190880622231564
2565.0,0.0190880622231564
2564.0,0.019178833355664393
2563.0,0.019178833355664393
2562.0,0.019178833355664393
2561.0,0.019178833355664393
2560.0,0.019133445417920836
2559.0,0.019133445417920836
2558.0,0.0190880622231564
2557.0,0.0190880622231564
2556.0,0.019042683770379876
2555.0,0.018951941086827073
2554.0,0.018861217359339655
2553.0,0.018815862601645694
2552.0,0.018770512579999288
2551.0,0.018770512579999288
2550.0,0.018770512579999288
2549.0,0.018815862601645694
2548.0,0.018861217359339655
2547.0,0.018906576854070378
2546.0,0.018861217359339655
2545.0,0.018770512579999288
2544.0,0.018634490921455527
2543.0,0.018498511851753108
2542.0,0.01840788278591865
2541.0,0.018362575344230914
2540.0,0.01831727262871463
2539.0,0.018226681372252695
2538.0,0.018181392829336396
2537.0,0.01809082990920774
2536.0,0.01809082990920774
2535.0,0.018181392829336396
2534.0,0.01831727262871463
2533.0,0.01840788278591865
2532.0,0.01845319495476394
2531.0,0.01840788278591865
2530.0,0.01831727262871463
2529.0,0.018271974638383703
2528.0,0.018271974638383703
2527.0,0.018271974638383703
2526.0,0.018271974638383703
2525.0,0.018271974638383703
2524.0,0.018226681372252695
2523.0,0.018181392829336396
2522.0,0.018136109008649592
2521.0,0.01809082990920774
2520.0,0.01800028587012159
2519.0,0.017909760704207134
2518.0,0.017774008325325275
2517.0,0.017728766960431575
2516.0,0.01768353030793479
2515.0,0.017728766960431575
2514.0,0.017728766960431575
2513.0,0.017728766960431575
2512.0,0.017728766960431575
2511.0,0.017728766960431575
2510.0,0.01768353030793479
2509.0,0.017638298366853045
2508.0,0.01759307113620534
2507.0,0.017547848615010242
2506.0,0.017502630802287644
2505.0,0.017502630802287644
2504.0,0.017502630802287644
2503.0,0.017502630802287644
2502.0,0.017502630802287644
2501.0,0.017457417697056554
2500.0,0.017412209298337533
2499.0,0.017321806616515723
2498.0,0.017231422748988034
2497.0,0.017141057687924732
2496.0,0.017141057687924732
2495.0,0.017141057687924732
2494.0,0.017141057687924732
2493.0,0.017141057687924732
2492.0,0.017141057687924732
2491.0,0.017186237868137555
2490.0,0.017231422748988034
2489.0,0.017321806616515723
2488.0,0.017321806616515723
2487.0,0.017231422748988034
2486.0,0.017186237868137555
2485.0,0.017186237868137555
2484.0,0.017186237868137555
2483.0,0.017141057687924732
2482.0,0.017141057687924732
2481.0,0.017141057687924732
2480.0,0.017095882207371904
2479.0,0.017050711425501408
2478.0,0.017005545341335804
2477.0,0.016960383953898095
2476.0,0.016960383953898095
2475.0,0.016960383953898095
2474.0,0.016960383953898095
2473.0,0.016915227262211507
2472.0,0.016870075265299933
2471.0,0.01677978535189717
2470.0,0.016734647433454652
2469.0,0.016734647433454652
2468.0,0.016734647433454652
2467.0,0.016824927962187042
2466.0,0.016870075265299933
2465.0,0.016870075265299933
2464.0,0.01677978535189717
2463.0,0.016734647433454652
2462.0,0.016689514205884493
2461.0,0.016689514205884493
2460.0,0.016734647433454652
2459.0,0.01677978535189717
2458.0,0.016734647433454652
2457.0,0.016644385668211692
2456.0,0.016509028184833463
2455.0,0.016418813294209356
2454.0,0.016373712875465518
2453.0,0.01632861713980338
2452.0,0.016238439713835096
2451.0,0.016148281008528276
2450.0,0.016103208673694303
2449.0,0.016148281008528276
2448.0,0.01628352608625061
2447.0,0.01646391839700767
2446.0,0.016554142658660398
2445.0,0.016554142658660398
2444.0,0.016509028184833463
2443.0,0.01646391839700767
2442.0,0.016418813294209356
2441.0,0.016373712875465518
2440.0,0.01632861713980338
2439.0,0.016238439713835096
2438.0,0.016148281008528276
2437.0,0.016103208673694303
2436.0,0.016058141016111804
2435.0,0.016103208673694303
2434.0,0.016148281008528276
2433.0,0.016193358021584725
2432.0,0.016193358021584725
2431.0,0.016148281008528276
2430.0,0.016148281008528276
2429.0,0.016193358021584725
2428.0,0.016193358021584725
2427.0,0.016148281008528276
2426.0,0.016103208673694303
2425.0,0.016013078034810446
2424.0,0.015922966097169144
2423.0,0.015922966097169144
2422.0,0.01596801972881945
2421.0,0.016013078034810446
2420.0,0.016148281008528276
2419.0,0.016238439713835096
2418.0,0.01628352608625061
2417.0,0.01628352608625061
2416.0,0.016238439713835096
2415.0,0.016193358021584725
2414.0,0.016193358021584725
2413.0,0.016193358021584725
2412.0,0.016193358021584725
2411.0,0.016238439713835096
2410.0,0.016238439713835096
2409.0,0.016238439713835096
2408.0,0.016148281008528276
2407.0,0.016058141016111804
2406.0,0.015922966097169144
2405.0,0.015922966097169144
2404.0,0.015922966097169144
2403.0,0.016013078034810446
2402.0,0.016013078034810446
2401.0,0.01596801972881945
2400.0,0.015922966097169144
2399.0,0.015877917138889863
2398.0,0.015832872853011715
2397.0,0.015832872853011715
2396.0,0.01578783323856614
2395.0,0.015742798294583915
2394.0,0.015742798294583915
2393.0,0.015742798294583915
2392.0,0.015697768020096703
2391.0,0.015607721475734415
2390.0,0.015427684378367834
2389.0,0.015067833932588037
2388.0,0.01452861671041239
2387.0,0.01372104409400876
2386.0,0.012691326268817527
2385.0,0.011574829993696856
2384.0,0.010416710688994968
2383.0,0.00939478857608056
2382.0,0.008596697419959609
2381.0,0.008021209005416363
2380.0,0.007711646202907652
2379.0,0.00762324020119709
2378.0,0.007711646202907652
2377.0,0.007888512213050314
2376.0,0.008065450281052211
2375.0,0.008198201155356077
2374.0,0.008153946355103248
2373.0,0.007844288957383316
2372.0,0.007093181776687496
2371.0,0.00590291041179003
2370.0,0.004408675747646695
2369.0,0.0028321285541661467
2368.0,0.0011306361176557367
2367.0,-0.0003906892499099257
2366.0,-0.0006943158663546001
2365.0,0.000869458712629001
2364.0,0.0035321097382827737
2363.0,0.005990966876386672
2362.0,0.007667440952535687
2361.0,0.008330992620051436
2360.0,0.007225635744644521
2359.0,0.004320939488377862
2358.0,0.0014355417390583547
2357.0,0.00026065489343207737
2356.0,0.00026065489343207737
2355.0,0.000521466320689834
2354.0,0.0011741809597138886
2353.0,0.002395212539545666
2352.0,0.0032257291386954545
2351.0,0.003050751504618754
2350.0,0.002395212539545666
2349.0,0.0021332737608552588
2348.0,0.0022642234021015284
2347.0,0.002395212539545666
2346.0,0.0022642234021015284
2345.0,0.0021332737608552588
2344.0,0.0018278780605593958
2343.0,0.0010000277816797354
2342.0,0.0006954276616513155
2341.0,0.001609869681952425
2340.0,0.0026573093983774942
2339.0,0.0027884171674950053
2338.0,0.0023078820582733695
2337.0,0.001915112063444413
2336.0,0.0016970599014589638
2335.0,0.0017406615763013722
2334.0,0.002351545103793873
2333.0,0.0032694845648473247
2332.0,0.0037510854308679953
2331.0,0.0030070181092942683
2330.0,0.0014355417390583547
2329.0,4.343161980746579e-05
2328.0,-0.0005642161653756084
2327.0,-0.00021709297223004853
2326.0,0.0009129773741116676
2325.0,0.002482560585275184
2324.0,0.0038825238627120395
2323.0,0.004759798137184523
2322.0,0.005155150446602086
2321.0,0.0052870145684298375
2320.0,0.005330978174470591
2319.0,0.00537494623139545
2318.0,0.005550862985963967
2317.0,0.00577085918230158
2316.0,0.005814871797682919
2315.0,0.00541891874010525
2314.0,0.004628093971837721
2313.0,0.0037510854308679953
2312.0,0.0029632891174733444
2311.0,0.002482560585275184
2310.0,0.0024388843664115978
2309.0,0.0027447101798967477
2308.0,0.0033132443998284966
2307.0,0.0040578370074493275
2306.0,0.00484762310854614
2305.0,0.005506877116487674
2304.0,0.00590291041179003
2303.0,0.006035001804881146
2302.0,0.006167133386013823
2301.0,0.006475596832934416
2300.0,0.006872514894289861
2299.0,0.007313960837872058
2298.0,0.007667440952535687
2297.0,0.008021209005416363
2296.0,0.008463824699968647
2295.0,0.008951223547323472
2294.0,0.009483555971770974
2293.0,0.010105436281226954
2292.0,0.010683695010048622
2291.0,0.01117359295472431
2290.0,0.011574829993696856
2289.0,0.011887159731648111
2288.0,0.012244383261476699
2287.0,0.012691326268817527
2286.0,0.013138729709955221
2285.0,0.013496984613259544
2284.0,0.013765869865004277
2283.0,0.01385553528947936
2282.0,0.01381070026317599
2281.0,0.01372104409400876
2280.0,0.013631406429727155
2279.0,0.013496984613259544
2278.0,0.013407393177789162
2277.0,0.013362604389846044
2276.0,0.013407393177789162
2275.0,0.013496984613259544
2274.0,0.013541787262693505
2273.0,0.013586594534531482
2272.0,0.013541787262693505
2271.0,0.013407393177789162
2270.0,0.013273040668781544
2269.0,0.01322826573375524
2268.0,0.013273040668781544
2267.0,0.013317820220494436
2266.0,0.013362604389846044
2265.0,0.013362604389846044
2264.0,0.013317820220494436
2263.0,0.013362604389846044
2262.0,0.013496984613259544
2261.0,0.013631406429727155
2260.0,0.013765869865004277
2259.0,0.013765869865004277
2258.0,0.01372104409400876
2257.0,0.013631406429727155
2256.0,0.013631406429727155
2255.0,0.013631406429727155
2254.0,0.01372104409400876
2253.0,0.01385553528947936
2252.0,0.013990068146738865
2251.0,0.014124642691606404
2250.0,0.014259258949925524
2249.0,0.014259258949925524
2248.0,0.014259258949925524
2247.0,0.014214382227394795
2246.0,0.014214382227394795
2245.0,0.014259258949925524
2244.0,0.014349026309051105
2243.0,0.014393916947563534
2242.0,0.014438812226654996
2241.0,0.0144837121472845
2240.0,0.01452861671041239
2239.0,0.014573525916998342
2238.0,0.014618439768003144
2237.0,0.014618439768003144
2236.0,0.014573525916998342
2235.0,0.01452861671041239
2234.0,0.0144837121472845
2233.0,0.01452861671041239
2232.0,0.01452861671041239
2231.0,0.01452861671041239
2230.0,0.014573525916998342
2229.0,0.014573525916998342
2228.0,0.014573525916998342
2227.0,0.014573525916998342
2226.0,0.014573525916998342
2225.0,0.014573525916998342
2224.0,0.014573525916998342
2223.0,0.01452861671041239
2222.0,0.0144837121472845
2221.0,0.014438812226654996
2220.0,0.014393916947563534
2219.0,0.014393916947563534
2218.0,0.014438812226654996
2217.0,0.0144837121472845
2216.0,0.014573525916998342
2215.0,0.014573525916998342
2214.0,0.014573525916998342
2213.0,0.01452861671041239
2212.0,0.014438812226654996
2211.0,0.014393916947563534
2210.0,0.014349026309051105
2209.0,0.014349026309051105
2208.0,0.014393916947563534
2207.0,0.0144837121472845
2206.0,0.01452861671041239
2205.0,0.01452861671041239
2204.0,0.0144837121472845
2203.0,0.014438812226654996
2202.0,0.014393916947563534
2201.0,0.014349026309051105
2200.0,0.014349026309051105
2199.0,0.014349026309051105
2198.0,0.014349026309051105
2197.0,0.014393916947563534
2196.0,0.014438812226654996
2195.0,0.0144837121472845
2194.0,0.01452861671041239
2193.0,0.01452861671041239
2192.0,0.0144837121472845
2191.0,0.014393916947563534
2190.0,0.014349026309051105
2189.0,0.014304140310157809
2188.0,0.014304140310157809
2187.0,0.014259258949925524
2186.0,0.014214382227394795
2185.0,0.014214382227394795
2184.0,0.014304140310157809
2183.0,0.014393916947563534
2182.0,0.0144837121472845
2181.0,0.01452861671041239
2180.0,0.014573525916998342
2179.0,0.014573525916998342
2178.0,0.01452861671041239
2177.0,0.0144837121472845
2176.0,0.014393916947563534
2175.0,0.014259258949925524
2174.0,0.014214382227394795
2173.0,0.014214382227394795
2172.0,0.014214382227394795
2171.0,0.014304140310157809
2170.0,0.014349026309051105
2169.0,0.014349026309051105
2168.0,0.014349026309051105
2167.0,0.014349026309051105
2166.0,0.014349026309051105
2165.0,0.014349026309051105
2164.0,0.014349026309051105
2163.0,0.014349026309051105
2162.0,0.014349026309051105
2161.0,0.014349026309051105
2160.0,0.014304140310157809
2159.0,0.014304140310157809
2158.0,0.014259258949925524
2157.0,0.014259258949925524
2156.0,0.014259258949925524
2155.0,0.014259258949925524
2154.0,0.014259258949925524
2153.0,0.014304140310157809
2152.0,0.014304140310157809
2151.0,0.014304140310157809
2150.0,0.014304140310157809
2149.0,0.014304140310157809
2148.0,0.014259258949925524
2147.0,0.014214382227394795
2146.0,0.014169510141607944
2145.0,0.014124642691606404
2144.0,0.014079779876432497
2143.0,0.01403492169512921
2142.0,0.01403492169512921
2141.0,0.01403492169512921
2140.0,0.013990068146738865
2139.0,0.013990068146738865
2138.0,0.013990068146738865
2137.0,0.013990068146738865
2136.0,0.013990068146738865
2135.0,0.013945219230304673
2134.0,0.013945219230304673
2133.0,0.013990068146738865
2132.0,0.01403492169512921
2131.0,0.01403492169512921
2130.0,0.014079779876432497
2129.0,0.01403492169512921
2128.0,0.01403492169512921
2127.0,0.013990068146738865
2126.0,0.013945219230304673
2125.0,0.013900374944870508
2124.0,0.01385553528947936
2123.0,0.01385553528947936
2122.0,0.013900374944870508
2121.0,0.013945219230304673
2120.0,0.013945219230304673
2119.0,0.013900374944870508
2118.0,0.01381070026317599
2117.0,0.01372104409400876
2116.0,0.013676222949234651
2115.0,0.013631406429727155
2114.0,0.013586594534531482
2113.0,0.013586594534531482
2112.0,0.013631406429727155
2111.0,0.013631406429727155
2110.0,0.013676222949234651
2109.0,0.013631406429727155
2108.0,0.013631406429727155
2107.0,0.013586594534531482
2106.0,0.013586594534531482
2105.0,0.013586594534531482
2104.0,0.013541787262693505
2103.0,0.013541787262693505
2102.0,0.013541787262693505
2101.0,0.013586594534531482
2100.0,0.013586594534531482
2099.0,0.013586594534531482
2098.0,0.013631406429727155
2097.0,0.013676222949234651
2096.0,0.013676222949234651
2095.0,0.013676222949234651
2094.0,0.013631406429727155
2093.0,0.013586594534531482
2092.0,0.013541787262693505
2091.0,0.013496984613259544
2090.0,0.013496984613259544
2089.0,0.013541787262693505
2088.0,0.013631406429727155
2087.0,0.013631406429727155
2086.0,0.013631406429727155
2085.0,0.013631406429727155
2084.0,0.013631406429727155
2083.0,0.013676222949234651
2082.0,0.013765869865004277
2081.0,0.013765869865004277
2080.0,0.01372104409400876
2079.0,0.013586594534531482
2078.0,0.013452186585275916
2077.0,0.013407393177789162
2076.0,0.013496984613259544
2075.0,0.013586594534531482
2074.0,0.013676222949234651
2073.0,0.013676222949234651
2072.0,0.013631406429727155
2071.0,0.013541787262693505
2070.0,0.013496984613259544
2069.0,0.013496984613259544
2068.0,0.013496984613259544
2067.0,0.013541787262693505
2066.0,0.013586594534531482
2065.0,0.013631406429727155
2064.0,0.013631406429727155
2063.0,0.013631406429727155
2062.0,0.013586594534531482
2061.0,0.013631406429727155
2060.0,0.013676222949234651
2059.0,0.013676222949234651
2058.0,0.013676222949234651
2057.0,0.013676222949234651
2056.0,0.013631406429727155
2055.0,0.013631406429727155
2054.0,0.013631406429727155
2053.0,0.013586594534531482
2052.0,0.013586594534531482
2051.0,0.013631406429727155
2050.0,0.01372104409400876
2049.0,0.013765869865004277
2048.0,0.01381070026317599
2047.0,0.013765869865004277
2046.0,0.013765869865004277
2045.0,0.01372104409400876
2044.0,0.013765869865004277
2043.0,0.01381070026317599
2042.0,0.01381070026317599
2041.0,0.013765869865004277
2040.0,0.01372104409400876
2039.0,0.01372104409400876
2038.0,0.01372104409400876
2037.0,0.013765869865004277
2036.0,0.013765869865004277
2035.0,0.01381070026317599
2034.0,0.01381070026317599
2033.0,0.01381070026317599
2032.0,0.01381070026317599
2031.0,0.01381070026317599
2030.0,0.01385553528947936
2029.0,0.013900374944870508
2028.0,0.013900374944870508
2027.0,0.013945219230304673
2026.0,0.013990068146738865
2025.0,0.014079779876432497
2024.0,0.014124642691606404
2023.0,0.014169510141607944
2022.0,0.014169510141607944
2021.0,0.014214382227394795
2020.0,0.014214382227394795
2019.0,0.014259258949925524
2018.0,0.014259258949925524
2017.0,0.014259258949925524
2016.0,0.014214382227394795
2015.0,0.014124642691606404
2014.0,0.013990068146738865
2013.0,0.013900374944870508
2012.0,0.01385553528947936
2011.0,0.013765869865004277
2010.0,0.01372104409400876
2009.0,0.013676222949234651
2008.0,0.013586594534531482
2007.0,0.013541787262693505
2006.0,0.013496984613259544
2005.0,0.013496984613259544
2004.0,0.013541787262693505
2003.0,0.013586594534531482
2002.0,0.013586594534531482
2001.0,0.013586594534531482
2000.0,0.013586594534531482
1999.0,0.013631406429727155
1998.0,0.013586594534531482
1997.0,0.013586594534531482
1996.0,0.013496984613259544
1995.0,0.013407393177789162
1994.0,0.013362604389846044
1993.0,0.013317820220494436
1992.0,0.013317820220494436
1991.0,0.013317820220494436
1990.0,0.013317820220494436
1989.0,0.013317820220494436
1988.0,0.013317820220494436
1987.0,0.013317820220494436
1986.0,0.013317820220494436
1985.0,0.013362604389846044
1984.0,0.013362604389846044
1983.0,0.013407393177789162
1982.0,0.013407393177789162
1981.0,0.013407393177789162
1980.0,0.013362604389846044
1979.0,0.013273040668781544
1978.0,0.01322826573375524
1977.0,0.01318349541446362
1976.0,0.013138729709955221
1975.0,0.013093968619278806
1974.0,0.013049212141483357
1973.0,0.013049212141483357
1972.0,0.013049212141483357
1971.0,0.013049212141483357
1970.0,0.013049212141483357
1969.0,0.013049212141483357
1968.0,0.013049212141483357
1967.0,0.013049212141483357
1966.0,0.013093968619278806
1965.0,0.013138729709955221
1964.0,0.013138729709955221
1963.0,0.013138729709955221
1962.0,0.013138729709955221
1961.0,0.013093968619278806
1960.0,0.013138729709955221
1959.0,0.013138729709955221
1958.0,0.013138729709955221
1957.0,0.013138729709955221
1956.0,0.013138729709955221
1955.0,0.013093968619278806
1954.0,0.013093968619278806
1953.0,0.013049212141483357
1952.0,0.013049212141483357
1951.0,0.013004460275618523
1950.0,0.013004460275618523
1949.0,0.013004460275618523
1948.0,0.013004460275618523
1947.0,0.013093968619278806
1946.0,0.013138729709955221
1945.0,0.01318349541446362
1944.0,0.013138729709955221
1943.0,0.013049212141483357
1942.0,0.012959713020733288
1941.0,0.012870232340102872
1940.0,0.012870232340102872
1939.0,0.012870232340102872
1938.0,0.012959713020733288
1937.0,0.012959713020733288
1936.0,0.012914970375878188
1935.0,0.012825498912458322
1934.0,0.012736045877764557
1933.0,0.012736045877764557
1932.0,0.012780770091995297
1931.0,0.012870232340102872
1930.0,0.012870232340102872
1929.0,0.012870232340102872
1928.0,0.012825498912458322
1927.0,0.012870232340102872
1926.0,0.012914970375878188
1925.0,0.012959713020733288
1924.0,0.012914970375878188
1923.0,0.012825498912458322
1922.0,0.012736045877764557
1921.0,0.012736045877764557
1920.0,0.012736045877764557
1919.0,0.012736045877764557
1918.0,0.012736045877764557
1917.0,0.012780770091995297
1916.0,0.012825498912458322
1915.0,0.012825498912458322
1914.0,0.012825498912458322
1913.0,0.012825498912458322
1912.0,0.012870232340102872
1911.0,0.012959713020733288
1910.0,0.013004460275618523
1909.0,0.013049212141483357
1908.0,0.013093968619278806
1907.0,0.013093968619278806
1906.0,0.013093968619278806
1905.0,0.013093968619278806
1904.0,0.013093968619278806
1903.0,0.013138729709955221
1902.0,0.01318349541446362
1901.0,0.013273040668781544
1900.0,0.013317820220494436
1899.0,0.013317820220494436
1898.0,0.013317820220494436
1897.0,0.013362604389846044
1896.0,0.013362604389846044
1895.0,0.013407393177789162
1894.0,0.013407393177789162
1893.0,0.013407393177789162
1892.0,0.013317820220494436
1891.0,0.01318349541446362
1890.0,0.013138729709955221
1889.0,0.013138729709955221
1888.0,0.013138729709955221
1887.0,0.013049212141483357
1886.0,0.012914970375878188
1885.0,0.012825498912458322
1884.0,0.012736045877764557
1883.0,0.012691326268817527
1882.0,0.012691326268817527
1881.0,0.01264661126420652
1880.0,0.01260190086298274
1879.0,0.012512493866907004
1878.0,0.012467797270160563
1877.0,0.012512493866907004
1876.0,0.012512493866907004
1875.0,0.012467797270160563
1874.0,0.012423105273012602
1873.0,0.012423105273012602
1872.0,0.012378417874516323
1871.0,0.012378417874516323
1870.0,0.012333735073725371
1869.0,0.012333735073725371
1868.0,0.012378417874516323
1867.0,0.012378417874516323
1866.0,0.012378417874516323
1865.0,0.012333735073725371
1864.0,0.012289056869694281
1863.0,0.012289056869694281
1862.0,0.012333735073725371
1861.0,0.012423105273012602
1860.0,0.012467797270160563
1859.0,0.012467797270160563
1858.0,0.012423105273012602
1857.0,0.012423105273012602
1856.0,0.012423105273012602
1855.0,0.012378417874516323
1854.0,0.012423105273012602
1853.0,0.012423105273012602
1852.0,0.012423105273012602
1851.0,0.012467797270160563
1850.0,0.012423105273012602
1849.0,0.012423105273012602
1848.0,0.012378417874516323
1847.0,0.012333735073725371
1846.0,0.012244383261476699
1845.0,0.012244383261476699
1844.0,0.012244383261476699
1843.0,0.012289056869694281
1842.0,0.012333735073725371
1841.0,0.012378417874516323
1840.0,0.012423105273012602
1839.0,0.012333735073725371
1838.0,0.012199714248127602
1837.0,0.012065734767841452
1836.0,0.0119764380713403
1835.0,0.011931796607364653
1834.0,0.0119764380713403
1833.0,0.012021084124518078
1832.0,0.012065734767841452
1831.0,0.012065734767841452
1830.0,0.012110390002254778
1829.0,0.012199714248127602
1828.0,0.012244383261476699
1827.0,0.012244383261476699
1826.0,0.012199714248127602
1825.0,0.012199714248127602
1824.0,0.01215504982870197
1823.0,0.012065734767841452
1822.0,0.012021084124518078
1821.0,0.0119764380713403
1820.0,0.012021084124518078
1819.0,0.012065734767841452
1818.0,0.012065734767841452
1817.0,0.012065734767841452
1816.0,0.012065734767841452
1815.0,0.012021084124518078
1814.0,0.011931796607364653
1813.0,0.011887159731648111
1812.0,0.011842527443247208
1811.0,0.011842527443247208
1810.0,0.011842527443247208
1809.0,0.011887159731648111
1808.0,0.0119764380713403
1807.0,0.0119764380713403
1806.0,0.012021084124518078
1805.0,0.012065734767841452
1804.0,0.012110390002254778
1803.0,0.012065734767841452
1802.0,0.012021084124518078
1801.0,0.011931796607364653
1800.0,0.011931796607364653
1799.0,0.011887159731648111
1798.0,0.011842527443247208
1797.0,0.011931796607364653
1796.0,0.0119764380713403
1795.0,0.012021084124518078
1794.0,0.011931796607364653
1793.0,0.011842527443247208
1792.0,0.011708658092512314
1791.0,0.011708658092512314
1790.0,0.011753276624621556
1789.0,0.011842527443247208
1788.0,0.011931796607364653
1787.0,0.0119764380713403
1786.0,0.012021084124518078
1785.0,0.012021084124518078
1784.0,0.0119764380713403
1783.0,0.011931796607364653
1782.0,0.011887159731648111
1781.0,0.011931796607364653
1780.0,0.0119764380713403
1779.0,0.012021084124518078
1778.0,0.0119764380713403
1777.0,0.011931796607364653
1776.0,0.011887159731648111
1775.0,0.011753276624621556
1774.0,0.011574829993696856
1773.0,0.011441043121384498
1772.0,0.011441043121384498
1771.0,0.011574829993696856
1770.0,0.011619434777991433
1769.0,0.011664044143949504
1768.0,0.011708658092512314
1767.0,0.011753276624621556
1766.0,0.011842527443247208
1765.0,0.011887159731648111
1764.0,0.011887159731648111
1763.0,0.011842527443247208
1762.0,0.011797899741219142
1761.0,0.011797899741219142
1760.0,0.011842527443247208
1759.0,0.011842527443247208
1758.0,0.011842527443247208
1757.0,0.011887159731648111
1756.0,0.011931796607364653
1755.0,0.0119764380713403
1754.0,0.012021084124518078
1753.0,0.012110390002254778
1752.0,0.012244383261476699
1751.0,0.012378417874516323
1750.0,0.012467797270160563
1749.0,0.012512493866907004
1748.0,0.012512493866907004
1747.0,0.012557195064198723
1746.0,0.012557195064198723
1745.0,0.01264661126420652
1744.0,0.012780770091995297
1743.0,0.012959713020733288
1742.0,0.013093968619278806
1741.0,0.013138729709955221
1740.0,0.01322826573375524
1739.0,0.013273040668781544
1738.0,0.01322826573375524
1737.0,0.013093968619278806
1736.0,0.012825498912458322
1735.0,0.012467797270160563
1734.0,0.012378417874516323
1733.0,0.012512493866907004
1732.0,0.01264661126420652
1731.0,0.012736045877764557
1730.0,0.012780770091995297
1729.0,0.012736045877764557
1728.0,0.012691326268817527
1727.0,0.01264661126420652
1726.0,0.01264661126420652
1725.0,0.01264661126420652
1724.0,0.01264661126420652
1723.0,0.01264661126420652
1722.0,0.012691326268817527
1721.0,0.012736045877764557
1720.0,0.012825498912458322
1719.0,0.012780770091995297
1718.0,0.01264661126420652
1717.0,0.01260190086298274
1716.0,0.01264661126420652
1715.0,0.012736045877764557
1714.0,0.012870232340102872
1713.0,0.012914970375878188
1712.0,0.012825498912458322
1711.0,0.012736045877764557
1710.0,0.01264661126420652
1709.0,0.012691326268817527
1708.0,0.012691326268817527
1707.0,0.01260190086298274
1706.0,0.012512493866907004
1705.0,0.012557195064198723
1704.0,0.012557195064198723
1703.0,0.012512493866907004
1702.0,0.012378417874516323
1701.0,0.012333735073725371
1700.0,0.012423105273012602
1699.0,0.012467797270160563
1698.0,0.012467797270160563
1697.0,0.012512493866907004
1696.0,0.01260190086298274
1695.0,0.01264661126420652
1694.0,0.01260190086298274
1693.0,0.01264661126420652
1692.0,0.012691326268817527
1691.0,0.01264661126420652
1690.0,0.01260190086298274
1689.0,0.01264661126420652
1688.0,0.012780770091995297
1687.0,0.012914970375878188
1686.0,0.013049212141483357
1685.0,0.013138729709955221
1684.0,0.013273040668781544
1683.0,0.01322826573375524
1682.0,0.013093968619278806
1681.0,0.013049212141483357
1680.0,0.013138729709955221
1679.0,0.01318349541446362
1678.0,0.01322826573375524
1677.0,0.01322826573375524
1676.0,0.01318349541446362
1675.0,0.013138729709955221
1674.0,0.013138729709955221
1673.0,0.01318349541446362
1672.0,0.01322826573375524
1671.0,0.01322826573375524
1670.0,0.013273040668781544
1669.0,0.013362604389846044
1668.0,0.013407393177789162
1667.0,0.013407393177789162
1666.0,0.013362604389846044
1665.0,0.013317820220494436
1664.0,0.013273040668781544
1663.0,0.01318349541446362
1662.0,0.01318349541446362
1661.0,0.01318349541446362
1660.0,0.01318349541446362
1659.0,0.01318349541446362
1658.0,0.01318349541446362
1657.0,0.01318349541446362
1656.0,0.01318349541446362
1655.0,0.013093968619278806
1654.0,0.012959713020733288
1653.0,0.013093968619278806
1652.0,0.013093968619278806
1651.0,0.012959713020733288
1650.0,0.012959713020733288
1649.0,0.013004460275618523
1648.0,0.012959713020733288
1647.0,0.012914970375878188
1646.0,0.012959713020733288
1645.0,0.012914970375878188
1644.0,0.012914970375878188
1643.0,0.012870232340102872
1642.0,0.012870232340102872
1641.0,0.012914970375878188
1640.0,0.012959713020733288
1639.0,0.013004460275618523
1638.0,0.012959713020733288
1637.0,0.012959713020733288
1636.0,0.013004460275618523
1635.0,0.013049212141483357
1634.0,0.012959713020733288
1633.0,0.012870232340102872
1632.0,0.012825498912458322
1631.0,0.012825498912458322
1630.0,0.012825498912458322
1629.0,0.012825498912458322
1628.0,0.012825498912458322
1627.0,0.012825498912458322
1626.0,0.012780770091995297
1625.0,0.012780770091995297
1624.0,0.012780770091995297
1623.0,0.012870232340102872
1622.0,0.012959713020733288
1621.0,0.013004460275618523
1620.0,0.013004460275618523
1619.0,0.013004460275618523
1618.0,0.012959713020733288
1617.0,0.013004460275618523
1616.0,0.013138729709955221
1615.0,0.01318349541446362
1614.0,0.01318349541446362
1613.0,0.013273040668781544
1612.0,0.013317820220494436
1611.0,0.013362604389846044
1610.0,0.013452186585275916
1609.0,0.013541787262693505
1608.0,0.013541787262693505
1607.0,0.013541787262693505
1606.0,0.013586594534531482
1605.0,0.013631406429727155
1604.0,0.01372104409400876
1603.0,0.01385553528947936
1602.0,0.013900374944870508
1601.0,0.013900374944870508
1600.0,0.013900374944870508
1599.0,0.01385553528947936
1598.0,0.01381070026317599
1597.0,0.01381070026317599
1596.0,0.01381070026317599
1595.0,0.013900374944870508
1594.0,0.013945219230304673
1593.0,0.014079779876432497
1592.0,0.014124642691606404
1591.0,0.014169510141607944
1590.0,0.014169510141607944
1589.0,0.014169510141607944
1588.0,0.014169510141607944
1587.0,0.014124642691606404
1586.0,0.014124642691606404
1585.0,0.014079779876432497
1584.0,0.013990068146738865
1583.0,0.013900374944870508
1582.0,0.01385553528947936
1581.0,0.01381070026317599
1580.0,0.013765869865004277
1579.0,0.013676222949234651
1578.0,0.013452186585275916
1577.0,0.013273040668781544
1576.0,0.01318349541446362
1575.0,0.01322826573375524
1574.0,0.01322826573375524
1573.0,0.013273040668781544
1572.0,0.01322826573375524
1571.0,0.013093968619278806
1570.0,0.012959713020733288
1569.0,0.012959713020733288
1568.0,0.012959713020733288
1567.0,0.012959713020733288
1566.0,0.012914970375878188
1565.0,0.012959713020733288
1564.0,0.013093968619278806
1563.0,0.01322826573375524
1562.0,0.013407393177789162
1561.0,0.013586594534531482
1560.0,0.013676222949234651
1559.0,0.013631406429727155
1558.0,0.013496984613259544
1557.0,0.013362604389846044
1556.0,0.013407393177789162
1555.0,0.013541787262693505
1554.0,0.01372104409400876
1553.0,0.01381070026317599
1552.0,0.013900374944870508
1551.0,0.013945219230304673
1550.0,0.013945219230304673
1549.0,0.013945219230304673
1548.0,0.01385553528947936
1547.0,0.01372104409400876
1546.0,0.013496984613259544
1545.0,0.013273040668781544
1544.0,0.013093968619278806
1543.0,0.012914970375878188
1542.0,0.01264661126420652
1541.0,0.012557195064198723
1540.0,0.012780770091995297
1539.0,0.012959713020733288
1538.0,0.012870232340102872
1537.0,0.012825498912458322
1536.0,0.012870232340102872
1535.0,0.012780770091995297
1534.0,0.012691326268817527
1533.0,0.012691326268817527
1532.0,0.012691326268817527
1531.0,0.012557195064198723
1530.0,0.012423105273012602
1529.0,0.012378417874516323
1528.0,0.012378417874516323
1527.0,0.012244383261476699
1526.0,0.0119764380713403
1525.0,0.011708658092512314
1524.0,0.011441043121384498
1523.0,0.011084479487313281
1522.0,0.01086177578421088
1521.0,0.011084479487313281
1520.0,0.011351874764248926
1519.0,0.011396456654336085
1518.0,0.011351874764248926
1517.0,0.011396456654336085
1516.0,0.011441043121384498
1515.0,0.011262724711199823
1514.0,0.011039929609661936
1513.0,0.010906307389674463
1512.0,0.01086177578421088
1511.0,0.010817248744452446
1510.0,0.010817248744452446
1509.0,0.010817248744452446
1508.0,0.01086177578421088
1507.0,0.010817248744452446
1506.0,0.010683695010048622
1505.0,0.010505687227290839
1504.0,0.010416710688994968
1503.0,0.01037222925484893
1502.0,0.01037222925484893
1501.0,0.010416710688994968
1500.0,0.010505687227290839
1499.0,0.010416710688994968
1498.0,0.010194349063173958
1497.0,0.010194349063173958
1496.0,0.010283280051895272
1495.0,0.01023881228122181
1494.0,0.010149890396819572
1493.0,0.010149890396819572
1492.0,0.01023881228122181
1491.0,0.010149890396819572
1490.0,0.010149890396819572
1489.0,0.010416710688994968
1488.0,0.01077272626946324
1487.0,0.01086177578421088
1486.0,0.01086177578421088
1485.0,0.010995384301463185
1484.0,0.011307297450183107
1483.0,0.011708658092512314
1482.0,0.012333735073725371
1481.0,0.013452186585275916
1480.0,0.015067833932588037
1479.0,0.017457417697056554
1478.0,0.022093572362881675
1477.0,0.030537492025363155
1476.0,0.04301563225723992
1475.0,0.05814087347462649
1474.0,0.07468790850035045
1473.0,0.08873582900163002
1472.0,0.09398837472858723
1471.0,0.09113982698272349
1470.0,0.08602728844902896
1469.0,0.08144546944972642
1468.0,0.07800156869172903
1467.0,0.07628980560343712
1466.0,0.07800156869172903
1465.0,0.08412549714230844
1464.0,0.09151498112135026
1463.0,0.09517630019905599
1462.0,0.09339562827501968
1461.0,0.08698131625203986
1460.0,0.07748213975538865
1459.0,0.06691783763020887
1458.0,0.05724807957018618
1457.0,0.05051241005349638
1456.0,0.04657860031896477
1455.0,0.04397571771932274
1454.0,0.04172287445230238
1453.0,0.03943409718180235
1452.0,0.037299268295658994
1451.0,0.03555179208333925
1450.0,0.03423403581731388
1449.0,0.033154576345083564
1448.0,0.03226486821611996
1447.0,0.03161045815293173
1446.0,0.03105031901865729
1445.0,0.030444315779156517
1444.0,0.029885677714903025
1443.0,0.029467170231675777
1442.0,0.029095501846216454
1441.0,0.028677754757187035
1440.0,0.028167720075074953
1439.0,0.027612000892527133
1438.0,0.02710321556345563
1437.0,0.02664120011360227
1436.0,0.026225806029419818
1435.0,0.025810808881832736
1434.0,0.025350165561278004
1433.0,0.024706084643793647
1432.0,0.024017056287453542
1431.0,0.023374947949272418
1430.0,0.022688026603074007
1429.0,0.02200219004126036
1428.0,0.021317434843055594
1427.0,0.02067930261797568
1426.0,0.02013307743509718
1425.0,0.01958753839310856
1424.0,0.019042683770379876
1423.0,0.018634490921455527
1422.0,0.01831727262871463
1421.0,0.017864505196230507
1420.0,0.017412209298337533
1419.0,0.017186237868137555
1418.0,0.017005545341335804
1417.0,0.016734647433454652
1416.0,0.01646391839700767
1415.0,0.016193358021584725
1414.0,0.015922966097169144
1413.0,0.015652742414136167
1412.0,0.01538268676325183
1411.0,0.015202742910707112
1410.0,0.015067833932588037
1409.0,0.014843078722943437
1408.0,0.014618439768003144
1407.0,0.0144837121472845
1406.0,0.014349026309051105
1405.0,0.014214382227394795
1404.0,0.01403492169512921
1403.0,0.013900374944870508
1402.0,0.013765869865004277
1401.0,0.013631406429727155
1400.0,0.013496984613259544
1399.0,0.013452186585275916
1398.0,0.013407393177789162
1397.0,0.01318349541446362
1396.0,0.012870232340102872
1395.0,0.01264661126420652
1394.0,0.012557195064198723
1393.0,0.012512493866907004
1392.0,0.012557195064198723
1391.0,0.012691326268817527
1390.0,0.012825498912458322
1389.0,0.012825498912458322
1388.0,0.012825498912458322
1387.0,0.012870232340102872
1386.0,0.012959713020733288
1385.0,0.013004460275618523
1384.0,0.013049212141483357
1383.0,0.013273040668781544
1382.0,0.013586594534531482
1381.0,0.013945219230304673
1380.0,0.014349026309051105
1379.0,0.014708281407112
1378.0,0.014932966849499074
1377.0,0.015022873584506602
1376.0,0.015022873584506602
1375.0,0.015112798935672522
1374.0,0.015337693809893471
1373.0,0.015562705203923999
1372.0,0.01578783323856614
1371.0,0.016058141016111804
1370.0,0.01628352608625061
1369.0,0.01646391839700767
1368.0,0.016509028184833463
1367.0,0.016509028184833463
1366.0,0.016418813294209356
1365.0,0.016238439713835096
1364.0,0.016013078034810446
1363.0,0.01578783323856614
1362.0,0.015517693597737248
1361.0,0.015247721884586563
1360.0,0.015022873584506602
1359.0,0.014888020460646079
1358.0,0.014798141635428141
1357.0,0.014753209197138295
1356.0,0.014708281407112
1355.0,0.014798141635428141
1354.0,0.014888020460646079
1353.0,0.014932966849499074
1352.0,0.014932966849499074
1351.0,0.014843078722943437
1350.0,0.014753209197138295
1349.0,0.014618439768003144
1348.0,0.014438812226654996
1347.0,0.014259258949925524
1346.0,0.01403492169512921
1345.0,0.01385553528947936
1344.0,0.013676222949234651
1343.0,0.013586594534531482
1342.0,0.013496984613259544
1341.0,0.013362604389846044
1340.0,0.01322826573375524
1339.0,0.013093968619278806
1338.0,0.013049212141483357
1337.0,0.012914970375878188
1336.0,0.012825498912458322
1335.0,0.012736045877764557
1334.0,0.012691326268817527
1333.0,0.01264661126420652
1332.0,0.01260190086298274
1331.0,0.012557195064198723
1330.0,0.012557195064198723
1329.0,0.012557195064198723
1328.0,0.012557195064198723
1327.0,0.012691326268817527
1326.0,0.012825498912458322
1325.0,0.012959713020733288
1324.0,0.013049212141483357
1323.0,0.013138729709955221
1322.0,0.01322826573375524
1321.0,0.013273040668781544
1320.0,0.013317820220494436
1319.0,0.013407393177789162
1318.0,0.013541787262693505
1317.0,0.013586594534531482
1316.0,0.013631406429727155
1315.0,0.013676222949234651
1314.0,0.013765869865004277
1313.0,0.01385553528947936
1312.0,0.013945219230304673
1311.0,0.01403492169512921
1310.0,0.014124642691606404
1309.0,0.014169510141607944
1308.0,0.014214382227394795
1307.0,0.014259258949925524
1306.0,0.014259258949925524
1305.0,0.014214382227394795
1304.0,0.014124642691606404
1303.0,0.01403492169512921
1302.0,0.013990068146738865
1301.0,0.013945219230304673
1300.0,0.013945219230304673
1299.0,0.013945219230304673
1298.0,0.01385553528947936
1297.0,0.013765869865004277
1296.0,0.013631406429727155
1295.0,0.013496984613259544
1294.0,0.013407393177789162
1293.0,0.013317820220494436
1292.0,0.01318349541446362
1291.0,0.013049212141483357
1290.0,0.012914970375878188
1289.0,0.012736045877764557
1288.0,0.01264661126420652
1287.0,0.012557195064198723
1286.0,0.012557195064198723
1285.0,0.012423105273012602
1284.0,0.012333735073725371
1283.0,0.012244383261476699
1282.0,0.012199714248127602
1281.0,0.012199714248127602
1280.0,0.01215504982870197
1279.0,0.01215504982870197
1278.0,0.012110390002254778
1277.0,0.012021084124518078
1276.0,0.0119764380713403
1275.0,0.011931796607364653
1274.0,0.011931796607364653
1273.0,0.011887159731648111
1272.0,0.011797899741219142
1271.0,0.011753276624621556
1270.0,0.011753276624621556
1269.0,0.011753276624621556
1268.0,0.011753276624621556
1267.0,0.011708658092512314
1266.0,0.011664044143949504
1265.0,0.011574829993696856
1264.0,0.011485634166333858
1263.0,0.011396456654336085
1262.0,0.011351874764248926
1261.0,0.011262724711199823
1260.0,0.011218156546359825
1259.0,0.01117359295472431
1258.0,0.01117359295472431
1257.0,0.011084479487313281
1256.0,0.010995384301463185
1255.0,0.010950843561779777
1254.0,0.010950843561779777
1253.0,0.010950843561779777
1252.0,0.010950843561779777
1251.0,0.010906307389674463
1250.0,0.01086177578421088
1249.0,0.01086177578421088
1248.0,0.010906307389674463
1247.0,0.010906307389674463
1246.0,0.010906307389674463
1245.0,0.01077272626946324
1244.0,0.010639186223752484
1243.0,0.010550182333308289
1242.0,0.010550182333308289
1241.0,0.010639186223752484
1240.0,0.01077272626946324
1239.0,0.010817248744452446
1238.0,0.010817248744452446
1237.0,0.010728208358306901
1236.0,0.010639186223752484
1235.0,0.010594681998483901
1234.0,0.010550182333308289
1233.0,0.01046119667949763
1232.0,0.010327752376126709
1231.0,0.01023881228122181
1230.0,0.01023881228122181
1229.0,0.01023881228122181
1228.0,0.010194349063173958
1227.0,0.01023881228122181
1226.0,0.010283280051895272
1225.0,0.010283280051895272
1224.0,0.010283280051895272
1223.0,0.010283280051895272
1222.0,0.010327752376126709
1221.0,0.010327752376126709
1220.0,0.010283280051895272
1219.0,0.010283280051895272
1218.0,0.01023881228122181
1217.0,0.01023881228122181
1216.0,0.01023881228122181
1215.0,0.010283280051895272
1214.0,0.010327752376126709
1213.0,0.010327752376126709
1212.0,0.010327752376126709
1211.0,0.010283280051895272
1210.0,0.010327752376126709
1209.0,0.010327752376126709
1208.0,0.01037222925484893
1207.0,0.010416710688994968
1206.0,0.01046119667949763
1205.0,0.010505687227290839
1204.0,0.010550182333308289
1203.0,0.010594681998483901
1202.0,0.010594681998483901
1201.0,0.010594681998483901
1200.0,0.010505687227290839
1199.0,0.01046119667949763
1198.0,0.010416710688994968
1197.0,0.01037222925484893
1196.0,0.010327752376126709
1195.0,0.010327752376126709
1194.0,0.010327752376126709
1193.0,0.010283280051895272
1192.0,0.01023881228122181
1191.0,0.010194349063173958
1190.0,0.010149890396819572
1189.0,0.010194349063173958
1188.0,0.01023881228122181
1187.0,0.010327752376126709
1186.0,0.010416710688994968
1185.0,0.01046119667949763
1184.0,0.010505687227290839
1183.0,0.010550182333308289
1182.0,0.010594681998483901
1181.0,0.010639186223752484
1180.0,0.010683695010048622
1179.0,0.01077272626946324
1178.0,0.010906307389674463
1177.0,0.010950843561779777
1176.0,0.010995384301463185
1175.0,0.011039929609661936
1174.0,0.011039929609661936
1173.0,0.011039929609661936
1172.0,0.011039929609661936
1171.0,0.011129033935354915
1170.0,0.011262724711199823
1169.0,0.011307297450183107
1168.0,0.011351874764248926
1167.0,0.011351874764248926
1166.0,0.011307297450183107
1165.0,0.011218156546359825
1164.0,0.01117359295472431
1163.0,0.011218156546359825
1162.0,0.011262724711199823
1161.0,0.01117359295472431
1160.0,0.011039929609661936
1159.0,0.01086177578421088
1158.0,0.010728208358306901
1157.0,0.010639186223752484
1156.0,0.010594681998483901
1155.0,0.010594681998483901
1154.0,0.010639186223752484
1153.0,0.010639186223752484
1152.0,0.010594681998483901
1151.0,0.010550182333308289
1150.0,0.01046119667949763
1149.0,0.010416710688994968
1148.0,0.01037222925484893
1147.0,0.010327752376126709
1146.0,0.010283280051895272
1145.0,0.010194349063173958
1144.0,0.010105436281226954
1143.0,0.01001654169860089
1142.0,0.009927665307847056
1141.0,0.009883233932095559
1140.0,0.009838807101520963
1139.0,0.009705553871561357
1138.0,0.009616741093766423
1137.0,0.009527946474380489
1136.0,0.00939478857608056
1135.0,0.009261671492462709
1134.0,0.009172949432521227
1133.0,0.009172949432521227
1132.0,0.009261671492462709
1131.0,0.00939478857608056
1130.0,0.009439170005980158
1129.0,0.009439170005980158
1128.0,0.009350411681145587
1127.0,0.009261671492462709
1126.0,0.009172949432521227
1125.0,0.00908424549391551
1124.0,0.009039900317800775
1123.0,0.008995559669244813
1122.0,0.008995559669244813
1121.0,0.008951223547323472
1120.0,0.008951223547323472
1119.0,0.008995559669244813
1118.0,0.009039900317800775
1117.0,0.00908424549391551
1116.0,0.00908424549391551
1115.0,0.00908424549391551
1114.0,0.00908424549391551
1113.0,0.00908424549391551
1112.0,0.009039900317800775
1111.0,0.009039900317800775
1110.0,0.009039900317800775
1109.0,0.009039900317800775
1108.0,0.009039900317800775
1107.0,0.008951223547323472
1106.0,0.008862564879688284
1105.0,0.0087296108049002
1104.0,0.008685301823389224
1103.0,0.008640997362049818
1102.0,0.008685301823389224
1101.0,0.0087296108049002
1100.0,0.0087296108049002
1099.0,0.008773924307505121
1098.0,0.008818242332126802
1097.0,0.008818242332126802
1096.0,0.008773924307505121
1095.0,0.0087296108049002
1094.0,0.008640997362049818
1093.0,0.00850811108984062
1092.0,0.008286724286910463
1091.0,0.008153946355103248
1090.0,0.008065450281052211
1089.0,0.007932739972333236
1088.0,0.007755855953228474
1087.0,0.007534852191956709
1086.0,0.007313960837872058
1085.0,0.007049039429553483
1084.0,0.006828394969235152
1083.0,0.006651960076740071
1082.0,0.006607862550997545
1081.0,0.006519680930003435
1080.0,0.006431517210272464
1079.0,0.006387442061109638
1078.0,0.006299305179649828
1077.0,0.00625524344553785
1076.0,0.006167133386013823
1075.0,0.006167133386013823
1074.0,0.00621118618129457
1073.0,0.00625524344553785
1072.0,0.00621118618129457
1071.0,0.00612308505878878
1070.0,0.00590291041179003
1069.0,0.005594853310833647
1068.0,0.005243055412371911
1067.0,0.004979393875242044
1066.0,0.004979393875242044
1065.0,0.005243055412371911
1064.0,0.005594853310833647
1063.0,0.005814871797682919
1062.0,0.005858888873877532
1061.0,0.005682847330363394
1060.0,0.00541891874010525
1059.0,0.005199100705396198
1058.0,0.005067263269958211
1057.0,0.005023326350308999
1056.0,0.005111204635089406
1055.0,0.005243055412371911
1054.0,0.00537494623139545
1053.0,0.00537494623139545
1052.0,0.00537494623139545
1051.0,0.00541891874010525
1050.0,0.005506877116487674
1049.0,0.005506877116487674
1048.0,0.00541891874010525
1047.0,0.00537494623139545
1046.0,0.00541891874010525
1045.0,0.005506877116487674
1044.0,0.005594853310833647
1043.0,0.005638848091999105
1042.0,0.005682847330363394
1041.0,0.005726851026829571
1040.0,0.005726851026829571
1039.0,0.005726851026829571
1038.0,0.00577085918230158
1037.0,0.005814871797682919
1036.0,0.00590291041179003
1035.0,0.005990966876386672
1034.0,0.006167133386013823
1033.0,0.006299305179649828
1032.0,0.006387442061109638
1031.0,0.006475596832934416
1030.0,0.006475596832934416
1029.0,0.006387442061109638
1028.0,0.006343371384537999
1027.0,0.006387442061109638
1026.0,0.006475596832934416
1025.0,0.006519680930003435
1024.0,0.00656376950238835
1023.0,0.00656376950238835
1022.0,0.006607862550997545
1021.0,0.006696062080525422
1020.0,0.006740168563263094
1019.0,0.006740168563263094
1018.0,0.006740168563263094
1017.0,0.006651960076740071
1016.0,0.00656376950238835
1015.0,0.006519680930003435
1014.0,0.006519680930003435
1013.0,0.006519680930003435
1012.0,0.00656376950238835
1011.0,0.006607862550997545
1010.0,0.006696062080525422
1009.0,0.006784279525863024
1008.0,0.006872514894289861
1007.0,0.00696076819309055
1006.0,0.00696076819309055
1005.0,0.00696076819309055
1004.0,0.006872514894289861
1003.0,0.006784279525863024
1002.0,0.006828394969235152
1001.0,0.006872514894289861
1000.0,0.006916639301937977
999.0,0.00696076819309055
998.0,0.007004901568658406
997.0,0.007004901568658406
996.0,0.007049039429553483
995.0,0.007049039429553483
994.0,0.007049039429553483
993.0,0.007093181776687496
992.0,0.007137328610972382
991.0,0.007225635744644521
990.0,0.007269796045857202
989.0,0.007313960837872058
988.0,0.007358130121602358
987.0,0.007402303897961815
986.0,0.007402303897961815
985.0,0.007358130121602358
984.0,0.007313960837872058
983.0,0.007269796045857202
982.0,0.007181479933320523
981.0,0.007093181776687496
980.0,0.007093181776687496
979.0,0.007137328610972382
978.0,0.007269796045857202
977.0,0.007358130121602358
976.0,0.007269796045857202
975.0,0.007225635744644521
974.0,0.007181479933320523
973.0,0.007225635744644521
972.0,0.007269796045857202
971.0,0.007225635744644521
970.0,0.007137328610972382
969.0,0.007049039429553483
968.0,0.007004901568658406
967.0,0.00696076819309055
966.0,0.00696076819309055
965.0,0.007004901568658406
964.0,0.007093181776687496
963.0,0.007181479933320523
962.0,0.007225635744644521
961.0,0.007225635744644521
960.0,0.007137328610972382
959.0,0.007004901568658406
958.0,0.006872514894289861
957.0,0.006784279525863024
956.0,0.006696062080525422
955.0,0.006651960076740071
954.0,0.00656376950238835
953.0,0.006431517210272464
952.0,0.006299305179649828
951.0,0.00625524344553785
950.0,0.006299305179649828
949.0,0.006387442061109638
948.0,0.006431517210272464
947.0,0.006519680930003435
946.0,0.006475596832934416
945.0,0.006387442061109638
944.0,0.006299305179649828
943.0,0.006343371384537999
942.0,0.006519680930003435
941.0,0.006740168563263094
940.0,0.006872514894289861
939.0,0.00696076819309055
938.0,0.007004901568658406
937.0,0.007004901568658406
936.0,0.007049039429553483
935.0,0.007137328610972382
934.0,0.007181479933320523
933.0,0.007181479933320523
932.0,0.007137328610972382
931.0,0.007137328610972382
930.0,0.007137328610972382
929.0,0.007137328610972382
928.0,0.007225635744644521
927.0,0.007402303897961815
926.0,0.0075790439479759275
925.0,0.007667440952535687
924.0,0.00762324020119709
923.0,0.0075790439479759275
922.0,0.0075790439479759275
921.0,0.0075790439479759275
920.0,0.007490664932224611
919.0,0.007358130121602358
918.0,0.007225635744644521
917.0,0.007181479933320523
916.0,0.007181479933320523
915.0,0.007269796045857202
914.0,0.007313960837872058
913.0,0.007313960837872058
912.0,0.007181479933320523
911.0,0.007093181776687496
910.0,0.00696076819309055
909.0,0.006872514894289861
908.0,0.006828394969235152
907.0,0.006784279525863024
906.0,0.006740168563263094
905.0,0.00656376950238835
904.0,0.006299305179649828
903.0,0.006035001804881146
902.0,0.005858888873877532
901.0,0.005814871797682919
900.0,0.005814871797682919
899.0,0.005814871797682919
898.0,0.005726851026829571
897.0,0.005682847330363394
896.0,0.005594853310833647
895.0,0.005506877116487674
894.0,0.00541891874010525
893.0,0.00537494623139545
892.0,0.00541891874010525
891.0,0.005550862985963967
890.0,0.005726851026829571
889.0,0.00590291041179003
888.0,0.005946936412324799
887.0,0.005946936412324799
886.0,0.005946936412324799
885.0,0.00590291041179003
884.0,0.005814871797682919
883.0,0.005726851026829571
882.0,0.005682847330363394
881.0,0.005726851026829571
880.0,0.005814871797682919
879.0,0.005990966876386672
878.0,0.00625524344553785
877.0,0.006519680930003435
876.0,0.006696062080525422
875.0,0.006828394969235152
874.0,0.006828394969235152
873.0,0.006784279525863024
872.0,0.006784279525863024
871.0,0.006784279525863024
870.0,0.006828394969235152
869.0,0.006828394969235152
868.0,0.006828394969235152
867.0,0.006872514894289861
866.0,0.007004901568658406
865.0,0.007093181776687496
864.0,0.007137328610972382
863.0,0.007181479933320523
862.0,0.007225635744644521
861.0,0.007269796045857202
860.0,0.007358130121602358
859.0,0.0074464821678643656
858.0,0.007534852191956709
857.0,0.00762324020119709
856.0,0.00762324020119709
855.0,0.007534852191956709
854.0,0.0074464821678643656
853.0,0.007358130121602358
852.0,0.007269796045857202
851.0,0.007181479933320523
850.0,0.007049039429553483
849.0,0.006828394969235152
848.0,0.006651960076740071
847.0,0.006519680930003435
846.0,0.00656376950238835
845.0,0.006607862550997545
844.0,0.006607862550997545
843.0,0.006607862550997545
842.0,0.006607862550997545
841.0,0.006607862550997545
840.0,0.00656376950238835
839.0,0.006431517210272464
838.0,0.00612308505878878
837.0,0.005726851026829571
836.0,0.00537494623139545
835.0,0.005155150446602086
834.0,0.005067263269958211
833.0,0.004979393875242044
832.0,0.004935465843858511
831.0,0.004935465843858511
830.0,0.004935465843858511
829.0,0.004979393875242044
828.0,0.005111204635089406
827.0,0.005199100705396198
826.0,0.005330978174470591
825.0,0.00537494623139545
824.0,0.005330978174470591
823.0,0.005330978174470591
822.0,0.0052870145684298375
821.0,0.0052870145684298375
820.0,0.005243055412371911
819.0,0.005199100705396198
818.0,0.005199100705396198
817.0,0.005199100705396198
816.0,0.0052870145684298375
815.0,0.005506877116487674
814.0,0.005726851026829571
813.0,0.00590291041179003
812.0,0.005946936412324799
811.0,0.005990966876386672
810.0,0.00612308505878878
809.0,0.006343371384537999
808.0,0.00656376950238835
807.0,0.006651960076740071
806.0,0.006651960076740071
805.0,0.00656376950238835
804.0,0.006519680930003435
803.0,0.006475596832934416
802.0,0.006475596832934416
801.0,0.006475596832934416
800.0,0.006607862550997545
799.0,0.006784279525863024
798.0,0.006916639301937977
797.0,0.00696076819309055
796.0,0.006740168563263094
795.0,0.006343371384537999
794.0,0.006035001804881146
793.0,0.00590291041179003
792.0,0.006079041198713275
791.0,0.006431517210272464
790.0,0.006740168563263094
789.0,0.006784279525863024
788.0,0.00656376950238835
787.0,0.00621118618129457
786.0,0.005946936412324799
785.0,0.005726851026829571
784.0,0.005594853310833647
783.0,0.005506877116487674
782.0,0.00541891874010525
781.0,0.005243055412371911
780.0,0.005023326350308999
779.0,0.004803708402820517
778.0,0.004671990922590297
777.0,0.004671990922590297
776.0,0.004803708402820517
775.0,0.004979393875242044
774.0,0.004979393875242044
773.0,0.004803708402820517
772.0,0.0044964297349936455
771.0,0.004277078004534696
770.0,0.004145520125434121
769.0,0.00401400208620073
768.0,0.003970171588923321
767.0,0.003970171588923321
766.0,0.0040578370074493275
765.0,0.004189368323957332
764.0,0.004408675747646695
763.0,0.004628093971837721
762.0,0.004759798137184523
761.0,0.004628093971837721
760.0,0.004233220950025984
759.0,0.0038387066319929275
758.0,0.0036634819042162814
757.0,0.003707281458678491
756.0,0.0038387066319929275
755.0,0.0040578370074493275
754.0,0.004277078004534696
753.0,0.0044964297349936455
752.0,0.004540313378935901
751.0,0.0044964297349936455
750.0,0.004452550524862486
749.0,0.00458420145758498
748.0,0.00484762310854614
747.0,0.005199100705396198
746.0,0.005550862985963967
745.0,0.00577085918230158
744.0,0.005726851026829571
743.0,0.005594853310833647
742.0,0.005550862985963967
741.0,0.005638848091999105
740.0,0.00590291041179003
739.0,0.00656376950238835
738.0,0.007711646202907652
737.0,0.009527946474380489
736.0,0.012333735073725371
735.0,0.017141057687924732
734.0,0.025258095499050004
733.0,0.03692083935817303
732.0,0.05002482217034632
731.0,0.060131455540490375
730.0,0.06378795567975115
729.0,0.06093025007657582
728.0,0.05502409158795207
727.0,0.04978123335813667
726.0,0.04730440041308315
725.0,0.047982909952573705
724.0,0.05163594401163074
723.0,0.05858795962645047
722.0,0.06956040523329987
721.0,0.08407278830288423
720.0,0.09810596802617932
719.0,0.10579474085791629
718.0,0.10435649517592083
717.0,0.09571734235437201
716.0,0.0832303157168639
715.0,0.06961138175567827
714.0,0.0567528748621382
713.0,0.04585401117045196
712.0,0.037346595106788616
711.0,0.031190286087141805
710.0,0.02664120011360227
709.0,0.023237476732539397
708.0,0.020724852408976924
707.0,0.019042683770379876
706.0,0.017774008325325275
705.0,0.016509028184833463
704.0,0.015202742910707112
703.0,0.013900374944870508
702.0,0.012691326268817527
701.0,0.011441043121384498
700.0,0.010416710688994968
699.0,0.009838807101520963
698.0,0.00974996707218323
697.0,0.00974996707218323
696.0,0.009572341514736404
695.0,0.009217308196862062
694.0,0.0087296108049002
693.0,0.008242460465651913
692.0,0.008021209005416363
691.0,0.008286724286910463
690.0,0.008818242332126802
689.0,0.00908424549391551
688.0,0.008906891951112605
687.0,0.008419542825660153
686.0,0.007844288957383316
685.0,0.007358130121602358
684.0,0.007181479933320523
683.0,0.007402303897961815
682.0,0.007667440952535687
681.0,0.007269796045857202
680.0,0.006387442061109638
679.0,0.005682847330363394
678.0,0.005682847330363394
677.0,0.005946936412324799
676.0,0.005858888873877532
675.0,0.00541891874010525
674.0,0.004671990922590297
673.0,0.0036634819042162814
672.0,0.0033132443998284966
671.0,0.005682847330363394
670.0,0.011664044143949504
669.0,0.02013307743509718
668.0,0.027056991894431892
667.0,0.025258095499050004
666.0,0.016509028184833463
665.0,0.008552401996197112
664.0,0.003970171588923321
663.0,0.0018278780605593958
662.0,0.0008259444115150671
661.0,0.000521466320689834
660.0,0.0006519307932786322
659.0,0.0007824344698965646
658.0,0.000521466320689834
657.0,-0.00013026880522692963
656.0,-0.0008677215312267172
655.0,-0.001257631312230778
654.0,-0.0009977303577937136
653.0,-0.0003472966853634851
652.0,0.00030411258916074324
651.0,0.0008259444115150671
650.0,0.0010870956412141197
649.0,0.0010870956412141197
648.0,0.000869458712629001
647.0,0.000521466320689834
646.0,0.0
645.0,-0.0006509536295951079
644.0,-0.0010843812922201046
643.0,-0.0008243766056055257
642.0,8.686758342868472e-05
641.0,0.0012177301682640973
640.0,0.0021332737608552588
639.0,0.0028321285541661467
638.0,0.0035321097382827737
637.0,0.004408675747646695
636.0,0.00541891874010525
635.0,0.006387442061109638
634.0,0.006872514894289861
633.0,0.00656376950238835
632.0,0.005858888873877532
631.0,0.00537494623139545
630.0,0.005243055412371911
629.0,0.005330978174470591
628.0,0.005550862985963967
627.0,0.00612308505878878
626.0,0.007004901568658406
625.0,0.007932739972333236
624.0,0.0087296108049002
623.0,0.009306039320248427
622.0,0.009527946474380489
621.0,0.009128595198514056
620.0,0.008109696063975047
619.0,0.006828394969235152
618.0,0.00577085918230158
617.0,0.005111204635089406
616.0,0.004628093971837721
615.0,0.0040578370074493275
614.0,0.0034445503666347133
613.0,0.0032694845648473247
612.0,0.0040578370074493275
611.0,0.005594853310833647
610.0,0.006607862550997545
609.0,0.006299305179649828
608.0,0.005111204635089406
607.0,0.004452550524862486
606.0,0.004759798137184523
605.0,0.0052870145684298375
604.0,0.005067263269958211
603.0,0.0038387066319929275
602.0,0.0020459959305969555
601.0,0.00021720154586435392
600.0,-0.0006943158663546001
