cm-1,A
4000.0,0.07680780957933253
3999.0,0.07670415934449615
3998.0,0.07665234350217442
3997.0,0.07660053384128362
3996.0,0.07649693305789551
3995.0,0.07654873036034848
3994.0,0.07665234350217442
3993.0,0.07680780957933253
3992.0,0.07685964397479927
3991.0,0.07691148455760066
3990.0,0.07685964397479927
3989.0,0.07675598136972361
3988.0,0.07660053384128362
3987.0,0.0763933569825408
3986.0,0.07628980560343712
3985.0,0.07623803917129979
3984.0,0.07634157820669385
3983.0,0.07649693305789551
3982.0,0.07665234350217442
3981.0,0.07680780957933253
3980.0,0.07691148455760066
3979.0,0.07701518429111709
3978.0,0.07706704344478843
3977.0,0.07706704344478843
3976.0,0.07696333132921396
3975.0,0.07680780957933253
3974.0,0.07665234350217442
3973.0,0.07644514193245056
3972.0,0.07634157820669385
3971.0,0.07634157820669385
3970.0,0.0763933569825408
3969.0,0.07660053384128362
3968.0,0.07691148455760066
3967.0,0.07727454200674
3966.0,0.07743023101428781
3965.0,0.07737832847680104
3964.0,0.07706704344478843
3963.0,0.07670415934449615
3962.0,0.07644514193245056
3961.0,0.07634157820669385
3960.0,0.07634157820669385
3959.0,0.07649693305789551
3958.0,0.07675598136972361
3957.0,0.07701518429111709
3956.0,0.07711890879170658
3955.0,0.07717078033335123
3954.0,0.07711890879170658
3953.0,0.07685964397479927
3952.0,0.07654873036034848
3951.0,0.07628980560343712
3950.0,0.07608277688689435
3949.0,0.07613452481449845
3948.0,0.07634157820669385
3947.0,0.07644514193245056
3946.0,0.0763933569825408
3945.0,0.07634157820669385
3944.0,0.0763933569825408
3943.0,0.07660053384128362
3942.0,0.07675598136972361
3941.0,0.07685964397479927
3940.0,0.07696333132921396
3939.0,0.07737832847680104
3938.0,0.07784567476894111
3937.0,0.07794959783282618
3936.0,0.07768983678560404
3935.0,0.07717078033335123
3934.0,0.07675598136972361
3933.0,0.07649693305789551
3932.0,0.07644514193245056
3931.0,0.07649693305789551
3930.0,0.07660053384128362
3929.0,0.07660053384128362
3928.0,0.07644514193245056
3927.0,0.07623803917129979
3926.0,0.07623803917129979
3925.0,0.07634157820669385
3924.0,0.0763933569825408
3923.0,0.07628980560343712
3922.0,0.07628980560343712
3921.0,0.07665234350217442
3920.0,0.07701518429111709
3919.0,0.0772226580712021
3918.0,0.07737832847680104
3917.0,0.07768983678560404
3916.0,0.07794959783282618
3915.0,0.07789763319239285
3914.0,0.0777417765670334
3913.0,0.07784567476894111
3912.0,0.0781575185941421
3911.0,0.07831352451639795
3910.0,0.07826151631540124
3909.0,0.07784567476894111
3908.0,0.07717078033335123
3907.0,0.07634157820669385
3906.0,0.0756173227980268
3905.0,0.07504911108438939
3904.0,0.07473949048056472
3903.0,0.07453319930846214
3902.0,0.07448164182257
3901.0,0.07499749231902242
3900.0,0.07613452481449845
3899.0,0.0772226580712021
3898.0,0.07763790321520991
3897.0,0.07748213975538865
3896.0,0.07727454200674
3895.0,0.07717078033335123
3894.0,0.07701518429111709
3893.0,0.07685964397479927
3892.0,0.0772226580712021
3891.0,0.07784567476894111
3890.0,0.07779372256098371
3889.0,0.07680780957933253
3888.0,0.07634157820669385
3887.0,0.07701518429111709
3886.0,0.07789763319239285
3885.0,0.07800156869172903
3884.0,0.07701518429111709
3883.0,0.07592757008963713
3882.0,0.07608277688689435
3881.0,0.0772226580712021
3880.0,0.07810552907089763
3879.0,0.07800156869172903
3878.0,0.07701518429111709
3877.0,0.07644514193245056
3876.0,0.07685964397479927
3875.0,0.07743023101428781
3874.0,0.07711890879170658
3873.0,0.07592757008963713
3872.0,0.07479107858799638
3871.0,0.07499749231902242
3870.0,0.07634157820669385
3869.0,0.07706704344478843
3868.0,0.07628980560343712
3867.0,0.07541061433058172
3866.0,0.07582412969807906
3865.0,0.07660053384128362
3864.0,0.07654873036034848
3863.0,0.07608277688689435
3862.0,0.07608277688689435
3861.0,0.07649693305789551
3860.0,0.07680780957933253
3859.0,0.07675598136972361
3858.0,0.0763933569825408
3857.0,0.07582412969807906
3856.0,0.07535895258283709
3855.0,0.07530729697981409
3854.0,0.07618627890881036
3853.0,0.07779372256098371
3852.0,0.07805354577058976
3851.0,0.07634157820669385
3850.0,0.0760310351245288
3849.0,0.07763790321520991
3848.0,0.0788860261633193
3847.0,0.07893810920972144
3846.0,0.07846958649875768
3845.0,0.07800156869172903
3844.0,0.07748213975538865
3843.0,0.07660053384128362
3842.0,0.07541061433058172
3841.0,0.07432700607875953
3840.0,0.07401789967289685
3839.0,0.07458476291575367
3838.0,0.07551395626608493
3837.0,0.0760310351245288
3836.0,0.07587584681417514
3835.0,0.0756173227980268
3834.0,0.0760310351245288
3833.0,0.07696333132921396
3832.0,0.07789763319239285
3831.0,0.07826151631540124
3830.0,0.07794959783282618
3829.0,0.07758597585436577
3828.0,0.07763790321520991
3827.0,0.07789763319239285
3826.0,0.0777417765670334
3825.0,0.07680780957933253
3824.0,0.07577241873988227
3823.0,0.07551395626608493
3822.0,0.07613452481449845
3821.0,0.07685964397479927
3820.0,0.07665234350217442
3819.0,0.07530729697981409
3818.0,0.07489427319033615
3817.0,0.07654873036034848
3816.0,0.07852161962430992
3815.0,0.079094395835976
3814.0,0.07836553894629472
3813.0,0.0781575185941421
3812.0,0.07914650387874067
3811.0,0.08003329851661278
3810.0,0.07977228854307139
3809.0,0.07904229404455076
3808.0,0.0788860261633193
3807.0,0.079094395835976
3806.0,0.07841755960658348
3805.0,0.07665234350217442
3804.0,0.07541061433058172
3803.0,0.07587584681417514
3802.0,0.07727454200674
3801.0,0.07820951434181311
3800.0,0.07768983678560404
3799.0,0.07623803917129979
3798.0,0.07613452481449845
3797.0,0.07753405470158659
3796.0,0.07857365898473456
3795.0,0.07883394936226118
3794.0,0.07883394936226118
3793.0,0.07930286553008004
3792.0,0.08003329851661278
3791.0,0.0805035121369384
3790.0,0.08055578953476306
3789.0,0.08039897621588898
3788.0,0.08018997982980403
3787.0,0.08003329851661278
3786.0,0.07998108397108505
3785.0,0.07998108397108505
3784.0,0.07987667370927598
3783.0,0.07935499859321249
3782.0,0.07883394936226118
3781.0,0.07867775641617802
3780.0,0.07893810920972144
3779.0,0.07925073872429178
3778.0,0.07935499859321249
3777.0,0.07935499859321249
3776.0,0.07972010536705154
3775.0,0.08029446545087904
3774.0,0.08039897621588898
3773.0,0.07987667370927598
3772.0,0.07925073872429178
3771.0,0.079094395835976
3770.0,0.07925073872429178
3769.0,0.07919861817434581
3768.0,0.07878187880504961
3767.0,0.07862570458152551
3766.0,0.07914650387874067
3765.0,0.07966792846041071
3764.0,0.07951143534170213
3763.0,0.0788860261633193
3762.0,0.07852161962430992
3761.0,0.07846958649875768
3760.0,0.07820951434181311
3759.0,0.07768983678560404
3758.0,0.07732643214144574
3757.0,0.07717078033335123
3756.0,0.07696333132921396
3755.0,0.07670415934449615
3754.0,0.07649693305789551
3753.0,0.07618627890881036
3752.0,0.07566901529132153
3751.0,0.07546228222451012
3750.0,0.07623803917129979
3749.0,0.07675598136972361
3748.0,0.0760310351245288
3747.0,0.07566901529132153
3746.0,0.07685964397479927
3745.0,0.07899019850296574
3744.0,0.08055578953476306
3743.0,0.07998108397108505
3742.0,0.07805354577058976
3741.0,0.0777417765670334
3740.0,0.07852161962430992
3739.0,0.0781575185941421
3738.0,0.07665234350217442
3737.0,0.07530729697981409
3736.0,0.07494587968815725
3735.0,0.07515236702446293
3734.0,0.0756173227980268
3733.0,0.07634157820669385
3732.0,0.07732643214144574
3731.0,0.07800156869172903
3730.0,0.07810552907089763
3729.0,0.07831352451639795
3728.0,0.07899019850296574
3727.0,0.07956359344924135
3726.0,0.07956359344924135
3725.0,0.07919861817434581
3724.0,0.07899019850296574
3723.0,0.07914650387874067
3722.0,0.07935499859321249
3721.0,0.0794071379151915
3720.0,0.07935499859321249
3719.0,0.0794592834975203
3718.0,0.07977228854307139
3717.0,0.07987667370927598
3716.0,0.07956359344924135
3715.0,0.07904229404455076
3714.0,0.07852161962430992
3713.0,0.07794959783282618
3712.0,0.07727454200674
3711.0,0.07701518429111709
3710.0,0.07743023101428781
3709.0,0.07820951434181311
3708.0,0.07899019850296574
3707.0,0.07977228854307139
3706.0,0.08024221949810584
3705.0,0.08024221949810584
3704.0,0.08013774644446192
3703.0,0.08008551934056851
3702.0,0.08013774644446192
3701.0,0.08018997982980403
3700.0,0.07998108397108505
3699.0,0.07982447798997727
3698.0,0.08013774644446192
3697.0,0.08071265949561734
3696.0,0.08081727095749947
3695.0,0.08024221949810584
3694.0,0.0794592834975203
3693.0,0.07878187880504961
3692.0,0.07805354577058976
3691.0,0.07732643214144574
3690.0,0.0772226580712021
3689.0,0.07794959783282618
3688.0,0.07867775641617802
3687.0,0.07862570458152551
3686.0,0.07862570458152551
3685.0,0.07956359344924135
3684.0,0.08076496207674921
3683.0,0.0812883346176787
3682.0,0.08102656950704579
3681.0,0.08045124103115198
3680.0,0.07982447798997727
3679.0,0.07867775641617802
3678.0,0.0772226580712021
3677.0,0.07634157820669385
3676.0,0.07675598136972361
3675.0,0.07768983678560404
3674.0,0.07732643214144574
3673.0,0.07587584681417514
3672.0,0.07608277688689435
3671.0,0.0777417765670334
3670.0,0.07893810920972144
3669.0,0.07930286553008004
3668.0,0.07919861817434581
3667.0,0.0794071379151915
3666.0,0.08055578953476306
3665.0,0.08181233864107451
3664.0,0.08244197917456386
3663.0,0.08249449044745338
3662.0,0.0823369756726251
3661.0,0.08207457793525874
3660.0,0.08165507103772507
3659.0,0.08118360963962057
3658.0,0.08107890990866418
3657.0,0.08144546944972642
3656.0,0.08181233864107451
3655.0,0.08149786036382611
3654.0,0.08045124103115198
3653.0,0.07961575782164254
3652.0,0.079094395835976
3651.0,0.07820951434181311
3650.0,0.07717078033335123
3649.0,0.07743023101428781
3648.0,0.079094395835976
3647.0,0.08039897621588898
3646.0,0.08092190762392604
3645.0,0.08149786036382611
3644.0,0.0823369756726251
3643.0,0.08328292240118751
3642.0,0.0838620168928248
3641.0,0.08407278830288423
3640.0,0.08412549714230844
3639.0,0.08428366205400617
3638.0,0.08449463824562353
3637.0,0.08454739831152125
3636.0,0.08438913733853282
3635.0,0.08428366205400617
3634.0,0.08402008585977572
3633.0,0.08328292240118751
3632.0,0.08228448344050654
3631.0,0.08181233864107451
3630.0,0.08217951800630297
3629.0,0.0832303157168639
3628.0,0.08444188458847957
3627.0,0.08460016478773014
3626.0,0.08449463824562353
3625.0,0.08539243222891946
3624.0,0.08634506491338012
3623.0,0.086239113587677
3622.0,0.08555105930144569
3621.0,0.08491689834879956
3620.0,0.08460016478773014
3619.0,0.08444188458847957
3618.0,0.08423093401631587
3617.0,0.0839147001562972
3616.0,0.0838620168928248
3615.0,0.08438913733853282
3614.0,0.08518101955252688
3613.0,0.08581556657675371
3612.0,0.08602728844902896
3611.0,0.08602728844902896
3610.0,0.0861331881037608
3609.0,0.08650404038287651
3608.0,0.08708744882390307
3607.0,0.08772478950118767
3606.0,0.0884695376928375
3605.0,0.0892155652071629
3604.0,0.08985603893548699
3603.0,0.09012318200960712
3602.0,0.0900163050601559
3601.0,0.08980263003399913
3600.0,0.08958906008531176
3599.0,0.08932224525729482
3598.0,0.08916223500731646
3597.0,0.08894897967187343
3596.0,0.08889568219596411
3595.0,0.08900228368935714
3594.0,0.08937559511079884
3593.0,0.08985603893548699
3592.0,0.09023008526723086
3591.0,0.09039048950983108
3590.0,0.09049745859458458
3589.0,0.0905509530187334
3588.0,0.0908185240221473
3587.0,0.09124698081546634
3586.0,0.09146136782804049
3585.0,0.09135416109288674
3584.0,0.09146136782804049
3583.0,0.09205147838772776
3582.0,0.09280368972839836
3581.0,0.09344948089854999
3580.0,0.09393445524476318
3579.0,0.09420411963213149
3578.0,0.09420411963213149
3577.0,0.09404230090757282
3576.0,0.09388054245443844
3575.0,0.0937727369476411
3574.0,0.09382663635595145
3573.0,0.09393445524476318
3572.0,0.09398837472858723
3571.0,0.0937727369476411
3570.0,0.09318028453345462
3569.0,0.09226626300234453
3568.0,0.09146136782804049
3567.0,0.09135416109288674
3566.0,0.09215885741705532
3565.0,0.09334178232840018
3564.0,0.09441997176475758
3563.0,0.09539263618455207
3562.0,0.09620485725896466
3561.0,0.09669292003582619
3560.0,0.09696430321150284
3559.0,0.09712721455392082
3558.0,0.09739886933346864
3557.0,0.09761631556752848
3556.0,0.09783387072894878
3555.0,0.0978882765519955
3554.0,0.0978882765519955
3553.0,0.09805153492691598
3552.0,0.09832376867362447
3551.0,0.09848719087006019
3550.0,0.09843270997155007
3549.0,0.09826930827078129
3548.0,0.09816040794877057
3547.0,0.09810596802617932
3546.0,0.09826930827078129
3545.0,0.09854167860388774
3544.0,0.09892328427374508
3543.0,0.09925064193892053
3542.0,0.09963287134352972
3541.0,0.10007011727213588
3540.0,0.10045306890913297
3539.0,0.10067205012234592
3538.0,0.10072681268239614
3537.0,0.10078158214862709
3536.0,0.10089114180660053
3535.0,0.10100072911021085
3534.0,0.10111034407341357
3533.0,0.10132965703447017
3532.0,0.10160395406999112
3531.0,0.10182351650232357
3530.0,0.10193333935836524
3529.0,0.10204318999304807
3528.0,0.1022080180607754
3527.0,0.10226297465457268
3526.0,0.1022080180607754
3525.0,0.10209812573177213
3524.0,0.10215306842042837
3523.0,0.10248287059947447
3522.0,0.10292299679057959
3521.0,0.10330847343711591
3520.0,0.10374943753836186
3519.0,0.10419084983086901
3518.0,0.10457745396059215
3517.0,0.1047432468551055
3516.0,0.1047432468551055
3515.0,0.1047432468551055
3514.0,0.10479852522110678
3513.0,0.10490910306560064
3512.0,0.10490910306560064
3511.0,0.10479852522110678
3510.0,0.1047432468551055
3509.0,0.10485381062400778
3508.0,0.10513034325474746
3507.0,0.10529634739076998
3506.0,0.10529634739076998
3505.0,0.1052410056281079
3504.0,0.10518567091669917
3503.0,0.1052410056281079
3502.0,0.10557316203581202
3501.0,0.10601643278815298
3500.0,0.10651565378151395
3499.0,0.10701544928928342
3498.0,0.10740457717110186
3497.0,0.10773839308446487
3496.0,0.10784972209863586
3495.0,0.10790539730951965
3494.0,0.10801676914803293
3493.0,0.10812816955441629
3492.0,0.10835105612944096
3491.0,0.10857405715200596
3490.0,0.10874138309586101
3489.0,0.10885296955122903
3488.0,0.10902040301031102
3487.0,0.10913206118855912
3486.0,0.10907622851098608
3485.0,0.10896458468468917
3484.0,0.10885296955122903
3483.0,0.10885296955122903
3482.0,0.10902040301031102
3481.0,0.10935546370475246
3480.0,0.10974669484546551
3479.0,0.11008231656379408
3478.0,0.11041819785037621
3477.0,0.1106422631110684
3476.0,0.11075433910702048
3475.0,0.11081038795292675
3474.0,0.11081038795292675
3473.0,0.11086644403327606
3472.0,0.11114683301706374
3471.0,0.1114835389250548
3470.0,0.11187669270209155
3469.0,0.11232644754555254
3468.0,0.11277666863747693
3467.0,0.11311464101399138
3466.0,0.11317099532301778
3465.0,0.11305829401658474
3464.0,0.11277666863747693
3463.0,0.11260778102815316
3462.0,0.11260778102815316
3461.0,0.11272036546997688
3460.0,0.1128329791052256
3459.0,0.11288929687511629
3458.0,0.11305829401658474
3457.0,0.1133401021387972
3456.0,0.11367851344052027
3455.0,0.11401718864502697
3454.0,0.1141301390960936
3453.0,0.11401718864502697
3452.0,0.1138478180292033
3451.0,0.11379137583250243
3450.0,0.11390426756225258
3449.0,0.11407366019856902
3448.0,0.1141301390960936
3447.0,0.11401718864502697
3446.0,0.1138478180292033
3445.0,0.11379137583250243
3444.0,0.11401718864502697
3443.0,0.11435612816423602
3442.0,0.11475189221861393
3441.0,0.11503480179926728
3440.0,0.11526126223036814
3439.0,0.11554450392951199
3438.0,0.11577123036739612
3437.0,0.11599807523121286
3436.0,0.11605480496572018
3435.0,0.11594135290606156
3434.0,0.11582793047608719
3433.0,0.11582793047608719
3432.0,0.11599807523121286
3431.0,0.11628179803604044
3430.0,0.1165657063169907
3429.0,0.116736140415026
3428.0,0.11684980031672243
3427.0,0.1169634899723202
3426.0,0.11719095860756013
3425.0,0.1174754620451195
3424.0,0.11770319906234805
3423.0,0.11770319906234805
3422.0,0.11770319906234805
3421.0,0.11776015198117662
3420.0,0.11787408022996826
3419.0,0.11798803837334138
3418.0,0.11804502866039956
3417.0,0.11810202642698875
3416.0,0.11815903167507247
3415.0,0.11827306462358211
3414.0,0.1183871275216517
3413.0,0.11850122038501709
3412.0,0.11855827805860697
3411.0,0.11850122038501709
3410.0,0.11833009232793867
3409.0,0.11815903167507247
3408.0,0.11810202642698875
3407.0,0.11821604440661537
3406.0,0.11855827805860697
3405.0,0.11895789180659433
3404.0,0.11924355548978971
3403.0,0.11930071078129845
3402.0,0.11924355548978971
3401.0,0.11930071078129845
3400.0,0.11947222180119477
3399.0,0.11975822410451964
3398.0,0.11992991593593283
3397.0,0.12004441487725082
3396.0,0.1199871616332282
3395.0,0.1199871616332282
3394.0,0.1199871616332282
3393.0,0.12015894401343741
3392.0,0.12033079436794658
3391.0,0.12044539906102569
3390.0,0.12044539906102569
3389.0,0.12044539906102569
3388.0,0.12044539906102569
3387.0,0.12050271275057156
3386.0,0.12061736282565727
3385.0,0.12067469921519258
3384.0,0.1207320431753871
3383.0,0.12067469921519258
3382.0,0.12056003400478299
3381.0,0.12050271275057156
3380.0,0.12056003400478299
3379.0,0.12067469921519258
3378.0,0.12084675381575383
3377.0,0.12107626603243293
3376.0,0.12119106764079435
3375.0,0.12119106764079435
3374.0,0.12119106764079435
3373.0,0.12119106764079435
3372.0,0.12136332697348307
3371.0,0.12147820449879343
3370.0,0.12153565465853111
3369.0,0.12165057778222454
3368.0,0.12176553132495593
3367.0,0.12193801870998744
3366.0,0.12205304837081177
3365.0,0.12216810850710624
3364.0,0.12211057462851604
3363.0,0.1219955297319748
3362.0,0.12182301950849372
3361.0,0.12170805075020397
3360.0,0.12176553132495593
3359.0,0.12182301950849372
3358.0,0.12193801870998744
3357.0,0.1219955297319748
3356.0,0.12205304837081177
3355.0,0.12211057462851604
3354.0,0.12222565000860186
3353.0,0.12239832027072817
3352.0,0.12257105921178035
3351.0,0.12262865413022594
3350.0,0.12268625668776156
3349.0,0.12262865413022594
3348.0,0.12257105921178035
3347.0,0.12257105921178035
3346.0,0.12268625668776156
3345.0,0.12274386688641381
3344.0,0.12274386688641381
3343.0,0.12262865413022594
3342.0,0.12257105921178035
3341.0,0.12257105921178035
3340.0,0.12262865413022594
3339.0,0.12274386688641381
3338.0,0.12285911021517903
3337.0,0.12291674334934943
3336.0,0.12291674334934943
3335.0,0.12274386688641381
3334.0,0.12251347193039863
3333.0,0.12222565000860186
3332.0,0.12211057462851604
3331.0,0.12222565000860186
3330.0,0.12251347193039863
3329.0,0.12285911021517903
3328.0,0.12320502379929943
3327.0,0.12349349573411894
3326.0,0.12360893818081231
3325.0,0.12355121312165873
3324.0,0.12337808396572703
3323.0,0.12320502379929943
3322.0,0.12326270285933538
3321.0,0.12343578601615435
3320.0,0.12349349573411894
3319.0,0.12337808396572703
3318.0,0.12314735239865637
3317.0,0.12297438413275108
3316.0,0.12285911021517903
3315.0,0.12280148472821018
3314.0,0.12280148472821018
3313.0,0.12274386688641381
3312.0,0.12274386688641381
3311.0,0.12291674334934943
3310.0,0.12314735239865637
3309.0,0.12337808396572703
3308.0,0.12355121312165873
3307.0,0.12360893818081231
3306.0,0.12360893818081231
3305.0,0.1236666709136196
3304.0,0.1236666709136196
3303.0,0.1236666709136196
3302.0,0.12360893818081231
3301.0,0.12349349573411894
3300.0,0.12343578601615435
3299.0,0.12349349573411894
3298.0,0.12360893818081231
3297.0,0.1236666709136196
3296.0,0.12372441132212098
3295.0,0.12372441132212098
3294.0,0.12389767862220635
3293.0,0.12412880927263426
3292.0,0.12436006299583169
3291.0,0.12441789567211425
3290.0,0.12418661116024232
3289.0,0.12395544975390482
3288.0,0.12372441132212098
3287.0,0.12360893818081231
3286.0,0.12360893818081231
3285.0,0.12360893818081231
3284.0,0.1236666709136196
3283.0,0.12383991517437187
3282.0,0.12395544975390482
3281.0,0.12383991517437187
3280.0,0.12355121312165873
3279.0,0.12320502379929943
3278.0,0.12297438413275108
3277.0,0.12303203256741524
3276.0,0.12320502379929943
3275.0,0.12337808396572703
3274.0,0.12337808396572703
3273.0,0.12326270285933538
3272.0,0.12314735239865637
3271.0,0.12308968865537295
3270.0,0.12303203256741524
3269.0,0.12303203256741524
3268.0,0.12303203256741524
3267.0,0.12326270285933538
3266.0,0.12355121312165873
3265.0,0.12383991517437187
3264.0,0.12401322857151209
3263.0,0.12401322857151209
3262.0,0.12389767862220635
3261.0,0.1236666709136196
3260.0,0.12343578601615435
3259.0,0.12320502379929943
3258.0,0.12291674334934943
3257.0,0.12274386688641381
3256.0,0.12268625668776156
3255.0,0.12280148472821018
3254.0,0.12297438413275108
3253.0,0.12314735239865637
3252.0,0.12314735239865637
3251.0,0.12308968865537295
3250.0,0.12303203256741524
3249.0,0.12303203256741524
3248.0,0.12303203256741524
3247.0,0.12303203256741524
3246.0,0.12314735239865637
3245.0,0.12320502379929943
3244.0,0.12326270285933538
3243.0,0.12326270285933538
3242.0,0.12326270285933538
3241.0,0.12314735239865637
3240.0,0.12297438413275108
3239.0,0.12268625668776156
3238.0,0.12251347193039863
3237.0,0.12245589228405596
3236.0,0.12245589228405596
3235.0,0.12245589228405596
3234.0,0.12234075588839133
3233.0,0.12222565000860186
3232.0,0.12205304837081177
3231.0,0.1219955297319748
3230.0,0.12205304837081177
3229.0,0.12222565000860186
3228.0,0.12234075588839133
3227.0,0.12239832027072817
3226.0,0.12262865413022594
3225.0,0.12291674334934943
3224.0,0.12326270285933538
3223.0,0.12326270285933538
3222.0,0.12308968865537295
3221.0,0.12280148472821018
3220.0,0.12257105921178035
3219.0,0.12245589228405596
3218.0,0.12228319913502328
3217.0,0.12211057462851604
3216.0,0.12176553132495593
3215.0,0.12142076193778073
3214.0,0.12124847982699793
3213.0,0.12119106764079435
3212.0,0.12119106764079435
3211.0,0.12119106764079435
3210.0,0.12119106764079435
3209.0,0.1213058996038916
3208.0,0.12142076193778073
3207.0,0.12147820449879343
3206.0,0.12142076193778073
3205.0,0.12136332697348307
3204.0,0.1213058996038916
3203.0,0.1213058996038916
3202.0,0.12136332697348307
3201.0,0.12136332697348307
3200.0,0.12124847982699793
3199.0,0.12107626603243293
3198.0,0.12090412049992727
3197.0,0.1207893947082408
3196.0,0.1207320431753871
3195.0,0.12061736282565727
3194.0,0.12056003400478299
3193.0,0.12056003400478299
3192.0,0.12061736282565727
3191.0,0.12067469921519258
3190.0,0.12067469921519258
3189.0,0.12061736282565727
3188.0,0.12056003400478299
3187.0,0.12044539906102569
3186.0,0.12033079436794658
3185.0,0.1201016756699902
3184.0,0.11981544717356662
3183.0,0.11952940719622163
3182.0,0.11935787359571504
3181.0,0.11924355548978971
3180.0,0.11912926746757657
3179.0,0.11907213473291511
3178.0,0.11895789180659433
3177.0,0.11884367892443626
3176.0,0.11861534322942724
3175.0,0.1183871275216517
3174.0,0.11827306462358211
3173.0,0.11827306462358211
3172.0,0.1183871275216517
3171.0,0.1183871275216517
3170.0,0.11827306462358211
3169.0,0.11804502866039956
3168.0,0.11787408022996826
3167.0,0.11781711236973003
3166.0,0.11776015198117662
3165.0,0.11770319906234805
3164.0,0.11764625361128611
3163.0,0.1175323851046286
3162.0,0.11736163830396129
3161.0,0.11713408027837091
3160.0,0.11690664142431006
3159.0,0.11679296664760996
3158.0,0.11684980031672243
3157.0,0.11690664142431006
3156.0,0.11684980031672243
3155.0,0.11667932161702477
3154.0,0.1165089098110701
3153.0,0.11633856484638239
3152.0,0.11622503864474187
3151.0,0.11599807523121286
3150.0,0.1157145376603248
3149.0,0.11543118508166672
3148.0,0.11537453674376552
3147.0,0.11531789579397489
3146.0,0.11526126223036814
3145.0,0.11514801725400226
3144.0,0.1149782051377024
3143.0,0.1148084593931522
3142.0,0.11469533241103202
3141.0,0.11463877996848804
3140.0,0.1145256971708426
3139.0,0.11435612816423602
3138.0,0.11418662533951118
3137.0,0.11401718864502697
3136.0,0.1138478180292033
3135.0,0.11367851344052027
3134.0,0.11356568037106163
3133.0,0.11350927482751816
3132.0,0.11345287660889425
3131.0,0.11328372588352176
3130.0,0.112945621949043
3129.0,0.11260778102815316
3128.0,0.11238269966426384
3127.0,0.11215773489264302
3126.0,0.11210151190312767
3125.0,0.11210151190312767
3124.0,0.11221396516162851
3123.0,0.11232644754555254
3122.0,0.11238269966426384
3121.0,0.11227020271196975
3120.0,0.11193288659256306
3119.0,0.1114835389250548
3118.0,0.11114683301706374
3117.0,0.11097857790477517
3116.0,0.11097857790477517
3115.0,0.11103465569966264
3114.0,0.11097857790477517
3113.0,0.11075433910702048
3112.0,0.11053021603049262
3111.0,0.11030620855581463
3110.0,0.11019424813191447
3109.0,0.11008231656379408
3108.0,0.11002636159600376
3107.0,0.1098585399354226
3106.0,0.10969078310005154
3105.0,0.10957898119908571
3104.0,0.10941133229451272
3103.0,0.10918790104487552
3102.0,0.10896458468468917
3101.0,0.10868560061785693
3100.0,0.10846254232743546
3099.0,0.10835105612944096
3098.0,0.1082953237608173
3097.0,0.1081838804751396
3096.0,0.10801676914803293
3095.0,0.10779405402422748
3094.0,0.1075158206353124
3093.0,0.10734896612269962
3092.0,0.10729336219433439
3091.0,0.10723776538418317
3090.0,0.10723776538418317
3089.0,0.1071265931112344
3088.0,0.10701544928928342
3087.0,0.10684878687013422
3086.0,0.10673771411200872
3085.0,0.10673771411200872
3084.0,0.10679324694015202
3083.0,0.10684878687013422
3082.0,0.10668218838388821
3081.0,0.1063491830140364
3080.0,0.10596099919539115
3079.0,0.10557316203581202
3078.0,0.10535169620648288
3077.0,0.1052410056281079
3076.0,0.10529634739076998
3075.0,0.10535169620648288
3074.0,0.10535169620648288
3073.0,0.10518567091669917
3072.0,0.10490910306560064
3071.0,0.10457745396059215
3070.0,0.10435649517592083
3069.0,0.10408045468998406
3068.0,0.10385974855798041
3067.0,0.10352889952072264
3066.0,0.10319830233507843
3065.0,0.1028679566179056
3064.0,0.10259286033841963
3063.0,0.10237290870955862
3062.0,0.1022080180607754
3061.0,0.10209812573177213
3060.0,0.10198826120249849
3059.0,0.10182351650232357
3058.0,0.10165883427249067
3057.0,0.1014393550602879
3056.0,0.10127481841050656
3055.0,0.10111034407341357
3054.0,0.10100072911021085
3053.0,0.10083635852278117
3052.0,0.1005625457138224
3051.0,0.10028890542885538
3050.0,0.10007011727213588
3049.0,0.09990609845660159
3048.0,0.09974214156222239
3047.0,0.09946901754724413
3046.0,0.09914149529800831
3045.0,0.09875969792669093
3044.0,0.09854167860388774
3043.0,0.09843270997155007
3042.0,0.09832376867362447
3041.0,0.09810596802617932
3040.0,0.09783387072894878
3039.0,0.09745322068600859
3038.0,0.09712721455392082
3037.0,0.09685572959046151
3036.0,0.09663866374468144
3035.0,0.09631326826349751
3034.0,0.09598811640261173
3033.0,0.09560907998763835
3032.0,0.09539263618455207
3031.0,0.09523037409340485
3030.0,0.09512223303659528
3029.0,0.09490603167212863
3028.0,0.09463593123310776
3027.0,0.09425807260839858
3026.0,0.09393445524476318
3025.0,0.09361107884716913
3024.0,0.09328794305703592
3023.0,0.09291125492570451
3022.0,0.09242742120144909
3021.0,0.0919441259012328
3020.0,0.09151498112135026
3019.0,0.09108625997902897
3018.0,0.09065796163869155
3017.0,0.09023008526723086
3016.0,0.08969583193143116
3015.0,0.08910891135547172
3014.0,0.08857603462370545
3013.0,0.08804381092731295
3012.0,0.08756536662442538
3011.0,0.08708744882390307
3010.0,0.08666307406737683
3009.0,0.08618614761628329
3008.0,0.08570974433405087
3007.0,0.08523386307414738
3006.0,0.08481129482684358
3005.0,0.08438913733853282
3004.0,0.0838620168928248
3003.0,0.08317771540408803
3002.0,0.08254700807033655
3001.0,0.08196966321511989
3000.0,0.08149786036382611
2999.0,0.08102656950704579
2998.0,0.08045124103115198
2997.0,0.07982447798997727
2996.0,0.07925073872429178
2995.0,0.07872981449018734
2994.0,0.07820951434181311
2993.0,0.07768983678560404
2992.0,0.0772226580712021
2991.0,0.07660053384128362
2990.0,0.07592757008963713
2989.0,0.07515236702446293
2988.0,0.07453319930846214
2987.0,0.07401789967289685
2986.0,0.07355465218161061
2985.0,0.07319468988839395
2984.0,0.07283502570063005
2983.0,0.07242434530888953
2982.0,0.07206531825882068
2981.0,0.07175781684269089
2980.0,0.07150173187630915
2979.0,0.07119462910671581
2978.0,0.07093887591523451
2977.0,0.07078549626260622
2976.0,0.07063217075990047
2975.0,0.07052998382251041
2974.0,0.07037674848475972
2973.0,0.07032568205141221
2972.0,0.07042782092345012
2971.0,0.07068327324650436
2970.0,0.0710411591191702
2969.0,0.07150173187630915
2968.0,0.07191154033502922
2967.0,0.07242434530888953
2966.0,0.0729891310243489
2965.0,0.07360609973031784
2964.0,0.07417242537525759
2963.0,0.07479107858799638
2962.0,0.07546228222451012
2961.0,0.07628980560343712
2960.0,0.07711890879170658
2959.0,0.07784567476894111
2958.0,0.07826151631540124
2957.0,0.07841755960658348
2956.0,0.07831352451639795
2955.0,0.07805354577058976
2954.0,0.0777417765670334
2953.0,0.0772226580712021
2952.0,0.07660053384128362
2951.0,0.07592757008963713
2950.0,0.07525564752005143
2949.0,0.07473949048056472
2948.0,0.07443009045662374
2947.0,0.07427547306393745
2946.0,0.07443009045662374
2945.0,0.07494587968815725
2944.0,0.07592757008963713
2943.0,0.07758597585436577
2942.0,0.07982447798997727
2941.0,0.08270459905431071
2940.0,0.08597434830367123
2939.0,0.08958906008531176
2938.0,0.0935033402006471
2937.0,0.09777947172068524
2936.0,0.10248287059947447
2935.0,0.10762709260156367
2934.0,0.11328372588352176
2933.0,0.11947222180119477
2932.0,0.126156466776564
2931.0,0.13347637446715632
2930.0,0.1414628024303608
2929.0,0.15002808767114995
2928.0,0.15914144595812063
2927.0,0.16889843549864048
2926.0,0.17940450345550985
2925.0,0.19077707831057822
2924.0,0.2032175882986922
2923.0,0.21702600505595182
2922.0,0.23225063265442003
2921.0,0.2490290155626811
2920.0,0.26744542014856787
2919.0,0.2870978749527773
2918.0,0.30750559249691567
2917.0,0.3269790928711038
2916.0,0.34380593782081426
2915.0,0.3560540872519333
2914.0,0.3625102704874894
2913.0,0.36281057785123805
2912.0,0.3581294545236873
2911.0,0.3500812812645808
2910.0,0.3404640928457836
2909.0,0.3305901327122174
2908.0,0.3212995650016959
2907.0,0.31273865375649357
2906.0,0.30495634117870596
2905.0,0.29808678878765615
2904.0,0.29200425357707105
2903.0,0.2865934678323092
2902.0,0.2818305946086932
2901.0,0.2773660774661879
2900.0,0.2732727909734278
2899.0,0.2696215314123571
2898.0,0.26648174856551243
2897.0,0.26360349772335767
2896.0,0.2609025538825249
2895.0,0.2582183038568333
2894.0,0.25539412458576116
2893.0,0.2525105077413272
2892.0,0.24956875133979795
2891.0,0.24664678735850387
2890.0,0.24359212745104175
2889.0,0.24040769135402518
2888.0,0.23694655970038525
2887.0,0.23336411368973242
2886.0,0.2296635589048508
2885.0,0.22592119924748122
2884.0,0.22221081256513253
2883.0,0.21853185715820178
2882.0,0.21495504166845603
2881.0,0.21126614117229248
2880.0,0.2074682380986923
2879.0,0.20370325994820848
2878.0,0.20003947259401644
2877.0,0.19640633522865558
2876.0,0.1928033392890527
2875.0,0.18922998876563635
2874.0,0.18588564387087447
2873.0,0.18269912160667867
2872.0,0.17966715510059017
2871.0,0.17678668671733244
2870.0,0.17392519729917355
2869.0,0.1711468403233598
2868.0,0.16845014800424418
2867.0,0.16583371605737995
2866.0,0.163359458427226
2865.0,0.16121385505340546
2864.0,0.15964294079664376
2863.0,0.15864052954514496
2862.0,0.15851539066460685
2861.0,0.15932943866659088
2860.0,0.16115090926274478
2859.0,0.16411926818260536
2858.0,0.16845014800424418
2857.0,0.17444406770964305
2856.0,0.18223636771963214
2855.0,0.19226207798589923
2854.0,0.20474581741911724
2853.0,0.2204035087421754
2852.0,0.23957751657678794
2851.0,0.2624893093265239
2850.0,0.2882771081727653
2849.0,0.3145269802772408
2848.0,0.3376199799837525
2847.0,0.35369431971524135
2846.0,0.3607127740897633
2845.0,0.35902194264166787
2844.0,0.35115229162710637
2843.0,0.33989377827675593
2842.0,0.32753268693191795
2841.0,0.3154239126115448
2840.0,0.3039932847814546
2839.0,0.29353826236864533
2838.0,0.28391314622516783
2837.0,0.27506908580760214
2836.0,0.2669633170664205
2835.0,0.2597162803181208
2834.0,0.2532101678473877
2833.0,0.24741382125959088
2832.0,0.24214865631442017
2831.0,0.23747147755300002
2830.0,0.23321548450214102
2829.0,0.22944252514900487
2828.0,0.22592119924748122
2827.0,0.22279074185431513
2826.0,0.2198267563574059
2825.0,0.21702600505595182
2824.0,0.21438547505317596
2823.0,0.2119731159041962
2822.0,0.20964445358561346
2821.0,0.20739821883503362
2820.0,0.20530287310800133
2819.0,0.20342566678957041
2818.0,0.20190206793751408
2817.0,0.200521601162019
2816.0,0.19914550849643908
2815.0,0.1977052886025361
2814.0,0.1962698290254561
2813.0,0.19490712165732704
2812.0,0.19361649817583237
2811.0,0.19246497193114664
2810.0,0.19131649087103075
2809.0,0.19010375339756092
2808.0,0.18889439298206967
2807.0,0.18762148884580565
2806.0,0.18648572845811695
2805.0,0.18541948398968144
2804.0,0.18448866263723573
2803.0,0.18362611124763806
2802.0,0.18283142761894444
2801.0,0.18197215814074386
2800.0,0.18111458540599013
2799.0,0.18025870272698952
2798.0,0.17933886535640453
2797.0,0.1784864715952268
2796.0,0.17770112873763355
2795.0,0.17704775945251838
2794.0,0.1764605663431411
2793.0,0.17580905934741686
2792.0,0.1751585282462993
2791.0,0.1745089701205691
2790.0,0.17392519729917355
2789.0,0.173212761183708
2788.0,0.1725014918665413
2787.0,0.17172688794793012
2786.0,0.17101804599207693
2785.0,0.17037464664195068
2784.0,0.16986061257465734
2783.0,0.1693471862025755
2782.0,0.16889843549864048
2781.0,0.1683221508085333
2780.0,0.16774662980299215
2779.0,0.16717187046064663
2778.0,0.16659787076814148
2777.0,0.166151950468852
2776.0,0.1657700971483227
2775.0,0.16532502553725603
2774.0,0.16494389827988365
2773.0,0.1644362483309032
2772.0,0.16392919108485815
2771.0,0.16342272515935097
2770.0,0.16298005145909156
2769.0,0.1626009756579776
2768.0,0.16222223044626682
2767.0,0.16184381524785207
2766.0,0.16152872092807113
2765.0,0.16115090926274478
2764.0,0.16077342598656452
2763.0,0.16039627052916305
2762.0,0.1600194423216572
2761.0,0.15964294079664376
2760.0,0.15945481236316117
2759.0,0.15926676538819318
2758.0,0.1590787998012282
2757.0,0.15882830550046778
2756.0,0.15845283474344662
2755.0,0.15801519540988607
2754.0,0.15757799664235028
2753.0,0.15726598105173029
2752.0,0.15701652987778258
2751.0,0.15676722190199066
2750.0,0.15645578805436489
2749.0,0.1560823619936076
2748.0,0.15564710368910672
2747.0,0.15527437202677397
2746.0,0.1550260618531123
2745.0,0.15496400648658493
2744.0,0.1550260618531123
2743.0,0.1550260618531123
2742.0,0.1548399223480541
2741.0,0.15465386258859137
2740.0,0.15446788250642451
2739.0,0.15434394001645568
2738.0,0.15428198203334142
2737.0,0.15415809257824264
2736.0,0.15391041964201602
2735.0,0.15360102696532518
2734.0,0.15335367142288248
2733.0,0.15304467498017615
2732.0,0.15279763601907614
2731.0,0.15242734085788778
2730.0,0.15211900255462485
2729.0,0.15187248943212528
2728.0,0.1517492853229574
2727.0,0.1517492853229574
2726.0,0.15168769637271562
2725.0,0.15162611615539823
2724.0,0.1514414278762366
2723.0,0.15131834597604965
2722.0,0.15113378850522063
2721.0,0.1509493094304879
2720.0,0.15076490868527737
2719.0,0.15045774799498335
2718.0,0.1500894416985039
2717.0,0.14978275820161047
2716.0,0.14966014541652073
2715.0,0.1497214474819628
2714.0,0.1497214474819628
2713.0,0.1495988520028415
2712.0,0.14923127307111983
2711.0,0.148864004988426
2710.0,0.14861933203440336
2709.0,0.14849704722945534
2708.0,0.14861933203440336
2707.0,0.14868048735125483
2706.0,0.14861933203440336
2705.0,0.14837479684669086
2704.0,0.1478861391502384
2703.0,0.14745901423020125
2702.0,0.1472151313194523
2701.0,0.1472151313194523
2700.0,0.1472760892087941
2699.0,0.14733705565543076
2698.0,0.14739803066176504
2697.0,0.14733705565543076
2696.0,0.1472151313194523
2695.0,0.14703230897118158
2694.0,0.14684956355215717
2693.0,0.14672777597931685
2692.0,0.1465451586319333
2691.0,0.14630178822382556
2690.0,0.1461193498754576
2689.0,0.14599776687301103
2688.0,0.14599776687301103
2687.0,0.14605855411951008
2686.0,0.1461193498754576
2685.0,0.1461193498754576
2684.0,0.14599776687301103
2683.0,0.14581545616639335
2682.0,0.1456939581989194
2681.0,0.1456939581989194
2680.0,0.14575470293388149
2679.0,0.1456939581989194
2678.0,0.1455724942121388
2677.0,0.14539036190420496
2676.0,0.14526898278605782
2675.0,0.14514763758216587
2674.0,0.14514763758216587
2673.0,0.14514763758216587
2672.0,0.14514763758216587
2671.0,0.1450869776921444
2670.0,0.1450869776921444
2669.0,0.14502632627358292
2668.0,0.14502632627358292
2667.0,0.14502632627358292
2666.0,0.14490504884137811
2665.0,0.14472319616990825
2664.0,0.1446020033459312
2663.0,0.14448084433219988
2662.0,0.14442027749828212
2661.0,0.14448084433219988
2660.0,0.14454141961396383
2659.0,0.1446020033459312
2658.0,0.14466259553045968
2657.0,0.1446020033459312
2656.0,0.14448084433219988
2655.0,0.14435971910985468
2654.0,0.14423862766005224
2653.0,0.14417809459397013
2652.0,0.14417809459397013
2651.0,0.14405705376768396
2650.0,0.14393604666690019
2649.0,0.1438755557576996
2648.0,0.14381507327283027
2647.0,0.14375459920994582
2646.0,0.14369413356670102
2645.0,0.14357322752975565
2644.0,0.14345235514325205
2643.0,0.1432711096171173
2642.0,0.14315032127482774
2641.0,0.14302956651750764
2640.0,0.14302956651750764
2639.0,0.14315032127482774
2638.0,0.14321071124668383
2637.0,0.14321071124668383
2636.0,0.14321071124668383
2635.0,0.14315032127482774
2634.0,0.1430899396992138
2633.0,0.1430899396992138
2632.0,0.1430899396992138
2631.0,0.1430899396992138
2630.0,0.14302956651750764
2629.0,0.14296920172737604
2628.0,0.14284849731250704
2627.0,0.1427881576831076
2626.0,0.1427278264359586
2625.0,0.14266750356873148
2624.0,0.14260718907909875
2623.0,0.1425468829647336
2622.0,0.1425468829647336
2621.0,0.14248658522331015
2620.0,0.14248658522331015
2619.0,0.1423660148499919
2618.0,0.14212497447643746
2617.0,0.14176366457048695
2616.0,0.1414628024303608
2615.0,0.14128238513970826
2614.0,0.14122226269455074
2613.0,0.1413425159091921
2612.0,0.1414628024303608
2611.0,0.1414628024303608
2610.0,0.1414628024303608
2609.0,0.14140265500530758
2608.0,0.1413425159091921
2607.0,0.1413425159091921
2606.0,0.14122226269455074
2605.0,0.14110204276799654
2604.0,0.1409818561111058
2603.0,0.14086170270546927
2602.0,0.14086170270546927
2601.0,0.14086170270546927
2600.0,0.1408016384661226
2599.0,0.1407415825326932
2598.0,0.14068153490288382
2597.0,0.14056146454494378
2596.0,0.1405014418122239
2595.0,0.1404414273739465
2594.0,0.1404414273739465
2593.0,0.1405014418122239
2592.0,0.14056146454494378
2591.0,0.1404414273739465
2590.0,0.14032142337155173
2589.0,0.14014147951900724
2588.0,0.1400815147992842
2587.0,0.14002155835797914
2586.0,0.1399616101928065
2585.0,0.13990167030148193
2584.0,0.13978181533124334
2583.0,0.1397219002477652
2582.0,0.1397219002477652
2581.0,0.13978181533124334
2580.0,0.13984173868172167
2579.0,0.13984173868172167
2578.0,0.1397219002477652
2577.0,0.13960209487268727
2576.0,0.13948232253825377
2575.0,0.1394224487555844
2574.0,0.13930272594796111
2573.0,0.13930272594796111
2572.0,0.13936258322624528
2571.0,0.13954220457652888
2570.0,0.1396619934290062
2569.0,0.1396619934290062
2568.0,0.1394224487555844
2567.0,0.1390633792999063
2566.0,0.1387643813659596
2565.0,0.13858508136400327
2564.0,0.13864483980673992
2563.0,0.13864483980673992
2562.0,0.13864483980673992
2561.0,0.1385253311428314
2560.0,0.1384058553561347
2559.0,0.1384058553561347
2558.0,0.13846558914096208
2557.0,0.13858508136400327
2556.0,0.13864483980673992
2555.0,0.13864483980673992
2554.0,0.1385253311428314
2553.0,0.13846558914096208
2552.0,0.1384058553561347
2551.0,0.1384058553561347
2550.0,0.1384058553561347
2549.0,0.1384058553561347
2548.0,0.13846558914096208
2547.0,0.13864483980673992
2546.0,0.1388839558386048
2545.0,0.1390633792999063
2544.0,0.1390633792999063
2543.0,0.13894375542312654
2542.0,0.13870460647330418
2541.0,0.1384058553561347
2540.0,0.13822670328130693
2539.0,0.1381073096085541
2538.0,0.13798794874978348
2537.0,0.13786862068696282
2536.0,0.13786862068696282
2535.0,0.13786862068696282
2534.0,0.13780896894840278
2533.0,0.13768969004572962
2532.0,0.13751083309410284
2531.0,0.13739163603505822
2530.0,0.1374512304752069
2529.0,0.13763006287711765
2528.0,0.13792828062000573
2527.0,0.1381073096085541
2526.0,0.1381073096085541
2525.0,0.13798794874978348
2524.0,0.13774932540207496
2523.0,0.1375704438939911
2522.0,0.1374512304752069
2521.0,0.1374512304752069
2520.0,0.13751083309410284
2519.0,0.13768969004572962
2518.0,0.13780896894840278
2517.0,0.13792828062000573
2516.0,0.13786862068696282
2515.0,0.13774932540207496
2514.0,0.13768969004572962
2513.0,0.13763006287711765
2512.0,0.13751083309410284
2511.0,0.13739163603505822
2510.0,0.1373320497714121
2509.0,0.1373320497714121
2508.0,0.13739163603505822
2507.0,0.1374512304752069
2506.0,0.13751083309410284
2505.0,0.1375704438939911
2504.0,0.13751083309410284
2503.0,0.13739163603505822
2502.0,0.13721290176465573
2501.0,0.13709378643700187
2500.0,0.1369151746796402
2499.0,0.1367961409713705
2498.0,0.1367961409713705
2497.0,0.1369151746796402
2496.0,0.13709378643700187
2495.0,0.13721290176465573
2494.0,0.13727247168202528
2493.0,0.1373320497714121
2492.0,0.13739163603505822
2491.0,0.13739163603505822
2490.0,0.1373320497714121
2489.0,0.13727247168202528
2488.0,0.13715334001706125
2487.0,0.13709378643700187
2486.0,0.1370342410222376
2485.0,0.13709378643700187
2484.0,0.13709378643700187
2483.0,0.13697470377052956
2482.0,0.13685565374733244
2481.0,0.1367961409713705
2480.0,0.1367961409713705
2479.0,0.1369151746796402
2478.0,0.1370342410222376
2477.0,0.13721290176465573
2476.0,0.1374512304752069
2475.0,0.13763006287711765
2474.0,0.13763006287711765
2473.0,0.13751083309410284
2472.0,0.1374512304752069
2471.0,0.1373320497714121
2470.0,0.13721290176465573
2469.0,0.1370342410222376
2468.0,0.1369151746796402
2467.0,0.13685565374733244
2466.0,0.13685565374733244
2465.0,0.13685565374733244
2464.0,0.1367961409713705
2463.0,0.13685565374733244
2462.0,0.13697470377052956
2461.0,0.13709378643700187
2460.0,0.13709378643700187
2459.0,0.1370342410222376
2458.0,0.1369151746796402
2457.0,0.1369151746796402
2456.0,0.13697470377052956
2455.0,0.13697470377052956
2454.0,0.13697470377052956
2453.0,0.13697470377052956
2452.0,0.1369151746796402
2451.0,0.13697470377052956
2450.0,0.1370342410222376
2449.0,0.1370342410222376
2448.0,0.1370342410222376
2447.0,0.1370342410222376
2446.0,0.13715334001706125
2445.0,0.13721290176465573
2444.0,0.13727247168202528
2443.0,0.13721290176465573
2442.0,0.13709378643700187
2441.0,0.13697470377052956
2440.0,0.13697470377052956
2439.0,0.13709378643700187
2438.0,0.13721290176465573
2437.0,0.13727247168202528
2436.0,0.13727247168202528
2435.0,0.1373320497714121
2434.0,0.13739163603505822
2433.0,0.1375704438939911
2432.0,0.13768969004572962
2431.0,0.13780896894840278
2430.0,0.13780896894840278
2429.0,0.13774932540207496
2428.0,0.13763006287711765
2427.0,0.13751083309410284
2426.0,0.1374512304752069
2425.0,0.1374512304752069
2424.0,0.1374512304752069
2423.0,0.13739163603505822
2422.0,0.13727247168202528
2421.0,0.13727247168202528
2420.0,0.13727247168202528
2419.0,0.13739163603505822
2418.0,0.13739163603505822
2417.0,0.1373320497714121
2416.0,0.13721290176465573
2415.0,0.13709378643700187
2414.0,0.13709378643700187
2413.0,0.13721290176465573
2412.0,0.1373320497714121
2411.0,0.1374512304752069
2410.0,0.1375704438939911
2409.0,0.1375704438939911
2408.0,0.1375704438939911
2407.0,0.13751083309410284
2406.0,0.1374512304752069
2405.0,0.1375704438939911
2404.0,0.13768969004572962
2403.0,0.13774932540207496
2402.0,0.13768969004572962
2401.0,0.1375704438939911
2400.0,0.1374512304752069
2399.0,0.1373320497714121
2398.0,0.13715334001706125
2397.0,0.13709378643700187
2396.0,0.13721290176465573
2395.0,0.1374512304752069
2394.0,0.13768969004572962
2393.0,0.13792828062000573
2392.0,0.13798794874978348
2391.0,0.13792828062000573
2390.0,0.13774932540207496
2389.0,0.13768969004572962
2388.0,0.13763006287711765
2387.0,0.1375704438939911
2386.0,0.1373320497714121
2385.0,0.13709378643700187
2384.0,0.13685565374733244
2383.0,0.13655817138629134
2382.0,0.13626089265478303
2381.0,0.13590442657575252
2380.0,0.1354889189416082
2379.0,0.13501453934020602
2378.0,0.1345998818206986
2377.0,0.13424477592854833
2376.0,0.13388996015562338
2375.0,0.13347637446715632
2374.0,0.13300418688935212
2373.0,0.13265038281120756
2372.0,0.13241467345296387
2371.0,0.13235576609690147
2370.0,0.13259144347720886
2369.0,0.13353543402825974
2368.0,0.1352516643703412
2367.0,0.13673663634951905
2366.0,0.13655817138629134
2365.0,0.13483678049391368
2364.0,0.13318119707395182
2363.0,0.13300418688935212
2362.0,0.1337717526203528
2361.0,0.13442229258007088
2360.0,0.13436311230037123
2359.0,0.1341264717921853
2358.0,0.13430394008392943
2357.0,0.13471831500438958
2356.0,0.13477754370982087
2355.0,0.13424477592854833
2354.0,0.13394907599072514
2353.0,0.13448148092522594
2352.0,0.13531096586314884
2351.0,0.1354889189416082
2350.0,0.1349552783069008
2349.0,0.13477754370982087
2348.0,0.13554825284181704
2347.0,0.13649869935854997
2346.0,0.1369151746796402
2345.0,0.13632033212410222
2344.0,0.1349552783069008
2343.0,0.13335827943396006
2342.0,0.13259144347720886
2341.0,0.13335827943396006
2340.0,0.13454067733803532
2339.0,0.13519237097385295
2338.0,0.1350738084609946
2337.0,0.134659094375416
2336.0,0.13454067733803532
2335.0,0.13477754370982087
2334.0,0.1350738084609946
2333.0,0.13531096586314884
2332.0,0.13542959314656988
2331.0,0.13542959314656988
2330.0,0.13560759484941132
2329.0,0.13590442657575252
2328.0,0.13649869935854997
2327.0,0.13697470377052956
2326.0,0.13739163603505822
2325.0,0.1375704438939911
2324.0,0.13768969004572962
2323.0,0.13763006287711765
2322.0,0.1374512304752069
2321.0,0.13715334001706125
2320.0,0.1367961409713705
2319.0,0.13655817138629134
2318.0,0.13649869935854997
2317.0,0.1367961409713705
2316.0,0.1373320497714121
2315.0,0.13786862068696282
2314.0,0.13834612978608907
2313.0,0.1385253311428314
2312.0,0.1385253311428314
2311.0,0.13834612978608907
2310.0,0.13822670328130693
2309.0,0.1381073096085541
2308.0,0.13822670328130693
2307.0,0.13834612978608907
2306.0,0.13846558914096208
2305.0,0.1385253311428314
2304.0,0.1385253311428314
2303.0,0.1385253311428314
2302.0,0.1385253311428314
2301.0,0.13864483980673992
2300.0,0.1388839558386048
2299.0,0.13918303613546223
2298.0,0.1394224487555844
2297.0,0.13948232253825377
2296.0,0.1394224487555844
2295.0,0.13936258322624528
2294.0,0.1394224487555844
2293.0,0.13960209487268727
2292.0,0.13978181533124334
2291.0,0.13990167030148193
2290.0,0.13990167030148193
2289.0,0.13984173868172167
2288.0,0.13984173868172167
2287.0,0.13984173868172167
2286.0,0.13984173868172167
2285.0,0.13990167030148193
2284.0,0.14002155835797914
2283.0,0.1400815147992842
2282.0,0.14014147951900724
2281.0,0.14026143380285316
2280.0,0.14032142337155173
2279.0,0.14038142122781938
2278.0,0.14026143380285316
2277.0,0.1400815147992842
2276.0,0.1399616101928065
2275.0,0.14002155835797914
2274.0,0.14014147951900724
2273.0,0.14038142122781938
2272.0,0.1404414273739465
2271.0,0.14038142122781938
2270.0,0.14026143380285316
2269.0,0.14014147951900724
2268.0,0.14014147951900724
2267.0,0.1402014525194344
2266.0,0.14026143380285316
2265.0,0.14032142337155173
2264.0,0.1404414273739465
2263.0,0.14056146454494378
2262.0,0.14062149557439896
2261.0,0.14056146454494378
2260.0,0.14038142122781938
2259.0,0.14032142337155173
2258.0,0.14026143380285316
2257.0,0.14032142337155173
2256.0,0.14038142122781938
2255.0,0.14038142122781938
2254.0,0.14038142122781938
2253.0,0.14032142337155173
2252.0,0.14032142337155173
2251.0,0.1404414273739465
2250.0,0.14062149557439896
2249.0,0.1408016384661226
2248.0,0.1409217752530305
2247.0,0.1409217752530305
2246.0,0.1409217752530305
2245.0,0.14086170270546927
2244.0,0.1408016384661226
2243.0,0.1407415825326932
2242.0,0.1408016384661226
2241.0,0.14086170270546927
2240.0,0.1409217752530305
2239.0,0.1410419452819942
2238.0,0.1410419452819942
2237.0,0.14110204276799654
2236.0,0.14116214857141451
2235.0,0.14116214857141451
2234.0,0.14110204276799654
2233.0,0.14110204276799654
2232.0,0.14110204276799654
2231.0,0.14116214857141451
2230.0,0.14122226269455074
2229.0,0.14122226269455074
2228.0,0.14122226269455074
2227.0,0.14110204276799654
2226.0,0.1409217752530305
2225.0,0.14086170270546927
2224.0,0.14086170270546927
2223.0,0.1409217752530305
2222.0,0.1410419452819942
2221.0,0.14116214857141451
2220.0,0.14128238513970826
2219.0,0.14128238513970826
2218.0,0.14128238513970826
2217.0,0.14110204276799654
2216.0,0.1409217752530305
2215.0,0.14068153490288382
2214.0,0.14056146454494378
2213.0,0.14062149557439896
2212.0,0.14086170270546927
2211.0,0.1410419452819942
2210.0,0.14110204276799654
2209.0,0.14110204276799654
2208.0,0.14116214857141451
2207.0,0.14122226269455074
2206.0,0.14128238513970826
2205.0,0.1413425159091921
2204.0,0.1413425159091921
2203.0,0.14122226269455074
2202.0,0.14116214857141451
2201.0,0.14110204276799654
2200.0,0.14122226269455074
2199.0,0.1414628024303608
2198.0,0.14176366457048695
2197.0,0.1419442819496357
2196.0,0.1419442819496357
2195.0,0.14182386201765573
2194.0,0.14176366457048695
2193.0,0.14176366457048695
2192.0,0.14176366457048695
2191.0,0.14182386201765573
2190.0,0.141884067809934
2189.0,0.1419442819496357
2188.0,0.14200450443907608
2187.0,0.14200450443907608
2186.0,0.1419442819496357
2185.0,0.141884067809934
2184.0,0.14176366457048695
2183.0,0.14164329470222659
2182.0,0.1415229581866595
2181.0,0.1415831222765116
2180.0,0.14170347546611461
2179.0,0.14176366457048695
2178.0,0.14182386201765573
2177.0,0.141884067809934
2176.0,0.14200450443907608
2175.0,0.14212497447643746
2174.0,0.14224547794055775
2173.0,0.14224547794055775
2172.0,0.14224547794055775
2171.0,0.14224547794055775
2170.0,0.14224547794055775
2169.0,0.14224547794055775
2168.0,0.14218522202899342
2167.0,0.14212497447643746
2166.0,0.14206473528057106
2165.0,0.14212497447643746
2164.0,0.14218522202899342
2163.0,0.14224547794055775
2162.0,0.14224547794055775
2161.0,0.14224547794055775
2160.0,0.14230574221345038
2159.0,0.14242629585250421
2158.0,0.1425468829647336
2157.0,0.14266750356873148
2156.0,0.1427278264359586
2155.0,0.1427278264359586
2154.0,0.14266750356873148
2153.0,0.14266750356873148
2152.0,0.14266750356873148
2151.0,0.14266750356873148
2150.0,0.14266750356873148
2149.0,0.1427278264359586
2148.0,0.14290884532648618
2147.0,0.14302956651750764
2146.0,0.1430899396992138
2145.0,0.14302956651750764
2144.0,0.14296920172737604
2143.0,0.14296920172737604
2142.0,0.14296920172737604
2141.0,0.14296920172737604
2140.0,0.14302956651750764
2139.0,0.14302956651750764
2138.0,0.1430899396992138
2137.0,0.14315032127482774
2136.0,0.14321071124668383
2135.0,0.14321071124668383
2134.0,0.14321071124668383
2133.0,0.14315032127482774
2132.0,0.14315032127482774
2131.0,0.14321071124668383
2130.0,0.14321071124668383
2129.0,0.14321071124668383
2128.0,0.14315032127482774
2127.0,0.1430899396992138
2126.0,0.14315032127482774
2125.0,0.14333151638846497
2124.0,0.14351278713136928
2123.0,0.14363367634075197
2122.0,0.14357322752975565
2121.0,0.14351278713136928
2120.0,0.14351278713136928
2119.0,0.14363367634075197
2118.0,0.14375459920994582
2117.0,0.14369413356670102
2116.0,0.14363367634075197
2115.0,0.14357322752975565
2114.0,0.14363367634075197
2113.0,0.14381507327283027
2112.0,0.143996546002779
2111.0,0.1441175699639643
2110.0,0.1441175699639643
2109.0,0.1441175699639643
2108.0,0.14417809459397013
2107.0,0.1441175699639643
2106.0,0.143996546002779
2105.0,0.1438755557576996
2104.0,0.14375459920994582
2103.0,0.14375459920994582
2102.0,0.14381507327283027
2101.0,0.14393604666690019
2100.0,0.1441175699639643
2099.0,0.14429916916456276
2098.0,0.14442027749828212
2097.0,0.14454141961396383
2096.0,0.1446020033459312
2095.0,0.1446020033459312
2094.0,0.14466259553045968
2093.0,0.14472319616990825
2092.0,0.1447838052666366
2091.0,0.1447838052666366
2090.0,0.14466259553045968
2089.0,0.14448084433219988
2088.0,0.14442027749828212
2087.0,0.14448084433219988
2086.0,0.1446020033459312
2085.0,0.1447838052666366
2084.0,0.14496568332411575
2083.0,0.14502632627358292
2082.0,0.14496568332411575
2081.0,0.14490504884137811
2080.0,0.14484442282300614
2079.0,0.14490504884137811
2078.0,0.14496568332411575
2077.0,0.14502632627358292
2076.0,0.14502632627358292
2075.0,0.1450869776921444
2074.0,0.14514763758216587
2073.0,0.14520830594601453
2072.0,0.14532966810466452
2071.0,0.14539036190420496
2070.0,0.14545106418704923
2069.0,0.14545106418704923
2068.0,0.14545106418704923
2067.0,0.14545106418704923
2066.0,0.14545106418704923
2065.0,0.14545106418704923
2064.0,0.14545106418704923
2063.0,0.14545106418704923
2062.0,0.14539036190420496
2061.0,0.14545106418704923
2060.0,0.14551177495556966
2059.0,0.14545106418704923
2058.0,0.14539036190420496
2057.0,0.14539036190420496
2056.0,0.14539036190420496
2055.0,0.14551177495556966
2054.0,0.1456332219591303
2053.0,0.14575470293388149
2052.0,0.14581545616639335
2051.0,0.14587621789883287
2050.0,0.1459369881335788
2049.0,0.14599776687301103
2048.0,0.1461193498754576
2047.0,0.14618015414323682
2046.0,0.1461193498754576
2045.0,0.14605855411951008
2044.0,0.14605855411951008
2043.0,0.14605855411951008
2042.0,0.1461193498754576
2041.0,0.1461193498754576
2040.0,0.14618015414323682
2039.0,0.14630178822382556
2038.0,0.14648430324307138
2037.0,0.14666689499766483
2036.0,0.14672777597931685
2035.0,0.14666689499766483
2034.0,0.1465451586319333
2033.0,0.14642345638035836
2032.0,0.14642345638035836
2031.0,0.14648430324307138
2030.0,0.1465451586319333
2029.0,0.14666689499766483
2028.0,0.14672777597931685
2027.0,0.146788665496683
2026.0,0.14684956355215717
2025.0,0.14691047014813452
2024.0,0.14703230897118158
2023.0,0.1471541819850033
2022.0,0.1472760892087941
2021.0,0.1472151313194523
2020.0,0.14709324120304634
2019.0,0.14691047014813452
2018.0,0.14684956355215717
2017.0,0.14703230897118158
2016.0,0.14733705565543076
2015.0,0.1475810070629986
2014.0,0.1477030341730745
2013.0,0.14764201633217278
2012.0,0.1475810070629986
2011.0,0.14752000636314366
2010.0,0.14733705565543076
2009.0,0.14733705565543076
2008.0,0.14739803066176504
2007.0,0.1475810070629986
2006.0,0.1477030341730745
2005.0,0.1477030341730745
2004.0,0.14764201633217278
2003.0,0.1475810070629986
2002.0,0.14752000636314366
2001.0,0.14745901423020125
2000.0,0.14733705565543076
1999.0,0.14733705565543076
1998.0,0.14739803066176504
1997.0,0.14745901423020125
1996.0,0.14752000636314366
1995.0,0.14745901423020125
1994.0,0.14739803066176504
1993.0,0.14739803066176504
1992.0,0.14752000636314366
1991.0,0.14764201633217278
1990.0,0.1477030341730745
1989.0,0.14764201633217278
1988.0,0.14764201633217278
1987.0,0.14776406058811253
1986.0,0.14782509557969692
1985.0,0.14782509557969692
1984.0,0.14782509557969692
1983.0,0.14776406058811253
1982.0,0.14776406058811253
1981.0,0.14776406058811253
1980.0,0.14782509557969692
1979.0,0.1479471913021495
1978.0,0.14800825203784274
1977.0,0.14800825203784274
1976.0,0.14800825203784274
1975.0,0.1479471913021495
1974.0,0.1479471913021495
1973.0,0.1478861391502384
1972.0,0.1478861391502384
1971.0,0.1479471913021495
1970.0,0.14800825203784274
1969.0,0.14800825203784274
1968.0,0.1480693213597324
1967.0,0.14819148577176255
1966.0,0.14837479684669086
1965.0,0.14849704722945534
1964.0,0.14843591773651155
1963.0,0.14831368455757254
1962.0,0.14819148577176255
1961.0,0.1480693213597324
1960.0,0.1480693213597324
1959.0,0.14813039927023364
1958.0,0.14819148577176255
1957.0,0.14819148577176255
1956.0,0.1482525808667361
1955.0,0.14837479684669086
1954.0,0.14855818532794496
1953.0,0.14874165128092476
1952.0,0.148864004988426
1951.0,0.1489251947711132
1950.0,0.148864004988426
1949.0,0.14874165128092476
1948.0,0.14861933203440336
1947.0,0.14855818532794496
1946.0,0.14849704722945534
1945.0,0.14843591773651155
1944.0,0.14831368455757254
1943.0,0.14831368455757254
1942.0,0.14849704722945534
1941.0,0.14874165128092476
1940.0,0.148864004988426
1939.0,0.14898639317633
1938.0,0.1491088158640761
1937.0,0.14923127307111983
1936.0,0.14929251462546267
1935.0,0.14929251462546267
1934.0,0.14923127307111983
1933.0,0.1491088158640761
1932.0,0.14898639317633
1931.0,0.1489251947711132
1930.0,0.14898639317633
1929.0,0.14917004015146906
1928.0,0.14929251462546267
1927.0,0.1493537648169334
1926.0,0.1493537648169334
1925.0,0.14923127307111983
1924.0,0.1490476002065071
1923.0,0.148864004988426
1922.0,0.14880282382583943
1921.0,0.1489251947711132
1920.0,0.1491088158640761
1919.0,0.14941502364796855
1918.0,0.1497214474819628
1917.0,0.1499667423102311
1916.0,0.15002808767114995
1915.0,0.14990540561329913
1914.0,0.1497214474819628
1913.0,0.14953756723848333
1912.0,0.1494762911210057
1911.0,0.1494762911210057
1910.0,0.1497214474819628
1909.0,0.1499667423102311
1908.0,0.1500894416985039
1907.0,0.1500894416985039
1906.0,0.15002808767114995
1905.0,0.15002808767114995
1904.0,0.1500894416985039
1903.0,0.1500894416985039
1902.0,0.1499667423102311
1901.0,0.1499667423102311
1900.0,0.15002808767114995
1899.0,0.1500894416985039
1898.0,0.15015080439474215
1897.0,0.1502121757623145
1896.0,0.15033494452126717
1895.0,0.15045774799498335
1894.0,0.15051916275601385
1893.0,0.15058058620310066
1892.0,0.15064201833870117
1891.0,0.15064201833870117
1890.0,0.15064201833870117
1889.0,0.15076490868527737
1888.0,0.15082636690117335
1887.0,0.15082636690117335
1886.0,0.15076490868527737
1885.0,0.1507034591652734
1884.0,0.1507034591652734
1883.0,0.15076490868527737
1882.0,0.15082636690117335
1881.0,0.15088783381542248
1880.0,0.15088783381542248
1879.0,0.15076490868527737
1878.0,0.1507034591652734
1877.0,0.15064201833870117
1876.0,0.1507034591652734
1875.0,0.1507034591652734
1874.0,0.1507034591652734
1873.0,0.15064201833870117
1872.0,0.15058058620310066
1871.0,0.15045774799498335
1870.0,0.1502121757623145
1869.0,0.1502121757623145
1868.0,0.15045774799498335
1867.0,0.1507034591652734
1866.0,0.15088783381542248
1865.0,0.15107228677292173
1864.0,0.15113378850522063
1863.0,0.15107228677292173
1862.0,0.1509493094304879
1861.0,0.15088783381542248
1860.0,0.15082636690117335
1859.0,0.15076490868527737
1858.0,0.1507034591652734
1857.0,0.1507034591652734
1856.0,0.15076490868527737
1855.0,0.15076490868527737
1854.0,0.15082636690117335
1853.0,0.15088783381542248
1852.0,0.15101079374883275
1851.0,0.15107228677292173
1850.0,0.15107228677292173
1849.0,0.15101079374883275
1848.0,0.15082636690117335
1847.0,0.1507034591652734
1846.0,0.15076490868527737
1845.0,0.1509493094304879
1844.0,0.15119529894819617
1843.0,0.15125681810431635
1842.0,0.15119529894819617
1841.0,0.15125681810431635
1840.0,0.15125681810431635
1839.0,0.15113378850522063
1838.0,0.15101079374883275
1837.0,0.15107228677292173
1836.0,0.15125681810431635
1835.0,0.15131834597604965
1834.0,0.15125681810431635
1833.0,0.15113378850522063
1832.0,0.1509493094304879
1831.0,0.15076490868527737
1830.0,0.1507034591652734
1829.0,0.15088783381542248
1828.0,0.15113378850522063
1827.0,0.1513798825658661
1826.0,0.1515029819096334
1825.0,0.1515029819096334
1824.0,0.1515029819096334
1823.0,0.1515645446685292
1822.0,0.15162611615539823
1821.0,0.15162611615539823
1820.0,0.15162611615539823
1819.0,0.1514414278762366
1818.0,0.15131834597604965
1817.0,0.1514414278762366
1816.0,0.15168769637271562
1815.0,0.15193410459600853
1814.0,0.15193410459600853
1813.0,0.15181088300860135
1812.0,0.1517492853229574
1811.0,0.1517492853229574
1810.0,0.1517492853229574
1809.0,0.15181088300860135
1808.0,0.15187248943212528
1807.0,0.15187248943212528
1806.0,0.15181088300860135
1805.0,0.1517492853229574
1804.0,0.1517492853229574
1803.0,0.1517492853229574
1802.0,0.15168769637271562
1801.0,0.1517492853229574
1800.0,0.15181088300860135
1799.0,0.15181088300860135
1798.0,0.1517492853229574
1797.0,0.1517492853229574
1796.0,0.15181088300860135
1795.0,0.15193410459600853
1794.0,0.1519957285027318
1793.0,0.15211900255462485
1792.0,0.1524890347967518
1791.0,0.15285938258659382
1790.0,0.15285938258659382
1789.0,0.15279763601907614
1788.0,0.1527358982292355
1787.0,0.15255073750082726
1786.0,0.1523039792658345
1785.0,0.1523039792658345
1784.0,0.15242734085788778
1783.0,0.1524890347967518
1782.0,0.1524890347967518
1781.0,0.15242734085788778
1780.0,0.15242734085788778
1779.0,0.15255073750082726
1778.0,0.15261244897260462
1777.0,0.15261244897260462
1776.0,0.1524890347967518
1775.0,0.15242734085788778
1774.0,0.15236565568174498
1773.0,0.1523039792658345
1772.0,0.1524890347967518
1771.0,0.15285938258659382
1770.0,0.1532918545439932
1769.0,0.15360102696532518
1768.0,0.1538485234711846
1767.0,0.1537866361206126
1766.0,0.1535391748706676
1765.0,0.1534154971019539
1764.0,0.1535391748706676
1763.0,0.15366288787019466
1762.0,0.15372475758778692
1761.0,0.1537866361206126
1760.0,0.15391041964201602
1759.0,0.15415809257824264
1758.0,0.15440590683997568
1757.0,0.15446788250642451
1756.0,0.15434394001645568
1755.0,0.15428198203334142
1754.0,0.15440590683997568
1753.0,0.15446788250642451
1752.0,0.15446788250642451
1751.0,0.15440590683997568
1750.0,0.15434394001645568
1749.0,0.15446788250642451
1748.0,0.15471587365200845
1747.0,0.15515019919336104
1746.0,0.15533647175976073
1745.0,0.15533647175976073
1744.0,0.15546069787099204
1743.0,0.15577141869837208
1742.0,0.15614457737683884
1741.0,0.15645578805436489
1740.0,0.1567049172634929
1739.0,0.15676722190199066
1738.0,0.15682953548010214
1737.0,0.15701652987778258
1736.0,0.15726598105173029
1735.0,0.15732836623921154
1734.0,0.15751557558842988
1733.0,0.15776531365276036
1732.0,0.15751557558842988
1731.0,0.15757799664235028
1730.0,0.15782777061438424
1729.0,0.15801519540988607
1728.0,0.15807768832054925
1727.0,0.15826522102525642
1726.0,0.15845283474344662
1725.0,0.15857795559764076
1724.0,0.158765704493959
1723.0,0.15901616267962204
1722.0,0.15926676538819318
1721.0,0.15964294079664376
1720.0,0.1600194423216572
1719.0,0.160145015398115
1718.0,0.1600822243213189
1717.0,0.1605219526258017
1716.0,0.16102504504453208
1715.0,0.16127680996862814
1714.0,0.16133977401105848
1713.0,0.16146572948813143
1712.0,0.16146572948813143
1711.0,0.16133977401105848
1710.0,0.16108797259400132
1709.0,0.16083631708534996
1708.0,0.16064767110457878
1707.0,0.16058480731610647
1706.0,0.16058480731610647
1705.0,0.16083631708534996
1704.0,0.16115090926274478
1703.0,0.16171775008531153
1702.0,0.16228533171508874
1701.0,0.1624115617644888
1700.0,0.16222223044626682
1699.0,0.16171775008531153
1698.0,0.16159172150581314
1697.0,0.16234844215360744
1696.0,0.16329620091026875
1695.0,0.16342272515935097
1694.0,0.16291684917681404
1693.0,0.16285365609093994
1692.0,0.16323295260579473
1691.0,0.163359458427226
1690.0,0.16323295260579473
1689.0,0.16329620091026875
1688.0,0.16361258067358908
1687.0,0.16418264570652719
1686.0,0.1644362483309032
1685.0,0.16437283379010226
1684.0,0.16488040957545036
1683.0,0.16532502553725603
1682.0,0.165261481096159
1681.0,0.16551571466519466
1680.0,0.16589734428720626
1679.0,0.16621562534352097
1678.0,0.16672536070943655
1677.0,0.1673633724032968
1676.0,0.16787445746599094
1675.0,0.1683221508085333
1674.0,0.1685141607513425
1673.0,0.16845014800424418
1672.0,0.1685141607513425
1671.0,0.16857818293497795
1670.0,0.16883436609055757
1669.0,0.1693471862025755
1668.0,0.16986061257465734
1667.0,0.17024608107502504
1666.0,0.17056756638240134
1665.0,0.17076057185861093
1664.0,0.17076057185861093
1663.0,0.17082492608291244
1662.0,0.17121125181504682
1661.0,0.17159792150840691
1660.0,0.17172688794793012
1659.0,0.17192040944325404
1658.0,0.17198493577602325
1657.0,0.17198493577602325
1656.0,0.1721140172101443
1655.0,0.17230771132555445
1654.0,0.17230771132555445
1653.0,0.17314805217935603
1652.0,0.1730833528150797
1651.0,0.1718558926962137
1650.0,0.17204947169736973
1649.0,0.17256610459922084
1648.0,0.1725014918665413
1647.0,0.1726953589102651
1646.0,0.1733422081241307
1645.0,0.17353645090719882
1644.0,0.17340694606595197
1643.0,0.17340694606595197
1642.0,0.17340694606595197
1641.0,0.1733422081241307
1640.0,0.1730833528150797
1639.0,0.17288931253398876
1638.0,0.1726953589102651
1637.0,0.17263072694617465
1636.0,0.17295398299526576
1635.0,0.17353645090719882
1634.0,0.1733422081241307
1633.0,0.1730186630880064
1632.0,0.17288931253398876
1631.0,0.17263072694617465
1630.0,0.17230771132555445
1629.0,0.17204947169736973
1628.0,0.17192040944325404
1627.0,0.17192040944325404
1626.0,0.17192040944325404
1625.0,0.17179138553205453
1624.0,0.17159792150840691
1623.0,0.17153345264732156
1622.0,0.17153345264732156
1621.0,0.1714045436282976
1620.0,0.1712756728612086
1619.0,0.1711468403233598
1618.0,0.17082492608291244
1617.0,0.17037464664195068
1616.0,0.16998906406388214
1615.0,0.16960382351653092
1614.0,0.16947548590274142
1613.0,0.16953964996903292
1612.0,0.16941133131485575
1611.0,0.16915480769138846
1610.0,0.16902660267734948
1609.0,0.16889843549864048
1608.0,0.16877030613293664
1607.0,0.1686422145579325
1606.0,0.1686422145579325
1605.0,0.16857818293497795
1604.0,0.16838614469090118
1603.0,0.1683221508085333
1602.0,0.16838614469090118
1601.0,0.1685141607513425
1600.0,0.16845014800424418
1599.0,0.1683221508085333
1598.0,0.16813022571949832
1597.0,0.16793838540927308
1596.0,0.16781053893148679
1595.0,0.16774662980299215
1594.0,0.16787445746599094
1593.0,0.16793838540927308
1592.0,0.16787445746599094
1591.0,0.16781053893148679
1590.0,0.16768273007773837
1589.0,0.167618839752959
1588.0,0.1675549588258891
1587.0,0.16742722515382025
1586.0,0.1673633724032968
1585.0,0.16729952903943257
1584.0,0.16710805524020933
1583.0,0.16704424939540163
1582.0,0.16698045292346864
1581.0,0.16691666582165698
1580.0,0.16672536070943655
1579.0,0.1666616110606025
1578.0,0.16659787076814148
1577.0,0.16640670600154372
1576.0,0.16634300310712757
1575.0,0.16634300310712757
1574.0,0.16627930955536674
1573.0,0.16647041824135633
1572.0,0.16659787076814148
1571.0,0.16647041824135633
1570.0,0.16640670600154372
1569.0,0.16659787076814148
1568.0,0.16672536070943655
1567.0,0.1667891197173912
1566.0,0.16672536070943655
1565.0,0.16659787076814148
1564.0,0.16647041824135633
1563.0,0.16672536070943655
1562.0,0.16723569505946845
1561.0,0.16729952903943257
1560.0,0.16634300310712757
1559.0,0.16621562534352097
1558.0,0.16723569505946845
1557.0,0.16653413982930765
1556.0,0.16627930955536674
1555.0,0.16647041824135633
1554.0,0.16647041824135633
1553.0,0.16634300310712757
1552.0,0.16627930955536674
1551.0,0.16647041824135633
1550.0,0.16659787076814148
1549.0,0.16672536070943655
1548.0,0.1666616110606025
1547.0,0.16659787076814148
1546.0,0.16627930955536674
1545.0,0.16583371605737995
1544.0,0.16557929631846746
1543.0,0.16557929631846746
1542.0,0.16519794595130088
1541.0,0.16462654752999129
1540.0,0.1646899991309374
1539.0,0.16513442009996204
1538.0,0.16475346000368907
1537.0,0.16475346000368907
1536.0,0.16513442009996204
1535.0,0.16519794595130088
1534.0,0.16488040957545036
1533.0,0.1646899991309374
1532.0,0.16481693015095633
1531.0,0.16481693015095633
1530.0,0.16462654752999129
1529.0,0.16430942850757435
1528.0,0.16399254087446846
1527.0,0.16367588429324842
1526.0,0.16348600110932865
1525.0,0.163359458427226
1524.0,0.16329620091026875
1523.0,0.16323295260579473
1522.0,0.16291684917681404
1521.0,0.16285365609093994
1520.0,0.16285365609093994
1519.0,0.16266413198498508
1518.0,0.1624115617644888
1517.0,0.16209605540705763
1516.0,0.16203298163134527
1515.0,0.16203298163134527
1514.0,0.16203298163134527
1513.0,0.16178077809237412
1512.0,0.16127680996862814
1511.0,0.1605219526258017
1510.0,0.15976840504189105
1509.0,0.15920410115290617
1508.0,0.15895353459069628
1507.0,0.15976840504189105
1506.0,0.16064767110457878
1505.0,0.15983115075924403
1504.0,0.15920410115290617
1503.0,0.1590787998012282
1502.0,0.1588909155318461
1501.0,0.15857795559764076
1500.0,0.15814019022493886
1499.0,0.1577028656719348
1498.0,0.15707887924001773
1497.0,0.1565803347950816
1496.0,0.15633127702085625
1495.0,0.1558335895497993
1494.0,0.15515019919336104
1493.0,0.15452986701832638
1492.0,0.1537866361206126
1491.0,0.15285938258659382
1490.0,0.15205736115477642
1489.0,0.15181088300860135
1488.0,0.15168769637271562
1487.0,0.15113378850522063
1486.0,0.1502121757623145
1485.0,0.14929251462546267
1484.0,0.14843591773651155
1483.0,0.14739803066176504
1482.0,0.1461193498754576
1481.0,0.14466259553045968
1480.0,0.14339193156306385
1479.0,0.14224547794055775
1478.0,0.14116214857141451
1477.0,0.1409818561111058
1476.0,0.14351278713136928
1475.0,0.1502121757623145
1474.0,0.16222223044626682
1473.0,0.17953580942231584
1472.0,0.19647460442346754
1471.0,0.20474581741911724
1470.0,0.20606999322731534
1469.0,0.20641913263184408
1468.0,0.2076783636484265
1467.0,0.20999647960951062
1466.0,0.21388771628017356
1465.0,0.22134236805264473
1464.0,0.23254728190222673
1463.0,0.24313577593945102
1462.0,0.2494144726589913
1461.0,0.2510371387438386
1460.0,0.2487208960166578
1459.0,0.24351603555739065
1458.0,0.23672178898102136
1457.0,0.23077041826340627
1456.0,0.22687207596666514
1455.0,0.22409842110832567
1454.0,0.22213837582375806
1453.0,0.22025924882325953
1452.0,0.2181010806488508
1451.0,0.21573941743391623
1450.0,0.21360353862769577
1449.0,0.21183162885883222
1448.0,0.21027830601907826
1447.0,0.2089412564081745
1446.0,0.20788859091283163
1445.0,0.20697834015401684
1444.0,0.20613979865733034
1443.0,0.20537255533549192
1442.0,0.2046066650687106
1441.0,0.2040505010971967
1440.0,0.20356444118982564
1439.0,0.20314825095011302
1438.0,0.20259395032361804
1437.0,0.20197120659592693
1436.0,0.2014874669686484
1435.0,0.2010042655561186
1434.0,0.20038379551850105
1433.0,0.19976421067264605
1432.0,0.1990081387398286
1431.0,0.1981162928747604
1430.0,0.19722627470802445
1429.0,0.19640633522865558
1428.0,0.19558794086228604
1427.0,0.1946350925335547
1426.0,0.19361649817583237
1425.0,0.19253262431572216
1424.0,0.19165396425960513
1423.0,0.1912490276504053
1422.0,0.1910467008440888
1421.0,0.19057497120296585
1420.0,0.18970025895983111
1419.0,0.1887602272467106
1418.0,0.18822397839709626
1417.0,0.1879561020697733
1416.0,0.1878891587969005
1415.0,0.18775530319963063
1414.0,0.18742084459095332
1413.0,0.18688624599210146
1412.0,0.18641901143180806
1411.0,0.1859522790044006
1410.0,0.18555262147751228
1409.0,0.18521985425419518
1408.0,0.1849538239353694
1407.0,0.18468795647564096
1406.0,0.18442225167573278
1405.0,0.18415670933673334
1404.0,0.18395765907800343
1403.0,0.1838913292600961
1402.0,0.1838250095711984
1401.0,0.1835598320438614
1400.0,0.1832285876666535
1399.0,0.18289759574307696
1398.0,0.18269912160667867
1397.0,0.18250073813224166
1396.0,0.18230244523697592
1395.0,0.18210424283820448
1394.0,0.18197215814074386
1393.0,0.1818401136028147
1392.0,0.1818401136028147
1391.0,0.1818401136028147
1390.0,0.1818401136028147
1389.0,0.18164212204164532
1388.0,0.18137827362411096
1387.0,0.1811804924524636
1386.0,0.1812464095022832
1385.0,0.18144422070219735
1384.0,0.18157614490792118
1383.0,0.18170810920000413
1382.0,0.18203819546800593
1381.0,0.18269912160667867
1380.0,0.1838250095711984
1379.0,0.18528638730402336
1378.0,0.1867526991023949
1377.0,0.18775530319963063
1376.0,0.18829097330380895
1375.0,0.188357978546849
1374.0,0.18842499412940672
1373.0,0.1885590563258419
1372.0,0.18882730493344568
1371.0,0.18916284885951162
1370.0,0.18956584407732735
1369.0,0.18996921359416064
1368.0,0.19037295810595034
1367.0,0.19064232978889417
1366.0,0.19077707831057822
1365.0,0.19077707831057822
1364.0,0.19057497120296585
1363.0,0.19050762306265812
1362.0,0.19050762306265812
1361.0,0.19057497120296585
1360.0,0.19057497120296585
1359.0,0.19050762306265812
1358.0,0.19044028536473223
1357.0,0.19037295810595034
1356.0,0.19044028536473223
1355.0,0.19064232978889417
1354.0,0.19097927951632743
1353.0,0.1911815749078758
1352.0,0.19131649087103075
1351.0,0.19131649087103075
1350.0,0.1912490276504053
1349.0,0.1912490276504053
1348.0,0.191383964573008
1347.0,0.19158644859963192
1346.0,0.19178902707577805
1345.0,0.19192413190869306
1344.0,0.1919917000896001
1343.0,0.19192413190869306
1342.0,0.19185657423850877
1341.0,0.1917214904172322
1340.0,0.1917214904172322
1339.0,0.19185657423850877
1338.0,0.1920592787845008
1337.0,0.1921268679966679
1336.0,0.1921268679966679
1335.0,0.1921268679966679
1334.0,0.1921268679966679
1333.0,0.1920592787845008
1332.0,0.1919917000896001
1331.0,0.19185657423850877
1330.0,0.19185657423850877
1329.0,0.19185657423850877
1328.0,0.1919917000896001
1327.0,0.1920592787845008
1326.0,0.1921268679966679
1325.0,0.1921268679966679
1324.0,0.19226207798589923
1323.0,0.19232969876951622
1322.0,0.19246497193114664
1321.0,0.19253262431572216
1320.0,0.1926002872405146
1319.0,0.1928033392890527
1318.0,0.1930742231162681
1317.0,0.19334527600813955
1316.0,0.19361649817583237
1315.0,0.19382002601611292
1314.0,0.19409154492580294
1313.0,0.1944311824514442
1312.0,0.19477108579657387
1311.0,0.19517932127883775
1310.0,0.19558794086228604
1309.0,0.19592875111433883
1308.0,0.19620159201032594
1307.0,0.19661117501638659
1306.0,0.19702114466473808
1305.0,0.19736308191718943
1304.0,0.1976368256904526
1303.0,0.19784224681303852
1302.0,0.1981162928747604
1301.0,0.1983905119726812
1300.0,0.1987335295103798
1299.0,0.1990768181867817
1298.0,0.19928292171761486
1297.0,0.1994203784308699
1296.0,0.19955787866374353
1295.0,0.19962664510865036
1294.0,0.19969542244380145
1293.0,0.19969542244380145
1292.0,0.19969542244380145
1291.0,0.19983300979863605
1290.0,0.20003947259401644
1289.0,0.200246033588114
1288.0,0.20045269287438483
1287.0,0.20065945054641832
1286.0,0.200797343699475
1285.0,0.20086630669793704
1284.0,0.2009352806489919
1283.0,0.20107326142279858
1282.0,0.20128031481499375
1281.0,0.20155653964981246
1280.0,0.20169471797802352
1279.0,0.20176382363206424
1278.0,0.20176382363206424
1277.0,0.20183294028406085
1276.0,0.20197120659592693
1275.0,0.20217868863597643
1274.0,0.20245548563827365
1273.0,0.20273245916928362
1272.0,0.20300960945431368
1271.0,0.20314825095011302
1270.0,0.20328693671910347
1269.0,0.2033562962148836
1268.0,0.20349504844670374
1267.0,0.2036338450224786
1266.0,0.2037726859705613
1265.0,0.20391157131933157
1264.0,0.20391157131933157
1263.0,0.20391157131933157
1262.0,0.20391157131933157
1261.0,0.20391157131933157
1260.0,0.20398103065285067
1259.0,0.2041199826559248
1258.0,0.20418947533259169
1257.0,0.20418947533259169
1256.0,0.20418947533259169
1255.0,0.20432849405397824
1254.0,0.20446755728984556
1253.0,0.20453710560962013
1252.0,0.2046066650687106
1251.0,0.2046066650687106
1250.0,0.20453710560962013
1249.0,0.20446755728984556
1248.0,0.2043980201058202
1247.0,0.2043980201058202
1246.0,0.20453710560962013
1245.0,0.20467623567068616
1244.0,0.20481541031757589
1243.0,0.20481541031757589
1242.0,0.20467623567068616
1241.0,0.20453710560962013
1240.0,0.20467623567068616
1239.0,0.20488501436963658
1238.0,0.20516354218543853
1237.0,0.20530287310800133
1236.0,0.20523320205917894
1235.0,0.20502425594886842
1234.0,0.20474581741911724
1233.0,0.20446755728984556
1232.0,0.20432849405397824
1231.0,0.20432849405397824
1230.0,0.2043980201058202
1229.0,0.2043980201058202
1228.0,0.2043980201058202
1227.0,0.2043980201058202
1226.0,0.20446755728984556
1225.0,0.20453710560962013
1224.0,0.20453710560962013
1223.0,0.20453710560962013
1222.0,0.20446755728984556
1221.0,0.2043980201058202
1220.0,0.2043980201058202
1219.0,0.2043980201058202
1218.0,0.20446755728984556
1217.0,0.2043980201058202
1216.0,0.20432849405397824
1215.0,0.20418947533259169
1214.0,0.20418947533259169
1213.0,0.20425897913075608
1212.0,0.2043980201058202
1211.0,0.20453710560962013
1210.0,0.20453710560962013
1209.0,0.20446755728984556
1208.0,0.2043980201058202
1207.0,0.2043980201058202
1206.0,0.20446755728984556
1205.0,0.2046066650687106
1204.0,0.20467623567068616
1203.0,0.20474581741911724
1202.0,0.20467623567068616
1201.0,0.20446755728984556
1200.0,0.20425897913075608
1199.0,0.2040505010971967
1198.0,0.20398103065285067
1197.0,0.2040505010971967
1196.0,0.20418947533259169
1195.0,0.20446755728984556
1194.0,0.2046066650687106
1193.0,0.20467623567068616
1192.0,0.20467623567068616
1191.0,0.20467623567068616
1190.0,0.20474581741911724
1189.0,0.20481541031757589
1188.0,0.2049546295788751
1187.0,0.20509389348319607
1186.0,0.20516354218543853
1185.0,0.20530287310800133
1184.0,0.2054422487452383
1183.0,0.20565139610391725
1182.0,0.20586064423222616
1181.0,0.20600019901552957
1180.0,0.20606999322731534
1179.0,0.20620961530918125
1178.0,0.206349282292827
1177.0,0.20641913263184408
1176.0,0.20662875108104428
1175.0,0.20683847075444928
1174.0,0.20704829174986794
1173.0,0.20725821416525125
1172.0,0.20739821883503362
1171.0,0.20753826865304936
1170.0,0.20774842809673588
1169.0,0.20795868928791772
1168.0,0.20809891999042884
1167.0,0.2083093509798819
1166.0,0.20859008433283988
1165.0,0.2088709992727138
1164.0,0.20915209603456808
1163.0,0.2093630380682967
1162.0,0.2092927126723203
1161.0,0.20915209603456808
1160.0,0.20901152491118413
1159.0,0.2090818047854217
1158.0,0.2092223986623063
1157.0,0.20943337485392344
1156.0,0.20964445358561346
1155.0,0.20978522975602076
1154.0,0.20992605157369537
1153.0,0.20999647960951062
1152.0,0.2100669190682496
1151.0,0.2100669190682496
1150.0,0.2101373699536182
1149.0,0.21027830601907826
1148.0,0.21041928783557462
1147.0,0.2104897959097456
1146.0,0.2104897959097456
1145.0,0.21041928783557462
1144.0,0.21034879120659045
1143.0,0.21034879120659045
1142.0,0.21034879120659045
1141.0,0.21034879120659045
1140.0,0.21034879120659045
1139.0,0.2104897959097456
1138.0,0.21063084640851826
1137.0,0.21063084640851826
1136.0,0.21056031543282083
1135.0,0.2104897959097456
1134.0,0.21063084640851826
1133.0,0.2108425080885603
1132.0,0.21119550695535172
1131.0,0.21147811277752715
1130.0,0.21161948468043668
1129.0,0.21161948468043668
1128.0,0.21161948468043668
1127.0,0.21161948468043668
1126.0,0.2115487929765445
1125.0,0.21147811277752715
1124.0,0.2115487929765445
1123.0,0.21169018789295002
1122.0,0.21190236661970263
1121.0,0.21204387671606817
1120.0,0.2121146490590755
1119.0,0.212185432936977
1118.0,0.2122562283535332
1117.0,0.2122562283535332
1116.0,0.2121146490590755
1115.0,0.21204387671606817
1114.0,0.21204387671606817
1113.0,0.2119731159041962
1112.0,0.2119731159041962
1111.0,0.21190236661970263
1110.0,0.21190236661970263
1109.0,0.2119731159041962
1108.0,0.21190236661970263
1107.0,0.21176090261783198
1106.0,0.21169018789295002
1105.0,0.21176090261783198
1104.0,0.21183162885883222
1103.0,0.21190236661970263
1102.0,0.21169018789295002
1101.0,0.21140744407964052
1100.0,0.21119550695535172
1099.0,0.2111248842245832
1098.0,0.21126614117229248
1097.0,0.2115487929765445
1096.0,0.21190236661970263
1095.0,0.2121146490590755
1094.0,0.21232703531250707
1093.0,0.21239785381766252
1092.0,0.2126103786478899
1091.0,0.2128939069634299
1090.0,0.21310667473868428
1089.0,0.2130357405642671
1088.0,0.21282300752944616
1087.0,0.21246868387276563
1086.0,0.2122562283535332
1085.0,0.2121146490590755
1084.0,0.21204387671606817
1083.0,0.2119731159041962
1082.0,0.21183162885883222
1081.0,0.21161948468043668
1080.0,0.2115487929765445
1079.0,0.2115487929765445
1078.0,0.21169018789295002
1077.0,0.21183162885883222
1076.0,0.21176090261783198
1075.0,0.21169018789295002
1074.0,0.21169018789295002
1073.0,0.21183162885883222
1072.0,0.21204387671606817
1071.0,0.212185432936977
1070.0,0.2122562283535332
1069.0,0.212185432936977
1068.0,0.2121146490590755
1067.0,0.21190236661970263
1066.0,0.21176090261783198
1065.0,0.21183162885883222
1064.0,0.21232703531250707
1063.0,0.21296481797377664
1062.0,0.21360353862769577
1061.0,0.21402987486799052
1060.0,0.21417208000413446
1059.0,0.21402987486799052
1058.0,0.21381665443236653
1057.0,0.2135325232597176
1056.0,0.2134615195021976
1055.0,0.21360353862769577
1054.0,0.2137456042102197
1053.0,0.21381665443236653
1052.0,0.21388771628017356
1051.0,0.21402987486799052
1050.0,0.21438547505317596
1049.0,0.21481257997063818
1048.0,0.21524010533599514
1047.0,0.21552535623748348
1046.0,0.21566805197785177
1045.0,0.2158107946190393
1044.0,0.21588218353707678
1043.0,0.2160964207272651
1042.0,0.21645371772965016
1041.0,0.21688286250953293
1040.0,0.2173840679683965
1039.0,0.21788585252092885
1038.0,0.2182446253475312
1037.0,0.2186036948032093
1036.0,0.21903497039168318
1035.0,0.21961067152904712
1034.0,0.22011503680735567
1033.0,0.2206199885083442
1032.0,0.22098102808512943
1031.0,0.22112552799726037
1030.0,0.22105327203138314
1029.0,0.22090879615450087
1028.0,0.22090879615450087
1027.0,0.22119779598676126
1026.0,0.22170400891116615
1025.0,0.22213837582375806
1024.0,0.22242819530859004
1023.0,0.222500680409635
1022.0,0.22271820832898515
1021.0,0.22300841514359493
1020.0,0.22329881601158919
1019.0,0.22358941119265774
1018.0,0.2235167441663184
1017.0,0.22337144657984997
1016.0,0.2230809971579535
1015.0,0.2228632874958274
1014.0,0.22264568691579112
1013.0,0.22242819530859004
1012.0,0.22213837582375806
1011.0,0.22184874961635637
1010.0,0.22170400891116615
1009.0,0.22177637323390353
1008.0,0.221921138062545
1007.0,0.22213837582375806
1006.0,0.22221081256513253
1005.0,0.22221081256513253
1004.0,0.22199353857649173
1003.0,0.22170400891116615
1002.0,0.22148698826107527
1001.0,0.22127007600388815
1000.0,0.22112552799726037
999.0,0.22112552799726037
998.0,0.22127007600388815
997.0,0.2214146721370378
996.0,0.22155931642876725
995.0,0.2214146721370378
994.0,0.22112552799726037
993.0,0.22076436832413648
992.0,0.2206199885083442
991.0,0.2206199885083442
990.0,0.22054781659593825
989.0,0.2204035087421754
988.0,0.22018713682941948
987.0,0.2199708726626617
986.0,0.21989880853208832
985.0,0.2198267563574059
984.0,0.21975471613464737
983.0,0.21975471613464737
982.0,0.21975471613464737
981.0,0.2198267563574059
980.0,0.2199708726626617
979.0,0.2199708726626617
978.0,0.21989880853208832
977.0,0.2198267563574059
976.0,0.21975471613464737
975.0,0.21975471613464737
974.0,0.2196826878598488
973.0,0.21961067152904712
972.0,0.2194666746835956
971.0,0.2194666746835956
970.0,0.2194666746835956
969.0,0.2193227255666319
968.0,0.2193227255666319
967.0,0.2193227255666319
966.0,0.2194666746835956
965.0,0.2194666746835956
964.0,0.2192507688964478
963.0,0.21903497039168318
962.0,0.21896306137886823
961.0,0.21903497039168318
960.0,0.2192507688964478
959.0,0.2195386671382824
958.0,0.21961067152904712
957.0,0.21961067152904712
956.0,0.2195386671382824
955.0,0.2194666746835956
954.0,0.2192507688964478
953.0,0.21903497039168318
952.0,0.2187474057515435
951.0,0.2186036948032093
950.0,0.2187474057515435
949.0,0.21903497039168318
948.0,0.2194666746835956
947.0,0.2198267563574059
946.0,0.22004294875309416
945.0,0.2199708726626617
944.0,0.2198267563574059
943.0,0.21961067152904712
942.0,0.2193946941610303
941.0,0.2192507688964478
940.0,0.21917882414652712
939.0,0.2192507688964478
938.0,0.2193946941610303
937.0,0.2194666746835956
936.0,0.2195386671382824
935.0,0.2196826878598488
934.0,0.21989880853208832
933.0,0.2199708726626617
932.0,0.21975471613464737
931.0,0.2194666746835956
930.0,0.2193227255666319
929.0,0.2192507688964478
928.0,0.2193227255666319
927.0,0.2193946941610303
926.0,0.2192507688964478
925.0,0.21917882414652712
924.0,0.2192507688964478
923.0,0.2195386671382824
922.0,0.21989880853208832
921.0,0.22018713682941948
920.0,0.22033137279285198
919.0,0.22033137279285198
918.0,0.22025924882325953
917.0,0.22033137279285198
916.0,0.22047565667521019
915.0,0.2206199885083442
914.0,0.22069217241641415
913.0,0.22069217241641415
912.0,0.22054781659593825
911.0,0.2206199885083442
910.0,0.22083657623550135
909.0,0.22112552799726037
908.0,0.22119779598676126
907.0,0.22112552799726037
906.0,0.22083657623550135
905.0,0.22047565667521019
904.0,0.22018713682941948
903.0,0.22018713682941948
902.0,0.2204035087421754
901.0,0.2206199885083442
900.0,0.22076436832413648
899.0,0.22076436832413648
898.0,0.22076436832413648
897.0,0.22098102808512943
896.0,0.22119779598676126
895.0,0.22127007600388815
894.0,0.22127007600388815
893.0,0.22119779598676126
892.0,0.22119779598676126
891.0,0.22119779598676126
890.0,0.22112552799726037
889.0,0.22119779598676126
888.0,0.2214146721370378
887.0,0.221921138062545
886.0,0.22271820832898515
885.0,0.22358941119265774
884.0,0.22424396215590203
883.0,0.22446236521904295
882.0,0.22446236521904295
881.0,0.2243167509739561
880.0,0.22409842110832567
879.0,0.22395292881822026
878.0,0.22388020094701222
877.0,0.22388020094701222
876.0,0.22380748525292793
875.0,0.22380748525292793
874.0,0.22373478173189043
873.0,0.22366209037982476
872.0,0.22366209037982476
871.0,0.22373478173189043
870.0,0.22380748525292793
869.0,0.2240256688706308
868.0,0.2243167509739561
867.0,0.2246808781705225
866.0,0.22489950112097512
865.0,0.22489950112097512
864.0,0.2246808781705225
863.0,0.22424396215590203
862.0,0.22380748525292793
861.0,0.22358941119265774
860.0,0.22358941119265774
859.0,0.22366209037982476
858.0,0.22366209037982476
857.0,0.22366209037982476
856.0,0.22366209037982476
855.0,0.22380748525292793
854.0,0.2240256688706308
853.0,0.2243895519936392
852.0,0.22482661457521314
851.0,0.2251182341812037
850.0,0.2252641174482466
849.0,0.2251911696892941
848.0,0.22504531091986135
847.0,0.22497239990115525
846.0,0.22504531091986135
845.0,0.2251911696892941
844.0,0.2254100497352054
843.0,0.22577509513108107
842.0,0.22606735253235488
841.0,0.22606735253235488
840.0,0.22592119924748122
839.0,0.22577509513108107
838.0,0.22577509513108107
837.0,0.22577509513108107
836.0,0.22577509513108107
835.0,0.22592119924748122
834.0,0.22621355501880647
833.0,0.22643295107394135
832.0,0.22643295107394135
831.0,0.22606735253235488
830.0,0.22570206150072258
829.0,0.22570206150072258
828.0,0.22606735253235488
827.0,0.22657927670938993
826.0,0.22709180502872828
825.0,0.2274582673590566
824.0,0.2276049389179997
823.0,0.2274582673590566
822.0,0.22738495015082916
821.0,0.22731164531785852
820.0,0.2274582673590566
819.0,0.2276049389179997
818.0,0.22767829327708022
817.0,0.2277516600281464
816.0,0.2278984307229881
815.0,0.22797183467514515
814.0,0.22797183467514515
813.0,0.22797183467514515
812.0,0.22797183467514515
811.0,0.22819212100089437
810.0,0.22855951336008817
809.0,0.22892721677880523
808.0,0.22922160383085233
807.0,0.22936887222219338
806.0,0.22951619056889205
805.0,0.22973726182940668
804.0,0.2299584456803314
803.0,0.2301797422364078
802.0,0.2301797422364078
801.0,0.22981097726400668
800.0,0.22929523178422073
799.0,0.22892721677880523
798.0,0.22892721677880523
797.0,0.22929523178422073
796.0,0.22973726182940668
795.0,0.22981097726400668
794.0,0.2296635589048508
793.0,0.22936887222219338
792.0,0.22929523178422073
791.0,0.22929523178422073
790.0,0.22936887222219338
789.0,0.22929523178422073
788.0,0.22914798835785577
787.0,0.2290743853610009
786.0,0.22929523178422073
785.0,0.2299584456803314
784.0,0.23077041826340627
783.0,0.23150989482875484
782.0,0.2316579413554667
781.0,0.23128791962233652
780.0,0.23084430928560118
779.0,0.23040115161255348
778.0,0.2301059641878309
777.0,0.2298847052128985
776.0,0.23003219867055757
775.0,0.2304749798289496
774.0,0.23106605781321843
773.0,0.23158391178366822
772.0,0.23180603836692848
771.0,0.2318801058152027
770.0,0.23180603836692848
769.0,0.23150989482875484
768.0,0.2312139530919859
767.0,0.2312139530919859
766.0,0.23150989482875484
765.0,0.2318801058152027
764.0,0.2321023839819094
763.0,0.23202827861838116
762.0,0.23173198354845193
761.0,0.23150989482875484
760.0,0.23136189875238555
759.0,0.23136189875238555
758.0,0.2312139530919859
757.0,0.23099212905622624
756.0,0.2304749798289496
755.0,0.2298847052128985
754.0,0.22951619056889205
753.0,0.22951619056889205
752.0,0.2298847052128985
751.0,0.2302535328205466
750.0,0.23040115161255348
749.0,0.2302535328205466
748.0,0.2299584456803314
747.0,0.22973726182940668
746.0,0.22973726182940668
745.0,0.2296635589048508
744.0,0.22951619056889205
743.0,0.22922160383085233
742.0,0.2287800980504664
741.0,0.22826557461323072
740.0,0.22738495015082916
739.0,0.2259942697417905
738.0,0.22409842110832567
737.0,0.22206595116222072
736.0,0.22047565667521019
735.0,0.2195386671382824
734.0,0.2195386671382824
733.0,0.2216316566441261
732.0,0.22731164531785852
731.0,0.23649713453240295
730.0,0.24703013497091586
729.0,0.25539412458576116
728.0,0.25924267669222956
727.0,0.25900606841511387
726.0,0.25688237478525844
725.0,0.2547690154718594
724.0,0.25375512827980184
723.0,0.2547690154718594
722.0,0.25916379294268843
721.0,0.2685724129490521
720.0,0.2819968317329824
719.0,0.29507770877659834
718.0,0.3028578737245404
717.0,0.3039058400047767
716.0,0.3000755972575233
715.0,0.2941362877160807
714.0,0.28793985753892537
713.0,0.2823294969977379
712.0,0.27785987454258443
711.0,0.27474193364003896
710.0,0.2725400791420911
709.0,0.27075419277469326
708.0,0.2690563065722642
707.0,0.26736503246080434
706.0,0.2654401784205238
705.0,0.26288690569403883
704.0,0.26026947143528245
703.0,0.258060922270801
702.0,0.25688237478525844
701.0,0.25617677839624964
700.0,0.25562877266813944
699.0,0.255237762934422
698.0,0.2553159367231137
697.0,0.25570701687732367
696.0,0.25594183412116456
695.0,0.25547232652743346
694.0,0.25430077339749424
693.0,0.2527436025578558
692.0,0.2511919950413979
691.0,0.2501091587285782
690.0,0.24972308484600725
689.0,0.2498002721708179
688.0,0.2500319164905971
687.0,0.2498774732165998
686.0,0.2491060796178748
685.0,0.24802842526367286
684.0,0.24710684511540615
683.0,0.24664678735850387
682.0,0.2467234298155816
681.0,0.2467234298155816
680.0,0.24626377782498987
679.0,0.24557521072274135
678.0,0.24519314464557662
677.0,0.24496406623222855
676.0,0.2445062715848807
675.0,0.24389662841489446
674.0,0.24351603555739065
673.0,0.24382048315619098
672.0,0.24473510858775338
671.0,0.24511677174783242
670.0,0.24374435124576666
669.0,0.2397283394579368
668.0,0.23448045690204733
667.0,0.2327699018892817
666.0,0.23552497256559102
665.0,0.23874892569133732
664.0,0.24025663240227502
663.0,0.24101245313238073
662.0,0.24214865631442017
661.0,0.24382048315619098
660.0,0.24488773360492888
659.0,0.24458253718906375
658.0,0.24267990345332757
657.0,0.2404832405378119
656.0,0.2391253619478111
655.0,0.2391253619478111
654.0,0.2397283394579368
653.0,0.24003014244569276
652.0,0.23987921473543228
651.0,0.2393513804186438
650.0,0.23837281543841726
649.0,0.23687162320086297
648.0,0.2347040703019434
647.0,0.23254728190222673
646.0,0.23099212905622624
645.0,0.23084430928560118
644.0,0.23232477597203993
643.0,0.23500240071511946
642.0,0.23754651763645307
641.0,0.2391253619478111
640.0,0.24025663240227502
639.0,0.2423003749122612
638.0,0.24641694110709333
637.0,0.25258819211357686
636.0,0.25955835505023406
635.0,0.264880365918128
634.0,0.2659205927194057
633.0,0.2619332852225307
632.0,0.2555505425532014
631.0,0.2499546879882324
630.0,0.24664678735850387
629.0,0.24519314464557662
628.0,0.2445062715848807
627.0,0.24389662841489446
626.0,0.2430597639532759
625.0,0.24184537803260997
624.0,0.2404832405378119
623.0,0.23905004858910273
622.0,0.23822246249182188
621.0,0.23822246249182188
620.0,0.2391253619478111
619.0,0.24033215531036944
618.0,0.24139085734025634
617.0,0.24192117775038735
616.0,0.2420728168866706
615.0,0.24176959154225042
614.0,0.24078556876575608
613.0,0.2395021247734732
612.0,0.2386736775785434
611.0,0.2386736775785434
610.0,0.2389747482886273
609.0,0.2386736775785434
608.0,0.23799703062488464
607.0,0.2377717157135255
606.0,0.23859844250136897
605.0,0.24033215531036944
604.0,0.24321180123188202
603.0,0.24695343837347083
602.0,0.2498002721708179
601.0,0.24918315735024543
600.0,0.24511677174783242
