cm-1,A
4000.0,0.06961138175567827
3999.0,0.06966236426227002
3998.0,0.06971335275448043
3997.0,0.06981534770138009
3996.0,0.06986635415888243
3995.0,0.06986635415888243
3994.0,0.06971335275448043
3993.0,0.06956040523329987
3992.0,0.06950943469373039
3991.0,0.06950943469373039
3990.0,0.06961138175567827
3989.0,0.06971335275448043
3988.0,0.06971335275448043
3987.0,0.06966236426227002
3986.0,0.06956040523329987
3985.0,0.06945847013556561
3984.0,0.06945847013556561
3983.0,0.06961138175567827
3982.0,0.06986635415888243
3981.0,0.07012147634321675
3980.0,0.0702746216219956
3979.0,0.07042782092345012
3978.0,0.07047889936889606
3977.0,0.07047889936889606
3976.0,0.07037674848475972
3975.0,0.0702746216219956
3974.0,0.07017251876930874
3973.0,0.07007043991541217
3972.0,0.07001940948448526
3971.0,0.07001940948448526
3970.0,0.07007043991541217
3969.0,0.07022356719509815
3968.0,0.0702746216219956
3967.0,0.0702746216219956
3966.0,0.07017251876930874
3965.0,0.07001940948448526
3964.0,0.06996838504902692
3963.0,0.07001940948448526
3962.0,0.07017251876930874
3961.0,0.07032568205141221
3960.0,0.07032568205141221
3959.0,0.0702746216219956
3958.0,0.07017251876930874
3957.0,0.07007043991541217
3956.0,0.07001940948448526
3955.0,0.07001940948448526
3954.0,0.07001940948448526
3953.0,0.07001940948448526
3952.0,0.07001940948448526
3951.0,0.07012147634321675
3950.0,0.07022356719509815
3949.0,0.07032568205141221
3948.0,0.07032568205141221
3947.0,0.07017251876930874
3946.0,0.06986635415888243
3945.0,0.06966236426227002
3944.0,0.06961138175567827
3943.0,0.06966236426227002
3942.0,0.06976434723371505
3941.0,0.06981534770138009
3940.0,0.07001940948448526
3939.0,0.07037674848475972
3938.0,0.07068327324650436
3937.0,0.07083661679493547
3936.0,0.07073438174693436
3935.0,0.07068327324650436
3934.0,0.07063217075990047
3933.0,0.07052998382251041
3932.0,0.07032568205141221
3931.0,0.07012147634321675
3930.0,0.06996838504902692
3929.0,0.06986635415888243
3928.0,0.06971335275448043
3927.0,0.06956040523329987
3926.0,0.06950943469373039
3925.0,0.06950943469373039
3924.0,0.06940751155740177
3923.0,0.06935655895783555
3922.0,0.06945847013556561
3921.0,0.06966236426227002
3920.0,0.06976434723371505
3919.0,0.06976434723371505
3918.0,0.0699173666076287
3917.0,0.07032568205141221
3916.0,0.07078549626260622
3915.0,0.0709900145060387
3914.0,0.07114346641808922
3913.0,0.07139934015547578
3912.0,0.07170658776779781
3911.0,0.07175781684269089
3910.0,0.07160414774328627
3909.0,0.07114346641808922
3908.0,0.07058107428570715
3907.0,0.07001940948448526
3906.0,0.06961138175567827
3905.0,0.06940751155740177
3904.0,0.0692037370166998
3903.0,0.06894915322260897
3902.0,0.0688982543673613
3901.0,0.06945847013556561
3900.0,0.07047889936889606
3899.0,0.0713481533463054
3898.0,0.07150173187630915
3897.0,0.07109230975604719
3896.0,0.07068327324650436
3895.0,0.07037674848475972
3894.0,0.07017251876930874
3893.0,0.07017251876930874
3892.0,0.07058107428570715
3891.0,0.0710411591191702
3890.0,0.07078549626260622
3889.0,0.0699173666076287
3888.0,0.06961138175567827
3887.0,0.07017251876930874
3886.0,0.07088774334533943
3885.0,0.07093887591523451
3884.0,0.07037674848475972
3883.0,0.06986635415888243
3882.0,0.07007043991541217
3881.0,0.07058107428570715
3880.0,0.07088774334533943
3879.0,0.07073438174693436
3878.0,0.0702746216219956
3877.0,0.07012147634321675
3876.0,0.07037674848475972
3875.0,0.07042782092345012
3874.0,0.0699173666076287
3873.0,0.0691018855898955
3872.0,0.06869471857832687
3871.0,0.06930561233546473
3870.0,0.07032568205141221
3869.0,0.07063217075990047
3868.0,0.07017251876930874
3867.0,0.07007043991541217
3866.0,0.07093887591523451
3865.0,0.0716553647351379
3864.0,0.07150173187630915
3863.0,0.07109230975604719
3862.0,0.07088774334533943
3861.0,0.07073438174693436
3860.0,0.07052998382251041
3859.0,0.0702746216219956
3858.0,0.07017251876930874
3857.0,0.07012147634321675
3856.0,0.07001940948448526
3855.0,0.06996838504902692
3854.0,0.07032568205141221
3853.0,0.07124579782334672
3852.0,0.0713481533463054
3851.0,0.07022356719509815
3850.0,0.07007043991541217
3849.0,0.0709900145060387
3848.0,0.07155293679081787
3847.0,0.07155293679081787
3846.0,0.0713481533463054
3845.0,0.07109230975604719
3844.0,0.07073438174693436
3843.0,0.07017251876930874
3842.0,0.06945847013556561
3841.0,0.06894915322260897
3840.0,0.0688982543673613
3839.0,0.06925467168888666
3838.0,0.06981534770138009
3837.0,0.0702746216219956
3836.0,0.07042782092345012
3835.0,0.07052998382251041
3834.0,0.07088774334533943
3833.0,0.07150173187630915
3832.0,0.07206531825882068
3831.0,0.07232173586200852
3830.0,0.07216786713341827
3829.0,0.07191154033502922
3828.0,0.07186029312488018
3827.0,0.07186029312488018
3826.0,0.07155293679081787
3825.0,0.07073438174693436
3824.0,0.07001940948448526
3823.0,0.06996838504902692
3822.0,0.07047889936889606
3821.0,0.07109230975604719
3820.0,0.07114346641808922
3819.0,0.07052998382251041
3818.0,0.07058107428570715
3817.0,0.07170658776779781
3816.0,0.07262963696097646
3815.0,0.07252697900472405
3814.0,0.07186029312488018
3813.0,0.0718090519612431
3812.0,0.07252697900472405
3811.0,0.0729891310243489
3810.0,0.07273231918911849
3809.0,0.07232173586200852
3808.0,0.07227044022834539
3807.0,0.07237303755504598
3806.0,0.07191154033502922
3805.0,0.07088774334533943
3804.0,0.07032568205141221
3803.0,0.07078549626260622
3802.0,0.07150173187630915
3801.0,0.07175781684269089
3800.0,0.0713481533463054
3799.0,0.07083661679493547
3798.0,0.07139934015547578
3797.0,0.07262963696097646
3796.0,0.07329750581735506
3795.0,0.07334892291111106
3794.0,0.07329750581735506
3793.0,0.07365755337434488
3792.0,0.07412091069849924
3791.0,0.07432700607875953
3790.0,0.07427547306393745
3789.0,0.07417242537525759
3788.0,0.07391491307485598
3787.0,0.07355465218161061
3786.0,0.07329750581735506
3785.0,0.07319468988839395
3784.0,0.07309189829456408
3783.0,0.07283502570063005
3782.0,0.07262963696097646
3781.0,0.07262963696097646
3780.0,0.07283502570063005
3779.0,0.0729891310243489
3778.0,0.07309189829456408
3777.0,0.07329750581735506
3776.0,0.07370901311513656
3775.0,0.07406940213152868
3774.0,0.07401789967289685
3773.0,0.07355465218161061
3772.0,0.0732460948102629
3771.0,0.07334892291111106
3770.0,0.07360609973031784
3769.0,0.07360609973031784
3768.0,0.07340034609297241
3767.0,0.07340034609297241
3766.0,0.07376047895413773
3765.0,0.07406940213152868
3764.0,0.07386342893255127
3763.0,0.07340034609297241
3762.0,0.07319468988839395
3761.0,0.07319468988839395
3760.0,0.07309189829456408
3759.0,0.07293775650699996
3758.0,0.07288638806623937
3757.0,0.0725783049495814
3756.0,0.07191154033502922
3755.0,0.07114346641808922
3754.0,0.07063217075990047
3753.0,0.07022356719509815
3752.0,0.06986635415888243
3751.0,0.0699173666076287
3750.0,0.07047889936889606
3749.0,0.07037674848475972
3748.0,0.06925467168888666
3747.0,0.06874559358358656
3746.0,0.06976434723371505
3745.0,0.07145053299833615
3744.0,0.0725783049495814
3743.0,0.07211658966929302
3742.0,0.07088774334533943
3741.0,0.07083661679493547
3740.0,0.07129697256940304
3739.0,0.0709900145060387
3738.0,0.07017251876930874
3737.0,0.06966236426227002
3736.0,0.06961138175567827
3735.0,0.06976434723371505
3734.0,0.07012147634321675
3733.0,0.07083661679493547
3732.0,0.07170658776779781
3731.0,0.07216786713341827
3730.0,0.07216786713341827
3729.0,0.07221915065262552
3728.0,0.07268097504034388
3727.0,0.0729891310243489
3726.0,0.07288638806623937
3725.0,0.07262963696097646
3724.0,0.0725783049495814
3723.0,0.07283502570063005
3722.0,0.07309189829456408
3721.0,0.07334892291111106
3720.0,0.07355465218161061
3719.0,0.07381195089279391
3718.0,0.07401789967289685
3717.0,0.07391491307485598
3716.0,0.0734517753643813
3715.0,0.07288638806623937
3714.0,0.07242434530888953
3713.0,0.0718090519612431
3712.0,0.07114346641808922
3711.0,0.07088774334533943
3710.0,0.07114346641808922
3709.0,0.07170658776779781
3708.0,0.07232173586200852
3707.0,0.07293775650699996
3706.0,0.0732460948102629
3705.0,0.07329750581735506
3704.0,0.07329750581735506
3703.0,0.0734517753643813
3702.0,0.07381195089279391
3701.0,0.07427547306393745
3700.0,0.07443009045662374
3699.0,0.07432700607875953
3698.0,0.07422394616325367
3697.0,0.07422394616325367
3696.0,0.07401789967289685
3695.0,0.07365755337434488
3694.0,0.07329750581735506
3693.0,0.07288638806623937
3692.0,0.07232173586200852
3691.0,0.0716553647351379
3690.0,0.07145053299833615
3689.0,0.07191154033502922
3688.0,0.07237303755504598
3687.0,0.07237303755504598
3686.0,0.07247565912497134
3685.0,0.0732460948102629
3684.0,0.07417242537525759
3683.0,0.07458476291575367
3682.0,0.07453319930846214
3681.0,0.07443009045662374
3680.0,0.07422394616325367
3679.0,0.07370901311513656
3678.0,0.07288638806623937
3677.0,0.07242434530888953
3676.0,0.07252697900472405
3675.0,0.07262963696097646
3674.0,0.07191154033502922
3673.0,0.0709900145060387
3672.0,0.07145053299833615
3671.0,0.07262963696097646
3670.0,0.07350321072677968
3669.0,0.07406940213152868
3668.0,0.07443009045662374
3667.0,0.07479107858799638
3666.0,0.07541061433058172
3665.0,0.07582412969807906
3664.0,0.07592757008963713
3663.0,0.07587584681417514
3662.0,0.07587584681417514
3661.0,0.07582412969807906
3660.0,0.07551395626608493
3659.0,0.07515236702446293
3658.0,0.07504911108438939
3657.0,0.07546228222451012
3656.0,0.07592757008963713
3655.0,0.07582412969807906
3654.0,0.07499749231902242
3653.0,0.07412091069849924
3652.0,0.07340034609297241
3651.0,0.07237303755504598
3650.0,0.07150173187630915
3649.0,0.07170658776779781
3648.0,0.07273231918911849
3647.0,0.07334892291111106
3646.0,0.07360609973031784
3645.0,0.07406940213152868
3644.0,0.0748426728241014
3643.0,0.07546228222451012
3642.0,0.07577241873988227
3641.0,0.07582412969807906
3640.0,0.07582412969807906
3639.0,0.07592757008963713
3638.0,0.07587584681417514
3637.0,0.07566901529132153
3636.0,0.07551395626608493
3635.0,0.07551395626608493
3634.0,0.07551395626608493
3633.0,0.07515236702446293
3632.0,0.07458476291575367
3631.0,0.07427547306393745
3630.0,0.07432700607875953
3629.0,0.07453319930846214
3628.0,0.07479107858799638
3627.0,0.07468790850035045
3626.0,0.07479107858799638
3625.0,0.07556563645676939
3624.0,0.07618627890881036
3623.0,0.07608277688689435
3622.0,0.07556563645676939
3621.0,0.07520400420208784
3620.0,0.07499749231902242
3619.0,0.07494587968815725
3618.0,0.07479107858799638
3617.0,0.07453319930846214
3616.0,0.07448164182257
3615.0,0.07479107858799638
3614.0,0.07520400420208784
3613.0,0.07541061433058172
3612.0,0.07541061433058172
3611.0,0.07541061433058172
3610.0,0.0756173227980268
3609.0,0.0759792995259323
3608.0,0.07644514193245056
3607.0,0.07691148455760066
3606.0,0.07732643214144574
3605.0,0.07763790321520991
3604.0,0.0777417765670334
3603.0,0.07748213975538865
3602.0,0.07717078033335123
3601.0,0.07691148455760066
3600.0,0.07691148455760066
3599.0,0.07696333132921396
3598.0,0.07706704344478843
3597.0,0.07706704344478843
3596.0,0.07696333132921396
3595.0,0.07701518429111709
3594.0,0.07727454200674
3593.0,0.07758597585436577
3592.0,0.0777417765670334
3591.0,0.07753405470158659
3590.0,0.07717078033335123
3589.0,0.07670415934449615
3588.0,0.0763933569825408
3587.0,0.07649693305789551
3586.0,0.07685964397479927
3585.0,0.0772226580712021
3584.0,0.07763790321520991
3583.0,0.07805354577058976
3582.0,0.07820951434181311
3581.0,0.07820951434181311
3580.0,0.07826151631540124
3579.0,0.07836553894629472
3578.0,0.07852161962430992
3577.0,0.07872981449018734
3576.0,0.07883394936226118
3575.0,0.07893810920972144
3574.0,0.07904229404455076
3573.0,0.07899019850296574
3572.0,0.07883394936226118
3571.0,0.07846958649875768
3570.0,0.07784567476894111
3569.0,0.07696333132921396
3568.0,0.07608277688689435
3567.0,0.07546228222451012
3566.0,0.07541061433058172
3565.0,0.07572071393811841
3564.0,0.07623803917129979
3563.0,0.07680780957933253
3562.0,0.07732643214144574
3561.0,0.0777417765670334
3560.0,0.0781575185941421
3559.0,0.07857365898473456
3558.0,0.07899019850296574
3557.0,0.07925073872429178
3556.0,0.07930286553008004
3555.0,0.07914650387874067
3554.0,0.0788860261633193
3553.0,0.07867775641617802
3552.0,0.07867775641617802
3551.0,0.07883394936226118
3550.0,0.07899019850296574
3549.0,0.079094395835976
3548.0,0.07919861817434581
3547.0,0.07930286553008004
3546.0,0.07935499859321249
3545.0,0.07930286553008004
3544.0,0.07919861817434581
3543.0,0.07904229404455076
3542.0,0.07904229404455076
3541.0,0.07925073872429178
3540.0,0.07956359344924135
3539.0,0.07987667370927598
3538.0,0.08013774644446192
3537.0,0.08029446545087904
3536.0,0.08034671768963575
3535.0,0.08034671768963575
3534.0,0.08034671768963575
3533.0,0.08034671768963575
3532.0,0.08029446545087904
3531.0,0.08008551934056851
3530.0,0.07977228854307139
3529.0,0.0794592834975203
3528.0,0.07919861817434581
3527.0,0.07914650387874067
3526.0,0.07930286553008004
3525.0,0.07961575782164254
3524.0,0.07998108397108505
3523.0,0.08018997982980403
3522.0,0.08029446545087904
3521.0,0.08024221949810584
3520.0,0.08013774644446192
3519.0,0.08008551934056851
3518.0,0.08013774644446192
3517.0,0.08024221949810584
3516.0,0.08029446545087904
3515.0,0.08034671768963575
3514.0,0.08024221949810584
3513.0,0.08018997982980403
3512.0,0.08018997982980403
3511.0,0.08029446545087904
3510.0,0.08039897621588898
3509.0,0.08039897621588898
3508.0,0.08024221949810584
3507.0,0.07987667370927598
3506.0,0.07966792846041071
3505.0,0.07972010536705154
3504.0,0.08003329851661278
3503.0,0.08045124103115198
3502.0,0.08066036321258663
3501.0,0.08060807322614072
3500.0,0.08045124103115198
3499.0,0.08034671768963575
3498.0,0.08034671768963575
3497.0,0.08045124103115198
3496.0,0.0805035121369384
3495.0,0.0805035121369384
3494.0,0.0805035121369384
3493.0,0.08060807322614072
3492.0,0.08071265949561734
3491.0,0.08076496207674921
3490.0,0.08066036321258663
3489.0,0.08055578953476306
3488.0,0.08055578953476306
3487.0,0.08066036321258663
3486.0,0.08086958613938555
3485.0,0.08102656950704579
3484.0,0.08102656950704579
3483.0,0.08086958613938555
3482.0,0.08060807322614072
3481.0,0.08029446545087904
3480.0,0.08008551934056851
3479.0,0.07998108397108505
3478.0,0.08008551934056851
3477.0,0.08039897621588898
3476.0,0.08066036321258663
3475.0,0.08081727095749947
3474.0,0.08086958613938555
3473.0,0.08092190762392604
3472.0,0.0809742354126397
3471.0,0.08113125661901543
3470.0,0.0812359689720008
3469.0,0.08139308485501817
3468.0,0.08144546944972642
3467.0,0.08144546944972642
3466.0,0.08134070657817682
3465.0,0.0812883346176787
3464.0,0.08134070657817682
3463.0,0.08155025759884227
3462.0,0.08165507103772507
3461.0,0.08160266115629988
3460.0,0.08144546944972642
3459.0,0.08134070657817682
3458.0,0.08139308485501817
3457.0,0.08175990977858505
3456.0,0.08212704480115218
3455.0,0.08238947425013277
3454.0,0.0823369756726251
3453.0,0.08202211740709164
3452.0,0.08170748724464438
3451.0,0.08139308485501817
3450.0,0.08113125661901543
3449.0,0.08086958613938555
3448.0,0.08060807322614072
3447.0,0.08055578953476306
3446.0,0.08066036321258663
3445.0,0.08092190762392604
3444.0,0.08118360963962057
3443.0,0.08144546944972642
3442.0,0.08170748724464438
3441.0,0.08181233864107451
3440.0,0.08181233864107451
3439.0,0.08170748724464438
3438.0,0.08165507103772507
3437.0,0.08175990977858505
3436.0,0.08191721535781271
3435.0,0.08202211740709164
3434.0,0.08196966321511989
3433.0,0.08191721535781271
3432.0,0.08196966321511989
3431.0,0.08207457793525874
3430.0,0.08223199755224364
3429.0,0.08238947425013277
3428.0,0.08249449044745338
3427.0,0.08254700807033655
3426.0,0.08254700807033655
3425.0,0.08254700807033655
3424.0,0.08249449044745338
3423.0,0.08249449044745338
3422.0,0.08259953204474924
3421.0,0.08259953204474924
3420.0,0.08238947425013277
3419.0,0.08202211740709164
3418.0,0.08165507103772507
3417.0,0.08165507103772507
3416.0,0.08196966321511989
3415.0,0.0823369756726251
3414.0,0.08265206237222844
3413.0,0.08280969148843575
3412.0,0.08280969148843575
3411.0,0.08270459905431071
3410.0,0.08249449044745338
3409.0,0.0823369756726251
3408.0,0.08217951800630297
3407.0,0.08207457793525874
3406.0,0.08207457793525874
3405.0,0.08212704480115218
3404.0,0.08217951800630297
3403.0,0.08212704480115218
3402.0,0.08217951800630297
3401.0,0.0823369756726251
3400.0,0.08254700807033655
3399.0,0.08265206237222844
3398.0,0.08265206237222844
3397.0,0.08259953204474924
3396.0,0.08270459905431071
3395.0,0.08280969148843575
3394.0,0.08291480935943274
3393.0,0.08286224724355584
3392.0,0.08259953204474924
3391.0,0.0823369756726251
3390.0,0.08217951800630297
3389.0,0.08217951800630297
3388.0,0.08228448344050654
3387.0,0.08238947425013277
3386.0,0.08244197917456386
3385.0,0.08254700807033655
3384.0,0.08275714209253371
3383.0,0.08296737783760655
3382.0,0.08317771540408803
3381.0,0.0832303157168639
3380.0,0.0830725338870073
3379.0,0.08280969148843575
3378.0,0.08259953204474924
3377.0,0.08254700807033655
3376.0,0.08259953204474924
3375.0,0.08265206237222844
3374.0,0.08265206237222844
3373.0,0.08265206237222844
3372.0,0.08275714209253371
3371.0,0.08286224724355584
3370.0,0.08296737783760655
3369.0,0.08296737783760655
3368.0,0.08291480935943274
3367.0,0.08270459905431071
3366.0,0.08249449044745338
3365.0,0.0823369756726251
3364.0,0.0823369756726251
3363.0,0.08249449044745338
3362.0,0.08280969148843575
3361.0,0.0830725338870073
3360.0,0.08317771540408803
3359.0,0.08317771540408803
3358.0,0.08301995267961781
3357.0,0.08280969148843575
3356.0,0.08259953204474924
3355.0,0.08244197917456386
3354.0,0.08238947425013277
3353.0,0.08259953204474924
3352.0,0.08296737783760655
3351.0,0.08328292240118751
3350.0,0.0833881548906541
3349.0,0.08328292240118751
3348.0,0.08312512146131668
3347.0,0.0830725338870073
3346.0,0.08317771540408803
3345.0,0.08317771540408803
3344.0,0.08312512146131668
3343.0,0.08286224724355584
3342.0,0.08265206237222844
3341.0,0.08249449044745338
3340.0,0.08259953204474924
3339.0,0.08280969148843575
3338.0,0.08301995267961781
3337.0,0.08312512146131668
3336.0,0.08312512146131668
3335.0,0.08301995267961781
3334.0,0.08291480935943274
3333.0,0.08275714209253371
3332.0,0.08254700807033655
3331.0,0.0823369756726251
3330.0,0.08217951800630297
3329.0,0.08212704480115218
3328.0,0.08212704480115218
3327.0,0.08212704480115218
3326.0,0.08212704480115218
3325.0,0.08223199755224364
3324.0,0.0823369756726251
3323.0,0.08249449044745338
3322.0,0.08254700807033655
3321.0,0.08249449044745338
3320.0,0.08238947425013277
3319.0,0.08223199755224364
3318.0,0.08212704480115218
3317.0,0.08217951800630297
3316.0,0.08228448344050654
3315.0,0.08244197917456386
3314.0,0.08259953204474924
3313.0,0.08270459905431071
3312.0,0.08275714209253371
3311.0,0.08259953204474924
3310.0,0.08244197917456386
3309.0,0.0823369756726251
3308.0,0.08244197917456386
3307.0,0.08265206237222844
3306.0,0.08280969148843575
3305.0,0.08286224724355584
3304.0,0.08275714209253371
3303.0,0.08259953204474924
3302.0,0.08249449044745338
3301.0,0.08238947425013277
3300.0,0.08238947425013277
3299.0,0.08244197917456386
3298.0,0.08254700807033655
3297.0,0.08259953204474924
3296.0,0.08265206237222844
3295.0,0.08265206237222844
3294.0,0.08249449044745338
3293.0,0.0823369756726251
3292.0,0.08223199755224364
3291.0,0.0823369756726251
3290.0,0.08249449044745338
3289.0,0.08265206237222844
3288.0,0.08270459905431071
3287.0,0.08259953204474924
3286.0,0.08244197917456386
3285.0,0.0823369756726251
3284.0,0.0823369756726251
3283.0,0.08249449044745338
3282.0,0.08270459905431071
3281.0,0.08286224724355584
3280.0,0.08291480935943274
3279.0,0.08275714209253371
3278.0,0.08249449044745338
3277.0,0.08228448344050654
3276.0,0.08202211740709164
3275.0,0.08186477383364066
3274.0,0.08181233864107451
3273.0,0.08186477383364066
3272.0,0.08207457793525874
3271.0,0.08217951800630297
3270.0,0.08217951800630297
3269.0,0.08196966321511989
3268.0,0.08170748724464438
3267.0,0.08149786036382611
3266.0,0.08144546944972642
3265.0,0.08149786036382611
3264.0,0.08160266115629988
3263.0,0.08170748724464438
3262.0,0.08181233864107451
3261.0,0.08191721535781271
3260.0,0.08191721535781271
3259.0,0.08175990977858505
3258.0,0.08144546944972642
3257.0,0.08113125661901543
3256.0,0.0809742354126397
3255.0,0.08092190762392604
3254.0,0.08102656950704579
3253.0,0.08118360963962057
3252.0,0.08134070657817682
3251.0,0.08134070657817682
3250.0,0.08118360963962057
3249.0,0.0809742354126397
3248.0,0.08076496207674921
3247.0,0.08071265949561734
3246.0,0.08076496207674921
3245.0,0.08086958613938555
3244.0,0.0809742354126397
3243.0,0.0809742354126397
3242.0,0.08092190762392604
3241.0,0.08071265949561734
3240.0,0.08039897621588898
3239.0,0.08013774644446192
3238.0,0.08003329851661278
3237.0,0.08008551934056851
3236.0,0.08029446545087904
3235.0,0.08055578953476306
3234.0,0.08066036321258663
3233.0,0.08060807322614072
3232.0,0.08045124103115198
3231.0,0.08018997982980403
3230.0,0.08003329851661278
3229.0,0.07998108397108505
3228.0,0.08003329851661278
3227.0,0.08008551934056851
3226.0,0.08013774644446192
3225.0,0.08013774644446192
3224.0,0.08018997982980403
3223.0,0.08029446545087904
3222.0,0.08039897621588898
3221.0,0.08045124103115198
3220.0,0.08045124103115198
3219.0,0.0805035121369384
3218.0,0.0805035121369384
3217.0,0.0805035121369384
3216.0,0.08045124103115198
3215.0,0.08039897621588898
3214.0,0.08029446545087904
3213.0,0.08008551934056851
3212.0,0.07992887570247587
3211.0,0.07977228854307139
3210.0,0.07977228854307139
3209.0,0.07987667370927598
3208.0,0.07992887570247587
3207.0,0.07987667370927598
3206.0,0.07972010536705154
3205.0,0.07951143534170213
3204.0,0.0794071379151915
3203.0,0.0794592834975203
3202.0,0.07956359344924135
3201.0,0.07956359344924135
3200.0,0.0794071379151915
3199.0,0.07925073872429178
3198.0,0.07914650387874067
3197.0,0.07919861817434581
3196.0,0.0794071379151915
3195.0,0.07961575782164254
3194.0,0.07966792846041071
3193.0,0.07951143534170213
3192.0,0.07919861817434581
3191.0,0.07883394936226118
3190.0,0.07862570458152551
3189.0,0.07857365898473456
3188.0,0.07862570458152551
3187.0,0.07872981449018734
3186.0,0.07883394936226118
3185.0,0.0788860261633193
3184.0,0.07883394936226118
3183.0,0.07872981449018734
3182.0,0.07852161962430992
3181.0,0.07841755960658348
3180.0,0.07836553894629472
3179.0,0.07836553894629472
3178.0,0.07836553894629472
3177.0,0.07831352451639795
3176.0,0.07820951434181311
3175.0,0.07810552907089763
3174.0,0.07794959783282618
3173.0,0.07789763319239285
3172.0,0.07784567476894111
3171.0,0.07779372256098371
3170.0,0.0777417765670334
3169.0,0.07758597585436577
3168.0,0.07737832847680104
3167.0,0.07717078033335123
3166.0,0.07706704344478843
3165.0,0.07717078033335123
3164.0,0.07732643214144574
3163.0,0.07748213975538865
3162.0,0.07737832847680104
3161.0,0.0772226580712021
3160.0,0.07701518429111709
3159.0,0.07696333132921396
3158.0,0.07696333132921396
3157.0,0.07701518429111709
3156.0,0.07701518429111709
3155.0,0.07706704344478843
3154.0,0.07706704344478843
3153.0,0.07701518429111709
3152.0,0.07685964397479927
3151.0,0.07665234350217442
3150.0,0.07649693305789551
3149.0,0.07628980560343712
3148.0,0.07613452481449845
3147.0,0.0760310351245288
3146.0,0.07592757008963713
3145.0,0.0759792995259323
3144.0,0.07608277688689435
3143.0,0.07634157820669385
3142.0,0.07654873036034848
3141.0,0.07660053384128362
3140.0,0.07649693305789551
3139.0,0.07634157820669385
3138.0,0.07613452481449845
3137.0,0.0759792995259323
3136.0,0.07582412969807906
3135.0,0.07566901529132153
3134.0,0.07556563645676939
3133.0,0.07546228222451012
3132.0,0.07546228222451012
3131.0,0.07556563645676939
3130.0,0.07566901529132153
3129.0,0.07566901529132153
3128.0,0.07551395626608493
3127.0,0.07520400420208784
3126.0,0.07499749231902242
3125.0,0.07479107858799638
3124.0,0.07463633264589853
3123.0,0.07437854520917098
3122.0,0.07417242537525759
3121.0,0.07406940213152868
3120.0,0.07412091069849924
3119.0,0.07412091069849924
3118.0,0.07412091069849924
3117.0,0.07406940213152868
3116.0,0.07396640332115534
3115.0,0.07386342893255127
3114.0,0.07376047895413773
3113.0,0.07370901311513656
3112.0,0.07365755337434488
3111.0,0.07365755337434488
3110.0,0.07360609973031784
3109.0,0.0734517753643813
3108.0,0.07319468988839395
3107.0,0.07288638806623937
3106.0,0.07268097504034388
3105.0,0.07268097504034388
3104.0,0.07268097504034388
3103.0,0.07262963696097646
3102.0,0.07237303755504598
3101.0,0.07206531825882068
3100.0,0.07191154033502922
3099.0,0.07186029312488018
3098.0,0.0720140529005715
3097.0,0.07227044022834539
3096.0,0.07247565912497134
3095.0,0.07252697900472405
3094.0,0.07237303755504598
3093.0,0.07206531825882068
3092.0,0.07186029312488018
3091.0,0.0716553647351379
3090.0,0.07160414774328627
3089.0,0.07160414774328627
3088.0,0.0716553647351379
3087.0,0.07175781684269089
3086.0,0.07186029312488018
3085.0,0.07186029312488018
3084.0,0.07175781684269089
3083.0,0.07155293679081787
3082.0,0.07129697256940304
3081.0,0.07114346641808922
3080.0,0.0710411591191702
3079.0,0.07093887591523451
3078.0,0.07083661679493547
3077.0,0.07083661679493547
3076.0,0.07088774334533943
3075.0,0.07088774334533943
3074.0,0.07083661679493547
3073.0,0.07073438174693436
3072.0,0.07042782092345012
3071.0,0.07001940948448526
3070.0,0.06956040523329987
3069.0,0.0692037370166998
3068.0,0.06894915322260897
3067.0,0.06879647454924775
3066.0,0.06869471857832687
3065.0,0.06869471857832687
3064.0,0.06869471857832687
3063.0,0.06864384953207203
3062.0,0.06859298644342648
3061.0,0.06844043290919477
3060.0,0.06828793294324442
3059.0,0.0680846829187538
3058.0,0.06788152797087754
3057.0,0.06772922410050963
3056.0,0.0676277178520861
3055.0,0.0675769736232612
3054.0,0.06742477650170953
3053.0,0.06727263269847072
3052.0,0.06712054217620067
3051.0,0.06696850489759454
3050.0,0.06676587128519196
3049.0,0.06661395809694559
3048.0,0.06641148980334699
3047.0,0.06620911585658007
3046.0,0.06605739725873905
3045.0,0.0659562809644747
3044.0,0.06590573164451952
3043.0,0.06580465065211571
3042.0,0.06565307326174441
3041.0,0.0655520510510299
3040.0,0.06550154875643233
3039.0,0.06545105233385295
3038.0,0.06519865825346338
3037.0,0.06494641076893504
3036.0,0.06464390705442691
3035.0,0.06434161389936577
3034.0,0.06403953101083348
3033.0,0.0636873663378068
3032.0,0.06333548699992453
3031.0,0.06298389253518577
3030.0,0.0627329277885873
3029.0,0.06248210798265341
3028.0,0.06218131530164395
3027.0,0.061880730805688344
3026.0,0.06163040254819374
3025.0,0.06148027482350815
3024.0,0.061380218497318895
3023.0,0.06123017721688262
3022.0,0.06103020277710969
3021.0,0.06078036414518184
3020.0,0.06048074738138154
3019.0,0.060081579630943294
3018.0,0.05963295401433477
3017.0,0.05908526241971446
3016.0,0.058538260652670315
3015.0,0.05809122563440061
3014.0,0.057743849580535134
3013.0,0.057396751157843484
3012.0,0.057000406633959555
3011.0,0.05660442349104544
3010.0,0.05620880107069848
3009.0,0.055912320584565744
3008.0,0.05566540802921782
3007.0,0.05541863577307371
3006.0,0.05507339001378431
3005.0,0.05458065739693696
3004.0,0.05403929642243144
3003.0,0.0534986094304124
3002.0,0.05295859474477971
3001.0,0.0525172634430815
3000.0,0.052027420754219955
2999.0,0.0515870342213991
2998.0,0.05114709380028648
2997.0,0.05065879322950262
2996.0,0.050171041064686284
2995.0,0.04958646063061889
2994.0,0.04905128560059957
2993.0,0.048565334467987054
2992.0,0.04807992647970649
2991.0,0.04754660357696672
2990.0,0.04686877481655505
2989.0,0.04624030826677128
2988.0,0.04585401117045196
2987.0,0.04570923829887308
2986.0,0.045660991397539874
2985.0,0.045564513671517703
2984.0,0.0451788169482068
2983.0,0.04455278942230456
2982.0,0.04387961360698034
2981.0,0.043303435105349175
2980.0,0.04282386959515394
2979.0,0.04244059810252043
2978.0,0.04200982159316968
2977.0,0.04153168163305643
2976.0,0.040958607678906356
2975.0,0.04043395336207234
2974.0,0.040005161671583744
2973.0,0.039767126871487646
2972.0,0.03952922246570112
2971.0,0.03924390909822728
2970.0,0.03886378261277468
2969.0,0.03848398855105106
2968.0,0.03810452633214956
2967.0,0.03786753070176463
2966.0,0.03772539537668518
2965.0,0.03763066432997886
2964.0,0.03753595394209874
2963.0,0.037299268295658994
2962.0,0.0371100126082089
2961.0,0.03701541568300293
2960.0,0.0369681249461018
2959.0,0.0369681249461018
2958.0,0.0369681249461018
2957.0,0.03682628362474838
2956.0,0.03663723389626394
2955.0,0.03635381351515665
2954.0,0.0360705779734416
2953.0,0.035740369803151095
2952.0,0.035363296211498474
2951.0,0.03503362516890207
2950.0,0.03479829897408804
2949.0,0.03475124903287918
2948.0,0.0349394793888016
2947.0,0.03541041251009669
2946.0,0.036117771071222604
2945.0,0.0371100126082089
2944.0,0.03829421599749461
2943.0,0.03986232513620536
2942.0,0.04196198390166317
2941.0,0.04464904263234004
2940.0,0.047934409814949674
2939.0,0.05153812993871654
2938.0,0.05536929814372171
2937.0,0.05948351506743288
2936.0,0.06403953101083348
2935.0,0.06905096883247697
2934.0,0.07453319930846214
2933.0,0.08045124103115198
2932.0,0.08692825969074924
2931.0,0.09393445524476318
2930.0,0.10160395406999112
2929.0,0.11002636159600376
2928.0,0.11924355548978971
2927.0,0.1294790499872358
2926.0,0.1409217752530305
2925.0,0.1540961611012175
2924.0,0.16928305056310244
2923.0,0.1866191932661443
2922.0,0.206349282292827
2921.0,0.22848601002033342
2920.0,0.25359935550843904
2919.0,0.2819137052169085
2918.0,0.31354248953088826
2917.0,0.34736693191688994
2916.0,0.38080228420705264
2915.0,0.4107207787640328
2914.0,0.43309134477319655
2913.0,0.44538971477383593
2912.0,0.44696698379756006
2911.0,0.4393761254500701
2910.0,0.4258529358492773
2909.0,0.4094925379914167
2908.0,0.3928667956084333
2907.0,0.3774751375964318
2906.0,0.36391348489692743
2905.0,0.35193287055106537
2904.0,0.34141628459293716
2903.0,0.33198702835816785
2902.0,0.3237637832366884
2901.0,0.31650268232018863
2900.0,0.3102473038608433
2899.0,0.3048687022959742
2898.0,0.30024896831048564
2897.0,0.29593532059143257
2896.0,0.29191918953176854
2895.0,0.28793985753892537
2894.0,0.2841637248350062
2893.0,0.28050298338941837
2892.0,0.2767906895948886
2891.0,0.273191317475036
2890.0,0.2696215314123571
2889.0,0.2659205927194057
2888.0,0.2619332852225307
2887.0,0.2576677176428517
2886.0,0.2530545903848953
2885.0,0.24841299491768987
2884.0,0.24366823267894233
2883.0,0.2389747482886273
2882.0,0.2341080235699846
2881.0,0.2290743853610009
2880.0,0.22380748525292793
2879.0,0.2182446253475312
2878.0,0.21246868387276563
2877.0,0.20641913263184408
2876.0,0.20010831534313467
2875.0,0.19382002601611292
2874.0,0.18762148884580565
2873.0,0.1815101777957866
2872.0,0.1755487299633871
2871.0,0.16960382351653092
2870.0,0.16380251922107458
2869.0,0.15826522102525642
2868.0,0.15304467498017615
2867.0,0.14800825203784274
2866.0,0.14321071124668383
2865.0,0.13864483980673992
2864.0,0.1345998818206986
2863.0,0.1312967977214634
2862.0,0.1290696416513042
2861.0,0.1280769681176266
2860.0,0.12836869546244634
2859.0,0.13000599987825812
2858.0,0.13329924395750092
2857.0,0.13894375542312654
2856.0,0.14745901423020125
2855.0,0.159517512786558
2854.0,0.17567887514922864
2853.0,0.19667947642124606
2852.0,0.22322619758789308
2851.0,0.2553159367231137
2850.0,0.29191918953176854
2849.0,0.33049716589565703
2848.0,0.36683464631609675
2847.0,0.39599006758776967
2846.0,0.41375036113395813
2845.0,0.4190750243243806
2844.0,0.4144264813772689
2843.0,0.4036228560024009
2842.0,0.3898723869240046
2841.0,0.3749963989851366
2840.0,0.3601152580836957
2839.0,0.3458234581220394
2838.0,0.33236029394358924
2837.0,0.32002730572258153
2836.0,0.30891850787703157
2835.0,0.2989503692708604
2834.0,0.290051983489239
2833.0,0.2819968317329824
2832.0,0.2745784499257413
2831.0,0.26768667252875744
2830.0,0.2615365605380475
2829.0,0.25578527518583405
2828.0,0.25049557612385787
2827.0,0.24572813131654092
2826.0,0.241315150117559
2825.0,0.23732143627256375
2824.0,0.23358715288760057
2823.0,0.2301059641878309
2822.0,0.2267988576436557
2821.0,0.22366209037982476
2820.0,0.22076436832413648
2819.0,0.21817284706757212
2818.0,0.21588218353707678
2817.0,0.2137456042102197
2816.0,0.21161948468043668
2815.0,0.20943337485392344
2814.0,0.20725821416525125
2813.0,0.20509389348319607
2812.0,0.20294030530002893
2811.0,0.2010042655561186
2810.0,0.19935164463601196
2809.0,0.19797924822802404
2808.0,0.196747788569543
2807.0,0.19545169161194398
2806.0,0.19409154492580294
2805.0,0.19253262431572216
2804.0,0.1910467008440888
2803.0,0.18956584407732735
2802.0,0.18822397839709626
2801.0,0.18701983396051958
2800.0,0.185819018959813
2799.0,0.1847544080834369
2798.0,0.18369240056806024
2797.0,0.18269912160667867
2796.0,0.18177410638604452
2795.0,0.18085105719286587
2794.0,0.18006143064460467
2793.0,0.17920761891179637
2792.0,0.17835548245778288
2791.0,0.17750501472124913
2790.0,0.17672144304832926
2789.0,0.17593928258134706
2788.0,0.17509352869788763
2787.0,0.17418455501479646
2786.0,0.17314805217935603
2785.0,0.1721140172101443
2784.0,0.17108243838331405
2783.0,0.17031035910102887
2782.0,0.16966800654803826
2781.0,0.16902660267734948
2780.0,0.16838614469090118
2779.0,0.16768273007773837
2778.0,0.16704424939540163
2777.0,0.16647041824135633
2776.0,0.1657700971483227
2775.0,0.16507090353942422
2774.0,0.16424603248061653
2773.0,0.16348600110932865
2772.0,0.1627904721987936
2771.0,0.16222223044626682
2770.0,0.16165473122400909
2769.0,0.16115090926274478
2768.0,0.16064767110457878
2767.0,0.16020781555467067
2766.0,0.15976840504189105
2765.0,0.15945481236316117
2764.0,0.15895353459069628
2763.0,0.15845283474344662
2762.0,0.15795271149036205
2761.0,0.15751557558842988
2760.0,0.15714123755470633
2759.0,0.1567049172634929
2758.0,0.15633127702085625
2757.0,0.15589576930248672
2756.0,0.15552282425431851
2755.0,0.15521228117215347
2754.0,0.15490195998574308
2753.0,0.15465386258859137
2752.0,0.15446788250642451
2751.0,0.1542200328881107
2750.0,0.1538485234711846
2749.0,0.1534154971019539
2748.0,0.15292113793428452
2747.0,0.1524890347967518
2746.0,0.15211900255462485
2745.0,0.15181088300860135
2744.0,0.1515029819096334
2743.0,0.15107228677292173
2742.0,0.1507034591652734
2741.0,0.1503963419175529
2740.0,0.1500894416985039
2739.0,0.14984407757790774
2738.0,0.1495988520028415
2737.0,0.1493537648169334
2736.0,0.1491088158640761
2735.0,0.1489251947711132
2734.0,0.14874165128092476
2733.0,0.14855818532794496
2732.0,0.14843591773651155
2731.0,0.1482525808667361
2730.0,0.1478861391502384
2729.0,0.1475810070629986
2728.0,0.1472760892087941
2727.0,0.14703230897118158
2726.0,0.146788665496683
2725.0,0.14648430324307138
2724.0,0.14624096692523136
2723.0,0.1461193498754576
2722.0,0.1461193498754576
2721.0,0.14618015414323682
2720.0,0.14605855411951008
2719.0,0.14581545616639335
2718.0,0.14551177495556966
2717.0,0.1450869776921444
2716.0,0.14472319616990825
2715.0,0.14448084433219988
2714.0,0.14442027749828212
2713.0,0.14442027749828212
2712.0,0.14429916916456276
2711.0,0.1441175699639643
2710.0,0.1438755557576996
2709.0,0.14363367634075197
2708.0,0.14339193156306385
2707.0,0.14315032127482774
2706.0,0.14290884532648618
2705.0,0.1427278264359586
2704.0,0.14266750356873148
2703.0,0.14266750356873148
2702.0,0.14266750356873148
2701.0,0.14266750356873148
2700.0,0.14248658522331015
2699.0,0.14224547794055775
2698.0,0.1419442819496357
2697.0,0.14164329470222659
2696.0,0.1413425159091921
2695.0,0.14116214857141451
2694.0,0.1410419452819942
2693.0,0.1410419452819942
2692.0,0.1409818561111058
2691.0,0.14086170270546927
2690.0,0.14068153490288382
2689.0,0.1405014418122239
2688.0,0.14038142122781938
2687.0,0.14014147951900724
2686.0,0.13984173868172167
2685.0,0.13948232253825377
2684.0,0.13918303613546223
2683.0,0.13894375542312654
2682.0,0.1388839558386048
2681.0,0.13894375542312654
2680.0,0.13900356324280416
2679.0,0.1390633792999063
2678.0,0.13900356324280416
2677.0,0.1388839558386048
2676.0,0.13864483980673992
2675.0,0.1384058553561347
2674.0,0.13816700234205515
2673.0,0.1381073096085541
2672.0,0.13816700234205515
2671.0,0.13828641242856565
2670.0,0.13846558914096208
2669.0,0.13858508136400327
2668.0,0.13864483980673992
2667.0,0.13858508136400327
2666.0,0.1384058553561347
2665.0,0.13828641242856565
2664.0,0.13816700234205515
2663.0,0.1381073096085541
2662.0,0.1381073096085541
2661.0,0.1381073096085541
2660.0,0.13816700234205515
2659.0,0.13822670328130693
2658.0,0.13816700234205515
2657.0,0.1381073096085541
2656.0,0.1381073096085541
2655.0,0.1381073096085541
2654.0,0.1381073096085541
2653.0,0.1381073096085541
2652.0,0.1381073096085541
2651.0,0.13792828062000573
2650.0,0.13763006287711765
2649.0,0.13739163603505822
2648.0,0.1373320497714121
2647.0,0.1373320497714121
2646.0,0.1373320497714121
2645.0,0.13721290176465573
2644.0,0.1370342410222376
2643.0,0.1369151746796402
2642.0,0.13697470377052956
2641.0,0.13709378643700187
2640.0,0.13727247168202528
2639.0,0.13739163603505822
2638.0,0.1373320497714121
2637.0,0.13721290176465573
2636.0,0.13715334001706125
2635.0,0.13715334001706125
2634.0,0.13721290176465573
2633.0,0.13727247168202528
2632.0,0.13739163603505822
2631.0,0.1375704438939911
2630.0,0.13774932540207496
2629.0,0.13780896894840278
2628.0,0.13768969004572962
2627.0,0.1374512304752069
2626.0,0.13721290176465573
2625.0,0.13709378643700187
2624.0,0.13697470377052956
2623.0,0.13685565374733244
2622.0,0.1367961409713705
2621.0,0.1367961409713705
2620.0,0.13685565374733244
2619.0,0.1367961409713705
2618.0,0.13661765155921235
2617.0,0.13643923547375736
2616.0,0.13620146131949973
2615.0,0.13596381727422502
2614.0,0.13578566953867033
2613.0,0.13566694496660703
2612.0,0.13560759484941132
2611.0,0.13554825284181704
2610.0,0.13542959314656988
2609.0,0.13537027545448765
2608.0,0.13537027545448765
2607.0,0.13531096586314884
2606.0,0.13519237097385295
2605.0,0.1349552783069008
2604.0,0.134659094375416
2603.0,0.1345998818206986
2602.0,0.134659094375416
2601.0,0.13483678049391368
2600.0,0.1349552783069008
2599.0,0.13489602535887202
2598.0,0.13477754370982087
2597.0,0.13471831500438958
2596.0,0.13471831500438958
2595.0,0.13471831500438958
2594.0,0.13471831500438958
2593.0,0.1345998818206986
2592.0,0.13442229258007088
2591.0,0.13418561983203192
2590.0,0.13406733180681396
2589.0,0.13406733180681396
2588.0,0.13406733180681396
2587.0,0.1340081998737246
2586.0,0.13383085236622927
2585.0,0.13365357725039817
2584.0,0.13353543402825974
2583.0,0.13353543402825974
2582.0,0.13359450162194508
2581.0,0.13365357725039817
2580.0,0.13371266091580503
2579.0,0.13371266091580503
2578.0,0.13359450162194508
2577.0,0.13353543402825974
2576.0,0.13341732293645103
2575.0,0.13318119707395182
2574.0,0.13288622016802298
2573.0,0.13265038281120756
2572.0,0.1325325121409484
2571.0,0.13247358880025661
2570.0,0.13247358880025661
2569.0,0.13247358880025661
2568.0,0.13259144347720886
2567.0,0.13265038281120756
2566.0,0.13270933014511588
2565.0,0.13282724882135022
2564.0,0.13288622016802298
2563.0,0.13294519952329842
2562.0,0.13294519952329842
2561.0,0.13282724882135022
2560.0,0.13270933014511588
2559.0,0.1325325121409484
2558.0,0.13241467345296387
2557.0,0.13241467345296387
2556.0,0.13241467345296387
2555.0,0.13235576609690147
2554.0,0.13235576609690147
2553.0,0.13235576609690147
2552.0,0.13241467345296387
2551.0,0.13247358880025661
2550.0,0.13247358880025661
2549.0,0.13247358880025661
2548.0,0.1325325121409484
2547.0,0.13247358880025661
2546.0,0.13235576609690147
2545.0,0.13212021654162043
2544.0,0.13194363817695853
2543.0,0.13170831198214428
2542.0,0.13159069668503998
2541.0,0.13153190097901324
2540.0,0.13159069668503998
2539.0,0.13159069668503998
2538.0,0.13159069668503998
2537.0,0.13153190097901324
2536.0,0.1314731132317961
2535.0,0.1314731132317961
2534.0,0.13141433344123432
2533.0,0.1312967977214634
2532.0,0.1311205537629121
2531.0,0.13106182166708868
2530.0,0.1311205537629121
2529.0,0.1312967977214634
2528.0,0.1314731132317961
2527.0,0.13153190097901324
2526.0,0.13153190097901324
2525.0,0.1314731132317961
2524.0,0.13135556160517425
2523.0,0.1311792938024825
2522.0,0.13100309751286465
2521.0,0.1308269726783169
2520.0,0.13070959579060148
2519.0,0.1306509192409071
2518.0,0.13070959579060148
2517.0,0.1308856730206247
2516.0,0.13106182166708868
2515.0,0.1311792938024825
2514.0,0.13123804178794973
2513.0,0.13123804178794973
2512.0,0.1311792938024825
2511.0,0.13106182166708868
2510.0,0.13106182166708868
2509.0,0.1311205537629121
2508.0,0.1311792938024825
2507.0,0.1311205537629121
2506.0,0.13094438129809216
2505.0,0.13076828026902376
2504.0,0.1305922506177981
2503.0,0.13053358991913355
2502.0,0.1305922506177981
2501.0,0.1306509192409071
2500.0,0.13076828026902376
2499.0,0.1308269726783169
2498.0,0.13070959579060148
2497.0,0.13053358991913355
2496.0,0.13041629228657614
2495.0,0.13035765534840538
2494.0,0.13035765534840538
2493.0,0.13035765534840538
2492.0,0.13041629228657614
2491.0,0.1304749371427727
2490.0,0.1304749371427727
2489.0,0.1304749371427727
2488.0,0.1304749371427727
2487.0,0.1304749371427727
2486.0,0.1304749371427727
2485.0,0.13041629228657614
2484.0,0.13035765534840538
2483.0,0.1302990263261221
2482.0,0.1302990263261221
2481.0,0.13035765534840538
2480.0,0.1304749371427727
2479.0,0.1305922506177981
2478.0,0.13053358991913355
2477.0,0.13041629228657614
2476.0,0.13035765534840538
2475.0,0.1302990263261221
2474.0,0.1302990263261221
2473.0,0.13035765534840538
2472.0,0.1302990263261221
2471.0,0.13024040521758962
2470.0,0.13012318673323353
2469.0,0.13024040521758962
2468.0,0.13041629228657614
2467.0,0.1306509192409071
2466.0,0.13070959579060148
2465.0,0.1305922506177981
2464.0,0.1304749371427727
2463.0,0.13035765534840538
2462.0,0.13035765534840538
2461.0,0.13035765534840538
2460.0,0.13035765534840538
2459.0,0.13018179202067182
2458.0,0.13000599987825812
2457.0,0.12983027886355947
2456.0,0.12983027886355947
2455.0,0.13000599987825812
2454.0,0.13024040521758962
2453.0,0.13041629228657614
2452.0,0.1304749371427727
2451.0,0.1304749371427727
2450.0,0.13041629228657614
2449.0,0.1302990263261221
2448.0,0.13018179202067182
2447.0,0.13012318673323353
2446.0,0.13012318673323353
2445.0,0.13018179202067182
2444.0,0.13024040521758962
2443.0,0.1302990263261221
2442.0,0.13035765534840538
2441.0,0.13035765534840538
2440.0,0.13035765534840538
2439.0,0.13041629228657614
2438.0,0.13041629228657614
2437.0,0.1302990263261221
2436.0,0.13024040521758962
2435.0,0.13024040521758962
2434.0,0.1302990263261221
2433.0,0.1304749371427727
2432.0,0.13076828026902376
2431.0,0.13094438129809216
2430.0,0.13106182166708868
2429.0,0.13100309751286465
2428.0,0.13094438129809216
2427.0,0.1308269726783169
2426.0,0.13076828026902376
2425.0,0.13070959579060148
2424.0,0.1305922506177981
2423.0,0.1304749371427727
2422.0,0.13041629228657614
2421.0,0.1304749371427727
2420.0,0.1305922506177981
2419.0,0.13076828026902376
2418.0,0.1308856730206247
2417.0,0.1308856730206247
2416.0,0.1308856730206247
2415.0,0.1308269726783169
2414.0,0.1308269726783169
2413.0,0.13076828026902376
2412.0,0.13070959579060148
2411.0,0.1306509192409071
2410.0,0.13076828026902376
2409.0,0.13094438129809216
2408.0,0.13106182166708868
2407.0,0.1311205537629121
2406.0,0.13106182166708868
2405.0,0.13094438129809216
2404.0,0.1308269726783169
2403.0,0.1308269726783169
2402.0,0.1308269726783169
2401.0,0.13076828026902376
2400.0,0.13070959579060148
2399.0,0.1306509192409071
2398.0,0.1305922506177981
2397.0,0.1305922506177981
2396.0,0.1306509192409071
2395.0,0.1306509192409071
2394.0,0.1306509192409071
2393.0,0.13070959579060148
2392.0,0.13076828026902376
2391.0,0.1308856730206247
2390.0,0.13100309751286465
2389.0,0.13094438129809216
2388.0,0.13076828026902376
2387.0,0.13041629228657614
2386.0,0.13000599987825812
2385.0,0.1295960947209729
2384.0,0.1290696416513042
2383.0,0.1286022185125162
2382.0,0.12819363554127072
2381.0,0.12790202572577325
2380.0,0.1276688787697493
2379.0,0.12743585690934855
2378.0,0.12726117252733116
2377.0,0.12726117252733116
2376.0,0.12749410065407507
2375.0,0.1276688787697493
2374.0,0.12778543660241448
2373.0,0.12784372725170723
2372.0,0.12784372725170723
2371.0,0.1277271537757949
2370.0,0.12749410065407507
2369.0,0.12726117252733116
2368.0,0.12731939284807026
2367.0,0.12720296001040166
2366.0,0.12644690648638135
2365.0,0.12517042212027807
2364.0,0.12424442074194553
2363.0,0.12436006299583169
2362.0,0.12540223129680017
2361.0,0.12667939818460128
2360.0,0.1276688787697493
2359.0,0.1280186461566306
2358.0,0.1277271537757949
2357.0,0.12761061158217912
2356.0,0.12842706445412122
2355.0,0.12994741830645506
2354.0,0.13159069668503998
2353.0,0.13294519952329842
2352.0,0.13383085236622927
2351.0,0.1341264717921853
2350.0,0.13383085236622927
2349.0,0.13294519952329842
2348.0,0.13100309751286465
2347.0,0.12790202572577325
2346.0,0.12441789567211425
2345.0,0.12222565000860186
2344.0,0.12234075588839133
2343.0,0.12401322857151209
2342.0,0.12598229613781387
2341.0,0.12761061158217912
2340.0,0.1290696416513042
2339.0,0.13012318673323353
2338.0,0.13070959579060148
2337.0,0.13094438129809216
2336.0,0.1308269726783169
2335.0,0.13070959579060148
2334.0,0.13094438129809216
2333.0,0.13176713157753506
2332.0,0.13270933014511588
2331.0,0.13306318226836056
2330.0,0.13300418688935212
2329.0,0.13318119707395182
2328.0,0.13371266091580503
2327.0,0.13424477592854833
2326.0,0.13436311230037123
2325.0,0.13436311230037123
2324.0,0.13448148092522594
2323.0,0.134659094375416
2322.0,0.13483678049391368
2321.0,0.13477754370982087
2320.0,0.13471831500438958
2319.0,0.13477754370982087
2318.0,0.13501453934020602
2317.0,0.13519237097385295
2316.0,0.1350738084609946
2315.0,0.1345998818206986
2314.0,0.13394907599072514
2313.0,0.13347637446715632
2312.0,0.13318119707395182
2311.0,0.13306318226836056
2310.0,0.13300418688935212
2309.0,0.1331221856625011
2308.0,0.13324021650489182
2307.0,0.13341732293645103
2306.0,0.13341732293645103
2305.0,0.13335827943396006
2304.0,0.13324021650489182
2303.0,0.13318119707395182
2302.0,0.13306318226836056
2301.0,0.13288622016802298
2300.0,0.13265038281120756
2299.0,0.13241467345296387
2298.0,0.13229686672990226
2297.0,0.13241467345296387
2296.0,0.13270933014511588
2295.0,0.13300418688935212
2294.0,0.13318119707395182
2293.0,0.13318119707395182
2292.0,0.13306318226836056
2291.0,0.13288622016802298
2290.0,0.13276828548110586
2289.0,0.13270933014511588
2288.0,0.13270933014511588
2287.0,0.13282724882135022
2286.0,0.13306318226836056
2285.0,0.13324021650489182
2284.0,0.13335827943396006
2283.0,0.13324021650489182
2282.0,0.13306318226836056
2281.0,0.13282724882135022
2280.0,0.13265038281120756
2279.0,0.13259144347720886
2278.0,0.13270933014511588
2277.0,0.13288622016802298
2276.0,0.13318119707395182
2275.0,0.13329924395750092
2274.0,0.13324021650489182
2273.0,0.13300418688935212
2272.0,0.13288622016802298
2271.0,0.13288622016802298
2270.0,0.13288622016802298
2269.0,0.13288622016802298
2268.0,0.13288622016802298
2267.0,0.13300418688935212
2266.0,0.13318119707395182
2265.0,0.13324021650489182
2264.0,0.13324021650489182
2263.0,0.13318119707395182
2262.0,0.1331221856625011
2261.0,0.13306318226836056
2260.0,0.13318119707395182
2259.0,0.13324021650489182
2258.0,0.13335827943396006
2257.0,0.13341732293645103
2256.0,0.13347637446715632
2255.0,0.13353543402825974
2254.0,0.13353543402825974
2253.0,0.13353543402825974
2252.0,0.13353543402825974
2251.0,0.13353543402825974
2250.0,0.13347637446715632
2249.0,0.13335827943396006
2248.0,0.13324021650489182
2247.0,0.13318119707395182
2246.0,0.13324021650489182
2245.0,0.13341732293645103
2244.0,0.13365357725039817
2243.0,0.13371266091580503
2242.0,0.13371266091580503
2241.0,0.13371266091580503
2240.0,0.1337717526203528
2239.0,0.13388996015562338
2238.0,0.13394907599072514
2237.0,0.1340081998737246
2236.0,0.1340081998737246
2235.0,0.1340081998737246
2234.0,0.13394907599072514
2233.0,0.13388996015562338
2232.0,0.13383085236622927
2231.0,0.1337717526203528
2230.0,0.1337717526203528
2229.0,0.1337717526203528
2228.0,0.13371266091580503
2227.0,0.1337717526203528
2226.0,0.13383085236622927
2225.0,0.13388996015562338
2224.0,0.13388996015562338
2223.0,0.13388996015562338
2222.0,0.13388996015562338
2221.0,0.13383085236622927
2220.0,0.13383085236622927
2219.0,0.13383085236622927
2218.0,0.13388996015562338
2217.0,0.13394907599072514
2216.0,0.1340081998737246
2215.0,0.1340081998737246
2214.0,0.13388996015562338
2213.0,0.13388996015562338
2212.0,0.13394907599072514
2211.0,0.1341264717921853
2210.0,0.13430394008392943
2209.0,0.13436311230037123
2208.0,0.13448148092522594
2207.0,0.13454067733803532
2206.0,0.13454067733803532
2205.0,0.13448148092522594
2204.0,0.13442229258007088
2203.0,0.13436311230037123
2202.0,0.13442229258007088
2201.0,0.13454067733803532
2200.0,0.1345998818206986
2199.0,0.13454067733803532
2198.0,0.13448148092522594
2197.0,0.13436311230037123
2196.0,0.13430394008392943
2195.0,0.13436311230037123
2194.0,0.13436311230037123
2193.0,0.13436311230037123
2192.0,0.13436311230037123
2191.0,0.13442229258007088
2190.0,0.13454067733803532
2189.0,0.1345998818206986
2188.0,0.1345998818206986
2187.0,0.13454067733803532
2186.0,0.13448148092522594
2185.0,0.1345998818206986
2184.0,0.13471831500438958
2183.0,0.13483678049391368
2182.0,0.13477754370982087
2181.0,0.13477754370982087
2180.0,0.13483678049391368
2179.0,0.13489602535887202
2178.0,0.13501453934020602
2177.0,0.13501453934020602
2176.0,0.1349552783069008
2175.0,0.13489602535887202
2174.0,0.13477754370982087
2173.0,0.13471831500438958
2172.0,0.13471831500438958
2171.0,0.13477754370982087
2170.0,0.13489602535887202
2169.0,0.13489602535887202
2168.0,0.1349552783069008
2167.0,0.1350738084609946
2166.0,0.13519237097385295
2165.0,0.1352516643703412
2164.0,0.13537027545448765
2163.0,0.13531096586314884
2162.0,0.1352516643703412
2161.0,0.13513308567147386
2160.0,0.1350738084609946
2159.0,0.13519237097385295
2158.0,0.13537027545448765
2157.0,0.13554825284181704
2156.0,0.13566694496660703
2155.0,0.13572630319562085
2154.0,0.13578566953867033
2153.0,0.13590442657575252
2152.0,0.1360232160956132
2151.0,0.1360826230421397
2150.0,0.1360232160956132
2149.0,0.13584504399797437
2148.0,0.13566694496660703
2147.0,0.13560759484941132
2146.0,0.13566694496660703
2145.0,0.13584504399797437
2144.0,0.1360232160956132
2143.0,0.136142038116027
2142.0,0.13620146131949973
2141.0,0.13620146131949973
2140.0,0.13626089265478303
2139.0,0.13626089265478303
2138.0,0.13626089265478303
2137.0,0.13632033212410222
2136.0,0.13626089265478303
2135.0,0.13626089265478303
2134.0,0.13626089265478303
2133.0,0.13632033212410222
2132.0,0.1363797797296844
2131.0,0.1363797797296844
2130.0,0.13626089265478303
2129.0,0.136142038116027
2128.0,0.136142038116027
2127.0,0.13620146131949973
2126.0,0.13632033212410222
2125.0,0.1363797797296844
2124.0,0.1363797797296844
2123.0,0.1363797797296844
2122.0,0.13632033212410222
2121.0,0.13626089265478303
2120.0,0.13626089265478303
2119.0,0.13632033212410222
2118.0,0.13632033212410222
2117.0,0.13632033212410222
2116.0,0.13632033212410222
2115.0,0.13626089265478303
2114.0,0.13620146131949973
2113.0,0.13626089265478303
2112.0,0.13626089265478303
2111.0,0.13632033212410222
2110.0,0.1363797797296844
2109.0,0.13649869935854997
2108.0,0.13661765155921235
2107.0,0.1366771398795441
2106.0,0.13661765155921235
2105.0,0.13661765155921235
2104.0,0.1366771398795441
2103.0,0.13673663634951905
2102.0,0.13673663634951905
2101.0,0.1367961409713705
2100.0,0.13685565374733244
2099.0,0.1369151746796402
2098.0,0.13697470377052956
2097.0,0.13709378643700187
2096.0,0.13727247168202528
2095.0,0.1373320497714121
2094.0,0.13727247168202528
2093.0,0.13721290176465573
2092.0,0.13709378643700187
2091.0,0.1370342410222376
2090.0,0.13709378643700187
2089.0,0.13721290176465573
2088.0,0.1373320497714121
2087.0,0.13739163603505822
2086.0,0.1373320497714121
2085.0,0.13727247168202528
2084.0,0.13727247168202528
2083.0,0.1373320497714121
2082.0,0.13739163603505822
2081.0,0.13751083309410284
2080.0,0.1375704438939911
2079.0,0.13763006287711765
2078.0,0.13763006287711765
2077.0,0.13751083309410284
2076.0,0.13739163603505822
2075.0,0.13721290176465573
2074.0,0.13721290176465573
2073.0,0.13727247168202528
2072.0,0.1374512304752069
2071.0,0.1375704438939911
2070.0,0.13763006287711765
2069.0,0.13768969004572962
2068.0,0.13768969004572962
2067.0,0.13780896894840278
2066.0,0.13792828062000573
2065.0,0.13798794874978348
2064.0,0.13792828062000573
2063.0,0.13786862068696282
2062.0,0.13780896894840278
2061.0,0.13780896894840278
2060.0,0.13786862068696282
2059.0,0.13792828062000573
2058.0,0.13798794874978348
2057.0,0.13798794874978348
2056.0,0.1380476250785483
2055.0,0.1381073096085541
2054.0,0.1381073096085541
2053.0,0.13816700234205515
2052.0,0.13822670328130693
2051.0,0.13828641242856565
2050.0,0.13834612978608907
2049.0,0.13828641242856565
2048.0,0.13816700234205515
2047.0,0.13798794874978348
2046.0,0.13792828062000573
2045.0,0.1380476250785483
2044.0,0.13828641242856565
2043.0,0.13846558914096208
2042.0,0.1385253311428314
2041.0,0.1385253311428314
2040.0,0.13846558914096208
2039.0,0.1384058553561347
2038.0,0.1384058553561347
2037.0,0.1384058553561347
2036.0,0.1385253311428314
2035.0,0.1387643813659596
2034.0,0.13894375542312654
2033.0,0.1390633792999063
2032.0,0.13912320359670227
2031.0,0.1390633792999063
2030.0,0.13894375542312654
2029.0,0.1388241644869712
2028.0,0.1387643813659596
2027.0,0.1387643813659596
2026.0,0.1388241644869712
2025.0,0.13900356324280416
2024.0,0.13918303613546223
2023.0,0.13936258322624528
2022.0,0.13948232253825377
2021.0,0.13960209487268727
2020.0,0.1397219002477652
2019.0,0.1397219002477652
2018.0,0.1396619934290062
2017.0,0.13954220457652888
2016.0,0.13954220457652888
2015.0,0.13960209487268727
2014.0,0.1396619934290062
2013.0,0.1396619934290062
2012.0,0.1396619934290062
2011.0,0.13954220457652888
2010.0,0.13948232253825377
2009.0,0.1394224487555844
2008.0,0.1394224487555844
2007.0,0.1394224487555844
2006.0,0.1394224487555844
2005.0,0.13954220457652888
2004.0,0.1396619934290062
2003.0,0.13984173868172167
2002.0,0.13990167030148193
2001.0,0.1399616101928065
2000.0,0.13990167030148193
1999.0,0.13990167030148193
1998.0,0.13990167030148193
1997.0,0.1399616101928065
1996.0,0.1399616101928065
1995.0,0.1399616101928065
1994.0,0.14002155835797914
1993.0,0.14026143380285316
1992.0,0.1405014418122239
1991.0,0.14068153490288382
1990.0,0.14056146454494378
1989.0,0.14038142122781938
1988.0,0.14026143380285316
1987.0,0.1402014525194344
1986.0,0.1402014525194344
1985.0,0.14026143380285316
1984.0,0.14032142337155173
1983.0,0.14038142122781938
1982.0,0.14038142122781938
1981.0,0.14038142122781938
1980.0,0.14032142337155173
1979.0,0.14032142337155173
1978.0,0.14032142337155173
1977.0,0.14032142337155173
1976.0,0.14032142337155173
1975.0,0.14032142337155173
1974.0,0.14026143380285316
1973.0,0.14014147951900724
1972.0,0.14014147951900724
1971.0,0.1402014525194344
1970.0,0.14032142337155173
1969.0,0.1404414273739465
1968.0,0.1404414273739465
1967.0,0.1405014418122239
1966.0,0.14056146454494378
1965.0,0.14068153490288382
1964.0,0.14086170270546927
1963.0,0.1409818561111058
1962.0,0.1410419452819942
1961.0,0.1410419452819942
1960.0,0.1409818561111058
1959.0,0.1409217752530305
1958.0,0.1409818561111058
1957.0,0.1409818561111058
1956.0,0.1409818561111058
1955.0,0.1409818561111058
1954.0,0.1409818561111058
1953.0,0.1409217752530305
1952.0,0.1409818561111058
1951.0,0.1409818561111058
1950.0,0.1410419452819942
1949.0,0.14116214857141451
1948.0,0.14128238513970826
1947.0,0.14140265500530758
1946.0,0.1414628024303608
1945.0,0.1414628024303608
1944.0,0.1414628024303608
1943.0,0.1415229581866595
1942.0,0.14170347546611461
1941.0,0.141884067809934
1940.0,0.1419442819496357
1939.0,0.1419442819496357
1938.0,0.141884067809934
1937.0,0.14176366457048695
1936.0,0.14176366457048695
1935.0,0.14182386201765573
1934.0,0.141884067809934
1933.0,0.14182386201765573
1932.0,0.14170347546611461
1931.0,0.14170347546611461
1930.0,0.14170347546611461
1929.0,0.14176366457048695
1928.0,0.14182386201765573
1927.0,0.14176366457048695
1926.0,0.14170347546611461
1925.0,0.14164329470222659
1924.0,0.14170347546611461
1923.0,0.14182386201765573
1922.0,0.14206473528057106
1921.0,0.14224547794055775
1920.0,0.1423660148499919
1919.0,0.14242629585250421
1918.0,0.14242629585250421
1917.0,0.1423660148499919
1916.0,0.14230574221345038
1915.0,0.14218522202899342
1914.0,0.14218522202899342
1913.0,0.14224547794055775
1912.0,0.14242629585250421
1911.0,0.14266750356873148
1910.0,0.14290884532648618
1909.0,0.14315032127482774
1908.0,0.1432711096171173
1907.0,0.1432711096171173
1906.0,0.14315032127482774
1905.0,0.14321071124668383
1904.0,0.14339193156306385
1903.0,0.14351278713136928
1902.0,0.14363367634075197
1901.0,0.14369413356670102
1900.0,0.14363367634075197
1899.0,0.14351278713136928
1898.0,0.14333151638846497
1897.0,0.1432711096171173
1896.0,0.14345235514325205
1895.0,0.14375459920994582
1894.0,0.14405705376768396
1893.0,0.14423862766005224
1892.0,0.14423862766005224
1891.0,0.1441175699639643
1890.0,0.14405705376768396
1889.0,0.14405705376768396
1888.0,0.143996546002779
1887.0,0.14393604666690019
1886.0,0.1438755557576996
1885.0,0.14393604666690019
1884.0,0.143996546002779
1883.0,0.14393604666690019
1882.0,0.1438755557576996
1881.0,0.14381507327283027
1880.0,0.14381507327283027
1879.0,0.14381507327283027
1878.0,0.1438755557576996
1877.0,0.14393604666690019
1876.0,0.143996546002779
1875.0,0.14405705376768396
1874.0,0.143996546002779
1873.0,0.1438755557576996
1872.0,0.14375459920994582
1871.0,0.14351278713136928
1870.0,0.1432711096171173
1869.0,0.1432711096171173
1868.0,0.14345235514325205
1867.0,0.14369413356670102
1866.0,0.1438755557576996
1865.0,0.143996546002779
1864.0,0.143996546002779
1863.0,0.14393604666690019
1862.0,0.14393604666690019
1861.0,0.14393604666690019
1860.0,0.14405705376768396
1859.0,0.143996546002779
1858.0,0.143996546002779
1857.0,0.14405705376768396
1856.0,0.14417809459397013
1855.0,0.14423862766005224
1854.0,0.14417809459397013
1853.0,0.1441175699639643
1852.0,0.143996546002779
1851.0,0.1438755557576996
1850.0,0.14381507327283027
1849.0,0.14375459920994582
1848.0,0.14375459920994582
1847.0,0.14393604666690019
1846.0,0.14423862766005224
1845.0,0.14454141961396383
1844.0,0.1446020033459312
1843.0,0.14435971910985468
1842.0,0.1441175699639643
1841.0,0.1441175699639643
1840.0,0.14423862766005224
1839.0,0.14429916916456276
1838.0,0.14429916916456276
1837.0,0.14429916916456276
1836.0,0.14435971910985468
1835.0,0.14429916916456276
1834.0,0.14423862766005224
1833.0,0.14423862766005224
1832.0,0.14417809459397013
1831.0,0.1441175699639643
1830.0,0.14405705376768396
1829.0,0.1441175699639643
1828.0,0.14429916916456276
1827.0,0.1446020033459312
1826.0,0.14484442282300614
1825.0,0.14490504884137811
1824.0,0.14490504884137811
1823.0,0.1447838052666366
1822.0,0.14472319616990825
1821.0,0.1447838052666366
1820.0,0.14496568332411575
1819.0,0.1450869776921444
1818.0,0.1450869776921444
1817.0,0.14514763758216587
1816.0,0.14526898278605782
1815.0,0.14526898278605782
1814.0,0.14502632627358292
1813.0,0.1447838052666366
1812.0,0.14466259553045968
1811.0,0.1447838052666366
1810.0,0.14496568332411575
1809.0,0.14520830594601453
1808.0,0.1455724942121388
1807.0,0.14581545616639335
1806.0,0.14581545616639335
1805.0,0.1456939581989194
1804.0,0.14551177495556966
1803.0,0.14532966810466452
1802.0,0.14520830594601453
1801.0,0.14514763758216587
1800.0,0.14520830594601453
1799.0,0.14520830594601453
1798.0,0.14526898278605782
1797.0,0.14539036190420496
1796.0,0.1455724942121388
1795.0,0.1455724942121388
1794.0,0.14551177495556966
1793.0,0.14545106418704923
1792.0,0.14575470293388149
1791.0,0.14605855411951008
1790.0,0.1461193498754576
1789.0,0.14618015414323682
1788.0,0.14624096692523136
1787.0,0.14624096692523136
1786.0,0.1461193498754576
1785.0,0.14605855411951008
1784.0,0.14605855411951008
1783.0,0.14599776687301103
1782.0,0.1459369881335788
1781.0,0.1459369881335788
1780.0,0.14605855411951008
1779.0,0.14618015414323682
1778.0,0.14624096692523136
1777.0,0.14618015414323682
1776.0,0.14605855411951008
1775.0,0.14605855411951008
1774.0,0.14605855411951008
1773.0,0.14599776687301103
1772.0,0.14605855411951008
1771.0,0.14624096692523136
1770.0,0.14630178822382556
1769.0,0.14648430324307138
1768.0,0.146788665496683
1767.0,0.14709324120304634
1766.0,0.1472151313194523
1765.0,0.1472760892087941
1764.0,0.14733705565543076
1763.0,0.14733705565543076
1762.0,0.1472760892087941
1761.0,0.1472760892087941
1760.0,0.1472151313194523
1759.0,0.1472760892087941
1758.0,0.14745901423020125
1757.0,0.1477030341730745
1756.0,0.1479471913021495
1755.0,0.14800825203784274
1754.0,0.1480693213597324
1753.0,0.14800825203784274
1752.0,0.1479471913021495
1751.0,0.1479471913021495
1750.0,0.1478861391502384
1749.0,0.14782509557969692
1748.0,0.1478861391502384
1747.0,0.14813039927023364
1746.0,0.14837479684669086
1745.0,0.14843591773651155
1744.0,0.14855818532794496
1743.0,0.14874165128092476
1742.0,0.148864004988426
1741.0,0.1489251947711132
1740.0,0.1490476002065071
1739.0,0.14917004015146906
1738.0,0.14917004015146906
1737.0,0.14929251462546267
1736.0,0.14953756723848333
1735.0,0.14953756723848333
1734.0,0.14978275820161047
1733.0,0.1499667423102311
1732.0,0.14978275820161047
1731.0,0.14990540561329913
1730.0,0.1502121757623145
1729.0,0.1503963419175529
1728.0,0.1503963419175529
1727.0,0.15027355580367208
1726.0,0.15015080439474215
1725.0,0.15002808767114995
1724.0,0.1499667423102311
1723.0,0.15002808767114995
1722.0,0.1500894416985039
1721.0,0.1502121757623145
1720.0,0.15027355580367208
1719.0,0.1500894416985039
1718.0,0.1497214474819628
1717.0,0.14966014541652073
1716.0,0.14978275820161047
1715.0,0.14984407757790774
1714.0,0.1500894416985039
1713.0,0.15045774799498335
1712.0,0.1507034591652734
1711.0,0.15076490868527737
1710.0,0.1507034591652734
1709.0,0.1507034591652734
1708.0,0.15082636690117335
1707.0,0.15088783381542248
1706.0,0.15101079374883275
1705.0,0.15113378850522063
1704.0,0.15113378850522063
1703.0,0.15131834597604965
1702.0,0.1515645446685292
1701.0,0.15162611615539823
1700.0,0.15168769637271562
1699.0,0.1513798825658661
1698.0,0.15131834597604965
1697.0,0.15211900255462485
1696.0,0.15298290206464582
1695.0,0.15279763601907614
1694.0,0.1519957285027318
1693.0,0.1517492853229574
1692.0,0.15218065270476067
1691.0,0.15242734085788778
1690.0,0.15242734085788778
1689.0,0.15242734085788778
1688.0,0.15261244897260462
1687.0,0.15298290206464582
1686.0,0.15310645668337486
1685.0,0.15298290206464582
1684.0,0.15323004646278116
1683.0,0.15323004646278116
1682.0,0.15279763601907614
1681.0,0.15292113793428452
1680.0,0.15323004646278116
1679.0,0.1534154971019539
1678.0,0.15360102696532518
1677.0,0.1537866361206126
1676.0,0.15391041964201602
1675.0,0.15415809257824264
1674.0,0.1542200328881107
1673.0,0.15403423845451636
1672.0,0.1538485234711846
1671.0,0.1537866361206126
1670.0,0.15391041964201602
1669.0,0.15428198203334142
1668.0,0.15446788250642451
1667.0,0.1545918603782066
1666.0,0.15465386258859137
1665.0,0.15465386258859137
1664.0,0.15446788250642451
1663.0,0.1542200328881107
1662.0,0.15434394001645568
1661.0,0.15452986701832638
1660.0,0.15471587365200845
1659.0,0.15490195998574308
1658.0,0.15496400648658493
1657.0,0.15490195998574308
1656.0,0.15496400648658493
1655.0,0.1550260618531123
1654.0,0.15515019919336104
1653.0,0.15577141869837208
1652.0,0.1550260618531123
1651.0,0.15323004646278116
1650.0,0.15304467498017615
1649.0,0.15335367142288248
1648.0,0.15335367142288248
1647.0,0.1537866361206126
1646.0,0.15471587365200845
1645.0,0.15508812608785938
1644.0,0.15508812608785938
1643.0,0.15521228117215347
1642.0,0.15527437202677397
1641.0,0.15515019919336104
1640.0,0.15477789357098626
1639.0,0.15452986701832638
1638.0,0.15446788250642451
1637.0,0.1545918603782066
1636.0,0.15515019919336104
1635.0,0.15564710368910672
1634.0,0.15533647175976073
1633.0,0.15496400648658493
1632.0,0.15496400648658493
1631.0,0.1550260618531123
1630.0,0.15490195998574308
1629.0,0.15465386258859137
1628.0,0.15446788250642451
1627.0,0.15440590683997568
1626.0,0.15434394001645568
1625.0,0.15434394001645568
1624.0,0.15434394001645568
1623.0,0.15452986701832638
1622.0,0.1548399223480541
1621.0,0.1550260618531123
1620.0,0.15515019919336104
1619.0,0.15508812608785938
1618.0,0.1548399223480541
1617.0,0.1545918603782066
1616.0,0.15452986701832638
1615.0,0.15440590683997568
1614.0,0.15452986701832638
1613.0,0.15477789357098626
1612.0,0.1548399223480541
1611.0,0.15471587365200845
1610.0,0.15465386258859137
1609.0,0.15465386258859137
1608.0,0.15465386258859137
1607.0,0.15471587365200845
1606.0,0.15490195998574308
1605.0,0.1550260618531123
1604.0,0.15508812608785938
1603.0,0.15515019919336104
1602.0,0.15527437202677397
1601.0,0.15533647175976073
1600.0,0.15533647175976073
1599.0,0.15533647175976073
1598.0,0.15527437202677397
1597.0,0.15527437202677397
1596.0,0.15527437202677397
1595.0,0.15533647175976073
1594.0,0.15546069787099204
1593.0,0.15546069787099204
1592.0,0.15533647175976073
1591.0,0.15527437202677397
1590.0,0.15527437202677397
1589.0,0.15527437202677397
1588.0,0.15533647175976073
1587.0,0.15539858037365328
1586.0,0.15552282425431851
1585.0,0.15558495952617557
1584.0,0.15552282425431851
1583.0,0.15552282425431851
1582.0,0.15564710368910672
1581.0,0.15570925674565683
1580.0,0.15558495952617557
1579.0,0.15552282425431851
1578.0,0.15552282425431851
1577.0,0.15539858037365328
1576.0,0.15539858037365328
1575.0,0.15527437202677397
1574.0,0.1550260618531123
1573.0,0.1550260618531123
1572.0,0.15521228117215347
1571.0,0.15515019919336104
1570.0,0.15515019919336104
1569.0,0.15527437202677397
1568.0,0.15508812608785938
1567.0,0.15490195998574308
1566.0,0.15477789357098626
1565.0,0.15465386258859137
1564.0,0.15471587365200845
1563.0,0.1550260618531123
1562.0,0.15539858037365328
1561.0,0.15521228117215347
1560.0,0.15403423845451636
1559.0,0.15397232463562127
1558.0,0.1550260618531123
1557.0,0.15434394001645568
1556.0,0.15434394001645568
1555.0,0.15490195998574308
1554.0,0.15527437202677397
1553.0,0.15521228117215347
1552.0,0.15508812608785938
1551.0,0.15515019919336104
1550.0,0.15533647175976073
1549.0,0.15539858037365328
1548.0,0.15533647175976073
1547.0,0.1550260618531123
1546.0,0.1545918603782066
1545.0,0.1540961611012175
1544.0,0.15403423845451636
1543.0,0.15428198203334142
1542.0,0.1542200328881107
1541.0,0.15403423845451636
1540.0,0.15440590683997568
1539.0,0.15452986701832638
1538.0,0.1537866361206126
1537.0,0.1534154971019539
1536.0,0.15347733158371324
1535.0,0.15335367142288248
1534.0,0.15304467498017615
1533.0,0.15304467498017615
1532.0,0.15335367142288248
1531.0,0.15347733158371324
1530.0,0.1532918545439932
1529.0,0.15298290206464582
1528.0,0.15261244897260462
1527.0,0.15242734085788778
1526.0,0.15242734085788778
1525.0,0.15242734085788778
1524.0,0.15242734085788778
1523.0,0.15224231160766877
1522.0,0.15193410459600853
1521.0,0.15181088300860135
1520.0,0.15168769637271562
1519.0,0.1515645446685292
1518.0,0.15131834597604965
1517.0,0.15119529894819617
1516.0,0.15125681810431635
1515.0,0.15131834597604965
1514.0,0.15125681810431635
1513.0,0.15101079374883275
1512.0,0.15058058620310066
1511.0,0.14990540561329913
1510.0,0.1491088158640761
1509.0,0.14831368455757254
1508.0,0.1478861391502384
1507.0,0.14861933203440336
1506.0,0.14929251462546267
1505.0,0.14843591773651155
1504.0,0.14776406058811253
1503.0,0.1477030341730745
1502.0,0.1475810070629986
1501.0,0.1472760892087941
1500.0,0.14697138528701026
1499.0,0.14666689499766483
1498.0,0.1461193498754576
1497.0,0.14545106418704923
1496.0,0.14472319616990825
1495.0,0.1438755557576996
1494.0,0.14296920172737604
1493.0,0.14224547794055775
1492.0,0.14164329470222659
1491.0,0.14068153490288382
1490.0,0.1394224487555844
1489.0,0.13816700234205515
1488.0,0.13721290176465573
1487.0,0.1360232160956132
1486.0,0.1345998818206986
1485.0,0.13306318226836056
1484.0,0.13153190097901324
1483.0,0.12983027886355947
1482.0,0.12743585690934855
1481.0,0.12470717462899183
1480.0,0.12222565000860186
1479.0,0.12027350336042275
1478.0,0.11907213473291511
1477.0,0.12061736282565727
1476.0,0.1280769681176266
1475.0,0.14423862766005224
1474.0,0.1713401034646802
1473.0,0.20999647960951062
1472.0,0.24833605373901335
1471.0,0.26600071346161314
1470.0,0.2634441528373641
1469.0,0.25422278211024096
1468.0,0.2448114143916751
1467.0,0.23679669962922834
1466.0,0.23136189875238555
1465.0,0.2318801058152027
1464.0,0.241315150117559
1463.0,0.25633347855378696
1462.0,0.26994484762450033
1461.0,0.27761290582287623
1460.0,0.27744833799904156
1459.0,0.26970233790285025
1458.0,0.25656863485331627
1457.0,0.24275584897802993
1456.0,0.2326956825467268
1455.0,0.2267256516625462
1454.0,0.22322619758789308
1453.0,0.22033137279285198
1452.0,0.21731243176503368
1451.0,0.2141009716156166
1450.0,0.21119550695535172
1449.0,0.2087305190897315
1448.0,0.20662875108104428
1447.0,0.20474581741911724
1446.0,0.20328693671910347
1445.0,0.20204035626280392
1444.0,0.2010042655561186
1443.0,0.19997064075586568
1442.0,0.1990081387398286
1441.0,0.1981848314185628
1440.0,0.1974315016860435
1439.0,0.19667947642124606
1438.0,0.19592875111433883
1437.0,0.19524739784953948
1436.0,0.1948390984005659
1435.0,0.19429529556613567
1434.0,0.19368433019188647
1433.0,0.19300648631789286
1432.0,0.19219446772937543
1431.0,0.19131649087103075
1430.0,0.19050762306265812
1429.0,0.189767482004916
1428.0,0.18902860017779255
1427.0,0.18822397839709626
1426.0,0.18748771571001743
1425.0,0.18668594105416525
1424.0,0.18601892436352818
1423.0,0.18555262147751228
1422.0,0.18508681872492616
1421.0,0.18442225167573278
1420.0,0.18362611124763806
1419.0,0.18309616062433975
1418.0,0.182963773949971
1417.0,0.18289759574307696
1416.0,0.1827652695745019
1415.0,0.18256685588861554
1414.0,0.18223636771963214
1413.0,0.18177410638604452
1412.0,0.18144422070219735
1411.0,0.18111458540599013
1410.0,0.18078520011761579
1409.0,0.18039026724841478
1408.0,0.17999569319168218
1407.0,0.17966715510059017
1406.0,0.17940450345550985
1405.0,0.17927323717616583
1404.0,0.17927323717616583
1403.0,0.17920761891179637
1402.0,0.1791420105603001
1401.0,0.1788141173911546
1400.0,0.1784864715952268
1399.0,0.17829000270162365
1398.0,0.17815907279954568
1397.0,0.17802818235795725
1396.0,0.1778973313530796
1395.0,0.17776651976115598
1394.0,0.1778319206319825
1393.0,0.1778319206319825
1392.0,0.1778319206319825
1391.0,0.1778319206319825
1390.0,0.17776651976115598
1389.0,0.17763574755845046
1388.0,0.17750501472124913
1387.0,0.17743966305730785
1386.0,0.17750501472124913
1385.0,0.1775703762206431
1384.0,0.17763574755845046
1383.0,0.17770112873763355
1382.0,0.1778319206319825
1381.0,0.17802818235795725
1380.0,0.17835548245778288
1379.0,0.17868302940890257
1378.0,0.17907641211868253
1377.0,0.17927323717616583
1376.0,0.17927323717616583
1375.0,0.17920761891179637
1374.0,0.17933886535640453
1373.0,0.17960147729601839
1372.0,0.17992996568767428
1371.0,0.180127178049454
1370.0,0.18045606445813123
1369.0,0.18085105719286587
1368.0,0.18131233655848633
1367.0,0.18170810920000413
1366.0,0.18197215814074386
1365.0,0.18203819546800593
1364.0,0.18203819546800593
1363.0,0.18203819546800593
1362.0,0.18210424283820448
1361.0,0.1821703002543944
1360.0,0.18210424283820448
1359.0,0.18203819546800593
1358.0,0.18197215814074386
1357.0,0.18203819546800593
1356.0,0.18210424283820448
1355.0,0.18223636771963214
1354.0,0.18250073813224166
1353.0,0.18269912160667867
1352.0,0.18289759574307696
1351.0,0.182963773949971
1350.0,0.18309616062433975
1349.0,0.1832285876666535
1348.0,0.18329481633348466
1347.0,0.18336105510153855
1346.0,0.18336105510153855
1345.0,0.18336105510153855
1344.0,0.18336105510153855
1343.0,0.18329481633348466
1342.0,0.1832285876666535
1341.0,0.18302996224270052
1340.0,0.182963773949971
1339.0,0.1832285876666535
1338.0,0.1835598320438614
1337.0,0.18395765907800343
1336.0,0.18415670933673334
1335.0,0.18422307970163732
1334.0,0.18415670933673334
1333.0,0.1840903491132253
1332.0,0.18402399902801458
1331.0,0.18402399902801458
1330.0,0.18415670933673334
1329.0,0.1842894602110372
1328.0,0.18448866263723573
1327.0,0.18462151503408197
1326.0,0.1847544080834369
1325.0,0.1848873418101875
1324.0,0.1849538239353694
1323.0,0.18508681872492616
1322.0,0.18528638730402336
1321.0,0.1854860476317619
1320.0,0.18568579979254052
1319.0,0.18601892436352818
1318.0,0.18635230465310326
1317.0,0.1866191932661443
1316.0,0.18688624599210146
1315.0,0.18701983396051958
1314.0,0.18722029299103604
1313.0,0.18742084459095332
1312.0,0.18775530319963063
1311.0,0.18815699382352258
1310.0,0.18849202005467336
1309.0,0.1887602272467106
1308.0,0.18902860017779255
1307.0,0.18929713905288326
1306.0,0.18963304631837485
1305.0,0.18996921359416064
1304.0,0.1902383348928749
1303.0,0.19057497120296585
1302.0,0.19091186865365373
1301.0,0.19111413264018795
1300.0,0.19131649087103075
1299.0,0.19158644859963192
1298.0,0.19178902707577805
1297.0,0.1920592787845008
1296.0,0.19232969876951622
1295.0,0.19253262431572216
1294.0,0.1926002872405146
1293.0,0.19266796070880954
1292.0,0.1928033392890527
1291.0,0.192938760082761
1290.0,0.19314197048118253
1289.0,0.19334527600813955
1288.0,0.1934808659192948
1287.0,0.1935486767527379
1286.0,0.19368433019188647
1285.0,0.19375217280420953
1284.0,0.19388788983090888
1283.0,0.19395576425191186
1282.0,0.1940236492824372
1281.0,0.1941594511853273
1280.0,0.19429529556613567
1279.0,0.1944311824514442
1278.0,0.19456711186786002
1277.0,0.1946350925335547
1276.0,0.1948390984005659
1275.0,0.19511125537760865
1274.0,0.19531548509305963
1273.0,0.19551981089400727
1272.0,0.19579239491795852
1271.0,0.19599694527038736
1270.0,0.19620159201032594
1269.0,0.19633807676377568
1268.0,0.1962698290254561
1267.0,0.1962698290254561
1266.0,0.19640633522865558
1265.0,0.19661117501638659
1264.0,0.19681611146465805
1263.0,0.1969527895088714
1262.0,0.19702114466473808
1261.0,0.19702114466473808
1260.0,0.1969527895088714
1259.0,0.19688444510997294
1258.0,0.19681611146465805
1257.0,0.19681611146465805
1256.0,0.19688444510997294
1255.0,0.19708951058096025
1254.0,0.19729467292564795
1253.0,0.19749993223560658
1252.0,0.19756837356927637
1251.0,0.19756837356927637
1250.0,0.19756837356927637
1249.0,0.19756837356927637
1248.0,0.19756837356927637
1247.0,0.1976368256904526
1246.0,0.19777376230892996
1245.0,0.19784224681303852
1244.0,0.1979107421182673
1243.0,0.19784224681303852
1242.0,0.19784224681303852
1241.0,0.19784224681303852
1240.0,0.19797924822802404
1239.0,0.1981162928747604
1238.0,0.1981848314185628
1237.0,0.1981848314185628
1236.0,0.1981848314185628
1235.0,0.19825338078053978
1234.0,0.1981848314185628
1233.0,0.19797924822802404
1232.0,0.1977052886025361
1231.0,0.19749993223560658
1230.0,0.19729467292564795
1229.0,0.19722627470802445
1228.0,0.19715788726092565
1227.0,0.19722627470802445
1226.0,0.19722627470802445
1225.0,0.19722627470802445
1224.0,0.19715788726092565
1223.0,0.19722627470802445
1222.0,0.19729467292564795
1221.0,0.19749993223560658
1220.0,0.1977052886025361
1219.0,0.19777376230892996
1218.0,0.19777376230892996
1217.0,0.1976368256904526
1216.0,0.1974315016860435
1215.0,0.19722627470802445
1214.0,0.19715788726092565
1213.0,0.19722627470802445
1212.0,0.19722627470802445
1211.0,0.19729467292564795
1210.0,0.19722627470802445
1209.0,0.19715788726092565
1208.0,0.19708951058096025
1207.0,0.19715788726092565
1206.0,0.19715788726092565
1205.0,0.19715788726092565
1204.0,0.19715788726092565
1203.0,0.19715788726092565
1202.0,0.19722627470802445
1201.0,0.19729467292564795
1200.0,0.19736308191718943
1199.0,0.19736308191718943
1198.0,0.19729467292564795
1197.0,0.19708951058096025
1196.0,0.1969527895088714
1195.0,0.1969527895088714
1194.0,0.19715788726092565
1193.0,0.19736308191718943
1192.0,0.1974315016860435
1191.0,0.1974315016860435
1190.0,0.19729467292564795
1189.0,0.19715788726092565
1188.0,0.1969527895088714
1187.0,0.196747788569543
1186.0,0.19661117501638659
1185.0,0.19667947642124606
1184.0,0.19688444510997294
1183.0,0.19715788726092565
1182.0,0.19729467292564795
1181.0,0.19729467292564795
1180.0,0.19729467292564795
1179.0,0.19729467292564795
1178.0,0.19722627470802445
1177.0,0.19722627470802445
1176.0,0.19729467292564795
1175.0,0.19736308191718943
1174.0,0.19756837356927637
1173.0,0.1977052886025361
1172.0,0.19784224681303852
1171.0,0.1979107421182673
1170.0,0.19797924822802404
1169.0,0.1979107421182673
1168.0,0.19784224681303852
1167.0,0.19777376230892996
1166.0,0.19777376230892996
1165.0,0.19784224681303852
1164.0,0.19784224681303852
1163.0,0.1977052886025361
1162.0,0.19756837356927637
1161.0,0.19736308191718943
1160.0,0.19729467292564795
1159.0,0.19722627470802445
1158.0,0.19722627470802445
1157.0,0.19708951058096025
1156.0,0.19702114466473808
1155.0,0.19702114466473808
1154.0,0.19715788726092565
1153.0,0.19722627470802445
1152.0,0.19729467292564795
1151.0,0.19736308191718943
1150.0,0.1974315016860435
1149.0,0.1974315016860435
1148.0,0.1974315016860435
1147.0,0.19729467292564795
1146.0,0.19715788726092565
1145.0,0.19688444510997294
1144.0,0.19661117501638659
1143.0,0.19640633522865558
1142.0,0.19640633522865558
1141.0,0.19661117501638659
1140.0,0.19688444510997294
1139.0,0.19708951058096025
1138.0,0.19715788726092565
1137.0,0.19708951058096025
1136.0,0.19708951058096025
1135.0,0.19722627470802445
1134.0,0.19736308191718943
1133.0,0.19749993223560658
1132.0,0.19756837356927637
1131.0,0.19749993223560658
1130.0,0.19749993223560658
1129.0,0.19749993223560658
1128.0,0.19749993223560658
1127.0,0.1974315016860435
1126.0,0.19729467292564795
1125.0,0.19715788726092565
1124.0,0.19708951058096025
1123.0,0.19715788726092565
1122.0,0.19729467292564795
1121.0,0.19729467292564795
1120.0,0.19722627470802445
1119.0,0.19702114466473808
1118.0,0.1969527895088714
1117.0,0.1969527895088714
1116.0,0.19708951058096025
1115.0,0.19729467292564795
1114.0,0.19736308191718943
1113.0,0.1974315016860435
1112.0,0.1974315016860435
1111.0,0.19756837356927637
1110.0,0.1976368256904526
1109.0,0.1976368256904526
1108.0,0.1976368256904526
1107.0,0.19756837356927637
1106.0,0.1974315016860435
1105.0,0.19722627470802445
1104.0,0.19708951058096025
1103.0,0.19708951058096025
1102.0,0.19715788726092565
1101.0,0.19722627470802445
1100.0,0.19722627470802445
1099.0,0.19715788726092565
1098.0,0.19722627470802445
1097.0,0.19722627470802445
1096.0,0.19722627470802445
1095.0,0.19722627470802445
1094.0,0.19722627470802445
1093.0,0.19736308191718943
1092.0,0.19736308191718943
1091.0,0.19729467292564795
1090.0,0.19715788726092565
1089.0,0.19708951058096025
1088.0,0.19708951058096025
1087.0,0.19722627470802445
1086.0,0.19729467292564795
1085.0,0.19722627470802445
1084.0,0.19715788726092565
1083.0,0.19715788726092565
1082.0,0.19708951058096025
1081.0,0.19702114466473808
1080.0,0.19681611146465805
1079.0,0.19681611146465805
1078.0,0.19681611146465805
1077.0,0.19688444510997294
1076.0,0.19688444510997294
1075.0,0.1969527895088714
1074.0,0.19702114466473808
1073.0,0.19708951058096025
1072.0,0.19715788726092565
1071.0,0.19715788726092565
1070.0,0.19722627470802445
1069.0,0.19722627470802445
1068.0,0.19715788726092565
1067.0,0.19708951058096025
1066.0,0.19708951058096025
1065.0,0.19715788726092565
1064.0,0.19729467292564795
1063.0,0.19749993223560658
1062.0,0.1976368256904526
1061.0,0.19756837356927637
1060.0,0.1974315016860435
1059.0,0.19729467292564795
1058.0,0.19722627470802445
1057.0,0.19715788726092565
1056.0,0.19729467292564795
1055.0,0.1976368256904526
1054.0,0.19797924822802404
1053.0,0.19832194096410682
1052.0,0.1983905119726812
1051.0,0.19832194096410682
1050.0,0.19832194096410682
1049.0,0.1983905119726812
1048.0,0.1985276864785288
1047.0,0.19866490432545336
1046.0,0.19880216554085117
1045.0,0.19880216554085117
1044.0,0.19893947015214453
1043.0,0.19914550849643908
1042.0,0.19928292171761486
1041.0,0.19928292171761486
1040.0,0.19921420967223735
1039.0,0.19928292171761486
1038.0,0.1994203784308699
1037.0,0.19948912310563194
1036.0,0.19948912310563194
1035.0,0.19962664510865036
1034.0,0.19983300979863605
1033.0,0.20010831534313467
1032.0,0.20038379551850105
1031.0,0.20045269287438483
1030.0,0.20038379551850105
1029.0,0.200246033588114
1028.0,0.20003947259401644
1027.0,0.20003947259401644
1026.0,0.20010831534313467
1025.0,0.20031490909089955
1024.0,0.200521601162019
1023.0,0.20065945054641832
1022.0,0.200797343699475
1021.0,0.200797343699475
1020.0,0.200797343699475
1019.0,0.200797343699475
1018.0,0.2009352806489919
1017.0,0.20107326142279858
1016.0,0.20128031481499375
1015.0,0.2014874669686484
1014.0,0.2016256233184388
1013.0,0.2016256233184388
1012.0,0.20155653964981246
1011.0,0.20155653964981246
1010.0,0.20169471797802352
1009.0,0.20183294028406085
1008.0,0.20197120659592693
1007.0,0.20204035626280392
1006.0,0.20204035626280392
1005.0,0.20190206793751408
1004.0,0.20155653964981246
1003.0,0.20114226825251436
1002.0,0.20086630669793704
1001.0,0.2010042655561186
1000.0,0.20141840527145227
999.0,0.20190206793751408
998.0,0.20217868863597643
997.0,0.20224787134928923
996.0,0.20224787134928923
995.0,0.20217868863597643
994.0,0.20210951694165114
993.0,0.20197120659592693
992.0,0.20204035626280392
991.0,0.20217868863597643
990.0,0.20231706508510094
989.0,0.20238626984692432
988.0,0.20224787134928923
987.0,0.20210951694165114
986.0,0.20217868863597643
985.0,0.20238626984692432
984.0,0.20259395032361804
983.0,0.20273245916928362
982.0,0.20280173016104097
981.0,0.2028710122034474
980.0,0.20307892466983124
979.0,0.20328693671910347
978.0,0.2033562962148836
977.0,0.2033562962148836
976.0,0.2033562962148836
975.0,0.20349504844670374
974.0,0.20391157131933157
973.0,0.20425897913075608
972.0,0.20446755728984556
971.0,0.2043980201058202
970.0,0.20418947533259169
969.0,0.20398103065285067
968.0,0.2037726859705613
967.0,0.20384212309308558
966.0,0.2040505010971967
965.0,0.2043980201058202
964.0,0.20481541031757589
963.0,0.20502425594886842
962.0,0.20509389348319607
961.0,0.20523320205917894
960.0,0.2054422487452383
959.0,0.20572113427860006
958.0,0.20586064423222616
957.0,0.20586064423222616
956.0,0.20565139610391725
955.0,0.20537255533549192
954.0,0.20509389348319607
953.0,0.2049546295788751
952.0,0.20488501436963658
951.0,0.20502425594886842
950.0,0.20516354218543853
949.0,0.20523320205917894
948.0,0.20523320205917894
947.0,0.20523320205917894
946.0,0.20530287310800133
945.0,0.20558166912585896
944.0,0.20600019901552957
943.0,0.206349282292827
942.0,0.20627944318647673
941.0,0.20586064423222616
940.0,0.2054422487452383
939.0,0.20523320205917894
938.0,0.20537255533549192
937.0,0.20572113427860006
936.0,0.20620961530918125
935.0,0.20641913263184408
934.0,0.20641913263184408
933.0,0.20613979865733034
932.0,0.20586064423222616
931.0,0.20579088365350362
930.0,0.20593041601836748
929.0,0.20606999322731534
928.0,0.20627944318647673
927.0,0.20641913263184408
926.0,0.2065588670223364
925.0,0.20662875108104428
924.0,0.20662875108104428
923.0,0.20641913263184408
922.0,0.20600019901552957
921.0,0.20558166912585896
920.0,0.20537255533549192
919.0,0.20551195334083028
918.0,0.20600019901552957
917.0,0.20648899420714217
916.0,0.20676855294347907
915.0,0.20676855294347907
914.0,0.20676855294347907
913.0,0.20676855294347907
912.0,0.20676855294347907
911.0,0.20683847075444928
910.0,0.2069083998234198
909.0,0.2069083998234198
908.0,0.20697834015401684
907.0,0.20704829174986794
906.0,0.20711825461460287
905.0,0.20732821085843267
904.0,0.2076783636484265
903.0,0.20788859091283163
902.0,0.20781850385032108
901.0,0.20753826865304936
900.0,0.20732821085843267
899.0,0.20732821085843267
898.0,0.20753826865304936
897.0,0.2076083105017461
896.0,0.2076783636484265
895.0,0.20774842809673588
894.0,0.20809891999042884
893.0,0.2085198839799991
892.0,0.2089412564081745
891.0,0.20915209603456808
890.0,0.2092223986623063
889.0,0.20915209603456808
888.0,0.20915209603456808
887.0,0.2093630380682967
886.0,0.20964445358561346
885.0,0.2100669190682496
884.0,0.21041928783557462
883.0,0.2107013888405589
882.0,0.2107013888405589
881.0,0.21034879120659045
880.0,0.20985563495709947
879.0,0.20950372303289044
878.0,0.20943337485392344
877.0,0.20957408260888943
876.0,0.20992605157369537
875.0,0.21034879120659045
874.0,0.2107013888405589
873.0,0.21105427297625234
872.0,0.21133678687914248
871.0,0.21161948468043668
870.0,0.21190236661970263
869.0,0.212185432936977
868.0,0.2122562283535332
867.0,0.2121146490590755
866.0,0.21183162885883222
865.0,0.2115487929765445
864.0,0.21147811277752715
863.0,0.21161948468043668
862.0,0.21183162885883222
861.0,0.21176090261783198
860.0,0.21169018789295002
859.0,0.21161948468043668
858.0,0.21169018789295002
857.0,0.21169018789295002
856.0,0.21161948468043668
855.0,0.21161948468043668
854.0,0.21161948468043668
853.0,0.2115487929765445
852.0,0.21147811277752715
851.0,0.2115487929765445
850.0,0.21161948468043668
849.0,0.21147811277752715
848.0,0.21119550695535172
847.0,0.21091308491197136
846.0,0.21077194273266486
845.0,0.21098367320662526
844.0,0.21133678687914248
843.0,0.2119731159041962
842.0,0.21268124337545258
841.0,0.21324857785443885
840.0,0.21339052735134012
839.0,0.2130357405642671
838.0,0.21246868387276563
837.0,0.2121146490590755
836.0,0.21190236661970263
835.0,0.21190236661970263
834.0,0.21190236661970263
833.0,0.21190236661970263
832.0,0.2122562283535332
831.0,0.21296481797377664
830.0,0.21388771628017356
829.0,0.21452779669361166
828.0,0.2145989750076125
827.0,0.2141009716156166
826.0,0.2134615195021976
825.0,0.21310667473868428
824.0,0.21310667473868428
823.0,0.21339052735134012
822.0,0.2137456042102197
821.0,0.21395878975744576
820.0,0.21395878975744576
819.0,0.21395878975744576
818.0,0.21395878975744576
817.0,0.21402987486799052
816.0,0.2141009716156166
815.0,0.21424320003735708
814.0,0.2145989750076125
813.0,0.21502629004559926
812.0,0.21545402594547736
811.0,0.21559669824699146
810.0,0.21538270736712462
809.0,0.2148838049780799
808.0,0.21438547505317596
807.0,0.2141009716156166
806.0,0.2141009716156166
805.0,0.21431433171909875
804.0,0.2145989750076125
803.0,0.21481257997063818
802.0,0.21495504166845603
801.0,0.2150975501133452
800.0,0.21531140049857878
799.0,0.21559669824699146
798.0,0.2158107946190393
797.0,0.2158107946190393
796.0,0.21545402594547736
795.0,0.21502629004559926
794.0,0.21474136664229881
793.0,0.2145989750076125
792.0,0.21452779669361166
791.0,0.21438547505317596
790.0,0.21438547505317596
789.0,0.21452779669361166
788.0,0.21481257997063818
787.0,0.2150975501133452
786.0,0.21502629004559926
785.0,0.21481257997063818
784.0,0.2145989750076125
783.0,0.2145989750076125
782.0,0.2145989750076125
781.0,0.21445663004340698
780.0,0.21424320003735708
779.0,0.21417208000413446
778.0,0.21431433171909875
777.0,0.21438547505317596
776.0,0.21417208000413446
775.0,0.2135325232597176
774.0,0.21282300752944616
773.0,0.21232703531250707
772.0,0.21232703531250707
771.0,0.21253952548158495
770.0,0.21275211966804597
769.0,0.21268124337545258
768.0,0.21239785381766252
767.0,0.2122562283535332
766.0,0.21253952548158495
765.0,0.21324857785443885
764.0,0.21395878975744576
763.0,0.21424320003735708
762.0,0.21395878975744576
761.0,0.2133195468033513
760.0,0.21268124337545258
759.0,0.212185432936977
758.0,0.21147811277752715
757.0,0.2104897959097456
756.0,0.2093630380682967
755.0,0.20866029603486047
754.0,0.20859008433283988
753.0,0.2089412564081745
752.0,0.2092223986623063
751.0,0.2089412564081745
750.0,0.2083093509798819
749.0,0.2076783636484265
748.0,0.20718822875185294
747.0,0.20683847075444928
746.0,0.206349282292827
745.0,0.20572113427860006
744.0,0.20488501436963658
743.0,0.20342566678957041
742.0,0.2016256233184388
741.0,0.19962664510865036
740.0,0.1976368256904526
739.0,0.19531548509305963
738.0,0.1926002872405146
737.0,0.18996921359416064
736.0,0.18768839086887623
735.0,0.18628560811885508
734.0,0.18708664335714453
733.0,0.19273564472389304
732.0,0.20523320205917894
731.0,0.2229358452575705
730.0,0.24003014244569276
729.0,0.2499546879882324
728.0,0.2500319164905971
727.0,0.243439956993317
726.0,0.23485320989197467
725.0,0.22753159694671954
724.0,0.22279074185431513
723.0,0.22184874961635637
722.0,0.22709180502872828
721.0,0.2415423113895343
720.0,0.26536016101230064
719.0,0.2931116050183822
718.0,0.31623273857468837
717.0,0.32956859063939437
716.0,0.3332013163338259
715.0,0.32956859063939437
714.0,0.32111758532926427
713.0,0.3102473038608433
712.0,0.2994693430214084
711.0,0.29039087892735127
710.0,0.283078926833239
709.0,0.27703719105751046
708.0,0.2720522904552032
707.0,0.26865302445404504
706.0,0.2663213443229122
705.0,0.2639223629960543
704.0,0.26082336808927
703.0,0.2577463300934064
702.0,0.25547232652743346
701.0,0.2543787786930616
700.0,0.25383303562271453
699.0,0.25328797748333964
698.0,0.252432837262375
697.0,0.2509597312965428
696.0,0.2491060796178748
695.0,0.24741382125959088
694.0,0.24649354300903004
693.0,0.24626377782498987
692.0,0.24634035271400134
691.0,0.24626377782498987
690.0,0.2458811057745871
689.0,0.24496406623222855
688.0,0.24366823267894233
687.0,0.242376254091611
686.0,0.24139085734025634
685.0,0.2404832405378119
684.0,0.2393513804186438
683.0,0.23784680769640532
682.0,0.23604817396667577
681.0,0.23433144524098592
680.0,0.23328979273774086
679.0,0.23299263605019593
678.0,0.2334384473624691
677.0,0.23403357521428614
676.0,0.23455498190985002
675.0,0.23477863369501928
674.0,0.23462951970835144
673.0,0.23373590934800448
672.0,0.2321023839819094
671.0,0.2301797422364078
670.0,0.22833904065111255
669.0,0.2274582673590566
668.0,0.2306965398109182
667.0,0.23649713453240295
666.0,0.23837281543841726
665.0,0.23619777592540725
664.0,0.23351279376030587
663.0,0.23143589048642665
662.0,0.2299584456803314
661.0,0.22841251911874472
660.0,0.22709180502872828
659.0,0.22635980673997413
658.0,0.22657927670938993
657.0,0.22731164531785852
656.0,0.22811867980990108
655.0,0.22885365118501477
654.0,0.22914798835785577
653.0,0.2286330291422194
652.0,0.22738495015082916
651.0,0.22592119924748122
650.0,0.2246808781705225
649.0,0.22380748525292793
648.0,0.22279074185431513
647.0,0.22155931642876725
646.0,0.22054781659593825
645.0,0.22033137279285198
644.0,0.22098102808512943
643.0,0.22221081256513253
642.0,0.2234440892967382
641.0,0.22497239990115525
640.0,0.22716507276098175
639.0,0.2303273359445075
638.0,0.23433144524098592
637.0,0.23882418684426865
636.0,0.24359212745104175
635.0,0.2482591261890994
634.0,0.25142438306900816
633.0,0.25173442733125917
632.0,0.24879790541164692
631.0,0.24374435124576666
630.0,0.23807216157947098
629.0,0.23314118897858238
628.0,0.22958986848609375
627.0,0.2276049389179997
626.0,0.22665245801917688
625.0,0.22592119924748122
624.0,0.22504531091986135
623.0,0.22453519065426075
622.0,0.22475374025976347
621.0,0.22562904015008334
620.0,0.2267256516625462
619.0,0.2277516600281464
618.0,0.2286330291422194
617.0,0.2286330291422194
616.0,0.22738495015082916
615.0,0.2251182341812037
614.0,0.22300841514359493
613.0,0.222500680409635
612.0,0.22417118553538762
611.0,0.22694530663573742
610.0,0.22922160383085233
609.0,0.23003219867055757
608.0,0.2296635589048508
607.0,0.22848601002033342
606.0,0.22665245801917688
605.0,0.22475374025976347
604.0,0.2234440892967382
603.0,0.2235167441663184
602.0,0.22497239990115525
601.0,0.22723835285596783
600.0,0.22914798835785577
