cm-1,A
4000.0,0.007049039429553483
3999.0,0.007049039429553483
3998.0,0.007049039429553483
3997.0,0.007049039429553483
3996.0,0.007004901568658406
3995.0,0.006916639301937977
3994.0,0.006828394969235152
3993.0,0.006784279525863024
3992.0,0.006828394969235152
3991.0,0.006872514894289861
3990.0,0.006916639301937977
3989.0,0.006916639301937977
3988.0,0.006872514894289861
3987.0,0.006784279525863024
3986.0,0.006740168563263094
3985.0,0.006740168563263094
3984.0,0.006784279525863024
3983.0,0.006872514894289861
3982.0,0.00696076819309055
3981.0,0.007004901568658406
3980.0,0.007004901568658406
3979.0,0.007004901568658406
3978.0,0.00696076819309055
3977.0,0.006916639301937977
3976.0,0.006872514894289861
3975.0,0.006828394969235152
3974.0,0.006784279525863024
3973.0,0.006784279525863024
3972.0,0.006872514894289861
3971.0,0.007004901568658406
3970.0,0.007137328610972382
3969.0,0.007181479933320523
3968.0,0.007093181776687496
3967.0,0.007004901568658406
3966.0,0.006872514894289861
3965.0,0.006872514894289861
3964.0,0.006872514894289861
3963.0,0.006916639301937977
3962.0,0.006872514894289861
3961.0,0.006828394969235152
3960.0,0.006784279525863024
3959.0,0.006740168563263094
3958.0,0.006696062080525422
3957.0,0.006696062080525422
3956.0,0.006696062080525422
3955.0,0.006651960076740071
3954.0,0.006607862550997545
3953.0,0.00656376950238835
3952.0,0.006519680930003435
3951.0,0.006519680930003435
3950.0,0.00656376950238835
3949.0,0.006651960076740071
3948.0,0.006651960076740071
3947.0,0.006607862550997545
3946.0,0.00656376950238835
3945.0,0.00656376950238835
3944.0,0.006607862550997545
3943.0,0.006651960076740071
3942.0,0.00656376950238835
3941.0,0.006431517210272464
3940.0,0.006387442061109638
3939.0,0.006475596832934416
3938.0,0.00656376950238835
3937.0,0.006607862550997545
3936.0,0.00656376950238835
3935.0,0.006519680930003435
3934.0,0.006475596832934416
3933.0,0.006431517210272464
3932.0,0.006475596832934416
3931.0,0.006475596832934416
3930.0,0.006475596832934416
3929.0,0.006431517210272464
3928.0,0.006387442061109638
3927.0,0.006431517210272464
3926.0,0.006519680930003435
3925.0,0.006607862550997545
3924.0,0.006651960076740071
3923.0,0.006607862550997545
3922.0,0.006519680930003435
3921.0,0.006431517210272464
3920.0,0.006343371384537999
3919.0,0.006299305179649828
3918.0,0.006343371384537999
3917.0,0.006475596832934416
3916.0,0.006607862550997545
3915.0,0.006696062080525422
3914.0,0.006828394969235152
3913.0,0.00696076819309055
3912.0,0.007004901568658406
3911.0,0.007004901568658406
3910.0,0.006872514894289861
3909.0,0.006651960076740071
3908.0,0.006343371384537999
3907.0,0.005990966876386672
3906.0,0.00577085918230158
3905.0,0.005638848091999105
3904.0,0.005594853310833647
3903.0,0.005506877116487674
3902.0,0.005462895701502157
3901.0,0.005594853310833647
3900.0,0.005858888873877532
3899.0,0.006035001804881146
3898.0,0.006079041198713275
3897.0,0.006079041198713275
3896.0,0.006035001804881146
3895.0,0.005990966876386672
3894.0,0.00590291041179003
3893.0,0.005946936412324799
3892.0,0.006079041198713275
3891.0,0.006035001804881146
3890.0,0.005814871797682919
3889.0,0.005682847330363394
3888.0,0.00577085918230158
3887.0,0.006079041198713275
3886.0,0.006299305179649828
3885.0,0.006167133386013823
3884.0,0.005814871797682919
3883.0,0.005638848091999105
3882.0,0.005814871797682919
3881.0,0.006167133386013823
3880.0,0.00621118618129457
3879.0,0.005990966876386672
3878.0,0.00577085918230158
3877.0,0.005814871797682919
3876.0,0.006035001804881146
3875.0,0.006079041198713275
3874.0,0.005814871797682919
3873.0,0.00537494623139545
3872.0,0.005155150446602086
3871.0,0.0052870145684298375
3870.0,0.005506877116487674
3869.0,0.00537494623139545
3868.0,0.005067263269958211
3867.0,0.005067263269958211
3866.0,0.0052870145684298375
3865.0,0.005594853310833647
3864.0,0.005814871797682919
3863.0,0.00590291041179003
3862.0,0.005946936412324799
3861.0,0.006035001804881146
3860.0,0.006035001804881146
3859.0,0.00590291041179003
3858.0,0.005550862985963967
3857.0,0.005067263269958211
3856.0,0.00458420145758498
3855.0,0.00458420145758498
3854.0,0.005243055412371911
3853.0,0.005638848091999105
3852.0,0.005462895701502157
3851.0,0.005550862985963967
3850.0,0.006167133386013823
3849.0,0.006696062080525422
3848.0,0.006784279525863024
3847.0,0.00656376950238835
3846.0,0.006343371384537999
3845.0,0.006079041198713275
3844.0,0.005814871797682919
3843.0,0.00541891874010525
3842.0,0.004935465843858511
3841.0,0.00458420145758498
3840.0,0.0044964297349936455
3839.0,0.004671990922590297
3838.0,0.00489154225525934
3837.0,0.004935465843858511
3836.0,0.004935465843858511
3835.0,0.005111204635089406
3834.0,0.00541891874010525
3833.0,0.005814871797682919
3832.0,0.00612308505878878
3831.0,0.006167133386013823
3830.0,0.006079041198713275
3829.0,0.006079041198713275
3828.0,0.006167133386013823
3827.0,0.00621118618129457
3826.0,0.006035001804881146
3825.0,0.005638848091999105
3824.0,0.005243055412371911
3823.0,0.005199100705396198
3822.0,0.005506877116487674
3821.0,0.005638848091999105
3820.0,0.005243055412371911
3819.0,0.00489154225525934
3818.0,0.005199100705396198
3817.0,0.005946936412324799
3816.0,0.006519680930003435
3815.0,0.00656376950238835
3814.0,0.006387442061109638
3813.0,0.006519680930003435
3812.0,0.006696062080525422
3811.0,0.006696062080525422
3810.0,0.006475596832934416
3809.0,0.006387442061109638
3808.0,0.006475596832934416
3807.0,0.006431517210272464
3806.0,0.006035001804881146
3805.0,0.005462895701502157
3804.0,0.005199100705396198
3803.0,0.00537494623139545
3802.0,0.00577085918230158
3801.0,0.00577085918230158
3800.0,0.00541891874010525
3799.0,0.00537494623139545
3798.0,0.005814871797682919
3797.0,0.006299305179649828
3796.0,0.006519680930003435
3795.0,0.006519680930003435
3794.0,0.006607862550997545
3793.0,0.006828394969235152
3792.0,0.007093181776687496
3791.0,0.007225635744644521
3790.0,0.007181479933320523
3789.0,0.007093181776687496
3788.0,0.007004901568658406
3787.0,0.00696076819309055
3786.0,0.007004901568658406
3785.0,0.007004901568658406
3784.0,0.006872514894289861
3783.0,0.006651960076740071
3782.0,0.006475596832934416
3781.0,0.006519680930003435
3780.0,0.006651960076740071
3779.0,0.006784279525863024
3778.0,0.006740168563263094
3777.0,0.006696062080525422
3776.0,0.006828394969235152
3775.0,0.006872514894289861
3774.0,0.006740168563263094
3773.0,0.006519680930003435
3772.0,0.006343371384537999
3771.0,0.006343371384537999
3770.0,0.006387442061109638
3769.0,0.006343371384537999
3768.0,0.006299305179649828
3767.0,0.006431517210272464
3766.0,0.006696062080525422
3765.0,0.006740168563263094
3764.0,0.006607862550997545
3763.0,0.006343371384537999
3762.0,0.00621118618129457
3761.0,0.006167133386013823
3760.0,0.006167133386013823
3759.0,0.006167133386013823
3758.0,0.006079041198713275
3757.0,0.00590291041179003
3756.0,0.005682847330363394
3755.0,0.00537494623139545
3754.0,0.005023326350308999
3753.0,0.004715892310740433
3752.0,0.004759798137184523
3751.0,0.004979393875242044
3750.0,0.005067263269958211
3749.0,0.004935465843858511
3748.0,0.00489154225525934
3747.0,0.005111204635089406
3746.0,0.005594853310833647
3745.0,0.005990966876386672
3744.0,0.005858888873877532
3743.0,0.005243055412371911
3742.0,0.005111204635089406
3741.0,0.00541891874010525
3740.0,0.005506877116487674
3739.0,0.005199100705396198
3738.0,0.004803708402820517
3737.0,0.004715892310740433
3736.0,0.00489154225525934
3735.0,0.005023326350308999
3734.0,0.005023326350308999
3733.0,0.005067263269958211
3732.0,0.0052870145684298375
3731.0,0.005550862985963967
3730.0,0.00577085918230158
3729.0,0.006035001804881146
3728.0,0.00625524344553785
3727.0,0.006431517210272464
3726.0,0.006431517210272464
3725.0,0.006387442061109638
3724.0,0.006431517210272464
3723.0,0.00656376950238835
3722.0,0.006696062080525422
3721.0,0.006784279525863024
3720.0,0.006828394969235152
3719.0,0.006916639301937977
3718.0,0.00696076819309055
3717.0,0.006828394969235152
3716.0,0.006387442061109638
3715.0,0.005814871797682919
3714.0,0.005155150446602086
3713.0,0.004803708402820517
3712.0,0.004803708402820517
3711.0,0.005067263269958211
3710.0,0.005330978174470591
3709.0,0.005726851026829571
3708.0,0.00621118618129457
3707.0,0.006607862550997545
3706.0,0.006872514894289861
3705.0,0.006916639301937977
3704.0,0.006916639301937977
3703.0,0.00696076819309055
3702.0,0.007004901568658406
3701.0,0.007004901568658406
3700.0,0.00696076819309055
3699.0,0.007049039429553483
3698.0,0.007181479933320523
3697.0,0.007313960837872058
3696.0,0.007181479933320523
3695.0,0.006916639301937977
3694.0,0.00656376950238835
3693.0,0.006167133386013823
3692.0,0.00577085918230158
3691.0,0.005638848091999105
3690.0,0.005814871797682919
3689.0,0.00612308505878878
3688.0,0.00625524344553785
3687.0,0.006475596832934416
3686.0,0.006872514894289861
3685.0,0.007313960837872058
3684.0,0.007534852191956709
3683.0,0.007490664932224611
3682.0,0.007269796045857202
3681.0,0.00696076819309055
3680.0,0.00656376950238835
3679.0,0.005990966876386672
3678.0,0.005506877116487674
3677.0,0.005506877116487674
3676.0,0.005946936412324799
3675.0,0.005946936412324799
3674.0,0.00541891874010525
3673.0,0.005199100705396198
3672.0,0.005594853310833647
3671.0,0.006343371384537999
3670.0,0.007049039429553483
3669.0,0.007313960837872058
3668.0,0.007313960837872058
3667.0,0.007534852191956709
3666.0,0.007932739972333236
3665.0,0.008198201155356077
3664.0,0.008330992620051436
3663.0,0.008330992620051436
3662.0,0.008242460465651913
3661.0,0.008065450281052211
3660.0,0.007844288957383316
3659.0,0.0075790439479759275
3658.0,0.007534852191956709
3657.0,0.0075790439479759275
3656.0,0.007534852191956709
3655.0,0.007181479933320523
3654.0,0.006740168563263094
3653.0,0.006343371384537999
3652.0,0.005946936412324799
3651.0,0.005814871797682919
3650.0,0.00612308505878878
3649.0,0.006475596832934416
3648.0,0.006519680930003435
3647.0,0.006651960076740071
3646.0,0.007004901568658406
3645.0,0.007534852191956709
3644.0,0.007976972236149349
3643.0,0.008242460465651913
3642.0,0.008375265465994541
3641.0,0.008375265465994541
3640.0,0.008375265465994541
3639.0,0.008419542825660153
3638.0,0.008375265465994541
3637.0,0.008286724286910463
3636.0,0.008198201155356077
3635.0,0.008109696063975047
3634.0,0.007932739972333236
3633.0,0.007667440952535687
3632.0,0.007358130121602358
3631.0,0.007313960837872058
3630.0,0.007711646202907652
3629.0,0.008198201155356077
3628.0,0.008153946355103248
3627.0,0.007932739972333236
3626.0,0.008153946355103248
3625.0,0.008552401996197112
3624.0,0.008685301823389224
3623.0,0.00850811108984062
3622.0,0.008242460465651913
3621.0,0.008153946355103248
3620.0,0.008198201155356077
3619.0,0.008242460465651913
3618.0,0.008065450281052211
3617.0,0.007844288957383316
3616.0,0.007800070204414977
3615.0,0.007844288957383316
3614.0,0.007844288957383316
3613.0,0.00762324020119709
3612.0,0.007269796045857202
3611.0,0.007093181776687496
3610.0,0.007269796045857202
3609.0,0.007711646202907652
3608.0,0.008109696063975047
3607.0,0.008375265465994541
3606.0,0.00850811108984062
3605.0,0.008640997362049818
3604.0,0.008773924307505121
3603.0,0.008862564879688284
3602.0,0.008906891951112605
3601.0,0.008906891951112605
3600.0,0.008818242332126802
3599.0,0.008640997362049818
3598.0,0.008463824699968647
3597.0,0.008375265465994541
3596.0,0.008375265465994541
3595.0,0.00850811108984062
3594.0,0.008596697419959609
3593.0,0.008552401996197112
3592.0,0.008463824699968647
3591.0,0.008330992620051436
3590.0,0.008198201155356077
3589.0,0.008153946355103248
3588.0,0.008242460465651913
3587.0,0.008286724286910463
3586.0,0.008286724286910463
3585.0,0.008463824699968647
3584.0,0.008773924307505121
3583.0,0.00908424549391551
3582.0,0.009217308196862062
3581.0,0.009217308196862062
3580.0,0.009217308196862062
3579.0,0.009217308196862062
3578.0,0.009261671492462709
3577.0,0.009306039320248427
3576.0,0.009439170005980158
3575.0,0.009572341514736404
3574.0,0.00966114521239847
3573.0,0.009616741093766423
3572.0,0.00939478857608056
3571.0,0.00908424549391551
3570.0,0.008685301823389224
3569.0,0.008419542825660153
3568.0,0.008463824699968647
3567.0,0.008685301823389224
3566.0,0.008773924307505121
3565.0,0.008818242332126802
3564.0,0.008906891951112605
3563.0,0.009172949432521227
3562.0,0.009483555971770974
3561.0,0.009705553871561357
3560.0,0.009927665307847056
3559.0,0.010060986715464404
3558.0,0.010105436281226954
3557.0,0.010060986715464404
3556.0,0.01001654169860089
3555.0,0.009972101229705377
3554.0,0.009972101229705377
3553.0,0.010060986715464404
3552.0,0.010105436281226954
3551.0,0.010060986715464404
3550.0,0.009927665307847056
3549.0,0.009794384815193347
3548.0,0.009705553871561357
3547.0,0.009705553871561357
3546.0,0.00974996707218323
3545.0,0.00974996707218323
3544.0,0.009838807101520963
3543.0,0.009972101229705377
3542.0,0.010105436281226954
3541.0,0.010194349063173958
3540.0,0.01023881228122181
3539.0,0.010194349063173958
3538.0,0.010149890396819572
3537.0,0.010149890396819572
3536.0,0.010194349063173958
3535.0,0.010194349063173958
3534.0,0.010105436281226954
3533.0,0.009972101229705377
3532.0,0.009838807101520963
3531.0,0.00974996707218323
3530.0,0.009705553871561357
3529.0,0.009705553871561357
3528.0,0.00966114521239847
3527.0,0.009527946474380489
3526.0,0.009439170005980158
3525.0,0.009527946474380489
3524.0,0.009705553871561357
3523.0,0.009883233932095559
3522.0,0.009972101229705377
3521.0,0.009927665307847056
3520.0,0.009927665307847056
3519.0,0.009927665307847056
3518.0,0.009972101229705377
3517.0,0.01001654169860089
3516.0,0.010060986715464404
3515.0,0.010149890396819572
3514.0,0.010149890396819572
3513.0,0.010060986715464404
3512.0,0.009927665307847056
3511.0,0.009794384815193347
3510.0,0.009705553871561357
3509.0,0.009705553871561357
3508.0,0.009705553871561357
3507.0,0.00974996707218323
3506.0,0.00974996707218323
3505.0,0.00974996707218323
3504.0,0.00974996707218323
3503.0,0.00974996707218323
3502.0,0.009705553871561357
3501.0,0.009705553871561357
3500.0,0.00974996707218323
3499.0,0.009838807101520963
3498.0,0.009883233932095559
3497.0,0.009927665307847056
3496.0,0.009927665307847056
3495.0,0.009927665307847056
3494.0,0.009883233932095559
3493.0,0.009883233932095559
3492.0,0.009883233932095559
3491.0,0.009838807101520963
3490.0,0.009838807101520963
3489.0,0.009838807101520963
3488.0,0.009883233932095559
3487.0,0.009927665307847056
3486.0,0.009927665307847056
3485.0,0.009838807101520963
3484.0,0.009838807101520963
3483.0,0.009838807101520963
3482.0,0.009927665307847056
3481.0,0.009972101229705377
3480.0,0.010060986715464404
3479.0,0.010105436281226954
3478.0,0.010149890396819572
3477.0,0.010149890396819572
3476.0,0.010105436281226954
3475.0,0.01001654169860089
3474.0,0.009927665307847056
3473.0,0.009927665307847056
3472.0,0.01001654169860089
3471.0,0.010105436281226954
3470.0,0.010194349063173958
3469.0,0.01023881228122181
3468.0,0.010283280051895272
3467.0,0.010283280051895272
3466.0,0.01023881228122181
3465.0,0.01023881228122181
3464.0,0.01023881228122181
3463.0,0.010283280051895272
3462.0,0.01037222925484893
3461.0,0.010416710688994968
3460.0,0.01046119667949763
3459.0,0.010550182333308289
3458.0,0.010683695010048622
3457.0,0.01086177578421088
3456.0,0.010995384301463185
3455.0,0.011129033935354915
3454.0,0.01117359295472431
3453.0,0.01117359295472431
3452.0,0.01117359295472431
3451.0,0.011262724711199823
3450.0,0.011396456654336085
3449.0,0.011530229790124524
3448.0,0.011664044143949504
3447.0,0.011797899741219142
3446.0,0.011887159731648111
3445.0,0.011887159731648111
3444.0,0.0119764380713403
3443.0,0.012065734767841452
3442.0,0.01215504982870197
3441.0,0.012289056869694281
3440.0,0.012423105273012602
3439.0,0.012512493866907004
3438.0,0.012557195064198723
3437.0,0.012512493866907004
3436.0,0.012512493866907004
3435.0,0.01260190086298274
3434.0,0.012780770091995297
3433.0,0.012914970375878188
3432.0,0.013004460275618523
3431.0,0.012959713020733288
3430.0,0.012870232340102872
3429.0,0.012780770091995297
3428.0,0.012691326268817527
3427.0,0.01260190086298274
3426.0,0.012557195064198723
3425.0,0.012512493866907004
3424.0,0.012423105273012602
3423.0,0.012333735073725371
3422.0,0.012244383261476699
3421.0,0.01215504982870197
3420.0,0.012065734767841452
3419.0,0.012021084124518078
3418.0,0.011887159731648111
3417.0,0.011753276624621556
3416.0,0.011574829993696856
3415.0,0.011396456654336085
3414.0,0.011218156546359825
3413.0,0.011084479487313281
3412.0,0.010995384301463185
3411.0,0.010995384301463185
3410.0,0.011039929609661936
3409.0,0.011084479487313281
3408.0,0.011039929609661936
3407.0,0.010906307389674463
3406.0,0.010728208358306901
3405.0,0.010550182333308289
3404.0,0.010416710688994968
3403.0,0.01037222925484893
3402.0,0.01037222925484893
3401.0,0.010416710688994968
3400.0,0.01046119667949763
3399.0,0.010550182333308289
3398.0,0.010594681998483901
3397.0,0.010594681998483901
3396.0,0.010505687227290839
3395.0,0.010416710688994968
3394.0,0.010283280051895272
3393.0,0.010194349063173958
3392.0,0.010105436281226954
3391.0,0.010060986715464404
3390.0,0.010060986715464404
3389.0,0.01001654169860089
3388.0,0.009972101229705377
3387.0,0.009972101229705377
3386.0,0.01001654169860089
3385.0,0.010105436281226954
3384.0,0.010194349063173958
3383.0,0.010194349063173958
3382.0,0.010149890396819572
3381.0,0.010149890396819572
3380.0,0.010105436281226954
3379.0,0.010060986715464404
3378.0,0.009972101229705377
3377.0,0.009927665307847056
3376.0,0.009838807101520963
3375.0,0.009794384815193347
3374.0,0.009794384815193347
3373.0,0.009883233932095559
3372.0,0.009927665307847056
3371.0,0.01001654169860089
3370.0,0.010060986715464404
3369.0,0.01001654169860089
3368.0,0.009972101229705377
3367.0,0.009972101229705377
3366.0,0.009927665307847056
3365.0,0.009972101229705377
3364.0,0.009972101229705377
3363.0,0.01001654169860089
3362.0,0.01001654169860089
3361.0,0.01001654169860089
3360.0,0.01001654169860089
3359.0,0.009972101229705377
3358.0,0.009972101229705377
3357.0,0.009972101229705377
3356.0,0.01001654169860089
3355.0,0.010060986715464404
3354.0,0.010105436281226954
3353.0,0.010149890396819572
3352.0,0.010149890396819572
3351.0,0.010105436281226954
3350.0,0.010105436281226954
3349.0,0.010105436281226954
3348.0,0.010105436281226954
3347.0,0.010105436281226954
3346.0,0.010105436281226954
3345.0,0.010105436281226954
3344.0,0.010105436281226954
3343.0,0.010105436281226954
3342.0,0.010105436281226954
3341.0,0.010149890396819572
3340.0,0.010194349063173958
3339.0,0.010327752376126709
3338.0,0.010416710688994968
3337.0,0.010416710688994968
3336.0,0.010416710688994968
3335.0,0.010283280051895272
3334.0,0.010149890396819572
3333.0,0.01001654169860089
3332.0,0.009972101229705377
3331.0,0.009927665307847056
3330.0,0.009972101229705377
3329.0,0.01001654169860089
3328.0,0.01001654169860089
3327.0,0.01001654169860089
3326.0,0.009972101229705377
3325.0,0.009972101229705377
3324.0,0.009927665307847056
3323.0,0.009927665307847056
3322.0,0.009883233932095559
3321.0,0.009927665307847056
3320.0,0.009927665307847056
3319.0,0.01001654169860089
3318.0,0.010105436281226954
3317.0,0.010149890396819572
3316.0,0.010105436281226954
3315.0,0.010105436281226954
3314.0,0.010060986715464404
3313.0,0.01001654169860089
3312.0,0.01001654169860089
3311.0,0.009972101229705377
3310.0,0.009927665307847056
3309.0,0.009838807101520963
3308.0,0.009838807101520963
3307.0,0.009883233932095559
3306.0,0.009972101229705377
3305.0,0.010060986715464404
3304.0,0.010105436281226954
3303.0,0.010060986715464404
3302.0,0.009927665307847056
3301.0,0.009838807101520963
3300.0,0.009794384815193347
3299.0,0.009838807101520963
3298.0,0.009883233932095559
3297.0,0.009972101229705377
3296.0,0.01001654169860089
3295.0,0.010060986715464404
3294.0,0.010060986715464404
3293.0,0.010060986715464404
3292.0,0.009972101229705377
3291.0,0.009838807101520963
3290.0,0.009705553871561357
3289.0,0.009616741093766423
3288.0,0.009572341514736404
3287.0,0.009527946474380489
3286.0,0.009527946474380489
3285.0,0.009572341514736404
3284.0,0.00966114521239847
3283.0,0.00974996707218323
3282.0,0.009794384815193347
3281.0,0.009794384815193347
3280.0,0.009705553871561357
3279.0,0.00966114521239847
3278.0,0.009616741093766423
3277.0,0.009572341514736404
3276.0,0.009572341514736404
3275.0,0.009616741093766423
3274.0,0.00966114521239847
3273.0,0.00966114521239847
3272.0,0.00966114521239847
3271.0,0.009705553871561357
3270.0,0.009705553871561357
3269.0,0.00974996707218323
3268.0,0.00974996707218323
3267.0,0.009705553871561357
3266.0,0.009616741093766423
3265.0,0.009572341514736404
3264.0,0.009616741093766423
3263.0,0.00966114521239847
3262.0,0.009705553871561357
3261.0,0.009705553871561357
3260.0,0.00966114521239847
3259.0,0.009616741093766423
3258.0,0.009572341514736404
3257.0,0.009572341514736404
3256.0,0.009572341514736404
3255.0,0.009572341514736404
3254.0,0.009572341514736404
3253.0,0.009572341514736404
3252.0,0.009527946474380489
3251.0,0.009483555971770974
3250.0,0.009439170005980158
3249.0,0.009439170005980158
3248.0,0.009483555971770974
3247.0,0.009527946474380489
3246.0,0.009616741093766423
3245.0,0.00966114521239847
3244.0,0.00966114521239847
3243.0,0.009705553871561357
3242.0,0.009705553871561357
3241.0,0.00966114521239847
3240.0,0.009572341514736404
3239.0,0.009483555971770974
3238.0,0.009439170005980158
3237.0,0.00939478857608056
3236.0,0.009439170005980158
3235.0,0.009483555971770974
3234.0,0.009439170005980158
3233.0,0.009306039320248427
3232.0,0.009172949432521227
3231.0,0.009128595198514056
3230.0,0.009128595198514056
3229.0,0.009217308196862062
3228.0,0.009306039320248427
3227.0,0.009350411681145587
3226.0,0.009350411681145587
3225.0,0.009306039320248427
3224.0,0.009350411681145587
3223.0,0.009350411681145587
3222.0,0.00939478857608056
3221.0,0.00939478857608056
3220.0,0.00939478857608056
3219.0,0.009350411681145587
3218.0,0.009306039320248427
3217.0,0.009306039320248427
3216.0,0.009306039320248427
3215.0,0.009350411681145587
3214.0,0.00939478857608056
3213.0,0.00939478857608056
3212.0,0.00939478857608056
3211.0,0.00939478857608056
3210.0,0.00939478857608056
3209.0,0.009439170005980158
3208.0,0.009439170005980158
3207.0,0.009483555971770974
3206.0,0.009439170005980158
3205.0,0.00939478857608056
3204.0,0.009261671492462709
3203.0,0.009128595198514056
3202.0,0.009039900317800775
3201.0,0.009039900317800775
3200.0,0.009128595198514056
3199.0,0.009217308196862062
3198.0,0.009306039320248427
3197.0,0.009350411681145587
3196.0,0.00939478857608056
3195.0,0.009439170005980158
3194.0,0.009483555971770974
3193.0,0.009483555971770974
3192.0,0.009527946474380489
3191.0,0.009527946474380489
3190.0,0.009483555971770974
3189.0,0.009439170005980158
3188.0,0.009306039320248427
3187.0,0.009217308196862062
3186.0,0.009128595198514056
3185.0,0.009172949432521227
3184.0,0.009217308196862062
3183.0,0.009261671492462709
3182.0,0.009217308196862062
3181.0,0.009172949432521227
3180.0,0.009128595198514056
3179.0,0.009128595198514056
3178.0,0.009217308196862062
3177.0,0.009261671492462709
3176.0,0.009261671492462709
3175.0,0.009261671492462709
3174.0,0.009261671492462709
3173.0,0.009261671492462709
3172.0,0.009261671492462709
3171.0,0.009306039320248427
3170.0,0.009306039320248427
3169.0,0.009261671492462709
3168.0,0.009261671492462709
3167.0,0.009261671492462709
3166.0,0.009261671492462709
3165.0,0.009306039320248427
3164.0,0.009306039320248427
3163.0,0.009350411681145587
3162.0,0.009350411681145587
3161.0,0.009306039320248427
3160.0,0.009217308196862062
3159.0,0.009128595198514056
3158.0,0.00908424549391551
3157.0,0.00908424549391551
3156.0,0.009172949432521227
3155.0,0.009261671492462709
3154.0,0.009261671492462709
3153.0,0.009261671492462709
3152.0,0.009261671492462709
3151.0,0.009261671492462709
3150.0,0.009261671492462709
3149.0,0.009350411681145587
3148.0,0.00939478857608056
3147.0,0.00939478857608056
3146.0,0.009439170005980158
3145.0,0.009483555971770974
3144.0,0.009527946474380489
3143.0,0.009572341514736404
3142.0,0.009616741093766423
3141.0,0.00966114521239847
3140.0,0.009705553871561357
3139.0,0.009705553871561357
3138.0,0.00966114521239847
3137.0,0.00966114521239847
3136.0,0.009616741093766423
3135.0,0.009616741093766423
3134.0,0.009616741093766423
3133.0,0.00966114521239847
3132.0,0.009705553871561357
3131.0,0.009794384815193347
3130.0,0.009838807101520963
3129.0,0.009838807101520963
3128.0,0.009838807101520963
3127.0,0.009883233932095559
3126.0,0.009883233932095559
3125.0,0.009883233932095559
3124.0,0.009883233932095559
3123.0,0.009838807101520963
3122.0,0.009838807101520963
3121.0,0.009794384815193347
3120.0,0.009838807101520963
3119.0,0.009883233932095559
3118.0,0.009972101229705377
3117.0,0.010105436281226954
3116.0,0.010194349063173958
3115.0,0.01023881228122181
3114.0,0.010327752376126709
3113.0,0.010416710688994968
3112.0,0.010505687227290839
3111.0,0.010594681998483901
3110.0,0.010639186223752484
3109.0,0.010683695010048622
3108.0,0.010728208358306901
3107.0,0.010817248744452446
3106.0,0.010906307389674463
3105.0,0.011039929609661936
3104.0,0.011129033935354915
3103.0,0.011129033935354915
3102.0,0.011039929609661936
3101.0,0.010906307389674463
3100.0,0.010728208358306901
3099.0,0.010594681998483901
3098.0,0.010550182333308289
3097.0,0.010550182333308289
3096.0,0.010594681998483901
3095.0,0.010639186223752484
3094.0,0.010683695010048622
3093.0,0.010728208358306901
3092.0,0.01077272626946324
3091.0,0.010817248744452446
3090.0,0.01086177578421088
3089.0,0.010950843561779777
3088.0,0.011039929609661936
3087.0,0.01117359295472431
3086.0,0.011307297450183107
3085.0,0.011441043121384498
3084.0,0.011530229790124524
3083.0,0.011619434777991433
3082.0,0.011664044143949504
3081.0,0.011708658092512314
3080.0,0.011708658092512314
3079.0,0.011708658092512314
3078.0,0.011664044143949504
3077.0,0.011664044143949504
3076.0,0.011664044143949504
3075.0,0.011708658092512314
3074.0,0.011797899741219142
3073.0,0.011842527443247208
3072.0,0.011842527443247208
3071.0,0.011753276624621556
3070.0,0.011708658092512314
3069.0,0.011708658092512314
3068.0,0.011753276624621556
3067.0,0.011753276624621556
3066.0,0.011753276624621556
3065.0,0.011708658092512314
3064.0,0.011619434777991433
3063.0,0.011574829993696856
3062.0,0.011530229790124524
3061.0,0.011530229790124524
3060.0,0.011530229790124524
3059.0,0.011619434777991433
3058.0,0.011708658092512314
3057.0,0.011797899741219142
3056.0,0.011887159731648111
3055.0,0.011931796607364653
3054.0,0.011931796607364653
3053.0,0.011887159731648111
3052.0,0.011753276624621556
3051.0,0.011530229790124524
3050.0,0.011351874764248926
3049.0,0.011129033935354915
3048.0,0.010950843561779777
3047.0,0.01077272626946324
3046.0,0.010505687227290839
3045.0,0.01023881228122181
3044.0,0.009972101229705377
3043.0,0.009794384815193347
3042.0,0.009705553871561357
3041.0,0.00966114521239847
3040.0,0.009705553871561357
3039.0,0.00974996707218323
3038.0,0.009794384815193347
3037.0,0.009838807101520963
3036.0,0.009794384815193347
3035.0,0.00974996707218323
3034.0,0.00966114521239847
3033.0,0.009616741093766423
3032.0,0.009616741093766423
3031.0,0.00974996707218323
3030.0,0.009883233932095559
3029.0,0.009972101229705377
3028.0,0.010060986715464404
3027.0,0.010149890396819572
3026.0,0.01023881228122181
3025.0,0.010327752376126709
3024.0,0.01046119667949763
3023.0,0.010639186223752484
3022.0,0.010817248744452446
3021.0,0.011039929609661936
3020.0,0.011218156546359825
3019.0,0.011396456654336085
3018.0,0.011530229790124524
3017.0,0.011708658092512314
3016.0,0.011931796607364653
3015.0,0.012199714248127602
3014.0,0.012467797270160563
3013.0,0.012736045877764557
3012.0,0.013004460275618523
3011.0,0.013273040668781544
3010.0,0.013541787262693505
3009.0,0.01381070026317599
3008.0,0.014124642691606404
3007.0,0.014438812226654996
3006.0,0.014708281407112
3005.0,0.014932966849499074
3004.0,0.015112798935672522
3003.0,0.015292705517326866
3002.0,0.01547268665620738
3001.0,0.015697768020096703
3000.0,0.015877917138889863
2999.0,0.016058141016111804
2998.0,0.01628352608625061
2997.0,0.016509028184833463
2996.0,0.016734647433454652
2995.0,0.016960383953898095
2994.0,0.017186237868137555
2993.0,0.017367005605150476
2992.0,0.01759307113620534
2991.0,0.017728766960431575
2990.0,0.017864505196230507
2989.0,0.018045555530026514
2988.0,0.01831727262871463
2987.0,0.018634490921455527
2986.0,0.018951941086827073
2985.0,0.019315025636685412
2984.0,0.019678413991243593
2983.0,0.020087589665283012
2982.0,0.020497151212598652
2981.0,0.0209982515252789
2980.0,0.0214542995372613
2979.0,0.021910826943857264
2978.0,0.022413561996148967
2977.0,0.022871099419317753
2976.0,0.023329119375188556
2975.0,0.023695883447997224
2974.0,0.024108863598207186
2973.0,0.024430342106337877
2972.0,0.02475205875931885
2971.0,0.02498200236711723
2970.0,0.02516604495145991
2969.0,0.025258095499050004
2968.0,0.025258095499050004
2967.0,0.02521206778644225
2966.0,0.02516604495145991
2965.0,0.02516604495145991
2964.0,0.02516604495145991
2963.0,0.02512002699306959
2962.0,0.02498200236711723
2961.0,0.02475205875931885
2960.0,0.024430342106337877
2959.0,0.02406295751688936
2958.0,0.023604163388120325
2957.0,0.02314585342378117
2956.0,0.022733787572707387
2955.0,0.022322112326006227
2954.0,0.021910826943857264
2953.0,0.0214542995372613
2952.0,0.0209982515252789
2951.0,0.020542681902151694
2950.0,0.02004210665933459
2949.0,0.01958753839310856
2948.0,0.019178833355664393
2947.0,0.018770512579999288
2946.0,0.01831727262871463
2945.0,0.017955020928509757
2944.0,0.01759307113620534
2943.0,0.017321806616515723
2942.0,0.017050711425501408
2941.0,0.016824927962187042
2940.0,0.016554142658660398
2939.0,0.01632861713980338
2938.0,0.016058141016111804
2937.0,0.015877917138889863
2936.0,0.015697768020096703
2935.0,0.015562705203923999
2934.0,0.015517693597737248
2933.0,0.015562705203923999
2932.0,0.015607721475734415
2931.0,0.015652742414136167
2930.0,0.015697768020096703
2929.0,0.015742798294583915
2928.0,0.01578783323856614
2927.0,0.015742798294583915
2926.0,0.015697768020096703
2925.0,0.015652742414136167
2924.0,0.015652742414136167
2923.0,0.015697768020096703
2922.0,0.01578783323856614
2921.0,0.01578783323856614
2920.0,0.01578783323856614
2919.0,0.015877917138889863
2918.0,0.01596801972881945
2917.0,0.016148281008528276
2916.0,0.01632861713980338
2915.0,0.016509028184833463
2914.0,0.016734647433454652
2913.0,0.016960383953898095
2912.0,0.017231422748988034
2911.0,0.017457417697056554
2910.0,0.017638298366853045
2909.0,0.017728766960431575
2908.0,0.01768353030793479
2907.0,0.017547848615010242
2906.0,0.017367005605150476
2905.0,0.017186237868137555
2904.0,0.016915227262211507
2903.0,0.016689514205884493
2902.0,0.016373712875465518
2901.0,0.016103208673694303
2900.0,0.01578783323856614
2899.0,0.015562705203923999
2898.0,0.015337693809893471
2897.0,0.015157768594724175
2896.0,0.015067833932588037
2895.0,0.014977917890464765
2894.0,0.014888020460646079
2893.0,0.014843078722943437
2892.0,0.014798141635428141
2891.0,0.014798141635428141
2890.0,0.014753209197138295
2889.0,0.014708281407112
2888.0,0.014618439768003144
2887.0,0.0144837121472845
2886.0,0.014304140310157809
2885.0,0.014124642691606404
2884.0,0.013945219230304673
2883.0,0.01381070026317599
2882.0,0.01372104409400876
2881.0,0.013631406429727155
2880.0,0.013631406429727155
2879.0,0.013676222949234651
2878.0,0.01372104409400876
2877.0,0.013676222949234651
2876.0,0.013586594534531482
2875.0,0.013496984613259544
2874.0,0.013452186585275916
2873.0,0.013407393177789162
2872.0,0.013362604389846044
2871.0,0.013273040668781544
2870.0,0.013138729709955221
2869.0,0.013093968619278806
2868.0,0.013049212141483357
2867.0,0.013049212141483357
2866.0,0.013049212141483357
2865.0,0.013049212141483357
2864.0,0.013004460275618523
2863.0,0.013004460275618523
2862.0,0.013004460275618523
2861.0,0.013004460275618523
2860.0,0.013004460275618523
2859.0,0.013004460275618523
2858.0,0.013004460275618523
2857.0,0.013049212141483357
2856.0,0.013093968619278806
2855.0,0.013093968619278806
2854.0,0.013004460275618523
2853.0,0.012825498912458322
2852.0,0.01264661126420652
2851.0,0.012467797270160563
2850.0,0.012333735073725371
2849.0,0.01215504982870197
2848.0,0.012021084124518078
2847.0,0.011797899741219142
2846.0,0.011574829993696856
2845.0,0.011351874764248926
2844.0,0.011129033935354915
2843.0,0.010950843561779777
2842.0,0.010817248744452446
2841.0,0.010728208358306901
2840.0,0.010683695010048622
2839.0,0.010594681998483901
2838.0,0.010505687227290839
2837.0,0.01037222925484893
2836.0,0.010327752376126709
2835.0,0.01023881228122181
2834.0,0.010194349063173958
2833.0,0.010149890396819572
2832.0,0.010149890396819572
2831.0,0.010149890396819572
2830.0,0.010149890396819572
2829.0,0.010105436281226954
2828.0,0.010060986715464404
2827.0,0.009972101229705377
2826.0,0.009883233932095559
2825.0,0.009794384815193347
2824.0,0.00974996707218323
2823.0,0.00974996707218323
2822.0,0.009794384815193347
2821.0,0.009838807101520963
2820.0,0.009838807101520963
2819.0,0.009838807101520963
2818.0,0.00974996707218323
2817.0,0.009705553871561357
2816.0,0.00966114521239847
2815.0,0.00966114521239847
2814.0,0.00966114521239847
2813.0,0.00966114521239847
2812.0,0.009616741093766423
2811.0,0.009616741093766423
2810.0,0.00966114521239847
2809.0,0.009705553871561357
2808.0,0.009705553871561357
2807.0,0.00974996707218323
2806.0,0.00974996707218323
2805.0,0.00974996707218323
2804.0,0.00974996707218323
2803.0,0.00966114521239847
2802.0,0.009572341514736404
2801.0,0.009527946474380489
2800.0,0.009483555971770974
2799.0,0.009527946474380489
2798.0,0.009527946474380489
2797.0,0.009572341514736404
2796.0,0.009572341514736404
2795.0,0.009527946474380489
2794.0,0.009439170005980158
2793.0,0.009306039320248427
2792.0,0.009217308196862062
2791.0,0.009172949432521227
2790.0,0.009128595198514056
2789.0,0.009128595198514056
2788.0,0.009172949432521227
2787.0,0.009217308196862062
2786.0,0.009217308196862062
2785.0,0.009217308196862062
2784.0,0.009128595198514056
2783.0,0.008995559669244813
2782.0,0.008951223547323472
2781.0,0.008862564879688284
2780.0,0.008862564879688284
2779.0,0.008818242332126802
2778.0,0.008818242332126802
2777.0,0.008773924307505121
2776.0,0.008773924307505121
2775.0,0.008773924307505121
2774.0,0.008818242332126802
2773.0,0.008862564879688284
2772.0,0.008951223547323472
2771.0,0.008951223547323472
2770.0,0.008906891951112605
2769.0,0.008862564879688284
2768.0,0.008818242332126802
2767.0,0.008818242332126802
2766.0,0.008862564879688284
2765.0,0.008862564879688284
2764.0,0.008818242332126802
2763.0,0.0087296108049002
2762.0,0.008596697419959609
2761.0,0.008552401996197112
2760.0,0.008552401996197112
2759.0,0.008596697419959609
2758.0,0.008685301823389224
2757.0,0.0087296108049002
2756.0,0.008773924307505121
2755.0,0.008818242332126802
2754.0,0.008862564879688284
2753.0,0.008818242332126802
2752.0,0.0087296108049002
2751.0,0.008685301823389224
2750.0,0.008640997362049818
2749.0,0.008640997362049818
2748.0,0.008640997362049818
2747.0,0.008640997362049818
2746.0,0.008596697419959609
2745.0,0.008552401996197112
2744.0,0.008596697419959609
2743.0,0.008640997362049818
2742.0,0.008640997362049818
2741.0,0.008596697419959609
2740.0,0.008552401996197112
2739.0,0.00850811108984062
2738.0,0.008552401996197112
2737.0,0.008596697419959609
2736.0,0.008640997362049818
2735.0,0.008596697419959609
2734.0,0.008596697419959609
2733.0,0.008552401996197112
2732.0,0.008596697419959609
2731.0,0.008596697419959609
2730.0,0.008596697419959609
2729.0,0.008552401996197112
2728.0,0.008552401996197112
2727.0,0.008463824699968647
2726.0,0.008419542825660153
2725.0,0.008330992620051436
2724.0,0.008242460465651913
2723.0,0.008198201155356077
2722.0,0.008153946355103248
2721.0,0.008198201155356077
2720.0,0.008198201155356077
2719.0,0.008242460465651913
2718.0,0.008198201155356077
2717.0,0.008198201155356077
2716.0,0.008153946355103248
2715.0,0.008109696063975047
2714.0,0.008065450281052211
2713.0,0.008065450281052211
2712.0,0.008065450281052211
2711.0,0.008153946355103248
2710.0,0.008242460465651913
2709.0,0.008330992620051436
2708.0,0.008330992620051436
2707.0,0.008330992620051436
2706.0,0.008242460465651913
2705.0,0.008109696063975047
2704.0,0.008021209005416363
2703.0,0.007976972236149349
2702.0,0.007932739972333236
2701.0,0.007932739972333236
2700.0,0.007932739972333236
2699.0,0.007932739972333236
2698.0,0.007888512213050314
2697.0,0.007888512213050314
2696.0,0.007932739972333236
2695.0,0.008021209005416363
2694.0,0.008065450281052211
2693.0,0.008021209005416363
2692.0,0.007976972236149349
2691.0,0.007976972236149349
2690.0,0.007932739972333236
2689.0,0.007932739972333236
2688.0,0.007976972236149349
2687.0,0.007976972236149349
2686.0,0.008021209005416363
2685.0,0.008021209005416363
2684.0,0.007976972236149349
2683.0,0.007932739972333236
2682.0,0.007888512213050314
2681.0,0.007844288957383316
2680.0,0.007800070204414977
2679.0,0.007800070204414977
2678.0,0.007800070204414977
2677.0,0.007755855953228474
2676.0,0.007755855953228474
2675.0,0.007800070204414977
2674.0,0.007844288957383316
2673.0,0.007888512213050314
2672.0,0.007888512213050314
2671.0,0.007844288957383316
2670.0,0.007800070204414977
2669.0,0.007755855953228474
2668.0,0.007711646202907652
2667.0,0.007711646202907652
2666.0,0.007755855953228474
2665.0,0.007755855953228474
2664.0,0.007755855953228474
2663.0,0.007755855953228474
2662.0,0.007711646202907652
2661.0,0.007711646202907652
2660.0,0.007711646202907652
2659.0,0.007667440952535687
2658.0,0.007667440952535687
2657.0,0.007667440952535687
2656.0,0.007667440952535687
2655.0,0.007711646202907652
2654.0,0.007755855953228474
2653.0,0.007711646202907652
2652.0,0.007711646202907652
2651.0,0.007667440952535687
2650.0,0.007711646202907652
2649.0,0.007711646202907652
2648.0,0.007667440952535687
2647.0,0.00762324020119709
2646.0,0.0075790439479759275
2645.0,0.0075790439479759275
2644.0,0.00762324020119709
2643.0,0.00762324020119709
2642.0,0.007667440952535687
2641.0,0.00762324020119709
2640.0,0.00762324020119709
2639.0,0.0075790439479759275
2638.0,0.00762324020119709
2637.0,0.00762324020119709
2636.0,0.007667440952535687
2635.0,0.007667440952535687
2634.0,0.007667440952535687
2633.0,0.007667440952535687
2632.0,0.007711646202907652
2631.0,0.007800070204414977
2630.0,0.007844288957383316
2629.0,0.007844288957383316
2628.0,0.007800070204414977
2627.0,0.007755855953228474
2626.0,0.007711646202907652
2625.0,0.007755855953228474
2624.0,0.007755855953228474
2623.0,0.007800070204414977
2622.0,0.007755855953228474
2621.0,0.007755855953228474
2620.0,0.007800070204414977
2619.0,0.007800070204414977
2618.0,0.007800070204414977
2617.0,0.007755855953228474
2616.0,0.007755855953228474
2615.0,0.007800070204414977
2614.0,0.007800070204414977
2613.0,0.007800070204414977
2612.0,0.007711646202907652
2611.0,0.007667440952535687
2610.0,0.007667440952535687
2609.0,0.007667440952535687
2608.0,0.007755855953228474
2607.0,0.007755855953228474
2606.0,0.007711646202907652
2605.0,0.00762324020119709
2604.0,0.0075790439479759275
2603.0,0.0075790439479759275
2602.0,0.007667440952535687
2601.0,0.007755855953228474
2600.0,0.007844288957383316
2599.0,0.007844288957383316
2598.0,0.007800070204414977
2597.0,0.007755855953228474
2596.0,0.007800070204414977
2595.0,0.007844288957383316
2594.0,0.007888512213050314
2593.0,0.007888512213050314
2592.0,0.007932739972333236
2591.0,0.008021209005416363
2590.0,0.008153946355103248
2589.0,0.008198201155356077
2588.0,0.008198201155356077
2587.0,0.008109696063975047
2586.0,0.008065450281052211
2585.0,0.008065450281052211
2584.0,0.008109696063975047
2583.0,0.008153946355103248
2582.0,0.008153946355103248
2581.0,0.008153946355103248
2580.0,0.008153946355103248
2579.0,0.008153946355103248
2578.0,0.008153946355103248
2577.0,0.008153946355103248
2576.0,0.008153946355103248
2575.0,0.008109696063975047
2574.0,0.008021209005416363
2573.0,0.007976972236149349
2572.0,0.007932739972333236
2571.0,0.007932739972333236
2570.0,0.007932739972333236
2569.0,0.007976972236149349
2568.0,0.008021209005416363
2567.0,0.008065450281052211
2566.0,0.008109696063975047
2565.0,0.008109696063975047
2564.0,0.008065450281052211
2563.0,0.007976972236149349
2562.0,0.007932739972333236
2561.0,0.007888512213050314
2560.0,0.007932739972333236
2559.0,0.007976972236149349
2558.0,0.008021209005416363
2557.0,0.008065450281052211
2556.0,0.008065450281052211
2555.0,0.007976972236149349
2554.0,0.007888512213050314
2553.0,0.007800070204414977
2552.0,0.007711646202907652
2551.0,0.007711646202907652
2550.0,0.007667440952535687
2549.0,0.007667440952535687
2548.0,0.007711646202907652
2547.0,0.007755855953228474
2546.0,0.007800070204414977
2545.0,0.007844288957383316
2544.0,0.007888512213050314
2543.0,0.007888512213050314
2542.0,0.007888512213050314
2541.0,0.007844288957383316
2540.0,0.007800070204414977
2539.0,0.007755855953228474
2538.0,0.007800070204414977
2537.0,0.007844288957383316
2536.0,0.007844288957383316
2535.0,0.007844288957383316
2534.0,0.007800070204414977
2533.0,0.007755855953228474
2532.0,0.007711646202907652
2531.0,0.00762324020119709
2530.0,0.0075790439479759275
2529.0,0.0075790439479759275
2528.0,0.00762324020119709
2527.0,0.007667440952535687
2526.0,0.007711646202907652
2525.0,0.007755855953228474
2524.0,0.007800070204414977
2523.0,0.007755855953228474
2522.0,0.007711646202907652
2521.0,0.007667440952535687
2520.0,0.00762324020119709
2519.0,0.00762324020119709
2518.0,0.00762324020119709
2517.0,0.0075790439479759275
2516.0,0.007534852191956709
2515.0,0.0074464821678643656
2514.0,0.007402303897961815
2513.0,0.007402303897961815
2512.0,0.007490664932224611
2511.0,0.007534852191956709
2510.0,0.007534852191956709
2509.0,0.0074464821678643656
2508.0,0.007402303897961815
2507.0,0.007358130121602358
2506.0,0.007313960837872058
2505.0,0.007313960837872058
2504.0,0.007313960837872058
2503.0,0.007313960837872058
2502.0,0.007313960837872058
2501.0,0.007225635744644521
2500.0,0.007181479933320523
2499.0,0.007181479933320523
2498.0,0.007181479933320523
2497.0,0.007181479933320523
2496.0,0.007137328610972382
2495.0,0.007137328610972382
2494.0,0.007093181776687496
2493.0,0.007093181776687496
2492.0,0.007093181776687496
2491.0,0.007093181776687496
2490.0,0.007093181776687496
2489.0,0.007004901568658406
2488.0,0.00696076819309055
2487.0,0.00696076819309055
2486.0,0.006916639301937977
2485.0,0.006916639301937977
2484.0,0.006916639301937977
2483.0,0.006916639301937977
2482.0,0.006916639301937977
2481.0,0.006916639301937977
2480.0,0.006916639301937977
2479.0,0.006872514894289861
2478.0,0.006828394969235152
2477.0,0.006828394969235152
2476.0,0.006828394969235152
2475.0,0.006784279525863024
2474.0,0.006740168563263094
2473.0,0.006696062080525422
2472.0,0.006696062080525422
2471.0,0.006740168563263094
2470.0,0.006740168563263094
2469.0,0.006740168563263094
2468.0,0.006696062080525422
2467.0,0.006696062080525422
2466.0,0.006651960076740071
2465.0,0.006607862550997545
2464.0,0.00656376950238835
2463.0,0.006519680930003435
2462.0,0.006475596832934416
2461.0,0.006475596832934416
2460.0,0.006475596832934416
2459.0,0.006431517210272464
2458.0,0.006431517210272464
2457.0,0.006387442061109638
2456.0,0.006343371384537999
2455.0,0.006299305179649828
2454.0,0.00625524344553785
2453.0,0.006299305179649828
2452.0,0.006343371384537999
2451.0,0.006431517210272464
2450.0,0.006519680930003435
2449.0,0.00656376950238835
2448.0,0.00656376950238835
2447.0,0.006519680930003435
2446.0,0.006431517210272464
2445.0,0.006343371384537999
2444.0,0.006343371384537999
2443.0,0.006343371384537999
2442.0,0.006343371384537999
2441.0,0.006299305179649828
2440.0,0.00625524344553785
2439.0,0.00625524344553785
2438.0,0.00625524344553785
2437.0,0.006299305179649828
2436.0,0.006387442061109638
2435.0,0.006475596832934416
2434.0,0.006519680930003435
2433.0,0.006475596832934416
2432.0,0.006431517210272464
2431.0,0.006431517210272464
2430.0,0.006387442061109638
2429.0,0.006387442061109638
2428.0,0.006387442061109638
2427.0,0.006431517210272464
2426.0,0.006475596832934416
2425.0,0.006475596832934416
2424.0,0.006519680930003435
2423.0,0.006519680930003435
2422.0,0.006519680930003435
2421.0,0.00656376950238835
2420.0,0.00656376950238835
2419.0,0.00656376950238835
2418.0,0.006519680930003435
2417.0,0.006475596832934416
2416.0,0.006431517210272464
2415.0,0.006431517210272464
2414.0,0.006475596832934416
2413.0,0.006519680930003435
2412.0,0.00656376950238835
2411.0,0.006607862550997545
2410.0,0.006607862550997545
2409.0,0.006651960076740071
2408.0,0.006696062080525422
2407.0,0.006696062080525422
2406.0,0.006696062080525422
2405.0,0.006651960076740071
2404.0,0.006607862550997545
2403.0,0.006607862550997545
2402.0,0.006696062080525422
2401.0,0.006740168563263094
2400.0,0.006784279525863024
2399.0,0.006828394969235152
2398.0,0.006828394969235152
2397.0,0.006872514894289861
2396.0,0.006916639301937977
2395.0,0.007004901568658406
2394.0,0.007004901568658406
2393.0,0.007004901568658406
2392.0,0.006916639301937977
2391.0,0.006784279525863024
2390.0,0.006696062080525422
2389.0,0.006607862550997545
2388.0,0.006475596832934416
2387.0,0.006299305179649828
2386.0,0.006035001804881146
2385.0,0.005682847330363394
2384.0,0.005243055412371911
2383.0,0.004803708402820517
2382.0,0.004452550524862486
2381.0,0.004233220950025984
2380.0,0.0040578370074493275
2379.0,0.003970171588923321
2378.0,0.003970171588923321
2377.0,0.0040578370074493275
2376.0,0.004233220950025984
2375.0,0.0043648054024501
2374.0,0.004408675747646695
2373.0,0.004452550524862486
2372.0,0.004540313378935901
2371.0,0.00458420145758498
2370.0,0.004452550524862486
2369.0,0.003926345514724705
2368.0,0.0032257291386954545
2367.0,0.0027447101798967477
2366.0,0.002569926202528716
2365.0,0.002701007590486082
2364.0,0.0035758960449088217
2363.0,0.00484762310854614
2362.0,0.006299305179649828
2361.0,0.007093181776687496
2360.0,0.007932739972333236
2359.0,0.004540313378935901
2358.0,0.0033132443998284966
2357.0,0.003050751504618754
2356.0,0.002351545103793873
2355.0,0.002089632653256679
2354.0,0.0021332737608552588
2353.0,0.0027884171674950053
2352.0,0.0034445503666347133
2351.0,0.0037510854308679953
2350.0,0.003488327845821315
2349.0,0.0028321285541661467
2348.0,0.0020023635919956817
2347.0,0.001304841688344327
2346.0,0.0010000277816797354
2345.0,0.0009565003968372565
2344.0,0.0009565003968372565
2343.0,0.0008259444115150671
2342.0,0.0007389288868995258
2341.0,0.0009129773741116676
2340.0,0.001348404001626502
2339.0,0.0017406615763013722
2338.0,0.0020023635919956817
2337.0,0.0020459959305969555
2336.0,0.0019587356365717845
2335.0,0.0017406615763013722
2334.0,0.0014791171649619628
2333.0,0.0012612837441823288
2332.0,0.001304841688344327
2331.0,0.0015226969634936083
2330.0,0.0017406615763013722
2329.0,0.0018714928717336043
2328.0,0.0020023635919956817
2327.0,0.0021769192542746563
2326.0,0.0023078820582733695
2325.0,0.002395212539545666
2324.0,0.0022205691343961664
2323.0,0.0034445503666347133
2322.0,0.004189368323957332
2321.0,0.004408675747646695
2320.0,0.004540313378935901
2319.0,0.0044964297349936455
2318.0,0.004145520125434121
2317.0,0.003794893821675638
2316.0,0.0034445503666347133
2315.0,0.0035758960449088217
2314.0,0.0037510854308679953
2313.0,0.00401400208620073
2312.0,0.0040578370074493275
2311.0,0.004101676353562844
2310.0,0.0040578370074493275
2309.0,0.004189368323957332
2308.0,0.004277078004534696
2307.0,0.004408675747646695
2306.0,0.004452550524862486
2305.0,0.004408675747646695
2304.0,0.004320939488377862
2303.0,0.004320939488377862
2302.0,0.0043648054024501
2301.0,0.00458420145758498
2300.0,0.004759798137184523
2299.0,0.00489154225525934
2298.0,0.00484762310854614
2297.0,0.00489154225525934
2296.0,0.004935465843858511
2295.0,0.005067263269958211
2294.0,0.005199100705396198
2293.0,0.005330978174470591
2292.0,0.00537494623139545
2291.0,0.00541891874010525
2290.0,0.005462895701502157
2289.0,0.005506877116487674
2288.0,0.005594853310833647
2287.0,0.005638848091999105
2286.0,0.005638848091999105
2285.0,0.005594853310833647
2284.0,0.005506877116487674
2283.0,0.005462895701502157
2282.0,0.005462895701502157
2281.0,0.005550862985963967
2280.0,0.005682847330363394
2279.0,0.00577085918230158
2278.0,0.00577085918230158
2277.0,0.005682847330363394
2276.0,0.005638848091999105
2275.0,0.005594853310833647
2274.0,0.005594853310833647
2273.0,0.005594853310833647
2272.0,0.005550862985963967
2271.0,0.005506877116487674
2270.0,0.005462895701502157
2269.0,0.00541891874010525
2268.0,0.00537494623139545
2267.0,0.00537494623139545
2266.0,0.00537494623139545
2265.0,0.00541891874010525
2264.0,0.005462895701502157
2263.0,0.005506877116487674
2262.0,0.005550862985963967
2261.0,0.005550862985963967
2260.0,0.005550862985963967
2259.0,0.005506877116487674
2258.0,0.005506877116487674
2257.0,0.005506877116487674
2256.0,0.005506877116487674
2255.0,0.005506877116487674
2254.0,0.005506877116487674
2253.0,0.005462895701502157
2252.0,0.00541891874010525
2251.0,0.00537494623139545
2250.0,0.005330978174470591
2249.0,0.0052870145684298375
2248.0,0.0052870145684298375
2247.0,0.0052870145684298375
2246.0,0.005330978174470591
2245.0,0.0052870145684298375
2244.0,0.0052870145684298375
2243.0,0.005243055412371911
2242.0,0.005199100705396198
2241.0,0.005199100705396198
2240.0,0.005199100705396198
2239.0,0.005199100705396198
2238.0,0.005155150446602086
2237.0,0.005067263269958211
2236.0,0.005023326350308999
2235.0,0.005023326350308999
2234.0,0.004979393875242044
2233.0,0.004979393875242044
2232.0,0.004935465843858511
2231.0,0.004935465843858511
2230.0,0.00489154225525934
2229.0,0.00484762310854614
2228.0,0.00484762310854614
2227.0,0.00484762310854614
2226.0,0.00484762310854614
2225.0,0.00484762310854614
2224.0,0.004803708402820517
2223.0,0.004803708402820517
2222.0,0.004759798137184523
2221.0,0.004759798137184523
2220.0,0.004803708402820517
2219.0,0.004803708402820517
2218.0,0.004715892310740433
2217.0,0.004628093971837721
2216.0,0.004540313378935901
2215.0,0.0044964297349936455
2214.0,0.004452550524862486
2213.0,0.004408675747646695
2212.0,0.004408675747646695
2211.0,0.004452550524862486
2210.0,0.004452550524862486
2209.0,0.004452550524862486
2208.0,0.0043648054024501
2207.0,0.004320939488377862
2206.0,0.004320939488377862
2205.0,0.004320939488377862
2204.0,0.004320939488377862
2203.0,0.004277078004534696
2202.0,0.004277078004534696
2201.0,0.004189368323957332
2200.0,0.004145520125434121
2199.0,0.004101676353562844
2198.0,0.004101676353562844
2197.0,0.004101676353562844
2196.0,0.004101676353562844
2195.0,0.0040578370074493275
2194.0,0.003970171588923321
2193.0,0.0038825238627120395
2192.0,0.003794893821675638
2191.0,0.0037510854308679953
2190.0,0.0037510854308679953
2189.0,0.0037510854308679953
2188.0,0.003794893821675638
2187.0,0.0038825238627120395
2186.0,0.003926345514724705
2185.0,0.0038825238627120395
2184.0,0.0038387066319929275
2183.0,0.003794893821675638
2182.0,0.003794893821675638
2181.0,0.0038387066319929275
2180.0,0.003794893821675638
2179.0,0.003794893821675638
2178.0,0.0037510854308679953
2177.0,0.003707281458678491
2176.0,0.003707281458678491
2175.0,0.003707281458678491
2174.0,0.003707281458678491
2173.0,0.0036634819042162814
2172.0,0.003707281458678491
2171.0,0.0037510854308679953
2170.0,0.0038387066319929275
2169.0,0.0038825238627120395
2168.0,0.003926345514724705
2167.0,0.003926345514724705
2166.0,0.003926345514724705
2165.0,0.003926345514724705
2164.0,0.0038825238627120395
2163.0,0.0038825238627120395
2162.0,0.003926345514724705
2161.0,0.00401400208620073
2160.0,0.0040578370074493275
2159.0,0.0040578370074493275
2158.0,0.0040578370074493275
2157.0,0.00401400208620073
2156.0,0.00401400208620073
2155.0,0.00401400208620073
2154.0,0.0040578370074493275
2153.0,0.0040578370074493275
2152.0,0.0040578370074493275
2151.0,0.004101676353562844
2150.0,0.004145520125434121
2149.0,0.004145520125434121
2148.0,0.004189368323957332
2147.0,0.004189368323957332
2146.0,0.004145520125434121
2145.0,0.004101676353562844
2144.0,0.00401400208620073
2143.0,0.003970171588923321
2142.0,0.003926345514724705
2141.0,0.003970171588923321
2140.0,0.00401400208620073
2139.0,0.004101676353562844
2138.0,0.004145520125434121
2137.0,0.004145520125434121
2136.0,0.004145520125434121
2135.0,0.004145520125434121
2134.0,0.004145520125434121
2133.0,0.004145520125434121
2132.0,0.004145520125434121
2131.0,0.004145520125434121
2130.0,0.004189368323957332
2129.0,0.004189368323957332
2128.0,0.004189368323957332
2127.0,0.004189368323957332
2126.0,0.004189368323957332
2125.0,0.004233220950025984
2124.0,0.004277078004534696
2123.0,0.0043648054024501
2122.0,0.004408675747646695
2121.0,0.004452550524862486
2120.0,0.004408675747646695
2119.0,0.0043648054024501
2118.0,0.0043648054024501
2117.0,0.004408675747646695
2116.0,0.004408675747646695
2115.0,0.004452550524862486
2114.0,0.004452550524862486
2113.0,0.004452550524862486
2112.0,0.004452550524862486
2111.0,0.004452550524862486
2110.0,0.0044964297349936455
2109.0,0.0044964297349936455
2108.0,0.0044964297349936455
2107.0,0.004408675747646695
2106.0,0.0043648054024501
2105.0,0.004277078004534696
2104.0,0.004277078004534696
2103.0,0.004277078004534696
2102.0,0.004277078004534696
2101.0,0.004277078004534696
2100.0,0.004277078004534696
2099.0,0.004277078004534696
2098.0,0.004233220950025984
2097.0,0.004189368323957332
2096.0,0.004189368323957332
2095.0,0.004189368323957332
2094.0,0.004145520125434121
2093.0,0.004145520125434121
2092.0,0.004101676353562844
2091.0,0.0040578370074493275
2090.0,0.00401400208620073
2089.0,0.003926345514724705
2088.0,0.0038825238627120395
2087.0,0.0038387066319929275
2086.0,0.0038387066319929275
2085.0,0.0038825238627120395
2084.0,0.0038387066319929275
2083.0,0.0038387066319929275
2082.0,0.003794893821675638
2081.0,0.0037510854308679953
2080.0,0.0036634819042162814
2079.0,0.003619686766589858
2078.0,0.0035321097382827737
2077.0,0.003488327845821315
2076.0,0.0034007772998332353
2075.0,0.0033570086445275926
2074.0,0.0033132443998284966
2073.0,0.0032694845648473247
2072.0,0.0032257291386954545
2071.0,0.0031382315093266833
2070.0,0.0031382315093266833
2069.0,0.0030944893043338695
2068.0,0.003050751504618754
2067.0,0.0029632891174733444
2066.0,0.0028758443407954637
2065.0,0.0027447101798967477
2064.0,0.002613615602686581
2063.0,0.002569926202528716
2062.0,0.002569926202528716
2061.0,0.002569926202528716
2060.0,0.0025262411970197185
2059.0,0.0024388843664115978
2058.0,0.002351545103793873
2057.0,0.0022205691343961664
2056.0,0.0021769192542746563
2055.0,0.0021332737608552588
2054.0,0.002089632653256679
2053.0,0.0020459959305969555
2052.0,0.0020459959305969555
2051.0,0.002089632653256679
2050.0,0.0020459959305969555
2049.0,0.0020023635919956817
2048.0,0.0019587356365717845
2047.0,0.001915112063444413
2046.0,0.0018714928717336043
2045.0,0.0017842676290416026
2044.0,0.0017406615763013722
2043.0,0.0017406615763013722
2042.0,0.0017406615763013722
2041.0,0.0016970599014589638
2040.0,0.0016970599014589638
2039.0,0.0016534626036355249
2038.0,0.0016534626036355249
2037.0,0.0016534626036355249
2036.0,0.0016534626036355249
2035.0,0.0016534626036355249
2034.0,0.001609869681952425
2033.0,0.0015226969634936083
2032.0,0.0014355417390583547
2031.0,0.001348404001626502
2030.0,0.001348404001626502
2029.0,0.001304841688344327
2028.0,0.001348404001626502
2027.0,0.0014355417390583547
2026.0,0.0014791171649619628
2025.0,0.0014791171649619628
2024.0,0.0014791171649619628
2023.0,0.0014355417390583547
2022.0,0.0014355417390583547
2021.0,0.0013919706849057079
2020.0,0.0013919706849057079
2019.0,0.0013919706849057079
2018.0,0.0013919706849057079
2017.0,0.001304841688344327
2016.0,0.0012612837441823288
2015.0,0.0012177301682640973
2014.0,0.0012612837441823288
2013.0,0.001304841688344327
2012.0,0.001304841688344327
2011.0,0.001304841688344327
2010.0,0.001304841688344327
2009.0,0.0012612837441823288
2008.0,0.001304841688344327
2007.0,0.001348404001626502
2006.0,0.0014355417390583547
2005.0,0.0014791171649619628
2004.0,0.0015662811355310335
2003.0,0.001609869681952425
2002.0,0.001609869681952425
2001.0,0.0016534626036355249
2000.0,0.0016534626036355249
1999.0,0.0017406615763013722
1998.0,0.0018278780605593958
1997.0,0.001915112063444413
1996.0,0.0019587356365717845
1995.0,0.0020023635919956817
1994.0,0.0020023635919956817
1993.0,0.0019587356365717845
1992.0,0.001915112063444413
1991.0,0.001915112063444413
1990.0,0.0018714928717336043
1989.0,0.001915112063444413
1988.0,0.0019587356365717845
1987.0,0.0020023635919956817
1986.0,0.002089632653256679
1985.0,0.0021332737608552588
1984.0,0.0022205691343961664
1983.0,0.0023078820582733695
1982.0,0.002351545103793873
1981.0,0.002395212539545666
1980.0,0.002482560585275184
1979.0,0.0025262411970197185
1978.0,0.0025262411970197185
1977.0,0.0025262411970197185
1976.0,0.0025262411970197185
1975.0,0.002613615602686581
1974.0,0.002701007590486082
1973.0,0.0027447101798967477
1972.0,0.0028321285541661467
1971.0,0.0029195645282691363
1970.0,0.0030070181092942683
1969.0,0.0030944893043338695
1968.0,0.0031382315093266833
1967.0,0.0032257291386954545
1966.0,0.0033132443998284966
1965.0,0.0034007772998332353
1964.0,0.0035758960449088217
1963.0,0.0037510854308679953
1962.0,0.003926345514724705
1961.0,0.0040578370074493275
1960.0,0.004145520125434121
1959.0,0.004277078004534696
1958.0,0.0043648054024501
1957.0,0.004408675747646695
1956.0,0.004452550524862486
1955.0,0.0044964297349936455
1954.0,0.0044964297349936455
1953.0,0.004452550524862486
1952.0,0.0043648054024501
1951.0,0.004277078004534696
1950.0,0.004233220950025984
1949.0,0.004189368323957332
1948.0,0.004145520125434121
1947.0,0.0040578370074493275
1946.0,0.003926345514724705
1945.0,0.003707281458678491
1944.0,0.0034445503666347133
1943.0,0.0031819781204844855
1942.0,0.0029195645282691363
1941.0,0.002701007590486082
1940.0,0.002569926202528716
1939.0,0.0025262411970197185
1938.0,0.002395212539545666
1937.0,0.0021769192542746563
1936.0,0.0019587356365717845
1935.0,0.0018278780605593958
1934.0,0.0017406615763013722
1933.0,0.0016534626036355249
1932.0,0.0015226969634936083
1931.0,0.0013919706849057079
1930.0,0.0012612837441823288
1929.0,0.0010870956412141197
1928.0,0.0009129773741116676
1927.0,0.0007824344698965646
1926.0,0.0006519307932786322
1925.0,0.0004779868710962365
1924.0,0.00026065489343207737
1923.0,8.686758342868472e-05
1922.0,-8.685021164911433e-05
1921.0,-0.00021709297223004853
1920.0,-0.00021709297223004853
1919.0,-0.00017368305846510168
1918.0,-0.0002604985473904087
1917.0,-0.0004774613744551459
1916.0,-0.0006509536295951079
1915.0,-0.0006943158663546001
1914.0,-0.0006509536295951079
1913.0,-0.0006943158663546001
1912.0,-0.0007810273534953893
1911.0,-0.0008243766056055257
1910.0,-0.0009110621312231615
1909.0,-0.0009977303577937136
1908.0,-0.0011277002770349043
1907.0,-0.00121432528617893
1906.0,-0.001257631312230778
1905.0,-0.0013009330204178937
1904.0,-0.0013009330204178937
1903.0,-0.001344230411601366
1902.0,-0.001344230411601366
1901.0,-0.0014308122463981832
1900.0,-0.0015606526425728795
1899.0,-0.0016471913460383014
1898.0,-0.0016904542321527494
1897.0,-0.001733712809000476
1896.0,-0.001776967077439462
1895.0,-0.0018634626925240205
1894.0,-0.0019931738235303698
1893.0,-0.0021660617565077978
1892.0,-0.0022524799205383417
1891.0,-0.0022524799205383417
1890.0,-0.0022956825549340643
1889.0,-0.0023820749327607693
1888.0,-0.0025116312849080558
1887.0,-0.0024684501283323
1886.0,-0.0023820749327607693
1885.0,-0.002338880892056583
1884.0,-0.0023820749327607693
1883.0,-0.0024252646779014952
1882.0,-0.0024684501283323
1881.0,-0.0025548081484823015
1880.0,-0.002597980719908577
1879.0,-0.0026411490000399773
1878.0,-0.002684312989729598
1877.0,-0.002684312989729598
1876.0,-0.0026411490000399773
1875.0,-0.002684312989729598
1874.0,-0.0027706281011936618
1873.0,-0.0029432068763250996
1872.0,-0.003115717099805959
1871.0,-0.003201946521692367
1870.0,-0.0032881588260753603
1869.0,-0.0033312585613267665
1868.0,-0.0034605321095062536
1867.0,-0.003503614742536687
1866.0,-0.0034605321095062536
1865.0,-0.0032881588260753603
1864.0,-0.003158833950862139
1863.0,-0.0030725959676747294
1862.0,-0.003029470553618019
1861.0,-0.003029470553618019
1860.0,-0.0030725959676747294
1859.0,-0.003115717099805959
1858.0,-0.0030725959676747294
1857.0,-0.003029470553618019
1856.0,-0.0029863408567849525
1855.0,-0.002900068611387585
1854.0,-0.0028137792246734072
1853.0,-0.0027274726898296464
1852.0,-0.002684312989729598
1851.0,-0.0026411490000399773
1850.0,-0.002597980719908577
1849.0,-0.0026411490000399773
1848.0,-0.002684312989729598
1847.0,-0.002684312989729598
1846.0,-0.002597980719908577
1845.0,-0.0024684501283323
1844.0,-0.0023820749327607693
1843.0,-0.002338880892056583
1842.0,-0.0021660617565077978
1841.0,-0.0018634626925240205
1840.0,-0.0015173768235041685
1839.0,-0.0013009330204178937
1838.0,-0.0011710149414008164
1837.0,-0.0011277002770349043
1836.0,-0.0010843812922201046
1835.0,-0.0009543984064577238
1834.0,-0.0008677215312267172
1833.0,-0.0008243766056055257
1832.0,-0.0007810273534953893
1831.0,-0.0006509536295951079
1830.0,-0.0004774613744551459
1829.0,-0.00043407747931878404
1828.0,-0.00043407747931878404
1827.0,-0.0003472966853634851
1826.0,-0.00021709297223004853
1825.0,-0.00030389978481260016
1824.0,-0.0003906892499099257
1823.0,-0.0003472966853634851
1822.0,-0.00013026880522692963
1821.0,4.343161980746579e-05
1820.0,0.0001303078917322953
1819.0,0.0001303078917322953
1818.0,8.686758342868472e-05
1817.0,-4.3427276862573194e-05
1816.0,-0.00013026880522692963
1815.0,-0.00017368305846510168
1814.0,-0.00021709297223004853
1813.0,-0.0002604985473904087
1812.0,-0.0003472966853634851
1811.0,-0.0003472966853634851
1810.0,-0.0003906892499099257
1809.0,-0.00043407747931878404
1808.0,-0.0003906892499099257
1807.0,-0.0003472966853634851
1806.0,-0.0003472966853634851
1805.0,-0.0004774613744551459
1804.0,-0.0006509536295951079
1803.0,-0.0008243766056055257
1802.0,-0.0009977303577937136
1801.0,-0.0011710149414008164
1800.0,-0.001257631312230778
1799.0,-0.0011277002770349043
1798.0,-0.0009543984064577238
1797.0,-0.0009543984064577238
1796.0,-0.0009977303577937136
1795.0,-0.001041057986093552
1794.0,-0.001041057986093552
1793.0,-0.0011710149414008164
1792.0,-0.0013009330204178937
1791.0,-0.0013875234866409514
1790.0,-0.001344230411601366
1789.0,-0.00121432528617893
1788.0,-0.0009543984064577238
1787.0,-0.0007376737740329986
1786.0,-0.0006509536295951079
1785.0,-0.0008677215312267172
1784.0,-0.001041057986093552
1783.0,-0.001041057986093552
1782.0,-0.0008677215312267172
1781.0,-0.0007376737740329986
1780.0,-0.0006509536295951079
1779.0,-0.0005208409361854294
1778.0,-0.0003906892499099257
1777.0,-0.0003472966853634851
1776.0,-0.0003906892499099257
1775.0,-0.00030389978481260016
1774.0,-0.00017368305846510168
1773.0,-0.00013026880522692963
1772.0,-8.685021164911433e-05
1771.0,8.686758342868472e-05
1770.0,0.0003475746339209884
1769.0,0.000521466320689834
1768.0,0.0006954276616513155
1767.0,0.0009565003968372565
1766.0,0.001348404001626502
1765.0,0.0017842676290416026
1764.0,0.0023078820582733695
1763.0,0.0029195645282691363
1762.0,0.003488327845821315
1761.0,0.0037510854308679953
1760.0,0.004145520125434121
1759.0,0.004979393875242044
1758.0,0.006079041198713275
1757.0,0.007137328610972382
1756.0,0.008109696063975047
1755.0,0.009261671492462709
1754.0,0.010594681998483901
1753.0,0.012021084124518078
1752.0,0.013900374944870508
1751.0,0.016599261819461697
1750.0,0.019996628416253603
1749.0,0.023879381700184332
1748.0,0.02839947976994095
1747.0,0.03357665405630694
1746.0,0.03905380426616856
1745.0,0.04508244626504121
1744.0,0.05217431555754937
1743.0,0.05993198626064755
1742.0,0.06793230779927839
1741.0,0.07706704344478843
1740.0,0.0884695376928375
1739.0,0.10001543745060903
1738.0,0.10835105612944096
1737.0,0.11350927482751816
1736.0,0.11964380058076385
1735.0,0.13324021650489182
1734.0,0.15471587365200845
1733.0,0.1721140172101443
1732.0,0.1827652695745019
1731.0,0.19327749692381868
1730.0,0.206349282292827
1729.0,0.22033137279285198
1728.0,0.23336411368973242
1727.0,0.24542234395526963
1726.0,0.2581396059347365
1725.0,0.27270279719641266
1724.0,0.2892904342756628
1723.0,0.3059215379192406
1722.0,0.3186682940308343
1721.0,0.32605800136591223
1720.0,0.33161408330999986
1719.0,0.34380593782081426
1718.0,0.36916548217194944
1717.0,0.3958819938079652
1716.0,0.40860144871875126
1715.0,0.4103854593687337
1714.0,0.40582852088508803
1713.0,0.39458720184694873
1712.0,0.3774751375964318
1711.0,0.3576344191550267
1710.0,0.3370533856673754
1709.0,0.31605286924848786
1708.0,0.29422178717140235
1707.0,0.27188981589965944
1706.0,0.25049557612385787
1705.0,0.23195418589758332
1704.0,0.21616785661555893
1703.0,0.20190206793751408
1702.0,0.1878891587969005
1701.0,0.17418455501479646
1700.0,0.16228533171508874
1699.0,0.15285938258659382
1698.0,0.14520830594601453
1697.0,0.13834612978608907
1696.0,0.13182595914036166
1695.0,0.12557616941349803
1694.0,0.12004441487725082
1693.0,0.11531789579397489
1692.0,0.11097857790477517
1691.0,0.10668218838388821
1690.0,0.10292299679057959
1689.0,0.09985143928065598
1688.0,0.09691001300805646
1687.0,0.09361107884716913
1686.0,0.09028354676565531
1685.0,0.08857603462370545
1684.0,0.08836306687055773
1683.0,0.0867160982395816
1682.0,0.08396738981143059
1681.0,0.08144546944972642
1680.0,0.07893810920972144
1679.0,0.07623803917129979
1678.0,0.07350321072677968
1677.0,0.0710411591191702
1676.0,0.06905096883247697
1675.0,0.06732334137759932
1674.0,0.06545105233385295
1673.0,0.06353652599525317
1672.0,0.06163040254819374
1671.0,0.05988213325228142
1670.0,0.058538260652670315
1669.0,0.057396751157843484
1668.0,0.055961719945581745
1667.0,0.05413767551038262
1666.0,0.05227227303668425
1665.0,0.050414848673348
1664.0,0.04871106272232795
1663.0,0.04725597598510167
1662.0,0.045902279520810385
1661.0,0.04455278942230456
1660.0,0.04320747962950522
1659.0,0.04186632432376469
1658.0,0.040481623027001756
1657.0,0.03905380426616856
1656.0,0.03744126420403626
1655.0,0.03583468937826462
1654.0,0.035363296211498474
1653.0,0.036117771071222604
1652.0,0.03541041251009669
1651.0,0.03428102975577918
1650.0,0.03352973627071565
1649.0,0.032873418923587305
1648.0,0.032311649546687526
1647.0,0.032124554451966825
1646.0,0.03189079887180224
1645.0,0.03133029827960798
1644.0,0.030770520137356927
1643.0,0.03025802323714588
1642.0,0.029746130405213123
1641.0,0.029141943003497595
1640.0,0.02839947976994095
1639.0,0.02751945012352408
1638.0,0.026687379547098322
1637.0,0.026410376572743033
1636.0,0.02677975314776626
1635.0,0.026872146400301444
1634.0,0.026456531467510258
1633.0,0.026041313893296225
1632.0,0.02562649291857677
1631.0,0.025074013910237447
1630.0,0.024522236834125355
1629.0,0.024200690320592466
1628.0,0.023925268380126097
1627.0,0.02351246269481
1626.0,0.02300845469384938
1625.0,0.022642270454698687
1624.0,0.022505030926963654
1623.0,0.02245929405346514
1622.0,0.022322112326006227
1621.0,0.022139270735302752
1620.0,0.02200219004126036
1619.0,0.022093572362881675
1618.0,0.022733787572707387
1617.0,0.024154774532432866
1616.0,0.025350165561278004
1615.0,0.025672564576383117
1614.0,0.02553436426275746
1613.0,0.025258095499050004
1612.0,0.024798037742147727
1611.0,0.024108863598207186
1610.0,0.023329119375188556
1609.0,0.022505030926963654
1608.0,0.02168250325324883
1607.0,0.02081596632558158
1606.0,0.019996628416253603
1605.0,0.0192242260373785
1604.0,0.01845319495476394
1603.0,0.017728766960431575
1602.0,0.017050711425501408
1601.0,0.01646391839700767
1600.0,0.015922966097169144
1599.0,0.015337693809893471
1598.0,0.014843078722943437
1597.0,0.014438812226654996
1596.0,0.014124642691606404
1595.0,0.013900374944870508
1594.0,0.013765869865004277
1593.0,0.013676222949234651
1592.0,0.013631406429727155
1591.0,0.013676222949234651
1590.0,0.013765869865004277
1589.0,0.013945219230304673
1588.0,0.014214382227394795
1587.0,0.014618439768003144
1586.0,0.015247721884586563
1585.0,0.016193358021584725
1584.0,0.017412209298337533
1583.0,0.018951941086827073
1582.0,0.02067930261797568
1581.0,0.02227639471115217
1580.0,0.02351246269481
1579.0,0.024200690320592466
1578.0,0.02438440203310499
1577.0,0.023971159908874107
1576.0,0.02296266477531872
1575.0,0.021363051615525652
1574.0,0.019769308608968306
1573.0,0.01845319495476394
1572.0,0.017231422748988034
1571.0,0.01596801972881945
1570.0,0.014753209197138295
1569.0,0.01372104409400876
1568.0,0.012959713020733288
1567.0,0.012423105273012602
1566.0,0.012021084124518078
1565.0,0.011574829993696856
1564.0,0.011084479487313281
1563.0,0.010550182333308289
1562.0,0.009972101229705377
1561.0,0.009306039320248427
1560.0,0.008995559669244813
1559.0,0.00939478857608056
1558.0,0.008862564879688284
1557.0,0.008242460465651913
1556.0,0.008242460465651913
1555.0,0.008330992620051436
1554.0,0.008242460465651913
1553.0,0.007976972236149349
1552.0,0.007711646202907652
1551.0,0.007490664932224611
1550.0,0.007181479933320523
1549.0,0.006916639301937977
1548.0,0.006651960076740071
1547.0,0.006475596832934416
1546.0,0.006167133386013823
1545.0,0.005682847330363394
1544.0,0.005155150446602086
1543.0,0.004715892310740433
1542.0,0.00458420145758498
1541.0,0.005067263269958211
1540.0,0.005682847330363394
1539.0,0.005682847330363394
1538.0,0.00541891874010525
1537.0,0.005506877116487674
1536.0,0.005726851026829571
1535.0,0.005858888873877532
1534.0,0.00612308505878878
1533.0,0.006431517210272464
1532.0,0.006519680930003435
1531.0,0.006607862550997545
1530.0,0.006740168563263094
1529.0,0.006784279525863024
1528.0,0.006696062080525422
1527.0,0.006475596832934416
1526.0,0.00612308505878878
1525.0,0.005814871797682919
1524.0,0.005506877116487674
1523.0,0.005155150446602086
1522.0,0.004935465843858511
1521.0,0.004715892310740433
1520.0,0.004408675747646695
1519.0,0.004277078004534696
1518.0,0.004408675747646695
1517.0,0.00458420145758498
1516.0,0.004715892310740433
1515.0,0.00489154225525934
1514.0,0.005462895701502157
1513.0,0.006475596832934416
1512.0,0.007667440952535687
1511.0,0.008906891951112605
1510.0,0.010416710688994968
1509.0,0.012870232340102872
1508.0,0.018906576854070378
1507.0,0.028956208163971375
1506.0,0.03541041251009669
1505.0,0.03583468937826462
1504.0,0.03343591590268957
1503.0,0.029653123769906697
1502.0,0.025074013910237447
1501.0,0.020406104151069693
1500.0,0.016238439713835096
1499.0,0.012736045877764557
1498.0,0.01001654169860089
1497.0,0.008065450281052211
1496.0,0.006784279525863024
1495.0,0.005858888873877532
1494.0,0.005330978174470591
1493.0,0.005199100705396198
1492.0,0.005111204635089406
1491.0,0.004979393875242044
1490.0,0.005067263269958211
1489.0,0.005726851026829571
1488.0,0.006872514894289861
1487.0,0.008242460465651913
1486.0,0.00966114521239847
1485.0,0.01117359295472431
1484.0,0.01260190086298274
1483.0,0.014079779876432497
1482.0,0.01578783323856614
1481.0,0.017502630802287644
1480.0,0.019042683770379876
1479.0,0.020178569969774962
1478.0,0.021089422824428272
1477.0,0.02200219004126036
1476.0,0.02277955336461468
1475.0,0.023329119375188556
1474.0,0.023879381700184332
1473.0,0.02461415101053266
1472.0,0.025074013910237447
1471.0,0.02498200236711723
1470.0,0.024798037742147727
1469.0,0.024706084643793647
1468.0,0.02461415101053266
1467.0,0.024568191490736968
1466.0,0.025028005701930978
1465.0,0.026087429580295085
1464.0,0.027288159452933503
1463.0,0.02812138297373412
1462.0,0.02863136320857662
1461.0,0.02890978686288448
1460.0,0.029095501846216454
1459.0,0.02932775731028059
1458.0,0.030351159519274695
1457.0,0.03193753992355086
1456.0,0.032545631817259224
1455.0,0.03249882527715853
1454.0,0.03245202378113787
1453.0,0.032311649546687526
1452.0,0.03184406285002961
1451.0,0.03105031901865729
1450.0,0.030164906924202484
1449.0,0.02932775731028059
1448.0,0.02863136320857662
1447.0,0.027936083991977778
1446.0,0.027334407733889066
1445.0,0.02691835039863255
1444.0,0.02654885597506529
1443.0,0.02617967564731627
1442.0,0.025718641122169483
1441.0,0.02512002699306959
1440.0,0.024476287039668643
1439.0,0.02365002099672653
1438.0,0.022505030926963654
1437.0,0.0209982515252789
1436.0,0.019269623464054586
1435.0,0.017728766960431575
1434.0,0.016554142658660398
1433.0,0.01538268676325183
1432.0,0.014079779876432497
1431.0,0.01264661126420652
1430.0,0.011307297450183107
1429.0,0.010283280051895272
1428.0,0.009572341514736404
1427.0,0.009217308196862062
1426.0,0.009039900317800775
1425.0,0.00908424549391551
1424.0,0.009483555971770974
1423.0,0.010194349063173958
1422.0,0.011129033935354915
1421.0,0.01260190086298274
1420.0,0.015427684378367834
1419.0,0.02004210665933459
1418.0,0.025764722556973707
1417.0,0.03226486821611996
1416.0,0.039909932095080425
1415.0,0.048954051864180226
1414.0,0.05938391766259232
1413.0,0.07114346641808922
1412.0,0.08359869639612438
1411.0,0.09474395125154866
1410.0,0.10270287794050348
1409.0,0.10668218838388821
1408.0,0.10640466618011679
1407.0,0.10187842445889239
1406.0,0.09393445524476318
1405.0,0.08423093401631587
1404.0,0.07468790850035045
1403.0,0.06646209802829528
1402.0,0.0595831353183347
1401.0,0.0534986094304124
1400.0,0.04778894189133087
1399.0,0.04248848854552012
1398.0,0.03824678581321739
1397.0,0.03503362516890207
1396.0,0.03240522732811035
1395.0,0.030071810571884017
1394.0,0.028167720075074953
1393.0,0.02677975314776626
1392.0,0.025902996205869
1391.0,0.02516604495145991
1390.0,0.024430342106337877
1389.0,0.023787622882622816
1388.0,0.02342078135989012
1387.0,0.02342078135989012
1386.0,0.023695883447997224
1385.0,0.024154774532432866
1384.0,0.024798037742147727
1383.0,0.02539620791296726
1382.0,0.025949097207122573
1381.0,0.026502691267936695
1380.0,0.027149444152769986
1379.0,0.027797161620935595
1378.0,0.02839947976994095
1377.0,0.029002634427514717
1376.0,0.029746130405213123
1375.0,0.03058408764601861
1374.0,0.03147035562516054
1373.0,0.03217132066984485
1372.0,0.03249882527715853
1371.0,0.03249882527715853
1370.0,0.032031037121307726
1369.0,0.03105031901865729
1368.0,0.02960662792039992
1367.0,0.027843464140506313
1366.0,0.025856900097785074
1365.0,0.023741750742954926
1364.0,0.02159120737696063
1363.0,0.01949668180660491
1362.0,0.017864505196230507
1361.0,0.017005545341335804
1360.0,0.016689514205884493
1359.0,0.016734647433454652
1358.0,0.016915227262211507
1357.0,0.01727661233145472
1356.0,0.017955020928509757
1355.0,0.018906576854070378
1354.0,0.020178569969774962
1353.0,0.02200219004126036
1352.0,0.024338466818941473
1351.0,0.02724191609646076
1350.0,0.030910397045078586
1349.0,0.03541041251009669
1348.0,0.04091088563260792
1347.0,0.04740126547022694
1346.0,0.05507339001378431
1345.0,0.06393888339001164
1344.0,0.0734517753643813
1343.0,0.08296737783760655
1342.0,0.0919977988274463
1341.0,0.10045306890913297
1340.0,0.1075158206353124
1339.0,0.11131515334030118
1338.0,0.11069829749368965
1337.0,0.10590557267730127
1336.0,0.09794268919153337
1335.0,0.0877779434675845
1334.0,0.0763933569825408
1333.0,0.06489597884855036
1332.0,0.054186873412661596
1331.0,0.044986096961949995
1330.0,0.03777276864991497
1329.0,0.03245202378113787
1328.0,0.028770552723758724
1327.0,0.026456531467510258
1326.0,0.02521206778644225
1325.0,0.02475205875931885
1324.0,0.02484402159331056
1323.0,0.025304128090317013
1322.0,0.025995203102585407
1321.0,0.02682594731702781
1320.0,0.027889771597169544
1319.0,0.029095501846216454
1318.0,0.030397735151460825
1317.0,0.03179733185715028
1316.0,0.033295223342125535
1315.0,0.03489241415094413
1314.0,0.036731748473764814
1313.0,0.03876880295533702
1312.0,0.040958607678906356
1311.0,0.04320747962950522
1310.0,0.045564513671517703
1309.0,0.047934409814949674
1308.0,0.050317309204795935
1307.0,0.05261529831525902
1306.0,0.054876229877880656
1305.0,0.0571489934456626
1304.0,0.05948351506743288
1303.0,0.06208109735221967
1302.0,0.06504729218214189
1301.0,0.0684912781333824
1300.0,0.07242434530888953
1299.0,0.07680780957933253
1298.0,0.08144546944972642
1297.0,0.08639805027084257
1296.0,0.09146136782804049
1295.0,0.09653017149282994
1294.0,0.1014393550602879
1293.0,0.10623823794205656
1292.0,0.11092250734993603
1291.0,0.11543118508166672
1290.0,0.11975822410451964
1289.0,0.12407101507707297
1288.0,0.1283103343144847
1287.0,0.13235576609690147
1286.0,0.1360826230421397
1285.0,0.1396619934290062
1284.0,0.14315032127482774
1283.0,0.1466060225493342
1282.0,0.14990540561329913
1281.0,0.15323004646278116
1280.0,0.15676722190199066
1279.0,0.1603334431175667
1278.0,0.16418264570652719
1277.0,0.16838614469090118
1276.0,0.173212761183708
1275.0,0.1785519809824696
1274.0,0.18462151503408197
1273.0,0.19178902707577805
1272.0,0.200246033588114
1271.0,0.20964445358561346
1270.0,0.2196826878598488
1269.0,0.2304749798289496
1268.0,0.24176959154225042
1267.0,0.2532101678473877
1266.0,0.26464066699828925
1265.0,0.27580608048567035
1264.0,0.28650945690605756
1263.0,0.29610704636745555
1262.0,0.3044307729638145
1261.0,0.31175820402228815
1260.0,0.31794522292619276
1259.0,0.3228494787265672
1258.0,0.326610421811695
1257.0,0.33003263009149597
1256.0,0.3338565727084417
1255.0,0.33818731446273875
1254.0,0.34313550845108276
1253.0,0.3491099221436875
1252.0,0.3562513145404742
1251.0,0.364013888199167
1250.0,0.37202001017001995
1249.0,0.3803849942571935
1248.0,0.38880793913156575
1247.0,0.39653084026616114
1246.0,0.4028535121663046
1245.0,0.4078232426041333
1244.0,0.4112802203999435
1243.0,0.4120646513636439
1242.0,0.41005039867429227
1241.0,0.4053864908399021
1240.0,0.39859193946531635
1239.0,0.38933983691012
1238.0,0.3779933269931952
1237.0,0.3653212478213177
1236.0,0.35193287055106537
1235.0,0.3380927072339792
1234.0,0.32403845035783063
1233.0,0.3104247842400618
1232.0,0.2977418368379059
1231.0,0.28575408898210597
1230.0,0.2745784499257413
1229.0,0.26432127409409545
1228.0,0.25500332596143993
1227.0,0.24618721643529784
1226.0,0.23784680769640532
1225.0,0.2299584456803314
1224.0,0.2225731776106885
1223.0,0.21538270736712462
1222.0,0.20823919598709506
1221.0,0.20121128604875071
1220.0,0.1941594511853273
1219.0,0.18688624599210146
1218.0,0.17953580942231584
1217.0,0.1721140172101443
1216.0,0.16488040957545036
1215.0,0.15776531365276036
1214.0,0.1509493094304879
1213.0,0.14454141961396383
1212.0,0.13864483980673992
1211.0,0.1331221856625011
1210.0,0.1280186461566306
1209.0,0.12320502379929943
1208.0,0.11867241589944855
1207.0,0.11424311893073247
1206.0,0.11002636159600376
1205.0,0.1060718734573931
1204.0,0.10231793820358015
1203.0,0.09865067458435761
1202.0,0.09512223303659528
1201.0,0.09167586072382083
1200.0,0.08841629901892434
1199.0,0.08518101955252688
1198.0,0.08202211740709164
1197.0,0.07893810920972144
1196.0,0.0759792995259323
1195.0,0.07309189829456408
1194.0,0.07032568205141221
1193.0,0.06777998612288094
1192.0,0.0654005617819271
1191.0,0.06318476880236723
1190.0,0.0611301784870133
1189.0,0.05933412752417122
1188.0,0.05784307153250956
1187.0,0.05665390164340933
1186.0,0.05586292684190197
1185.0,0.05546797900801881
1184.0,0.05541863577307371
1183.0,0.055764156206519866
1182.0,0.056456022846545606
1181.0,0.05744631966579017
1180.0,0.058737090681050264
1179.0,0.060131455540490375
1178.0,0.06153031163235467
1177.0,0.06268275223750575
1176.0,0.06348625752110681
1175.0,0.06373765809652254
1174.0,0.06333548699992453
1173.0,0.06223143295006417
1172.0,0.06048074738138154
1171.0,0.05814087347462649
1170.0,0.05541863577307371
1169.0,0.0525172634430815
1168.0,0.04987865248862655
1167.0,0.047595060422975566
1166.0,0.04585401117045196
1165.0,0.04464904263234004
1164.0,0.0439276630048171
1163.0,0.0435434165901003
1162.0,0.04344740808260106
1161.0,0.04359142880416744
1160.0,0.04387961360698034
1159.0,0.044360346976747955
1158.0,0.044937930324967956
1157.0,0.04570923829887308
1156.0,0.04672366333269573
1155.0,0.047982909952573705
1154.0,0.04958646063061889
1153.0,0.05148923116234294
1152.0,0.053596866100945384
1151.0,0.055961719945581745
1150.0,0.058538260652670315
1149.0,0.06133019897732073
1148.0,0.06444235490698613
1147.0,0.06777998612288094
1146.0,0.0713481533463054
1145.0,0.07520400420208784
1144.0,0.0794071379151915
1143.0,0.0838620168928248
1142.0,0.0885227828938977
1141.0,0.09334178232840018
1140.0,0.09843270997155007
1139.0,0.10374943753836186
1138.0,0.10946720807225518
1137.0,0.1157145376603248
1136.0,0.12251347193039863
1135.0,0.12977172098820566
1134.0,0.13739163603505822
1133.0,0.1455724942121388
1132.0,0.15434394001645568
1131.0,0.16348600110932865
1130.0,0.17295398299526576
1129.0,0.18269912160667867
1128.0,0.19266796070880954
1127.0,0.20273245916928362
1126.0,0.21275211966804597
1125.0,0.22279074185431513
1124.0,0.2327699018892817
1123.0,0.24222450898807435
1122.0,0.2508049577803275
1121.0,0.258612007520731
1120.0,0.26520017041115307
1119.0,0.2701874928390644
1118.0,0.27310985925817843
1117.0,0.2740883677049517
1116.0,0.2732727909734278
1115.0,0.27099729072781
1114.0,0.26800855098107057
1113.0,0.2657603955645449
1112.0,0.26536016101230064
1111.0,0.26728465965000714
1110.0,0.2717274021049829
1109.0,0.2787666299827225
1108.0,0.2880241456482442
1107.0,0.29860473098607976
1106.0,0.3097152974873705
1105.0,0.32093568187868726
1104.0,0.3318005158013382
1103.0,0.341606973720876
1102.0,0.35017853677543487
1101.0,0.3574365628956122
1100.0,0.36351210364663467
1099.0,0.3677452233152865
1098.0,0.37018280398148407
1097.0,0.37099838071300817
1096.0,0.3702846673528677
1095.0,0.3678465164893674
1094.0,0.3636124141868433
1093.0,0.3581294545236873
1092.0,0.351835221425999
1091.0,0.3446694419906591
1090.0,0.3369590251060257
1089.0,0.329197715739056
1088.0,0.32157267756613295
1087.0,0.3139002280040841
1086.0,0.30627305107635316
1085.0,0.2987775157434429
1084.0,0.2912392763096834
1083.0,0.2832456425673029
1082.0,0.27466018409026294
1081.0,0.26560025747943294
1080.0,0.2562551214075388
1079.0,0.24649354300903004
1078.0,0.2364222755333547
1077.0,0.22643295107394135
1076.0,0.216739767127051
1075.0,0.20732821085843267
1074.0,0.1981848314185628
1073.0,0.18970025895983111
1072.0,0.18190613085336405
1071.0,0.17463880404736676
1070.0,0.16787445746599094
1069.0,0.16171775008531153
1068.0,0.15602015552184012
1067.0,0.1507034591652734
1066.0,0.14575470293388149
1065.0,0.14122226269455074
1064.0,0.13715334001706125
1063.0,0.13335827943396006
1062.0,0.12983027886355947
1061.0,0.126621263590859
1060.0,0.12372441132212098
1059.0,0.12124847982699793
1058.0,0.11912926746757657
1057.0,0.1174754620451195
1056.0,0.11633856484638239
1055.0,0.11554450392951199
1054.0,0.11509140583739286
1053.0,0.1149782051377024
1052.0,0.11520463605101905
1051.0,0.11554450392951199
1050.0,0.11599807523121286
1049.0,0.1165657063169907
1048.0,0.11719095860756013
1047.0,0.11770319906234805
1046.0,0.11798803837334138
1045.0,0.11810202642698875
1044.0,0.11787408022996826
1043.0,0.11730473761840288
1042.0,0.11633856484638239
1041.0,0.11503480179926728
1040.0,0.11350927482751816
1039.0,0.11159583226295333
1038.0,0.10935546370475246
1037.0,0.10701544928928342
1036.0,0.10468797552421272
1035.0,0.10231793820358015
1034.0,0.10001543745060903
1033.0,0.09777947172068524
1032.0,0.09571734235437201
1031.0,0.09388054245443844
1030.0,0.09264239186882706
1029.0,0.09253489323414388
1028.0,0.09431203228814788
1027.0,0.09875969792669093
1026.0,0.1063491830140364
1025.0,0.1175323851046286
1024.0,0.13200248965504868
1023.0,0.14929251462546267
1022.0,0.1686422145579325
1021.0,0.18909571933129965
1020.0,0.2087305190897315
1019.0,0.2246808781705225
1018.0,0.23388471677858602
1017.0,0.23455498190985002
1016.0,0.22657927670938993
1015.0,0.2119731159041962
1014.0,0.19388788983090888
1013.0,0.17567887514922864
1012.0,0.159517512786558
1011.0,0.14587621789883287
1010.0,0.13483678049391368
1009.0,0.12586622117202761
1008.0,0.11855827805860697
1007.0,0.1125514997500463
1006.0,0.1075158206353124
1005.0,0.1033635694704158
1004.0,0.09996076451267522
1003.0,0.09707290398273716
1002.0,0.09463593123310776
1001.0,0.09253489323414388
1000.0,0.09065796163869155
999.0,0.08889568219596411
998.0,0.08719360733870762
997.0,0.0856568428805593
996.0,0.08423093401631587
995.0,0.08291480935943274
994.0,0.08175990977858505
993.0,0.0809742354126397
992.0,0.08045124103115198
991.0,0.08013774644446192
990.0,0.07992887570247587
989.0,0.07982447798997727
988.0,0.07987667370927598
987.0,0.07998108397108505
986.0,0.08024221949810584
985.0,0.08076496207674921
984.0,0.08160266115629988
983.0,0.08275714209253371
982.0,0.08417821237960132
981.0,0.08581556657675371
980.0,0.08761850108119962
979.0,0.08948231448273347
978.0,0.09135416109288674
977.0,0.09318028453345462
976.0,0.09496007192378841
975.0,0.09653017149282994
974.0,0.09772507952549825
973.0,0.09837823590664274
972.0,0.09859617317474823
971.0,0.09821485469640057
970.0,0.09734452478207412
969.0,0.09598811640261173
968.0,0.09436599867304518
967.0,0.09242742120144909
966.0,0.09028354676565531
965.0,0.08799062441302175
964.0,0.08576265223225898
963.0,0.08344078069888616
962.0,0.08113125661901543
961.0,0.07893810920972144
960.0,0.07680780957933253
959.0,0.07479107858799638
958.0,0.07288638806623937
957.0,0.07114346641808922
956.0,0.06950943469373039
955.0,0.06793230779927839
954.0,0.06646209802829528
953.0,0.06509774167768612
952.0,0.06388856832514578
951.0,0.06278310913729457
950.0,0.061780582187257016
949.0,0.06093025007657582
948.0,0.060081579630943294
947.0,0.05923456436878238
946.0,0.0583891978463662
945.0,0.05754547365752294
944.0,0.05685187064143715
943.0,0.05630767289398331
942.0,0.055764156206519866
941.0,0.055270639696704205
940.0,0.05477768336465916
939.0,0.05433450056786593
938.0,0.05389176956309405
937.0,0.053449489430144714
936.0,0.05310580489767336
935.0,0.05271335532220167
934.0,0.05227227303668425
933.0,0.0518316382728683
932.0,0.05144033789103841
931.0,0.051049389754451946
930.0,0.050707598587974356
929.0,0.05036607620073763
928.0,0.05002482217034632
927.0,0.04958646063061889
926.0,0.049148541111453614
925.0,0.04866248120408234
924.0,0.048225491918274965
923.0,0.0478374257855374
922.0,0.04754660357696672
921.0,0.04730440041308315
920.0,0.04711073508906982
919.0,0.04682039893436585
918.0,0.04653025674659861
917.0,0.04624030826677128
916.0,0.046143701775014145
915.0,0.04628861957244457
914.0,0.04657860031896477
913.0,0.04696554274964315
912.0,0.04744970610179822
911.0,0.047934409814949674
910.0,0.048468209457651845
909.0,0.04919717703534143
908.0,0.050073556332087765
907.0,0.05114709380028648
906.0,0.05227227303668425
905.0,0.0534986094304124
904.0,0.054728418492290265
903.0,0.05586292684190197
902.0,0.05685187064143715
901.0,0.057743849580535134
900.0,0.05848856736559682
899.0,0.05908526241971446
898.0,0.05933412752417122
897.0,0.05928434309333741
896.0,0.059035506507200575
895.0,0.05863766428823891
894.0,0.058190526991161784
893.0,0.05784307153250956
892.0,0.05769424710410598
891.0,0.0575950591438934
890.0,0.05769424710410598
889.0,0.05804158346918653
888.0,0.0588862729628985
887.0,0.06033101647767336
886.0,0.06258241852286206
885.0,0.06580465065211571
884.0,0.07007043991541217
883.0,0.07546228222451012
882.0,0.08191721535781271
881.0,0.0892689019566193
880.0,0.0972358560759139
879.0,0.10573933555301185
878.0,0.11469533241103202
877.0,0.12436006299583169
876.0,0.13454067733803532
875.0,0.14454141961396383
874.0,0.15279763601907614
873.0,0.15726598105173029
872.0,0.1562690348879079
871.0,0.14966014541652073
870.0,0.13912320359670227
869.0,0.12749410065407507
868.0,0.116736140415026
867.0,0.10779405402422748
866.0,0.10072681268239614
865.0,0.09544673702322726
864.0,0.0916222275676053
863.0,0.08878910686244668
862.0,0.08666307406737683
861.0,0.08518101955252688
860.0,0.08423093401631587
859.0,0.08370400543686918
858.0,0.08344078069888616
857.0,0.08344078069888616
856.0,0.08370400543686918
855.0,0.08417821237960132
854.0,0.08475850269380558
853.0,0.0856568428805593
852.0,0.08687520961044104
851.0,0.08820340956274775
850.0,0.08958906008531176
849.0,0.0908185240221473
848.0,0.09167586072382083
847.0,0.09189045960744768
846.0,0.09140776115243066
845.0,0.09028354676565531
844.0,0.08884239126002336
843.0,0.08708744882390307
842.0,0.08518101955252688
841.0,0.08328292240118751
840.0,0.08144546944972642
839.0,0.07961575782164254
838.0,0.07779372256098371
837.0,0.07587584681417514
836.0,0.07391491307485598
835.0,0.07186029312488018
834.0,0.06976434723371505
833.0,0.06777998612288094
832.0,0.06600683616875758
831.0,0.06444235490698613
830.0,0.06288348923294618
829.0,0.061380218497318895
828.0,0.05993198626064755
827.0,0.05858795962645047
826.0,0.057396751157843484
825.0,0.05630767289398331
824.0,0.05531996611868961
823.0,0.05438372077326825
822.0,0.05354773498692689
821.0,0.05286048235717078
820.0,0.052419250695677544
819.0,0.052027420754219955
818.0,0.05173378011970464
817.0,0.05153812993871654
816.0,0.05139145012356372
815.0,0.05134256785867963
814.0,0.05119595406718891
813.0,0.05100054597304693
812.0,0.05075640943173498
811.0,0.050463626623857394
810.0,0.05021979163799939
809.0,0.04997609347667353
808.0,0.04978123335813667
807.0,0.04944043838819989
806.0,0.04900266601119507
805.0,0.048468209457651845
804.0,0.0478374257855374
803.0,0.04725597598510167
802.0,0.04677202844014605
801.0,0.04653025674659861
800.0,0.04667530361081473
799.0,0.047595060422975566
798.0,0.04958646063061889
797.0,0.052762392129333646
796.0,0.05655495097496965
795.0,0.060081579630943294
794.0,0.06243196139961715
793.0,0.06313454102437754
792.0,0.06223143295006417
791.0,0.060131455540490375
790.0,0.057396751157843484
789.0,0.05458065739693696
788.0,0.05192951848105887
787.0,0.04953778109440221
786.0,0.04730440041308315
785.0,0.04541983725624266
784.0,0.0437835307566099
783.0,0.04244059810252043
782.0,0.04138834223512067
781.0,0.04043395336207234
780.0,0.03948165721929198
779.0,0.038436537637930535
778.0,0.037251946641359446
777.0,0.03597620715996652
776.0,0.03475124903287918
775.0,0.03362357691107709
774.0,0.032686081712916426
773.0,0.03193753992355086
772.0,0.031190286087141805
771.0,0.03025802323714588
770.0,0.02904906565457588
769.0,0.027843464140506313
768.0,0.026733563891471412
767.0,0.025718641122169483
766.0,0.024798037742147727
765.0,0.024017056287453542
764.0,0.023374947949272418
763.0,0.02282532397981263
762.0,0.02227639471115217
761.0,0.02168250325324883
760.0,0.021043834782408455
759.0,0.02045162529590483
758.0,0.02004210665933459
757.0,0.01990568621470623
756.0,0.019996628416253603
755.0,0.02013307743509718
754.0,0.02022406727031445
753.0,0.02022406727031445
752.0,0.02004210665933459
751.0,0.01990568621470623
750.0,0.01995115493504329
749.0,0.020315076172974234
748.0,0.021043834782408455
747.0,0.021956506090037076
746.0,0.02314585342378117
745.0,0.024890010313838973
744.0,0.02751945012352408
743.0,0.03133029827960798
742.0,0.036731748473764814
741.0,0.044167989767578186
740.0,0.05399011523423525
739.0,0.0663102910421054
738.0,0.08102656950704579
737.0,0.0978882765519955
736.0,0.1163953390777075
735.0,0.13554825284181704
734.0,0.1548399223480541
733.0,0.17411970106382046
732.0,0.19375217280420953
731.0,0.21367456560992992
730.0,0.23425695857895557
729.0,0.2560201347581572
728.0,0.2787666299827225
727.0,0.3005091547277956
726.0,0.3186682940308343
725.0,0.3308691526266674
724.0,0.3356401254488588
723.0,0.3332013163338259
722.0,0.3255062827036499
721.0,0.3156035215809796
720.0,0.30530707366851595
719.0,0.2949063894521269
718.0,0.28441444810680383
717.0,0.27417000967941973
716.0,0.2638426247268679
715.0,0.25313237214957063
714.0,0.24214865631442017
713.0,0.23173198354845193
712.0,0.22228326139037402
711.0,0.2135325232597176
710.0,0.20502425594886842
709.0,0.19688444510997294
708.0,0.18916284885951162
707.0,0.1818401136028147
706.0,0.17502853887630665
705.0,0.16883436609055757
704.0,0.16291684917681404
703.0,0.1565803347950816
702.0,0.14978275820161047
701.0,0.1425468829647336
700.0,0.13519237097385295
699.0,0.12790202572577325
698.0,0.12124847982699793
697.0,0.11565785235294102
696.0,0.11109074073646874
695.0,0.1071265931112344
694.0,0.10358402352687701
693.0,0.10034361969436434
692.0,0.09734452478207412
691.0,0.09463593123310776
690.0,0.09226626300234453
689.0,0.09039048950983108
688.0,0.08910891135547172
687.0,0.0880970039559672
686.0,0.08719360733870762
685.0,0.08655704514060414
684.0,0.08602728844902896
683.0,0.0854453014823664
682.0,0.08470571697731355
681.0,0.0839147001562972
680.0,0.08296737783760655
679.0,0.08170748724464438
678.0,0.07998108397108505
677.0,0.07810552907089763
676.0,0.07592757008963713
675.0,0.07355465218161061
674.0,0.07129697256940304
673.0,0.0692037370166998
672.0,0.0666645899223488
671.0,0.06393888339001164
670.0,0.06193081377661436
669.0,0.06208109735221967
668.0,0.06348625752110681
667.0,0.06223143295006417
666.0,0.058538260652670315
665.0,0.05601112492622806
664.0,0.05522131887649295
663.0,0.054876229877880656
662.0,0.05413767551038262
661.0,0.053203972728539606
660.0,0.0525172634430815
659.0,0.052027420754219955
658.0,0.05129369109514803
657.0,0.05036607620073763
656.0,0.04934311749548925
655.0,0.04817696468408794
654.0,0.04720755695590784
653.0,0.04657860031896477
652.0,0.04633693625290869
651.0,0.04628861957244457
650.0,0.04638525830935958
649.0,0.04657860031896477
648.0,0.04657860031896477
647.0,0.046047116768076934
646.0,0.044986096961949995
645.0,0.04383156952463674
644.0,0.0431115453499229
643.0,0.04282386959515394
642.0,0.04287180232318688
641.0,0.04320747962950522
640.0,0.043735497301724546
639.0,0.04450467081587295
638.0,0.045323413081356456
637.0,0.046192002334692894
636.0,0.04744970610179822
635.0,0.04919717703534143
634.0,0.05139145012356372
633.0,0.053596866100945384
632.0,0.054876229877880656
631.0,0.05458065739693696
630.0,0.05286048235717078
629.0,0.05051241005349638
628.0,0.048565334467987054
627.0,0.04754660357696672
626.0,0.047595060422975566
625.0,0.04832256265669943
624.0,0.04905128560059957
623.0,0.04909991063361274
622.0,0.048225491918274965
621.0,0.04686877481655505
620.0,0.04570923829887308
619.0,0.04513062893352182
618.0,0.04488976902944808
617.0,0.044312249686494276
616.0,0.04282386959515394
615.0,0.04081545726880842
614.0,0.03919637508823026
613.0,0.03862637240519895
612.0,0.039006291057664066
611.0,0.03986232513620536
610.0,0.04072004986906119
609.0,0.041436116778032606
608.0,0.0417706858116178
607.0,0.04138834223512067
606.0,0.04019568349166214
605.0,0.03824678581321739
604.0,0.03583468937826462
603.0,0.033482823553208085
602.0,0.032031037121307726
601.0,0.032031037121307726
600.0,0.03273290844021437
