cm-1,A
4000.0,0.06414020196211956
3999.0,0.06419054619006714
3998.0,0.06424089625468832
3997.0,0.06429125215733666
3996.0,0.06434161389936577
3995.0,0.06439198148213077
3994.0,0.06449273417528723
3993.0,0.06454311928839007
3992.0,0.06454311928839007
3991.0,0.06464390705442691
3990.0,0.06464390705442691
3989.0,0.06454311928839007
3988.0,0.06439198148213077
3987.0,0.06424089625468832
3986.0,0.06419054619006714
3985.0,0.06429125215733666
3984.0,0.06444235490698613
3983.0,0.06464390705442691
3982.0,0.06479513257341862
3981.0,0.06479513257341862
3980.0,0.06464390705442691
3979.0,0.06444235490698613
3978.0,0.06429125215733666
3977.0,0.06429125215733666
3976.0,0.06439198148213077
3975.0,0.06449273417528723
3974.0,0.06459351024765114
3973.0,0.06454311928839007
3972.0,0.06449273417528723
3971.0,0.06449273417528723
3970.0,0.06469430971007495
3969.0,0.06499684854634524
3968.0,0.06529959828457499
3967.0,0.0655520510510299
3966.0,0.06560255921901192
3965.0,0.0655520510510299
3964.0,0.0653500770992892
3963.0,0.06519865825346338
3962.0,0.06504729218214189
3961.0,0.06494641076893504
3960.0,0.06484555278383164
3959.0,0.06484555278383164
3958.0,0.06489597884855036
3957.0,0.06494641076893504
3956.0,0.06494641076893504
3955.0,0.06489597884855036
3954.0,0.06484555278383164
3953.0,0.06474471821595262
3952.0,0.06449273417528723
3951.0,0.06429125215733666
3950.0,0.06408986356949264
3949.0,0.06403953101083348
3948.0,0.06408986356949264
3947.0,0.06414020196211956
3946.0,0.06403953101083348
3945.0,0.06398920428479049
3944.0,0.06403953101083348
3943.0,0.06419054619006714
3942.0,0.06429125215733666
3941.0,0.06434161389936577
3940.0,0.06449273417528723
3939.0,0.06494641076893504
3938.0,0.0654005617819271
3937.0,0.06560255921901192
3936.0,0.06550154875643233
3935.0,0.06524912533642091
3934.0,0.06509774167768612
3933.0,0.06494641076893504
3932.0,0.06469430971007495
3931.0,0.06444235490698613
3930.0,0.06434161389936577
3929.0,0.06429125215733666
3928.0,0.06429125215733666
3927.0,0.06439198148213077
3926.0,0.06459351024765114
3925.0,0.06484555278383164
3924.0,0.06479513257341862
3923.0,0.06449273417528723
3922.0,0.06424089625468832
3921.0,0.06424089625468832
3920.0,0.06424089625468832
3919.0,0.06419054619006714
3918.0,0.06439198148213077
3917.0,0.06484555278383164
3916.0,0.06524912533642091
3915.0,0.06550154875643233
3914.0,0.06565307326174441
3913.0,0.06605739725873905
3912.0,0.06641148980334699
3911.0,0.0665127121512945
3910.0,0.0663102910421054
3909.0,0.06590573164451952
3908.0,0.0653500770992892
3907.0,0.06469430971007495
3906.0,0.06393888339001164
3905.0,0.06328524178879635
3904.0,0.0627329277885873
3903.0,0.062381820606176586
3902.0,0.06243196139961715
3901.0,0.06323500239005853
3900.0,0.06454311928839007
3899.0,0.06550154875643233
3898.0,0.06565307326174441
3897.0,0.06529959828457499
3896.0,0.06494641076893504
3895.0,0.06474471821595262
3894.0,0.06444235490698613
3893.0,0.06434161389936577
3892.0,0.06474471821595262
3891.0,0.0654005617819271
3890.0,0.0653500770992892
3889.0,0.06454311928839007
3888.0,0.06434161389936577
3887.0,0.06514819703433927
3886.0,0.0659562809644747
3885.0,0.06575411897692884
3884.0,0.06464390705442691
3883.0,0.06378795567975115
3882.0,0.06403953101083348
3881.0,0.06494641076893504
3880.0,0.06560255921901192
3879.0,0.06545105233385295
3878.0,0.06484555278383164
3877.0,0.06454311928839007
3876.0,0.06479513257341862
3875.0,0.06489597884855036
3874.0,0.06419054619006714
3873.0,0.06298389253518577
3872.0,0.062331685600995
3871.0,0.0630843190547461
3870.0,0.06454311928839007
3869.0,0.06504729218214189
3868.0,0.06429125215733666
3867.0,0.06393888339001164
3866.0,0.06479513257341862
3865.0,0.06545105233385295
3864.0,0.06494641076893504
3863.0,0.06424089625468832
3862.0,0.06419054619006714
3861.0,0.06464390705442691
3860.0,0.06489597884855036
3859.0,0.06479513257341862
3858.0,0.06449273417528723
3857.0,0.06408986356949264
3856.0,0.06373765809652254
3855.0,0.0636873663378068
3854.0,0.06444235490698613
3853.0,0.06600683616875758
3852.0,0.0666645899223488
3851.0,0.06575411897692884
3850.0,0.06590573164451952
3849.0,0.0671712330991534
3848.0,0.0676277178520861
3847.0,0.06712054217620067
3846.0,0.0665127121512945
3845.0,0.06605739725873905
3844.0,0.0655520510510299
3843.0,0.06474471821595262
3842.0,0.06373765809652254
3841.0,0.06283329628496737
3840.0,0.06258241852286206
3839.0,0.06298389253518577
3838.0,0.0636873663378068
3837.0,0.06419054619006714
3836.0,0.06424089625468832
3835.0,0.06419054619006714
3834.0,0.06459351024765114
3833.0,0.0654005617819271
3832.0,0.06610796423578891
3831.0,0.06625970050306473
3830.0,0.06590573164451952
3829.0,0.0655520510510299
3828.0,0.06565307326174441
3827.0,0.06605739725873905
3826.0,0.06600683616875758
3825.0,0.06519865825346338
3824.0,0.06424089625468832
3823.0,0.06403953101083348
3822.0,0.06439198148213077
3821.0,0.06464390705442691
3820.0,0.06429125215733666
3819.0,0.06348625752110681
3818.0,0.06408986356949264
3817.0,0.06641148980334699
3816.0,0.068389593637038
3815.0,0.06864384953207203
3814.0,0.06777998612288094
3813.0,0.06747550294945781
3812.0,0.0681862960408608
3811.0,0.0684912781333824
3810.0,0.06777998612288094
3809.0,0.06706985716921054
3808.0,0.0671712330991534
3807.0,0.06772922410050963
3806.0,0.0675769736232612
3805.0,0.06646209802829528
3804.0,0.06575411897692884
3803.0,0.0663102910421054
3802.0,0.06696850489759454
3801.0,0.06676587128519196
3800.0,0.0655520510510299
3799.0,0.06439198148213077
3798.0,0.06489597884855036
3797.0,0.06646209802829528
3796.0,0.06752623532284674
3795.0,0.06777998612288094
3794.0,0.0678307540792078
3793.0,0.0681862960408608
3792.0,0.06864384953207203
3791.0,0.06869471857832687
3790.0,0.0684912781333824
3789.0,0.06828793294324442
3788.0,0.0680846829187538
3787.0,0.06777998612288094
3786.0,0.0675769736232612
3785.0,0.06747550294945781
3784.0,0.06737405597821788
3783.0,0.06696850489759454
3782.0,0.0666645899223488
3781.0,0.06671522765130522
3780.0,0.06706985716921054
3779.0,0.06742477650170953
3778.0,0.06767846801070698
3777.0,0.06793230779927839
3776.0,0.0684912781333824
3775.0,0.06905096883247697
3774.0,0.0690000580438479
3773.0,0.06833876031551878
3772.0,0.0678307540792078
3771.0,0.0678307540792078
3770.0,0.06803388527182741
3769.0,0.06793230779927839
3768.0,0.0676277178520861
3767.0,0.0676277178520861
3766.0,0.06823711151882228
3765.0,0.06864384953207203
3764.0,0.06833876031551878
3763.0,0.06772922410050963
3762.0,0.06752623532284674
3761.0,0.0675769736232612
3760.0,0.0671712330991534
3759.0,0.0665127121512945
3758.0,0.06610796423578891
3757.0,0.06600683616875758
3756.0,0.06580465065211571
3755.0,0.06550154875643233
3754.0,0.06529959828457499
3753.0,0.06494641076893504
3752.0,0.06424089625468832
3751.0,0.06419054619006714
3750.0,0.0654005617819271
3749.0,0.06641148980334699
3748.0,0.06605739725873905
3747.0,0.06580465065211571
3746.0,0.06706985716921054
3745.0,0.06915280831750303
3744.0,0.07063217075990047
3743.0,0.06996838504902692
3742.0,0.06813548650796819
3741.0,0.0676277178520861
3740.0,0.0678307540792078
3739.0,0.06691783763020887
3738.0,0.0653500770992892
3737.0,0.06429125215733666
3736.0,0.06378795567975115
3735.0,0.06333548699992453
3734.0,0.06323500239005853
3733.0,0.06424089625468832
3732.0,0.06590573164451952
3731.0,0.06706985716921054
3730.0,0.06742477650170953
3729.0,0.0676277178520861
3728.0,0.06813548650796819
3727.0,0.06844043290919477
3726.0,0.06803388527182741
3725.0,0.06732334137759932
3724.0,0.06691783763020887
3723.0,0.06691783763020887
3722.0,0.06712054217620067
3721.0,0.06727263269847072
3720.0,0.0675769736232612
3719.0,0.06813548650796819
3718.0,0.06874559358358656
3717.0,0.0688982543673613
3716.0,0.0684912781333824
3715.0,0.06788152797087754
3714.0,0.06737405597821788
3713.0,0.06691783763020887
3712.0,0.0665127121512945
3711.0,0.06641148980334699
3710.0,0.06681652082538614
3709.0,0.06742477650170953
3708.0,0.06813548650796819
3707.0,0.06894915322260897
3706.0,0.06940751155740177
3705.0,0.06945847013556561
3704.0,0.06930561233546473
3703.0,0.06915280831750303
3702.0,0.06915280831750303
3701.0,0.06915280831750303
3700.0,0.0690000580438479
3699.0,0.0688982543673613
3698.0,0.06915280831750303
3697.0,0.06961138175567827
3696.0,0.06956040523329987
3695.0,0.0690000580438479
3694.0,0.06833876031551878
3693.0,0.06777998612288094
3692.0,0.06706985716921054
3691.0,0.0665127121512945
3690.0,0.06661395809694559
3689.0,0.0676277178520861
3688.0,0.06864384953207203
3687.0,0.06879647454924775
3686.0,0.0688982543673613
3685.0,0.06966236426227002
3684.0,0.07052998382251041
3683.0,0.07068327324650436
3682.0,0.07017251876930874
3681.0,0.06961138175567827
3680.0,0.0691018855898955
3679.0,0.0681862960408608
3678.0,0.0671712330991534
3677.0,0.06696850489759454
3676.0,0.06777998612288094
3675.0,0.06864384953207203
3674.0,0.06798309356579857
3673.0,0.06656333217371957
3672.0,0.06691783763020887
3671.0,0.068389593637038
3670.0,0.06925467168888666
3669.0,0.06950943469373039
3668.0,0.06956040523329987
3667.0,0.0699173666076287
3666.0,0.07078549626260622
3665.0,0.07145053299833615
3664.0,0.07155293679081787
3663.0,0.0713481533463054
3662.0,0.07119462910671581
3661.0,0.0710411591191702
3660.0,0.07063217075990047
3659.0,0.07022356719509815
3658.0,0.07012147634321675
3657.0,0.07042782092345012
3656.0,0.07088774334533943
3655.0,0.07068327324650436
3654.0,0.06981534770138009
3653.0,0.0692037370166998
3652.0,0.06879647454924775
3651.0,0.06793230779927839
3650.0,0.06681652082538614
3649.0,0.0666645899223488
3648.0,0.06742477650170953
3647.0,0.06798309356579857
3646.0,0.06833876031551878
3645.0,0.0691018855898955
3644.0,0.07012147634321675
3643.0,0.0709900145060387
3642.0,0.0713481533463054
3641.0,0.07129697256940304
3640.0,0.0713481533463054
3639.0,0.07160414774328627
3638.0,0.0718090519612431
3637.0,0.07155293679081787
3636.0,0.0710411591191702
3635.0,0.07073438174693436
3634.0,0.07042782092345012
3633.0,0.06981534770138009
3632.0,0.06915280831750303
3631.0,0.0690000580438479
3630.0,0.06956040523329987
3629.0,0.07063217075990047
3628.0,0.0716553647351379
3627.0,0.0716553647351379
3626.0,0.07145053299833615
3625.0,0.0720140529005715
3624.0,0.07247565912497134
3623.0,0.07211658966929302
3622.0,0.07155293679081787
3621.0,0.07124579782334672
3620.0,0.07109230975604719
3619.0,0.07078549626260622
3618.0,0.07022356719509815
3617.0,0.06945847013556561
3616.0,0.06905096883247697
3615.0,0.06925467168888666
3614.0,0.06976434723371505
3613.0,0.07007043991541217
3612.0,0.07022356719509815
3611.0,0.07032568205141221
3610.0,0.07078549626260622
3609.0,0.07145053299833615
3608.0,0.07216786713341827
3607.0,0.07268097504034388
3606.0,0.0729891310243489
3605.0,0.07304051161972436
3604.0,0.07293775650699996
3603.0,0.0725783049495814
3602.0,0.07216786713341827
3601.0,0.07191154033502922
3600.0,0.0718090519612431
3599.0,0.07170658776779781
3598.0,0.07155293679081787
3597.0,0.0713481533463054
3596.0,0.07119462910671581
3595.0,0.07109230975604719
3594.0,0.07124579782334672
3593.0,0.07155293679081787
3592.0,0.0718090519612431
3591.0,0.07206531825882068
3590.0,0.07211658966929302
3589.0,0.07196279359311708
3588.0,0.07170658776779781
3587.0,0.0718090519612431
3586.0,0.07221915065262552
3585.0,0.07273231918911849
3584.0,0.07329750581735506
3583.0,0.07376047895413773
3582.0,0.07381195089279391
3581.0,0.07365755337434488
3580.0,0.07355465218161061
3579.0,0.07360609973031784
3578.0,0.07376047895413773
3577.0,0.07391491307485598
3576.0,0.07386342893255127
3575.0,0.07376047895413773
3574.0,0.07365755337434488
3573.0,0.07360609973031784
3572.0,0.07360609973031784
3571.0,0.07360609973031784
3570.0,0.07340034609297241
3569.0,0.07304051161972436
3568.0,0.07247565912497134
3567.0,0.07216786713341827
3566.0,0.07211658966929302
3565.0,0.07221915065262552
3564.0,0.07232173586200852
3563.0,0.0725783049495814
3562.0,0.07283502570063005
3561.0,0.07309189829456408
3560.0,0.07334892291111106
3559.0,0.07360609973031784
3558.0,0.07391491307485598
3557.0,0.07417242537525759
3556.0,0.07443009045662374
3555.0,0.07458476291575367
3554.0,0.07463633264589853
3553.0,0.07473949048056472
3552.0,0.07479107858799638
3551.0,0.07473949048056472
3550.0,0.07458476291575367
3549.0,0.07443009045662374
3548.0,0.07432700607875953
3547.0,0.07437854520917098
3546.0,0.07453319930846214
3545.0,0.07494587968815725
3544.0,0.07541061433058172
3543.0,0.07577241873988227
3542.0,0.0760310351245288
3541.0,0.07613452481449845
3540.0,0.07613452481449845
3539.0,0.0759792995259323
3538.0,0.07587584681417514
3537.0,0.07587584681417514
3536.0,0.0759792995259323
3535.0,0.07608277688689435
3534.0,0.07608277688689435
3533.0,0.07592757008963713
3532.0,0.07566901529132153
3531.0,0.07525564752005143
3530.0,0.07494587968815725
3529.0,0.07473949048056472
3528.0,0.07458476291575367
3527.0,0.07443009045662374
3526.0,0.07432700607875953
3525.0,0.07453319930846214
3524.0,0.07504911108438939
3523.0,0.07556563645676939
3522.0,0.07582412969807906
3521.0,0.07582412969807906
3520.0,0.07577241873988227
3519.0,0.07587584681417514
3518.0,0.07613452481449845
3517.0,0.07634157820669385
3516.0,0.07649693305789551
3515.0,0.07660053384128362
3514.0,0.07665234350217442
3513.0,0.07654873036034848
3512.0,0.07634157820669385
3511.0,0.0760310351245288
3510.0,0.07582412969807906
3509.0,0.07582412969807906
3508.0,0.07587584681417514
3507.0,0.07592757008963713
3506.0,0.07592757008963713
3505.0,0.07592757008963713
3504.0,0.0760310351245288
3503.0,0.07618627890881036
3502.0,0.07644514193245056
3501.0,0.07660053384128362
3500.0,0.07670415934449615
3499.0,0.07675598136972361
3498.0,0.07675598136972361
3497.0,0.07670415934449615
3496.0,0.07670415934449615
3495.0,0.07675598136972361
3494.0,0.07696333132921396
3493.0,0.07711890879170658
3492.0,0.07732643214144574
3491.0,0.07737832847680104
3490.0,0.07743023101428781
3489.0,0.07743023101428781
3488.0,0.07737832847680104
3487.0,0.07727454200674
3486.0,0.0772226580712021
3485.0,0.07711890879170658
3484.0,0.07696333132921396
3483.0,0.07675598136972361
3482.0,0.07665234350217442
3481.0,0.07675598136972361
3480.0,0.07711890879170658
3479.0,0.07763790321520991
3478.0,0.07800156869172903
3477.0,0.0781575185941421
3476.0,0.07800156869172903
3475.0,0.07768983678560404
3474.0,0.07737832847680104
3473.0,0.07737832847680104
3472.0,0.07753405470158659
3471.0,0.07779372256098371
3470.0,0.07794959783282618
3469.0,0.07789763319239285
3468.0,0.07784567476894111
3467.0,0.07789763319239285
3466.0,0.07800156869172903
3465.0,0.07800156869172903
3464.0,0.07794959783282618
3463.0,0.07784567476894111
3462.0,0.07779372256098371
3461.0,0.07784567476894111
3460.0,0.07810552907089763
3459.0,0.07841755960658348
3458.0,0.07867775641617802
3457.0,0.07862570458152551
3456.0,0.07841755960658348
3455.0,0.0781575185941421
3454.0,0.07805354577058976
3453.0,0.0781575185941421
3452.0,0.07831352451639795
3451.0,0.07831352451639795
3450.0,0.0781575185941421
3449.0,0.07805354577058976
3448.0,0.07805354577058976
3447.0,0.07826151631540124
3446.0,0.07862570458152551
3445.0,0.07904229404455076
3444.0,0.0794071379151915
3443.0,0.07977228854307139
3442.0,0.08008551934056851
3441.0,0.08029446545087904
3440.0,0.08045124103115198
3439.0,0.08060807322614072
3438.0,0.08071265949561734
3437.0,0.08076496207674921
3436.0,0.08076496207674921
3435.0,0.08081727095749947
3434.0,0.0809742354126397
3433.0,0.0812359689720008
3432.0,0.08139308485501817
3431.0,0.08144546944972642
3430.0,0.08144546944972642
3429.0,0.08134070657817682
3428.0,0.0812883346176787
3427.0,0.0812359689720008
3426.0,0.0812359689720008
3425.0,0.0812883346176787
3424.0,0.08139308485501817
3423.0,0.08144546944972642
3422.0,0.08134070657817682
3421.0,0.08113125661901543
3420.0,0.08092190762392604
3419.0,0.08081727095749947
3418.0,0.08081727095749947
3417.0,0.0809742354126397
3416.0,0.0812359689720008
3415.0,0.08160266115629988
3414.0,0.08191721535781271
3413.0,0.08207457793525874
3412.0,0.08202211740709164
3411.0,0.08181233864107451
3410.0,0.08160266115629988
3409.0,0.08144546944972642
3408.0,0.08144546944972642
3407.0,0.08155025759884227
3406.0,0.08170748724464438
3405.0,0.08175990977858505
3404.0,0.08165507103772507
3403.0,0.08149786036382611
3402.0,0.08134070657817682
3401.0,0.0812883346176787
3400.0,0.0812883346176787
3399.0,0.08118360963962057
3398.0,0.08107890990866418
3397.0,0.0809742354126397
3396.0,0.0809742354126397
3395.0,0.0809742354126397
3394.0,0.0809742354126397
3393.0,0.08092190762392604
3392.0,0.08076496207674921
3391.0,0.08060807322614072
3390.0,0.08045124103115198
3389.0,0.08029446545087904
3388.0,0.08013774644446192
3387.0,0.08008551934056851
3386.0,0.08018997982980403
3385.0,0.08039897621588898
3384.0,0.08066036321258663
3383.0,0.08092190762392604
3382.0,0.08107890990866418
3381.0,0.08118360963962057
3380.0,0.08113125661901543
3379.0,0.08102656950704579
3378.0,0.08092190762392604
3377.0,0.08092190762392604
3376.0,0.08107890990866418
3375.0,0.0812359689720008
3374.0,0.08134070657817682
3373.0,0.08134070657817682
3372.0,0.0812359689720008
3371.0,0.08107890990866418
3370.0,0.0809742354126397
3369.0,0.08081727095749947
3368.0,0.08066036321258663
3367.0,0.08060807322614072
3366.0,0.08076496207674921
3365.0,0.0809742354126397
3364.0,0.0812359689720008
3363.0,0.08134070657817682
3362.0,0.0812359689720008
3361.0,0.08102656950704579
3360.0,0.08086958613938555
3359.0,0.08081727095749947
3358.0,0.08081727095749947
3357.0,0.08076496207674921
3356.0,0.08081727095749947
3355.0,0.08092190762392604
3354.0,0.08113125661901543
3353.0,0.08139308485501817
3352.0,0.08155025759884227
3351.0,0.08160266115629988
3350.0,0.08155025759884227
3349.0,0.08144546944972642
3348.0,0.0812359689720008
3347.0,0.0809742354126397
3346.0,0.08076496207674921
3345.0,0.08071265949561734
3344.0,0.0809742354126397
3343.0,0.08139308485501817
3342.0,0.08170748724464438
3341.0,0.08181233864107451
3340.0,0.08170748724464438
3339.0,0.08170748724464438
3338.0,0.08181233864107451
3337.0,0.08202211740709164
3336.0,0.08223199755224364
3335.0,0.08228448344050654
3334.0,0.08217951800630297
3333.0,0.08196966321511989
3332.0,0.08175990977858505
3331.0,0.08165507103772507
3330.0,0.08165507103772507
3329.0,0.08170748724464438
3328.0,0.08170748724464438
3327.0,0.08165507103772507
3326.0,0.08160266115629988
3325.0,0.08165507103772507
3324.0,0.08186477383364066
3323.0,0.08212704480115218
3322.0,0.08228448344050654
3321.0,0.08228448344050654
3320.0,0.08223199755224364
3319.0,0.08223199755224364
3318.0,0.08228448344050654
3317.0,0.0823369756726251
3316.0,0.08228448344050654
3315.0,0.08207457793525874
3314.0,0.08186477383364066
3313.0,0.08165507103772507
3312.0,0.08155025759884227
3311.0,0.08144546944972642
3310.0,0.08134070657817682
3309.0,0.08118360963962057
3308.0,0.08107890990866418
3307.0,0.08107890990866418
3306.0,0.0812359689720008
3305.0,0.08144546944972642
3304.0,0.08175990977858505
3303.0,0.08207457793525874
3302.0,0.08228448344050654
3301.0,0.08228448344050654
3300.0,0.08212704480115218
3299.0,0.08186477383364066
3298.0,0.08170748724464438
3297.0,0.08170748724464438
3296.0,0.08186477383364066
3295.0,0.08202211740709164
3294.0,0.08212704480115218
3293.0,0.08202211740709164
3292.0,0.08186477383364066
3291.0,0.08170748724464438
3290.0,0.08170748724464438
3289.0,0.08175990977858505
3288.0,0.08175990977858505
3287.0,0.08170748724464438
3286.0,0.08160266115629988
3285.0,0.08165507103772507
3284.0,0.08175990977858505
3283.0,0.08191721535781271
3282.0,0.08202211740709164
3281.0,0.08217951800630297
3280.0,0.08238947425013277
3279.0,0.08259953204474924
3278.0,0.08270459905431071
3277.0,0.08265206237222844
3276.0,0.08244197917456386
3275.0,0.08228448344050654
3274.0,0.08217951800630297
3273.0,0.08212704480115218
3272.0,0.08223199755224364
3271.0,0.08238947425013277
3270.0,0.08249449044745338
3269.0,0.08254700807033655
3268.0,0.08249449044745338
3267.0,0.08238947425013277
3266.0,0.0823369756726251
3265.0,0.08244197917456386
3264.0,0.08254700807033655
3263.0,0.08265206237222844
3262.0,0.08265206237222844
3261.0,0.08244197917456386
3260.0,0.08217951800630297
3259.0,0.08202211740709164
3258.0,0.08202211740709164
3257.0,0.08217951800630297
3256.0,0.0823369756726251
3255.0,0.08244197917456386
3254.0,0.08238947425013277
3253.0,0.08228448344050654
3252.0,0.08207457793525874
3251.0,0.08196966321511989
3250.0,0.08191721535781271
3249.0,0.08202211740709164
3248.0,0.08223199755224364
3247.0,0.08244197917456386
3246.0,0.08265206237222844
3245.0,0.08270459905431071
3244.0,0.08254700807033655
3243.0,0.0823369756726251
3242.0,0.08212704480115218
3241.0,0.08207457793525874
3240.0,0.08212704480115218
3239.0,0.08223199755224364
3238.0,0.08244197917456386
3237.0,0.08265206237222844
3236.0,0.08280969148843575
3235.0,0.08291480935943274
3234.0,0.08286224724355584
3233.0,0.08275714209253371
3232.0,0.08259953204474924
3231.0,0.08244197917456386
3230.0,0.0823369756726251
3229.0,0.08238947425013277
3228.0,0.08249449044745338
3227.0,0.08254700807033655
3226.0,0.08265206237222844
3225.0,0.08275714209253371
3224.0,0.08291480935943274
3223.0,0.0830725338870073
3222.0,0.0832303157168639
3221.0,0.0832303157168639
3220.0,0.08317771540408803
3219.0,0.08301995267961781
3218.0,0.08280969148843575
3217.0,0.08249449044745338
3216.0,0.08238947425013277
3215.0,0.08259953204474924
3214.0,0.0830725338870073
3213.0,0.08365134772453975
3212.0,0.0839147001562972
3211.0,0.08375666953466032
3210.0,0.0833881548906541
3209.0,0.08296737783760655
3208.0,0.08270459905431071
3207.0,0.08259953204474924
3206.0,0.08254700807033655
3205.0,0.08254700807033655
3204.0,0.08254700807033655
3203.0,0.08265206237222844
3202.0,0.08286224724355584
3201.0,0.08301995267961781
3200.0,0.08301995267961781
3199.0,0.08296737783760655
3198.0,0.08286224724355584
3197.0,0.08286224724355584
3196.0,0.08296737783760655
3195.0,0.08312512146131668
3194.0,0.08317771540408803
3193.0,0.08328292240118751
3192.0,0.0833881548906541
3191.0,0.08365134772453975
3190.0,0.0838620168928248
3189.0,0.08396738981143059
3188.0,0.0839147001562972
3187.0,0.08375666953466032
3186.0,0.08354605145007499
3185.0,0.08333553545860273
3184.0,0.0832303157168639
3183.0,0.08317771540408803
3182.0,0.08317771540408803
3181.0,0.08317771540408803
3180.0,0.08312512146131668
3179.0,0.08312512146131668
3178.0,0.0830725338870073
3177.0,0.08301995267961781
3176.0,0.08301995267961781
3175.0,0.08317771540408803
3174.0,0.08333553545860273
3173.0,0.08354605145007499
3172.0,0.08365134772453975
3171.0,0.08370400543686918
3170.0,0.08370400543686918
3169.0,0.08365134772453975
3168.0,0.08359869639612438
3167.0,0.08365134772453975
3166.0,0.08370400543686918
3165.0,0.08380934001946239
3164.0,0.0839147001562972
3163.0,0.0839147001562972
3162.0,0.08380934001946239
3161.0,0.08365134772453975
3160.0,0.08354605145007499
3159.0,0.08354605145007499
3158.0,0.08349341288484435
3157.0,0.08333553545860273
3156.0,0.0830725338870073
3155.0,0.08291480935943274
3154.0,0.08301995267961781
3153.0,0.0833881548906541
3152.0,0.08375666953466032
3151.0,0.08407278830288423
3150.0,0.08412549714230844
3149.0,0.08396738981143059
3148.0,0.08375666953466032
3147.0,0.08359869639612438
3146.0,0.08359869639612438
3145.0,0.08365134772453975
3144.0,0.08365134772453975
3143.0,0.08359869639612438
3142.0,0.08344078069888616
3141.0,0.08328292240118751
3140.0,0.08312512146131668
3139.0,0.0830725338870073
3138.0,0.0832303157168639
3137.0,0.08349341288484435
3136.0,0.0838620168928248
3135.0,0.08417821237960132
3134.0,0.08444188458847957
3133.0,0.08454739831152125
3132.0,0.08444188458847957
3131.0,0.08428366205400617
3130.0,0.08412549714230844
3129.0,0.08412549714230844
3128.0,0.08417821237960132
3127.0,0.08417821237960132
3126.0,0.08402008585977572
3125.0,0.0838620168928248
3124.0,0.0838620168928248
3123.0,0.08402008585977572
3122.0,0.08433639649422697
3121.0,0.08454739831152125
3120.0,0.08460016478773014
3119.0,0.08449463824562353
3118.0,0.08438913733853282
3117.0,0.08438913733853282
3116.0,0.08444188458847957
3115.0,0.08454739831152125
3114.0,0.08460016478773014
3113.0,0.08465293767580806
3112.0,0.08454739831152125
3111.0,0.08444188458847957
3110.0,0.08438913733853282
3109.0,0.08438913733853282
3108.0,0.08454739831152125
3107.0,0.08470571697731355
3106.0,0.08481129482684358
3105.0,0.08491689834879956
3104.0,0.08491689834879956
3103.0,0.08481129482684358
3102.0,0.08470571697731355
3101.0,0.08470571697731355
3100.0,0.08470571697731355
3099.0,0.08465293767580806
3098.0,0.08460016478773014
3097.0,0.08460016478773014
3096.0,0.08475850269380558
3095.0,0.08496970974083906
3094.0,0.08518101955252688
3093.0,0.08528671302637614
3092.0,0.08533956941077814
3091.0,0.08528671302637614
3090.0,0.08512818245994969
3089.0,0.08502252755566908
3088.0,0.08496970974083906
3087.0,0.08502252755566908
3086.0,0.08518101955252688
3085.0,0.08539243222891946
3084.0,0.08560394787021397
3083.0,0.08576265223225898
3082.0,0.08576265223225898
3081.0,0.08570974433405087
3080.0,0.08576265223225898
3079.0,0.08592141461088798
3078.0,0.08618614761628329
3077.0,0.08639805027084257
3076.0,0.08645104209348209
3075.0,0.08634506491338012
3074.0,0.08618614761628329
3073.0,0.08608023504853413
3072.0,0.08602728844902896
3071.0,0.08597434830367123
3070.0,0.08597434830367123
3069.0,0.08597434830367123
3068.0,0.08608023504853413
3067.0,0.0861331881037608
3066.0,0.08618614761628329
3065.0,0.0861331881037608
3064.0,0.0861331881037608
3063.0,0.0861331881037608
3062.0,0.08618614761628329
3061.0,0.08618614761628329
3060.0,0.08618614761628329
3059.0,0.08618614761628329
3058.0,0.08618614761628329
3057.0,0.08634506491338012
3056.0,0.08650404038287651
3055.0,0.08666307406737683
3054.0,0.0867160982395816
3053.0,0.0867160982395816
3052.0,0.0867691288864394
3051.0,0.08687520961044104
3050.0,0.08692825969074924
3049.0,0.08698131625203986
3048.0,0.08692825969074924
3047.0,0.08682216600953208
3046.0,0.0867160982395816
3045.0,0.08661005636824437
3044.0,0.08645104209348209
3043.0,0.086239113587677
3042.0,0.08602728844902896
3041.0,0.08586848736910624
3040.0,0.0856568428805593
3039.0,0.0854453014823664
3038.0,0.08523386307414738
3037.0,0.08507535179485148
3036.0,0.08491689834879956
3035.0,0.08481129482684358
3034.0,0.08470571697731355
3033.0,0.08465293767580806
3032.0,0.08460016478773014
3031.0,0.08465293767580806
3030.0,0.08481129482684358
3029.0,0.08491689834879956
3028.0,0.08496970974083906
3027.0,0.08491689834879956
3026.0,0.08486409337798806
3025.0,0.08475850269380558
3024.0,0.08460016478773014
3023.0,0.08449463824562353
3022.0,0.08438913733853282
3021.0,0.08444188458847957
3020.0,0.08460016478773014
3019.0,0.08475850269380558
3018.0,0.08486409337798806
3017.0,0.08475850269380558
3016.0,0.08465293767580806
3015.0,0.08460016478773014
3014.0,0.08470571697731355
3013.0,0.08496970974083906
3012.0,0.08523386307414738
3011.0,0.0854453014823664
3010.0,0.08549817717268593
3009.0,0.08539243222891946
3008.0,0.08528671302637614
3007.0,0.08528671302637614
3006.0,0.08549817717268593
3005.0,0.08592141461088798
3004.0,0.08634506491338012
3003.0,0.08666307406737683
3002.0,0.08687520961044104
3001.0,0.0870343792958963
3000.0,0.08714052483764512
2999.0,0.0872466963286771
2998.0,0.08735289378168276
2997.0,0.08756536662442538
2996.0,0.0877779434675845
2995.0,0.08799062441302175
2994.0,0.0880970039559672
2993.0,0.0880970039559672
2992.0,0.0880970039559672
2991.0,0.0880970039559672
2990.0,0.0881502035005799
2989.0,0.0881502035005799
2988.0,0.08825662214406838
2987.0,0.08841629901892434
2986.0,0.08862929288386212
2985.0,0.08894897967187343
2984.0,0.0892689019566193
2983.0,0.08953568400438638
2982.0,0.08974922769985194
2981.0,0.0900163050601559
2980.0,0.09028354676565531
2979.0,0.09065796163869155
2978.0,0.09108625997902897
2977.0,0.0916222275676053
2976.0,0.09215885741705532
2975.0,0.09264239186882706
2974.0,0.09312646527792956
2973.0,0.0935572061829677
2972.0,0.09398837472858723
2971.0,0.09436599867304518
2970.0,0.09463593123310776
2969.0,0.09479797133768142
2968.0,0.09490603167212863
2967.0,0.09517630019905599
2966.0,0.09560907998763835
2965.0,0.0960964733098364
2964.0,0.0964759355287379
2963.0,0.09674718310604158
2962.0,0.09691001300805646
2961.0,0.09701860020249709
2960.0,0.09707290398273716
2959.0,0.0972358560759139
2958.0,0.09734452478207412
2957.0,0.09734452478207412
2956.0,0.09729018703012282
2955.0,0.09718153191774648
2954.0,0.09718153191774648
2953.0,0.09718153191774648
2952.0,0.09707290398273716
2951.0,0.09685572959046151
2950.0,0.09663866374468144
2949.0,0.0964759355287379
2948.0,0.09636748391576244
2947.0,0.09620485725896466
2946.0,0.09587978652380036
2945.0,0.09544673702322726
2944.0,0.09506817260434741
2943.0,0.09474395125154866
2942.0,0.09441997176475758
2941.0,0.09415017335768128
2940.0,0.09398837472858723
2939.0,0.09388054245443844
2938.0,0.09371884422784693
2937.0,0.09344948089854999
2936.0,0.09301884677114591
2935.0,0.09264239186882706
2934.0,0.09248115389337075
2933.0,0.09242742120144909
2932.0,0.09248115389337075
2931.0,0.09253489323414388
2930.0,0.09258863922541383
2929.0,0.09258863922541383
2928.0,0.09258863922541383
2927.0,0.09237369515673355
2926.0,0.09210516458371698
2925.0,0.09189045960744768
2924.0,0.0917831469106074
2923.0,0.0917831469106074
2922.0,0.0917831469106074
2921.0,0.0917831469106074
2920.0,0.0917831469106074
2919.0,0.09183679994445204
2918.0,0.0919441259012328
2917.0,0.0919441259012328
2916.0,0.0919441259012328
2915.0,0.0919977988274463
2914.0,0.09215885741705532
2913.0,0.09242742120144909
2912.0,0.09269615116603047
2911.0,0.09296504751658308
2910.0,0.09323411045927221
2909.0,0.0935572061829677
2908.0,0.09382663635595145
2907.0,0.09398837472858723
2906.0,0.09404230090757282
2905.0,0.09415017335768128
2904.0,0.09431203228814788
2903.0,0.09447395156495153
2902.0,0.09452793807529569
2901.0,0.09441997176475758
2900.0,0.09415017335768128
2899.0,0.09382663635595145
2898.0,0.0935572061829677
2897.0,0.09344948089854999
2896.0,0.09339562827501968
2895.0,0.09334178232840018
2894.0,0.09328794305703592
2893.0,0.09318028453345462
2892.0,0.09312646527792956
2891.0,0.09307265269104414
2890.0,0.09307265269104414
2889.0,0.09296504751658308
2888.0,0.09291125492570451
2887.0,0.09296504751658308
2886.0,0.09312646527792956
2885.0,0.09334178232840018
2884.0,0.09344948089854999
2883.0,0.09339562827501968
2882.0,0.09312646527792956
2881.0,0.09291125492570451
2880.0,0.09274991711867164
2879.0,0.09280368972839836
2878.0,0.09291125492570451
2877.0,0.09307265269104414
2876.0,0.09323411045927221
2875.0,0.09344948089854999
2874.0,0.0935572061829677
2873.0,0.0935572061829677
2872.0,0.09344948089854999
2871.0,0.09323411045927221
2870.0,0.09307265269104414
2869.0,0.09291125492570451
2868.0,0.09296504751658308
2867.0,0.09307265269104414
2866.0,0.09323411045927221
2865.0,0.09323411045927221
2864.0,0.09312646527792956
2863.0,0.09291125492570451
2862.0,0.09285746899685954
2861.0,0.09296504751658308
2860.0,0.09328794305703592
2859.0,0.0935572061829677
2858.0,0.09371884422784693
2857.0,0.09366495819490939
2856.0,0.0935033402006471
2855.0,0.09328794305703592
2854.0,0.09318028453345462
2853.0,0.09312646527792956
2852.0,0.09312646527792956
2851.0,0.09318028453345462
2850.0,0.09318028453345462
2849.0,0.09312646527792956
2848.0,0.09307265269104414
2847.0,0.09307265269104414
2846.0,0.09301884677114591
2845.0,0.09291125492570451
2844.0,0.09285746899685954
2843.0,0.09285746899685954
2842.0,0.09291125492570451
2841.0,0.09285746899685954
2840.0,0.09264239186882706
2839.0,0.09242742120144909
2838.0,0.09226626300234453
2837.0,0.09215885741705532
2836.0,0.09205147838772776
2835.0,0.0919441259012328
2834.0,0.0919441259012328
2833.0,0.0919441259012328
2832.0,0.0919977988274463
2831.0,0.0919977988274463
2830.0,0.09205147838772776
2829.0,0.09210516458371698
2828.0,0.09210516458371698
2827.0,0.09210516458371698
2826.0,0.09210516458371698
2825.0,0.09210516458371698
2824.0,0.0922125568893839
2823.0,0.09226626300234453
2822.0,0.09231997575758011
2821.0,0.09231997575758011
2820.0,0.09226626300234453
2819.0,0.0922125568893839
2818.0,0.09210516458371698
2817.0,0.0919977988274463
2816.0,0.09183679994445204
2815.0,0.0917831469106074
2814.0,0.09183679994445204
2813.0,0.0919977988274463
2812.0,0.09210516458371698
2811.0,0.09215885741705532
2810.0,0.09215885741705532
2809.0,0.09210516458371698
2808.0,0.09215885741705532
2807.0,0.09226626300234453
2806.0,0.09237369515673355
2805.0,0.09248115389337075
2804.0,0.09258863922541383
2803.0,0.09258863922541383
2802.0,0.09258863922541383
2801.0,0.09253489323414388
2800.0,0.09242742120144909
2799.0,0.09242742120144909
2798.0,0.09253489323414388
2797.0,0.09269615116603047
2796.0,0.09269615116603047
2795.0,0.09264239186882706
2794.0,0.09242742120144909
2793.0,0.09231997575758011
2792.0,0.09231997575758011
2791.0,0.09242742120144909
2790.0,0.09258863922541383
2789.0,0.09269615116603047
2788.0,0.09264239186882706
2787.0,0.09258863922541383
2786.0,0.09242742120144909
2785.0,0.09237369515673355
2784.0,0.09237369515673355
2783.0,0.09242742120144909
2782.0,0.09248115389337075
2781.0,0.09242742120144909
2780.0,0.09231997575758011
2779.0,0.09215885741705532
2778.0,0.0919977988274463
2777.0,0.0919977988274463
2776.0,0.0919977988274463
2775.0,0.09205147838772776
2774.0,0.09210516458371698
2773.0,0.09215885741705532
2772.0,0.09226626300234453
2771.0,0.09231997575758011
2770.0,0.09237369515673355
2769.0,0.09237369515673355
2768.0,0.09231997575758011
2767.0,0.09226626300234453
2766.0,0.0922125568893839
2765.0,0.0922125568893839
2764.0,0.09226626300234453
2763.0,0.09242742120144909
2762.0,0.09264239186882706
2761.0,0.09280368972839836
2760.0,0.09291125492570451
2759.0,0.09296504751658308
2758.0,0.09291125492570451
2757.0,0.09274991711867164
2756.0,0.09258863922541383
2755.0,0.09242742120144909
2754.0,0.09231997575758011
2753.0,0.09226626300234453
2752.0,0.09231997575758011
2751.0,0.09253489323414388
2750.0,0.09274991711867164
2749.0,0.09285746899685954
2748.0,0.09285746899685954
2747.0,0.09280368972839836
2746.0,0.09280368972839836
2745.0,0.09291125492570451
2744.0,0.09301884677114591
2743.0,0.09307265269104414
2742.0,0.09307265269104414
2741.0,0.09296504751658308
2740.0,0.09285746899685954
2739.0,0.09291125492570451
2738.0,0.09307265269104414
2737.0,0.09328794305703592
2736.0,0.09334178232840018
2735.0,0.09318028453345462
2734.0,0.09291125492570451
2733.0,0.09264239186882706
2732.0,0.09253489323414388
2731.0,0.09258863922541383
2730.0,0.09280368972839836
2729.0,0.09296504751658308
2728.0,0.09307265269104414
2727.0,0.09301884677114591
2726.0,0.09296504751658308
2725.0,0.09291125492570451
2724.0,0.09285746899685954
2723.0,0.09285746899685954
2722.0,0.09291125492570451
2721.0,0.09296504751658308
2720.0,0.09296504751658308
2719.0,0.09296504751658308
2718.0,0.09291125492570451
2717.0,0.09291125492570451
2716.0,0.09285746899685954
2715.0,0.09285746899685954
2714.0,0.09296504751658308
2713.0,0.09307265269104414
2712.0,0.09312646527792956
2711.0,0.09312646527792956
2710.0,0.09307265269104414
2709.0,0.09296504751658308
2708.0,0.09291125492570451
2707.0,0.09285746899685954
2706.0,0.09291125492570451
2705.0,0.09296504751658308
2704.0,0.09301884677114591
2703.0,0.09301884677114591
2702.0,0.09296504751658308
2701.0,0.09291125492570451
2700.0,0.09296504751658308
2699.0,0.09307265269104414
2698.0,0.09318028453345462
2697.0,0.09323411045927221
2696.0,0.09312646527792956
2695.0,0.09301884677114591
2694.0,0.09296504751658308
2693.0,0.09301884677114591
2692.0,0.09312646527792956
2691.0,0.09323411045927221
2690.0,0.09328794305703592
2689.0,0.09328794305703592
2688.0,0.09328794305703592
2687.0,0.09318028453345462
2686.0,0.09307265269104414
2685.0,0.09301884677114591
2684.0,0.09312646527792956
2683.0,0.09328794305703592
2682.0,0.09339562827501968
2681.0,0.0935033402006471
2680.0,0.09361107884716913
2679.0,0.09371884422784693
2678.0,0.0937727369476411
2677.0,0.09371884422784693
2676.0,0.09361107884716913
2675.0,0.0935572061829677
2674.0,0.09344948089854999
2673.0,0.09339562827501968
2672.0,0.09339562827501968
2671.0,0.09344948089854999
2670.0,0.0935572061829677
2669.0,0.09361107884716913
2668.0,0.09366495819490939
2667.0,0.09366495819490939
2666.0,0.09366495819490939
2665.0,0.09371884422784693
2664.0,0.09371884422784693
2663.0,0.09371884422784693
2662.0,0.09366495819490939
2661.0,0.0935572061829677
2660.0,0.09344948089854999
2659.0,0.09334178232840018
2658.0,0.09334178232840018
2657.0,0.09339562827501968
2656.0,0.0935572061829677
2655.0,0.09371884422784693
2654.0,0.09388054245443844
2653.0,0.09398837472858723
2652.0,0.09398837472858723
2651.0,0.09393445524476318
2650.0,0.09382663635595145
2649.0,0.09371884422784693
2648.0,0.09361107884716913
2647.0,0.09361107884716913
2646.0,0.0935572061829677
2645.0,0.0935033402006471
2644.0,0.09344948089854999
2643.0,0.09339562827501968
2642.0,0.09344948089854999
2641.0,0.0935572061829677
2640.0,0.09371884422784693
2639.0,0.09388054245443844
2638.0,0.09404230090757282
2637.0,0.09415017335768128
2636.0,0.09420411963213149
2635.0,0.09431203228814788
2634.0,0.09436599867304518
2633.0,0.09431203228814788
2632.0,0.09420411963213149
2631.0,0.09409623378338305
2630.0,0.09409623378338305
2629.0,0.09415017335768128
2628.0,0.09420411963213149
2627.0,0.09431203228814788
2626.0,0.09436599867304518
2625.0,0.09436599867304518
2624.0,0.09431203228814788
2623.0,0.09425807260839858
2622.0,0.09425807260839858
2621.0,0.09425807260839858
2620.0,0.09415017335768128
2619.0,0.09398837472858723
2618.0,0.09393445524476318
2617.0,0.09398837472858723
2616.0,0.09420411963213149
2615.0,0.09441997176475758
2614.0,0.09458193129745807
2613.0,0.09463593123310776
2612.0,0.09463593123310776
2611.0,0.09458193129745807
2610.0,0.09441997176475758
2609.0,0.09431203228814788
2608.0,0.09425807260839858
2607.0,0.09425807260839858
2606.0,0.09436599867304518
2605.0,0.09452793807529569
2604.0,0.09463593123310776
2603.0,0.09479797133768142
2602.0,0.09496007192378841
2601.0,0.09506817260434741
2600.0,0.09506817260434741
2599.0,0.0950141189006366
2598.0,0.09490603167212863
2597.0,0.09485199814398393
2596.0,0.09490603167212863
2595.0,0.09506817260434741
2594.0,0.09517630019905599
2593.0,0.09523037409340485
2592.0,0.09528445472131919
2591.0,0.09523037409340485
2590.0,0.09517630019905599
2589.0,0.09512223303659528
2588.0,0.09506817260434741
2587.0,0.0950141189006366
2586.0,0.09506817260434741
2585.0,0.09512223303659528
2584.0,0.09523037409340485
2583.0,0.09533854208447545
2582.0,0.09539263618455207
2581.0,0.09539263618455207
2580.0,0.09528445472131919
2579.0,0.09517630019905599
2578.0,0.09517630019905599
2577.0,0.09528445472131919
2576.0,0.09539263618455207
2575.0,0.0955549589230904
2574.0,0.09566320779750503
2573.0,0.09571734235437201
2572.0,0.09571734235437201
2571.0,0.09571734235437201
2570.0,0.09571734235437201
2569.0,0.09571734235437201
2568.0,0.09571734235437201
2567.0,0.0957714836599215
2566.0,0.09587978652380036
2565.0,0.09598811640261173
2564.0,0.0960964733098364
2563.0,0.0960964733098364
2562.0,0.09604229147682952
2561.0,0.09598811640261173
2560.0,0.09593394808549704
2559.0,0.09582563171583658
2558.0,0.09571734235437201
2557.0,0.0955549589230904
2556.0,0.0955549589230904
2555.0,0.09566320779750503
2554.0,0.09593394808549704
2553.0,0.09620485725896466
2552.0,0.09631326826349751
2551.0,0.09631326826349751
2550.0,0.09625905937846135
2549.0,0.09625905937846135
2548.0,0.09631326826349751
2547.0,0.09642170633694569
2546.0,0.09653017149282994
2545.0,0.09653017149282994
2544.0,0.0964759355287379
2543.0,0.0964759355287379
2542.0,0.0964759355287379
2541.0,0.0964759355287379
2540.0,0.09642170633694569
2539.0,0.09636748391576244
2538.0,0.09636748391576244
2537.0,0.09636748391576244
2536.0,0.0964759355287379
2535.0,0.09653017149282994
2534.0,0.09658441423091357
2533.0,0.09658441423091357
2532.0,0.09653017149282994
2531.0,0.09658441423091357
2530.0,0.09669292003582619
2529.0,0.09680145295702158
2528.0,0.09691001300805646
2527.0,0.09691001300805646
2526.0,0.09685572959046151
2525.0,0.09680145295702158
2524.0,0.09685572959046151
2523.0,0.09701860020249709
2522.0,0.09712721455392082
2521.0,0.09712721455392082
2520.0,0.09712721455392082
2519.0,0.09712721455392082
2518.0,0.09718153191774648
2517.0,0.09718153191774648
2516.0,0.09718153191774648
2515.0,0.09718153191774648
2514.0,0.0972358560759139
2513.0,0.09729018703012282
2512.0,0.09734452478207412
2511.0,0.09739886933346864
2510.0,0.09745322068600859
2509.0,0.09739886933346864
2508.0,0.09734452478207412
2507.0,0.09729018703012282
2506.0,0.09729018703012282
2505.0,0.09734452478207412
2504.0,0.09734452478207412
2503.0,0.0972358560759139
2502.0,0.09712721455392082
2501.0,0.09696430321150284
2500.0,0.09696430321150284
2499.0,0.09707290398273716
2498.0,0.09734452478207412
2497.0,0.09761631556752848
2496.0,0.09783387072894878
2495.0,0.09777947172068524
2494.0,0.09761631556752848
2493.0,0.09729018703012282
2492.0,0.09696430321150284
2491.0,0.09674718310604158
2490.0,0.09663866374468144
2489.0,0.09663866374468144
2488.0,0.09669292003582619
2487.0,0.09685572959046151
2486.0,0.09712721455392082
2485.0,0.09734452478207412
2484.0,0.0975619438013351
2483.0,0.0975619438013351
2482.0,0.09750757884139638
2481.0,0.09745322068600859
2480.0,0.09739886933346864
2479.0,0.09745322068600859
2478.0,0.09750757884139638
2477.0,0.09745322068600859
2476.0,0.09739886933346864
2475.0,0.09739886933346864
2474.0,0.09745322068600859
2473.0,0.0975619438013351
2472.0,0.09761631556752848
2471.0,0.09761631556752848
2470.0,0.09761631556752848
2469.0,0.09761631556752848
2468.0,0.09761631556752848
2467.0,0.0975619438013351
2466.0,0.0975619438013351
2465.0,0.0975619438013351
2464.0,0.09750757884139638
2463.0,0.09739886933346864
2462.0,0.09734452478207412
2461.0,0.09734452478207412
2460.0,0.09745322068600859
2459.0,0.0975619438013351
2458.0,0.09777947172068524
2457.0,0.0978882765519955
2456.0,0.09783387072894878
2455.0,0.09772507952549825
2454.0,0.09750757884139638
2453.0,0.09739886933346864
2452.0,0.09739886933346864
2451.0,0.0975619438013351
2450.0,0.09767069414168117
2449.0,0.09772507952549825
2448.0,0.09772507952549825
2447.0,0.09767069414168117
2446.0,0.0975619438013351
2445.0,0.09745322068600859
2444.0,0.09745322068600859
2443.0,0.09745322068600859
2442.0,0.09750757884139638
2441.0,0.09761631556752848
2440.0,0.09761631556752848
2439.0,0.09761631556752848
2438.0,0.0975619438013351
2437.0,0.0975619438013351
2436.0,0.0975619438013351
2435.0,0.09761631556752848
2434.0,0.09767069414168117
2433.0,0.09777947172068524
2432.0,0.09783387072894878
2431.0,0.09783387072894878
2430.0,0.09772507952549825
2429.0,0.0975619438013351
2428.0,0.09750757884139638
2427.0,0.09750757884139638
2426.0,0.09761631556752848
2425.0,0.09777947172068524
2424.0,0.0978882765519955
2423.0,0.0978882765519955
2422.0,0.09777947172068524
2421.0,0.09767069414168117
2420.0,0.09761631556752848
2419.0,0.09761631556752848
2418.0,0.09761631556752848
2417.0,0.09767069414168117
2416.0,0.09772507952549825
2415.0,0.09783387072894878
2414.0,0.09799710864927058
2413.0,0.09816040794877057
2412.0,0.09821485469640057
2411.0,0.09816040794877057
2410.0,0.09810596802617932
2409.0,0.09810596802617932
2408.0,0.09816040794877057
2407.0,0.09821485469640057
2406.0,0.09821485469640057
2405.0,0.09810596802617932
2404.0,0.09794268919153337
2403.0,0.09794268919153337
2402.0,0.09805153492691598
2401.0,0.09821485469640057
2400.0,0.09837823590664274
2399.0,0.09848719087006019
2398.0,0.09854167860388774
2397.0,0.09865067458435761
2396.0,0.09875969792669093
2395.0,0.09875969792669093
2394.0,0.09875969792669093
2393.0,0.09875969792669093
2392.0,0.09875969792669093
2391.0,0.09875969792669093
2390.0,0.09875969792669093
2389.0,0.09865067458435761
2388.0,0.09854167860388774
2387.0,0.09837823590664274
2386.0,0.09821485469640057
2385.0,0.09805153492691598
2384.0,0.0978882765519955
2383.0,0.09767069414168117
2382.0,0.09750757884139638
2381.0,0.09739886933346864
2380.0,0.09745322068600859
2379.0,0.09761631556752848
2378.0,0.09761631556752848
2377.0,0.09734452478207412
2376.0,0.09691001300805646
2375.0,0.09663866374468144
2374.0,0.09674718310604158
2373.0,0.09712721455392082
2372.0,0.09745322068600859
2371.0,0.09745322068600859
2370.0,0.09739886933346864
2369.0,0.09739886933346864
2368.0,0.09734452478207412
2367.0,0.09680145295702158
2366.0,0.0957714836599215
2365.0,0.09447395156495153
2364.0,0.09344948089854999
2363.0,0.09307265269104414
2362.0,0.09361107884716913
2361.0,0.09490603167212863
2360.0,0.0964759355287379
2359.0,0.09734452478207412
2358.0,0.09734452478207412
2357.0,0.09718153191774648
2356.0,0.09761631556752848
2355.0,0.09870518283443275
2354.0,0.09985143928065598
2353.0,0.10078158214862709
2352.0,0.10138450258381404
2351.0,0.10127481841050656
2350.0,0.10023419805561384
2349.0,0.09865067458435761
2348.0,0.09761631556752848
2347.0,0.09739886933346864
2346.0,0.09761631556752848
2345.0,0.09777947172068524
2344.0,0.09734452478207412
2343.0,0.0960964733098364
2342.0,0.09468993788391455
2341.0,0.09415017335768128
2340.0,0.09447395156495153
2339.0,0.09496007192378841
2338.0,0.09566320779750503
2337.0,0.0964759355287379
2336.0,0.09712721455392082
2335.0,0.09745322068600859
2334.0,0.09777947172068524
2333.0,0.09843270997155007
2332.0,0.09930522554760213
2331.0,0.09985143928065598
2330.0,0.09979678698310646
2329.0,0.09930522554760213
2328.0,0.09914149529800831
2327.0,0.09946901754724413
2326.0,0.10001543745060903
2325.0,0.10072681268239614
2324.0,0.10116516193172598
2323.0,0.10160395406999112
2322.0,0.10187842445889239
2321.0,0.10215306842042837
2320.0,0.10242788617426934
2319.0,0.10253786198693682
2318.0,0.10248287059947447
2317.0,0.10209812573177213
2316.0,0.10160395406999112
2315.0,0.10105553313349058
2314.0,0.10067205012234592
2313.0,0.10045306890913297
2312.0,0.10034361969436434
2311.0,0.10039834085387778
2310.0,0.1005625457138224
2309.0,0.10067205012234592
2308.0,0.10067205012234592
2307.0,0.1005625457138224
2306.0,0.10034361969436434
2305.0,0.10023419805561384
2304.0,0.10017949757290379
2303.0,0.10017949757290379
2302.0,0.10012480397898926
2301.0,0.10001543745060903
2300.0,0.09979678698310646
2299.0,0.09963287134352972
2298.0,0.09952362861074304
2297.0,0.09946901754724413
2296.0,0.09952362861074304
2295.0,0.09963287134352972
2294.0,0.09979678698310646
2293.0,0.09996076451267522
2292.0,0.09996076451267522
2291.0,0.09996076451267522
2290.0,0.09990609845660159
2289.0,0.09990609845660159
2288.0,0.10001543745060903
2287.0,0.10012480397898926
2286.0,0.10017949757290379
2285.0,0.10017949757290379
2284.0,0.10012480397898926
2283.0,0.10007011727213588
2282.0,0.10001543745060903
2281.0,0.09996076451267522
2280.0,0.09996076451267522
2279.0,0.09996076451267522
2278.0,0.09990609845660159
2277.0,0.09990609845660159
2276.0,0.09985143928065598
2275.0,0.09979678698310646
2274.0,0.09968750301627338
2273.0,0.09963287134352972
2272.0,0.09957824654226233
2271.0,0.09963287134352972
2270.0,0.09974214156222239
2269.0,0.09979678698310646
2268.0,0.09979678698310646
2267.0,0.09974214156222239
2266.0,0.09968750301627338
2265.0,0.09974214156222239
2264.0,0.09990609845660159
2263.0,0.10007011727213588
2262.0,0.10017949757290379
2261.0,0.10023419805561384
2260.0,0.10023419805561384
2259.0,0.10017949757290379
2258.0,0.10012480397898926
2257.0,0.10007011727213588
2256.0,0.10001543745060903
2255.0,0.10001543745060903
2254.0,0.10012480397898926
2253.0,0.10023419805561384
2252.0,0.10023419805561384
2251.0,0.10017949757290379
2250.0,0.10007011727213588
2249.0,0.09996076451267522
2248.0,0.09990609845660159
2247.0,0.09990609845660159
2246.0,0.09996076451267522
2245.0,0.10001543745060903
2244.0,0.10007011727213588
2243.0,0.10012480397898926
2242.0,0.10028890542885538
2241.0,0.10039834085387778
2240.0,0.10045306890913297
2239.0,0.10045306890913297
2238.0,0.10045306890913297
2237.0,0.10039834085387778
2236.0,0.10039834085387778
2235.0,0.10028890542885538
2234.0,0.10017949757290379
2233.0,0.10007011727213588
2232.0,0.10001543745060903
2231.0,0.09996076451267522
2230.0,0.10007011727213588
2229.0,0.10023419805561384
2228.0,0.10034361969436434
2227.0,0.10045306890913297
2226.0,0.1005078038618683
2225.0,0.10045306890913297
2224.0,0.10045306890913297
2223.0,0.10039834085387778
2222.0,0.10039834085387778
2221.0,0.10039834085387778
2220.0,0.10039834085387778
2219.0,0.10034361969436434
2218.0,0.10028890542885538
2217.0,0.10023419805561384
2216.0,0.10023419805561384
2215.0,0.10023419805561384
2214.0,0.10012480397898926
2213.0,0.10007011727213588
2212.0,0.10001543745060903
2211.0,0.10012480397898926
2210.0,0.10017949757290379
2209.0,0.10012480397898926
2208.0,0.10001543745060903
2207.0,0.09990609845660159
2206.0,0.09996076451267522
2205.0,0.10001543745060903
2204.0,0.10007011727213588
2203.0,0.10007011727213588
2202.0,0.10007011727213588
2201.0,0.10007011727213588
2200.0,0.10007011727213588
2199.0,0.10012480397898926
2198.0,0.10012480397898926
2197.0,0.10012480397898926
2196.0,0.10007011727213588
2195.0,0.10007011727213588
2194.0,0.10001543745060903
2193.0,0.09996076451267522
2192.0,0.10001543745060903
2191.0,0.10007011727213588
2190.0,0.10017949757290379
2189.0,0.10028890542885538
2188.0,0.10023419805561384
2187.0,0.10017949757290379
2186.0,0.10012480397898926
2185.0,0.10007011727213588
2184.0,0.10007011727213588
2183.0,0.10001543745060903
2182.0,0.09990609845660159
2181.0,0.09974214156222239
2180.0,0.09957824654226233
2179.0,0.09935981601739963
2178.0,0.09925064193892053
2177.0,0.09919606518963042
2176.0,0.09935981601739963
2175.0,0.09952362861074304
2174.0,0.09957824654226233
2173.0,0.09957824654226233
2172.0,0.09952362861074304
2171.0,0.09946901754724413
2170.0,0.09952362861074304
2169.0,0.09968750301627338
2168.0,0.09996076451267522
2167.0,0.10007011727213588
2166.0,0.10007011727213588
2165.0,0.09990609845660159
2164.0,0.09979678698310646
2163.0,0.09985143928065598
2162.0,0.09985143928065598
2161.0,0.09985143928065598
2160.0,0.09979678698310646
2159.0,0.09979678698310646
2158.0,0.09990609845660159
2157.0,0.09996076451267522
2156.0,0.09996076451267522
2155.0,0.09990609845660159
2154.0,0.09979678698310646
2153.0,0.09985143928065598
2152.0,0.09990609845660159
2151.0,0.09996076451267522
2150.0,0.09996076451267522
2149.0,0.09990609845660159
2148.0,0.09985143928065598
2147.0,0.09974214156222239
2146.0,0.09974214156222239
2145.0,0.09979678698310646
2144.0,0.09990609845660159
2143.0,0.09996076451267522
2142.0,0.09996076451267522
2141.0,0.09996076451267522
2140.0,0.10001543745060903
2139.0,0.10001543745060903
2138.0,0.10007011727213588
2137.0,0.10012480397898926
2136.0,0.10023419805561384
2135.0,0.10039834085387778
2134.0,0.1005078038618683
2133.0,0.1005078038618683
2132.0,0.10045306890913297
2131.0,0.10034361969436434
2130.0,0.10023419805561384
2129.0,0.10012480397898926
2128.0,0.10012480397898926
2127.0,0.10012480397898926
2126.0,0.10007011727213588
2125.0,0.10001543745060903
2124.0,0.09996076451267522
2123.0,0.09996076451267522
2122.0,0.10007011727213588
2121.0,0.10017949757290379
2120.0,0.10039834085387778
2119.0,0.1005078038618683
2118.0,0.10067205012234592
2117.0,0.10078158214862709
2116.0,0.10089114180660053
2115.0,0.10094593200182911
2114.0,0.10100072911021085
2113.0,0.10105553313349058
2112.0,0.10111034407341357
2111.0,0.10116516193172598
2110.0,0.1012199867101744
2109.0,0.1012199867101744
2108.0,0.1012199867101744
2107.0,0.10116516193172598
2106.0,0.1012199867101744
2105.0,0.10127481841050656
2104.0,0.1012199867101744
2103.0,0.10105553313349058
2102.0,0.10094593200182911
2101.0,0.10089114180660053
2100.0,0.10094593200182911
2099.0,0.10105553313349058
2098.0,0.1012199867101744
2097.0,0.10132965703447017
2096.0,0.1014393550602879
2095.0,0.10149421446564144
2094.0,0.10149421446564144
2093.0,0.10132965703447017
2092.0,0.10105553313349058
2091.0,0.10078158214862709
2090.0,0.1005625457138224
2089.0,0.1005078038618683
2088.0,0.1005625457138224
2087.0,0.10067205012234592
2086.0,0.10083635852278117
2085.0,0.10089114180660053
2084.0,0.10089114180660053
2083.0,0.10083635852278117
2082.0,0.10083635852278117
2081.0,0.10083635852278117
2080.0,0.10094593200182911
2079.0,0.10100072911021085
2078.0,0.10100072911021085
2077.0,0.10094593200182911
2076.0,0.10072681268239614
2075.0,0.10045306890913297
2074.0,0.10028890542885538
2073.0,0.10023419805561384
2072.0,0.10028890542885538
2071.0,0.10039834085387778
2070.0,0.10045306890913297
2069.0,0.10045306890913297
2068.0,0.10039834085387778
2067.0,0.10034361969436434
2066.0,0.10034361969436434
2065.0,0.10034361969436434
2064.0,0.10023419805561384
2063.0,0.10017949757290379
2062.0,0.10017949757290379
2061.0,0.10017949757290379
2060.0,0.10028890542885538
2059.0,0.10028890542885538
2058.0,0.10028890542885538
2057.0,0.10017949757290379
2056.0,0.10007011727213588
2055.0,0.09990609845660159
2054.0,0.09985143928065598
2053.0,0.09979678698310646
2052.0,0.09968750301627338
2051.0,0.09952362861074304
2050.0,0.09930522554760213
2049.0,0.09914149529800831
2048.0,0.09903237608087578
2047.0,0.0989778267519208
2046.0,0.0989778267519208
2045.0,0.0990869322623309
2044.0,0.0990869322623309
2043.0,0.09892328427374508
2042.0,0.09870518283443275
2041.0,0.09859617317474823
2040.0,0.09859617317474823
2039.0,0.09865067458435761
2038.0,0.09870518283443275
2037.0,0.09859617317474823
2036.0,0.09848719087006019
2035.0,0.09843270997155007
2034.0,0.09837823590664274
2033.0,0.09837823590664274
2032.0,0.09832376867362447
2031.0,0.09826930827078129
2030.0,0.09821485469640057
2029.0,0.09816040794877057
2028.0,0.09805153492691598
2027.0,0.09799710864927058
2026.0,0.0978882765519955
2025.0,0.09777947172068524
2024.0,0.09772507952549825
2023.0,0.09777947172068524
2022.0,0.09783387072894878
2021.0,0.09783387072894878
2020.0,0.09767069414168117
2019.0,0.09750757884139638
2018.0,0.09739886933346864
2017.0,0.09739886933346864
2016.0,0.09745322068600859
2015.0,0.09750757884139638
2014.0,0.0975619438013351
2013.0,0.0975619438013351
2012.0,0.09750757884139638
2011.0,0.09734452478207412
2010.0,0.0972358560759139
2009.0,0.09718153191774648
2008.0,0.09712721455392082
2007.0,0.09707290398273716
2006.0,0.09701860020249709
2005.0,0.09691001300805646
2004.0,0.09691001300805646
2003.0,0.09691001300805646
2002.0,0.09696430321150284
2001.0,0.09701860020249709
2000.0,0.09701860020249709
1999.0,0.09707290398273716
1998.0,0.09718153191774648
1997.0,0.09729018703012282
1996.0,0.09739886933346864
1995.0,0.09739886933346864
1994.0,0.09729018703012282
1993.0,0.0972358560759139
1992.0,0.09718153191774648
1991.0,0.09718153191774648
1990.0,0.09718153191774648
1989.0,0.0972358560759139
1988.0,0.0972358560759139
1987.0,0.09712721455392082
1986.0,0.09696430321150284
1985.0,0.09685572959046151
1984.0,0.09691001300805646
1983.0,0.09696430321150284
1982.0,0.09701860020249709
1981.0,0.09696430321150284
1980.0,0.09691001300805646
1979.0,0.09685572959046151
1978.0,0.09680145295702158
1977.0,0.09674718310604158
1976.0,0.09674718310604158
1975.0,0.09680145295702158
1974.0,0.09691001300805646
1973.0,0.09707290398273716
1972.0,0.09712721455392082
1971.0,0.09712721455392082
1970.0,0.09707290398273716
1969.0,0.09701860020249709
1968.0,0.09701860020249709
1967.0,0.09712721455392082
1966.0,0.09734452478207412
1965.0,0.09750757884139638
1964.0,0.09767069414168117
1963.0,0.09777947172068524
1962.0,0.09783387072894878
1961.0,0.09783387072894878
1960.0,0.09783387072894878
1959.0,0.0978882765519955
1958.0,0.09810596802617932
1957.0,0.09832376867362447
1956.0,0.09843270997155007
1955.0,0.09848719087006019
1954.0,0.09848719087006019
1953.0,0.09843270997155007
1952.0,0.09843270997155007
1951.0,0.09843270997155007
1950.0,0.09854167860388774
1949.0,0.09854167860388774
1948.0,0.09848719087006019
1947.0,0.09826930827078129
1946.0,0.09805153492691598
1945.0,0.09783387072894878
1944.0,0.09777947172068524
1943.0,0.09777947172068524
1942.0,0.09783387072894878
1941.0,0.0978882765519955
1940.0,0.09783387072894878
1939.0,0.09772507952549825
1938.0,0.09761631556752848
1937.0,0.09734452478207412
1936.0,0.09707290398273716
1935.0,0.09680145295702158
1934.0,0.09658441423091357
1933.0,0.09642170633694569
1932.0,0.09625905937846135
1931.0,0.09598811640261173
1930.0,0.0957714836599215
1929.0,0.0955549589230904
1928.0,0.09533854208447545
1927.0,0.09517630019905599
1926.0,0.0950141189006366
1925.0,0.09485199814398393
1924.0,0.09458193129745807
1923.0,0.09431203228814788
1922.0,0.09404230090757282
1921.0,0.09404230090757282
1920.0,0.09415017335768128
1919.0,0.09420411963213149
1918.0,0.09409623378338305
1917.0,0.09382663635595145
1916.0,0.0935033402006471
1915.0,0.09318028453345462
1914.0,0.09296504751658308
1913.0,0.09280368972839836
1912.0,0.09253489323414388
1911.0,0.09226626300234453
1910.0,0.09205147838772776
1909.0,0.09189045960744768
1908.0,0.09183679994445204
1907.0,0.0917831469106074
1906.0,0.0917831469106074
1905.0,0.0917295005042762
1904.0,0.0916222275676053
1903.0,0.09140776115243066
1902.0,0.09119340059432579
1901.0,0.09108625997902897
1900.0,0.09092559859909577
1899.0,0.09065796163869155
1898.0,0.09039048950983108
1897.0,0.09017663034908807
1896.0,0.0900163050601559
1895.0,0.08980263003399913
1894.0,0.08958906008531176
1893.0,0.08937559511079884
1892.0,0.0892155652071629
1891.0,0.08910891135547172
1890.0,0.08900228368935714
1889.0,0.08894897967187343
1888.0,0.08884239126002336
1887.0,0.0885227828938977
1886.0,0.0881502035005799
1885.0,0.08788427092114603
1884.0,0.08767164203958999
1883.0,0.08745911720936239
1882.0,0.0872997918091396
1881.0,0.08719360733870762
1880.0,0.08708744882390307
1879.0,0.08692825969074924
1878.0,0.0867160982395816
1877.0,0.08645104209348209
1876.0,0.08618614761628329
1875.0,0.08597434830367123
1874.0,0.08576265223225898
1873.0,0.08555105930144569
1872.0,0.0854453014823664
1871.0,0.08528671302637614
1870.0,0.08502252755566908
1869.0,0.08475850269380558
1868.0,0.08454739831152125
1867.0,0.08433639649422697
1866.0,0.08417821237960132
1865.0,0.08402008585977572
1864.0,0.08380934001946239
1863.0,0.08359869639612438
1862.0,0.08333553545860273
1861.0,0.08317771540408803
1860.0,0.08301995267961781
1859.0,0.08286224724355584
1858.0,0.08265206237222844
1857.0,0.08244197917456386
1856.0,0.08223199755224364
1855.0,0.08202211740709164
1854.0,0.08175990977858505
1853.0,0.08149786036382611
1852.0,0.0812359689720008
1851.0,0.0809742354126397
1850.0,0.08081727095749947
1849.0,0.08060807322614072
1848.0,0.08039897621588898
1847.0,0.08039897621588898
1846.0,0.08055578953476306
1845.0,0.08060807322614072
1844.0,0.08024221949810584
1843.0,0.07956359344924135
1842.0,0.07904229404455076
1841.0,0.07904229404455076
1840.0,0.07919861817434581
1839.0,0.07930286553008004
1838.0,0.07919861817434581
1837.0,0.07904229404455076
1836.0,0.07893810920972144
1835.0,0.07878187880504961
1834.0,0.07862570458152551
1833.0,0.07857365898473456
1832.0,0.07862570458152551
1831.0,0.07852161962430992
1830.0,0.07831352451639795
1829.0,0.07794959783282618
1828.0,0.07763790321520991
1827.0,0.07763790321520991
1826.0,0.07758597585436577
1825.0,0.07732643214144574
1824.0,0.07685964397479927
1823.0,0.0763933569825408
1822.0,0.0760310351245288
1821.0,0.07577241873988227
1820.0,0.07551395626608493
1819.0,0.07530729697981409
1818.0,0.07510073598571654
1817.0,0.0748426728241014
1816.0,0.07448164182257
1815.0,0.07406940213152868
1814.0,0.07370901311513656
1813.0,0.07329750581735506
1812.0,0.07288638806623937
1811.0,0.07242434530888953
1810.0,0.07196279359311708
1809.0,0.0716553647351379
1808.0,0.07145053299833615
1807.0,0.07114346641808922
1806.0,0.07068327324650436
1805.0,0.07012147634321675
1804.0,0.06956040523329987
1803.0,0.0690000580438479
1802.0,0.0684912781333824
1801.0,0.06798309356579857
1800.0,0.06742477650170953
1799.0,0.06676587128519196
1798.0,0.06615853710127872
1797.0,0.0655520510510299
1796.0,0.06509774167768612
1795.0,0.06479513257341862
1794.0,0.06459351024765114
1793.0,0.06398920428479049
1792.0,0.06293368798257193
1791.0,0.06163040254819374
1790.0,0.060530669156469985
1789.0,0.05993198626064755
1788.0,0.05953332233647113
1787.0,0.05908526241971446
1786.0,0.05848856736559682
1785.0,0.05764465029232335
1784.0,0.05670338543334519
1783.0,0.05581353871631256
1782.0,0.055122694036304765
1781.0,0.05433450056786593
1780.0,0.05325306496641513
1779.0,0.05217431555754937
1778.0,0.051244819831730126
1777.0,0.05051241005349638
1776.0,0.04982994019179987
1775.0,0.04939177521576932
1774.0,0.04885683989244738
1773.0,0.047595060422975566
1772.0,0.04537162249272897
1771.0,0.04320747962950522
1770.0,0.04200982159316968
1769.0,0.04138834223512067
1768.0,0.04043395336207234
1767.0,0.038958783046687984
1766.0,0.03763066432997886
1765.0,0.03692083935817303
1764.0,0.036542739883292485
1763.0,0.03583468937826462
1762.0,0.03437503289075727
1761.0,0.032311649546687526
1760.0,0.0307239045110681
1759.0,0.030071810571884017
1758.0,0.029839156962686353
1757.0,0.029095501846216454
1756.0,0.027843464140506313
1755.0,0.027149444152769986
1754.0,0.02751945012352408
1753.0,0.028353117935693284
1752.0,0.02890978686288448
1751.0,0.029281296279810798
1750.0,0.03002526987828502
1749.0,0.03151705144606498
1748.0,0.03399914237121604
1747.0,0.037583306554248797
1746.0,0.04200982159316968
1745.0,0.047062332249019345
1744.0,0.05305672930217464
1743.0,0.060081579630943294
1742.0,0.0678307540792078
1741.0,0.0760310351245288
1740.0,0.0854453014823664
1739.0,0.09620485725896466
1738.0,0.10673771411200872
1737.0,0.11565785235294102
1736.0,0.12355121312165873
1735.0,0.13300418688935212
1734.0,0.14745901423020125
1733.0,0.16449967213268124
1732.0,0.17802818235795725
1731.0,0.18922998876563635
1730.0,0.20134935455473113
1729.0,0.21481257997063818
1728.0,0.2287800980504664
1727.0,0.2420728168866706
1726.0,0.25500332596143993
1725.0,0.26825011647273667
1724.0,0.282995592959453
1723.0,0.2989503692708604
1722.0,0.3143478158844757
1721.0,0.32716354582860285
1720.0,0.3375254962496905
1719.0,0.3481407307530511
1718.0,0.36391348489692743
1717.0,0.3855246339096048
1716.0,0.405165644416682
1715.0,0.417709317281006
1714.0,0.42550573171467243
1713.0,0.4298074389042741
1712.0,0.42969061456412017
1711.0,0.42596873227228116
1710.0,0.4203307064452797
1709.0,0.4133001983759508
1708.0,0.40483458520977056
1707.0,0.3951262294473643
1706.0,0.38489201255680605
1705.0,0.37509939779550994
1704.0,0.36612773734166737
1703.0,0.3576344191550267
1702.0,0.348721986001856
1701.0,0.33875539104066643
1700.0,0.32854944578750533
1699.0,0.3196644865854368
1698.0,0.31247103878536575
1697.0,0.30609725893393946
1696.0,0.29955589897224844
1695.0,0.29302632382382177
1694.0,0.2870978749527773
1693.0,0.28216313251307445
1692.0,0.27769521312567225
1691.0,0.27294698864614264
1690.0,0.26808905788312765
1689.0,0.26376290109527134
1688.0,0.26026947143528245
1687.0,0.2568039185512987
1686.0,0.2527436025578558
1685.0,0.24848994972995864
1684.0,0.24618721643529784
1683.0,0.24572813131654092
1682.0,0.2445062715848807
1681.0,0.24245214653075609
1680.0,0.24003014244569276
1679.0,0.2376966367122315
1678.0,0.23545028093553277
1677.0,0.23314118897858238
1676.0,0.23077041826340627
1675.0,0.2286330291422194
1674.0,0.22657927670938993
1673.0,0.22417118553538762
1672.0,0.2216316566441261
1671.0,0.2192507688964478
1670.0,0.21767073100316314
1669.0,0.216739767127051
1668.0,0.21552535623748348
1667.0,0.2137456042102197
1666.0,0.2115487929765445
1665.0,0.2092927126723203
1664.0,0.2069083998234198
1663.0,0.20481541031757589
1662.0,0.2032175882986922
1661.0,0.2016256233184388
1660.0,0.19983300979863605
1659.0,0.19797924822802404
1658.0,0.1960651501361581
1657.0,0.19422736806433094
1656.0,0.19232969876951622
1655.0,0.19017103893211385
1654.0,0.1879561020697733
1653.0,0.18768839086887623
1652.0,0.18722029299103604
1651.0,0.1848873418101875
1650.0,0.18349356295364294
1649.0,0.18289759574307696
1648.0,0.18197215814074386
1647.0,0.18131233655848633
1646.0,0.18111458540599013
1645.0,0.18032448000570733
1644.0,0.17887967622317635
1643.0,0.17763574755845046
1642.0,0.17672144304832926
1641.0,0.17574396237031764
1640.0,0.17470373556903995
1639.0,0.17360121781238225
1638.0,0.17263072694617465
1637.0,0.17159792150840691
1636.0,0.17101804599207693
1635.0,0.17121125181504682
1634.0,0.17088928984470542
1633.0,0.17005330405836405
1632.0,0.16909070045355667
1631.0,0.16806626953325465
1630.0,0.16704424939540163
1629.0,0.16621562534352097
1628.0,0.1657700971483227
1627.0,0.16538857927731287
1626.0,0.16481693015095633
1625.0,0.16392919108485815
1624.0,0.16285365609093994
1623.0,0.16215913834447737
1622.0,0.16178077809237412
1621.0,0.16121385505340546
1620.0,0.1605219526258017
1619.0,0.15970566838856382
1618.0,0.1588909155318461
1617.0,0.15851539066460685
1616.0,0.15882830550046778
1615.0,0.15932943866659088
1614.0,0.15989390554324223
1613.0,0.1603334431175667
1612.0,0.1602706247936121
1611.0,0.159956669396506
1610.0,0.15964294079664376
1609.0,0.15939212099070987
1608.0,0.1588909155318461
1607.0,0.15826522102525642
1606.0,0.15757799664235028
1605.0,0.15689185800039307
1604.0,0.15602015552184012
1603.0,0.15521228117215347
1602.0,0.15452986701832638
1601.0,0.15372475758778692
1600.0,0.15279763601907614
1599.0,0.1517492853229574
1598.0,0.1507034591652734
1597.0,0.14966014541652073
1596.0,0.14868048735125483
1595.0,0.1479471913021495
1594.0,0.14739803066176504
1593.0,0.14691047014813452
1592.0,0.1463626180414057
1591.0,0.1456939581989194
1590.0,0.14514763758216587
1589.0,0.14466259553045968
1588.0,0.14417809459397013
1587.0,0.14369413356670102
1586.0,0.14333151638846497
1585.0,0.1430899396992138
1584.0,0.1430899396992138
1583.0,0.14351278713136928
1582.0,0.14448084433219988
1581.0,0.14581545616639335
1580.0,0.1472760892087941
1579.0,0.14874165128092476
1578.0,0.14984407757790774
1577.0,0.15051916275601385
1576.0,0.1509493094304879
1575.0,0.1509493094304879
1574.0,0.15051916275601385
1573.0,0.15002808767114995
1572.0,0.1493537648169334
1571.0,0.14819148577176255
1570.0,0.14703230897118158
1569.0,0.14605855411951008
1568.0,0.1450869776921444
1567.0,0.1441175699639643
1566.0,0.14321071124668383
1565.0,0.14224547794055775
1564.0,0.14140265500530758
1563.0,0.14086170270546927
1562.0,0.14056146454494378
1561.0,0.13984173868172167
1560.0,0.13834612978608907
1559.0,0.13786862068696282
1558.0,0.13858508136400327
1557.0,0.13780896894840278
1556.0,0.13697470377052956
1555.0,0.13661765155921235
1554.0,0.136142038116027
1553.0,0.13542959314656988
1552.0,0.13477754370982087
1551.0,0.13424477592854833
1550.0,0.13388996015562338
1549.0,0.13359450162194508
1548.0,0.13329924395750092
1547.0,0.13288622016802298
1546.0,0.13235576609690147
1545.0,0.13170831198214428
1544.0,0.1311205537629121
1543.0,0.1304749371427727
1542.0,0.1295960947209729
1541.0,0.1286022185125162
1540.0,0.1280186461566306
1539.0,0.12731939284807026
1538.0,0.1263307072932056
1537.0,0.12604034525664676
1536.0,0.12650501774383094
1535.0,0.12685384867174432
1534.0,0.12679569072295926
1533.0,0.12656313677796316
1532.0,0.12638880300353272
1531.0,0.1260984021355387
1530.0,0.12586622117202761
1529.0,0.12575017722159698
1528.0,0.12563416426995122
1527.0,0.12540223129680017
1526.0,0.125054563914468
1525.0,0.12459143992293642
1524.0,0.12407101507707297
1523.0,0.12337808396572703
1522.0,0.12251347193039863
1521.0,0.12182301950849372
1520.0,0.1213058996038916
1519.0,0.12090412049992727
1518.0,0.12067469921519258
1517.0,0.12015894401343741
1516.0,0.11941504393502012
1515.0,0.11861534322942724
1514.0,0.11787408022996826
1513.0,0.11724784438692004
1512.0,0.116736140415026
1511.0,0.11645212073195621
1510.0,0.11667932161702477
1509.0,0.1175323851046286
1508.0,0.12004441487725082
1507.0,0.12761061158217912
1506.0,0.13936258322624528
1505.0,0.14618015414323682
1504.0,0.14752000636314366
1503.0,0.14672777597931685
1502.0,0.14466259553045968
1501.0,0.14170347546611461
1500.0,0.13822670328130693
1499.0,0.13454067733803532
1498.0,0.1308856730206247
1497.0,0.12731939284807026
1496.0,0.12418661116024232
1495.0,0.12147820449879343
1494.0,0.11958660012208333
1493.0,0.11844417020668851
1492.0,0.11758931562603192
1491.0,0.11645212073195621
1490.0,0.11537453674376552
1489.0,0.11475189221861393
1488.0,0.11469533241103202
1487.0,0.11458223488906394
1486.0,0.11446916681190777
1485.0,0.1145256971708426
1484.0,0.1148084593931522
1483.0,0.11537453674376552
1482.0,0.11611154211151953
1481.0,0.11719095860756013
1480.0,0.11833009232793867
1479.0,0.11941504393502012
1478.0,0.12044539906102569
1477.0,0.12147820449879343
1476.0,0.12262865413022594
1475.0,0.12343578601615435
1474.0,0.12401322857151209
1473.0,0.12453358413361437
1472.0,0.1252863112422209
1471.0,0.12551818230053358
1470.0,0.12517042212027807
1469.0,0.12470717462899183
1468.0,0.12430223801979201
1467.0,0.12395544975390482
1466.0,0.12372441132212098
1465.0,0.12378215940835768
1464.0,0.12418661116024232
1463.0,0.12464930342071079
1462.0,0.12517042212027807
1461.0,0.12586622117202761
1460.0,0.12679569072295926
1459.0,0.1276688787697493
1458.0,0.12866061890013913
1457.0,0.13006458935314003
1456.0,0.13123804178794973
1455.0,0.1314731132317961
1454.0,0.1316495003520317
1453.0,0.13200248965504868
1452.0,0.1320613491092153
1451.0,0.13182595914036166
1450.0,0.13141433344123432
1449.0,0.13094438129809216
1448.0,0.13035765534840538
1447.0,0.1295960947209729
1446.0,0.12877744324029283
1445.0,0.12790202572577325
1444.0,0.12714475529518965
1443.0,0.126621263590859
1442.0,0.1260984021355387
1441.0,0.12563416426995122
1440.0,0.12534426740189897
1439.0,0.125054563914468
1438.0,0.12453358413361437
1437.0,0.12343578601615435
1436.0,0.12170805075020397
1435.0,0.11958660012208333
1434.0,0.11764625361128611
1433.0,0.11588463798833115
1432.0,0.11407366019856902
1431.0,0.11198908775497118
1430.0,0.10969078310005154
1429.0,0.10723776538418317
1428.0,0.10490910306560064
1427.0,0.10281292341984649
1426.0,0.10094593200182911
1425.0,0.09892328427374508
1424.0,0.09685572959046151
1423.0,0.09533854208447545
1422.0,0.09447395156495153
1421.0,0.09393445524476318
1420.0,0.09344948089854999
1419.0,0.09328794305703592
1418.0,0.09415017335768128
1417.0,0.09642170633694569
1416.0,0.10039834085387778
1415.0,0.1062937069352865
1414.0,0.11418662533951118
1413.0,0.12430223801979201
1412.0,0.13697470377052956
1411.0,0.1514414278762366
1410.0,0.165706487557304
1409.0,0.1778973313530796
1408.0,0.18681946741398825
1407.0,0.1917214904172322
1406.0,0.19253262431572216
1405.0,0.189767482004916
1404.0,0.18482086986058133
1403.0,0.17887967622317635
1402.0,0.17282465170130723
1401.0,0.16698045292346864
1400.0,0.16121385505340546
1399.0,0.15539858037365328
1398.0,0.15002808767114995
1397.0,0.14551177495556966
1396.0,0.1415229581866595
1395.0,0.13763006287711765
1394.0,0.13388996015562338
1393.0,0.1306509192409071
1392.0,0.12819363554127072
1391.0,0.12627261935332057
1390.0,0.12453358413361437
1389.0,0.12285911021517903
1388.0,0.1213058996038916
1387.0,0.11992991593593283
1386.0,0.11878658374498086
1385.0,0.11793105556385153
1384.0,0.11730473761840288
1383.0,0.11679296664760996
1382.0,0.11628179803604044
1381.0,0.11588463798833115
1380.0,0.1157145376603248
1379.0,0.11560117444331386
1378.0,0.11565785235294102
1377.0,0.1157145376603248
1376.0,0.11588463798833115
1375.0,0.11616828667054757
1374.0,0.116736140415026
1373.0,0.11736163830396129
1372.0,0.11787408022996826
1371.0,0.11810202642698875
1370.0,0.11798803837334138
1369.0,0.11741854644554883
1368.0,0.1163953390777075
1367.0,0.11492161585077598
1366.0,0.1130019543289007
1365.0,0.11075433910702048
1364.0,0.10801676914803293
1363.0,0.10490910306560064
1362.0,0.1017686154869033
1361.0,0.09903237608087578
1360.0,0.09680145295702158
1359.0,0.09485199814398393
1358.0,0.09307265269104414
1357.0,0.09151498112135026
1356.0,0.09028354676565531
1355.0,0.08937559511079884
1354.0,0.08884239126002336
1353.0,0.08873582900163002
1352.0,0.08910891135547172
1351.0,0.09012318200960712
1350.0,0.0917831469106074
1349.0,0.09431203228814788
1348.0,0.09777947172068524
1347.0,0.10237290870955862
1346.0,0.10823959854332843
1345.0,0.1157145376603248
1344.0,0.12476505354983503
1343.0,0.1349552783069008
1342.0,0.1459369881335788
1341.0,0.15751557558842988
1340.0,0.16947548590274142
1339.0,0.18052187163787736
1338.0,0.18849202005467336
1337.0,0.1921268679966679
1336.0,0.19151894343404896
1335.0,0.1872871332346313
1334.0,0.17986424812957003
1333.0,0.16986061257465734
1332.0,0.15826522102525642
1331.0,0.14618015414323682
1330.0,0.13448148092522594
1329.0,0.12389767862220635
1328.0,0.114865033936566
1327.0,0.10734896612269962
1326.0,0.1012199867101744
1325.0,0.09636748391576244
1324.0,0.09253489323414388
1323.0,0.08964244272712252
1322.0,0.08745911720936239
1321.0,0.08581556657675371
1320.0,0.08454739831152125
1319.0,0.08365134772453975
1318.0,0.0830725338870073
1317.0,0.08270459905431071
1316.0,0.08244197917456386
1315.0,0.08228448344050654
1314.0,0.0823369756726251
1313.0,0.08275714209253371
1312.0,0.08354605145007499
1311.0,0.08460016478773014
1310.0,0.08586848736910624
1309.0,0.0872466963286771
1308.0,0.08873582900163002
1307.0,0.09028354676565531
1306.0,0.09189045960744768
1305.0,0.09328794305703592
1304.0,0.09463593123310776
1303.0,0.09598811640261173
1302.0,0.09767069414168117
1301.0,0.09990609845660159
1300.0,0.1028679566179056
1299.0,0.10646015643533868
1298.0,0.11053021603049262
1297.0,0.11492161585077598
1296.0,0.11975822410451964
1295.0,0.1249387366082999
1294.0,0.13035765534840538
1293.0,0.13566694496660703
1292.0,0.14086170270546927
1291.0,0.14587621789883287
1290.0,0.1507034591652734
1289.0,0.15552282425431851
1288.0,0.1603334431175667
1287.0,0.16500739626697003
1286.0,0.16947548590274142
1285.0,0.17353645090719882
1284.0,0.17737432122585917
1283.0,0.18111458540599013
1282.0,0.18482086986058133
1281.0,0.188357978546849
1280.0,0.19185657423850877
1279.0,0.19531548509305963
1278.0,0.19893947015214453
1277.0,0.20266319922465015
1276.0,0.20676855294347907
1275.0,0.21161948468043668
1274.0,0.21731243176503368
1273.0,0.2240256688706308
1272.0,0.2318801058152027
1271.0,0.24086118371883347
1270.0,0.25088233764367773
1269.0,0.261774551857495
1268.0,0.27368038788922466
1267.0,0.2863414837916436
1266.0,0.29929628285498056
1265.0,0.31220358861870556
1264.0,0.3250470519514348
1263.0,0.3374310330667398
1262.0,0.3489159107569886
1261.0,0.35922052265514304
1260.0,0.3683533370415806
1259.0,0.3759242688543174
1258.0,0.3819519032879073
1257.0,0.38679264789624024
1256.0,0.39115317767358837
1255.0,0.3957739469155299
1254.0,0.40077213722620364
1253.0,0.40682473652189755
1252.0,0.414313721547503
1251.0,0.42331319479900453
1250.0,0.4334446691169449
1249.0,0.44430110528109856
1248.0,0.4563043676907552
1247.0,0.468904453129972
1246.0,0.4814860601221125
1245.0,0.49376564038787407
1244.0,0.5057062313346674
1243.0,0.5169835798558677
1242.0,0.5263670731261589
1241.0,0.533725678210708
1240.0,0.5389519083293421
1239.0,0.5421181032660076
1238.0,0.5425723070535156
1237.0,0.5409092103994135
1236.0,0.5376020021010439
1235.0,0.5326879370194479
1234.0,0.5262211653532751
1233.0,0.518557371497695
1232.0,0.5107448316307395
1231.0,0.5026556189824201
1230.0,0.49430749258779993
1229.0,0.4858508655245626
1228.0,0.4778166823813137
1227.0,0.4701848033553697
1226.0,0.4628107737563554
1225.0,0.4556838582525726
1224.0,0.44928257653071735
1223.0,0.4432152176929747
1222.0,0.4371126187061207
1221.0,0.4309774139704363
1220.0,0.4251588049366153
1219.0,0.4196453388934085
1218.0,0.414313721547503
1217.0,0.4089353929735009
1216.0,0.4035128662634557
1215.0,0.3979400086720375
1214.0,0.39222339625830704
1213.0,0.38647529714634765
1212.0,0.3810110796350663
1211.0,0.3757179041643317
1210.0,0.3705904008972811
1209.0,0.3655227298392685
1208.0,0.3609121289162627
1207.0,0.3562513145404742
1206.0,0.35144484433732925
1205.0,0.34659450933549873
1204.0,0.3418931644936072
1203.0,0.3373365904259624
1202.0,0.3327338806177258
1201.0,0.32808698755841315
1200.0,0.3236722661186797
1199.0,0.31939257100821217
1198.0,0.31506491735911046
1197.0,0.3106911408763797
1196.0,0.3064489144040865
1195.0,0.30224772583224535
1194.0,0.2979142785641751
1193.0,0.29362364416030995
1192.0,0.28945955206670293
1191.0,0.2852512392749402
1190.0,0.28100036212128177
1189.0,0.2767906895948886
1188.0,0.27286557623951135
1187.0,0.26913700795350604
1186.0,0.26536016101230064
1185.0,0.261615876487844
1184.0,0.258060922270801
1183.0,0.25492520841794253
1182.0,0.25204469309327027
1181.0,0.24956875133979795
1180.0,0.24756739073852607
1179.0,0.24603413413483977
1178.0,0.24488773360492888
1177.0,0.2440489589958681
1176.0,0.24321180123188202
1175.0,0.242376254091611
1174.0,0.241315150117559
1173.0,0.2398037705448659
1172.0,0.23784680769640532
1171.0,0.23522628308895954
1170.0,0.23195418589758332
1169.0,0.2280452510360509
1168.0,0.22380748525292793
1167.0,0.2194666746835956
1166.0,0.21516882187553077
1165.0,0.21098367320662526
1164.0,0.20704829174986794
1163.0,0.2033562962148836
1162.0,0.19976421067264605
1161.0,0.19633807676377568
1160.0,0.1932097284159331
1159.0,0.1902383348928749
1158.0,0.18735398376688117
1157.0,0.18448866263723573
1156.0,0.18177410638604452
1155.0,0.17920761891179637
1154.0,0.17685194018930606
1153.0,0.17483362774345035
1152.0,0.1730833528150797
1151.0,0.17166239994099564
1150.0,0.1705032502798176
1149.0,0.16966800654803826
1148.0,0.16915480769138846
1147.0,0.16909070045355667
1146.0,0.16928305056310244
1145.0,0.16973219906635828
1144.0,0.1704389437006073
1143.0,0.17153345264732156
1142.0,0.173212761183708
1141.0,0.1754186237665174
1140.0,0.17822453281653639
1139.0,0.18144422070219735
1138.0,0.1849538239353694
1137.0,0.18869315991866387
1136.0,0.192938760082761
1135.0,0.19777376230892996
1134.0,0.20328693671910347
1133.0,0.20950372303289044
1132.0,0.21638223480925123
1131.0,0.22395292881822026
1130.0,0.23232477597203993
1129.0,0.2414665777627134
1128.0,0.2512694439015055
1127.0,0.2615365605380475
1126.0,0.2720522904552032
1125.0,0.2829122750729809
1124.0,0.2940508050897044
1123.0,0.30548254618884374
1122.0,0.31677279395856517
1121.0,0.32762502125392046
1120.0,0.3378090091409929
1119.0,0.34698054890038676
1118.0,0.3546759984377066
1117.0,0.3605135107314139
1116.0,0.36411431471872735
1115.0,0.3652205418540484
1114.0,0.36391348489692743
1113.0,0.3610118406563181
1112.0,0.35793137265849584
1111.0,0.3560540872519333
1110.0,0.35634996178267087
1109.0,0.35931984672233486
1108.0,0.3653212478213177
1107.0,0.3740705072837054
1106.0,0.38489201255680605
1105.0,0.3970722871408108
1104.0,0.41016205685254015
1103.0,0.4234283159347092
1102.0,0.43568909003939726
1101.0,0.44696698379756006
1100.0,0.4575480526240234
1099.0,0.4672456210075022
1098.0,0.4759935544426275
1097.0,0.4835968515525968
1096.0,0.4901257149952807
1095.0,0.4951215405897842
1094.0,0.4983930775811707
1093.0,0.49990080808427706
1092.0,0.5005878743277246
1091.0,0.5001755041604203
1090.0,0.49852992789958783
1089.0,0.496209316942819
1088.0,0.49363028290449584
1087.0,0.4912010345960949
1086.0,0.48851771137399846
1085.0,0.4858508655245626
1084.0,0.4834646261042004
1083.0,0.4808285361783411
1082.0,0.47755576649368026
1081.0,0.4737899961583356
1080.0,0.4698003017969179
1079.0,0.465593100862123
1078.0,0.4607984007058723
1077.0,0.45555986268230764
1076.0,0.45001638884031125
1075.0,0.4440595621814889
1074.0,0.43782613663535175
1073.0,0.43132902199010337
1072.0,0.4253900586598127
1071.0,0.4198736745884175
1070.0,0.4144264813772689
1069.0,0.4089353929735009
1068.0,0.4036228560024009
1067.0,0.3987006898056624
1066.0,0.39404884243512717
1065.0,0.38965928854784315
1064.0,0.38584129049082483
1063.0,0.38205656517102704
1062.0,0.3779933269931952
1061.0,0.3736596326249577
1060.0,0.36936875597950003
1059.0,0.3653212478213177
1058.0,0.36151074304536257
1057.0,0.35793137265849584
1056.0,0.3547742884645839
1055.0,0.35193287055106537
1054.0,0.3492069603480692
1053.0,0.34678748622465627
1052.0,0.3446694419906591
1051.0,0.3429441471428962
1050.0,0.341511618690983
1049.0,0.3404640928457836
1048.0,0.33979879861931805
1047.0,0.339608901597533
1046.0,0.33941908757270056
1045.0,0.3390397082239165
1044.0,0.3384712598680175
1043.0,0.3378090091409929
1042.0,0.33686468504224587
1041.0,0.3357341998523251
1040.0,0.3342314492806202
1039.0,0.332547047110046
1038.0,0.33049716589565703
1037.0,0.328271911760442
1036.0,0.32596599956874517
1035.0,0.32321496958079465
1034.0,0.32011805788713765
1033.0,0.31650268232018863
1032.0,0.3126494304419727
1031.0,0.30829979170983846
1030.0,0.30346888003039285
1029.0,0.2981730696028606
1028.0,0.2931116050183822
1027.0,0.2889523961329661
1026.0,0.28676153845433827
1025.0,0.2876028685932852
1024.0,0.29242982390206373
1023.0,0.3014645074379989
1022.0,0.3145269802772408
1021.0,0.3314277308154421
1020.0,0.35144484433732925
1019.0,0.3732491463166068
1018.0,0.39437177799238143
1017.0,0.4119525030139173
1016.0,0.4236586497942072
1015.0,0.4279420100736955
1014.0,0.42550573171467243
1013.0,0.4182778400509013
1012.0,0.4091581652183973
1011.0,0.40000782241590205
1010.0,0.39158094868271465
1009.0,0.38415511712529793
1008.0,0.3773715738706751
1007.0,0.3712025144332898
1006.0,0.3656235059116322
1005.0,0.3607127740897633
1004.0,0.3565473235138126
1003.0,0.3531063758322548
1002.0,0.3500812812645808
1001.0,0.34727030393075253
1000.0,0.3447654929657058
999.0,0.34227504579489176
998.0,0.33979879861931805
997.0,0.3372421683184259
996.0,0.3347943715653994
995.0,0.332640453816913
994.0,0.33049716589565703
993.0,0.32854944578750533
992.0,0.3268868957617663
991.0,0.3255981871547182
990.0,0.3245883062851367
989.0,0.3234892897174464
988.0,0.32248429520124255
987.0,0.3214816209598861
986.0,0.3203904282202441
985.0,0.31939257100821217
984.0,0.3184874133610378
983.0,0.3177646430974359
982.0,0.31740370853944677
981.0,0.317223353685566
980.0,0.3174939140609889
979.0,0.318306607995436
978.0,0.31930197030236496
977.0,0.3205721033878812
976.0,0.32202824718926015
975.0,0.32358076828164006
974.0,0.3252306859845737
973.0,0.3269790928711038
972.0,0.3286419965565084
971.0,0.33031129194379183
970.0,0.3315208970674144
969.0,0.3322669474667326
968.0,0.332547047110046
967.0,0.33236029394358924
966.0,0.3318937620672686
965.0,0.3312414582490424
964.0,0.33049716589565703
963.0,0.32956859063939437
962.0,0.3283644033978703
961.0,0.3269790928711038
960.0,0.3255981871547182
959.0,0.3243132913005988
958.0,0.3228494787265672
957.0,0.3212085656337562
956.0,0.31948319061874497
955.0,0.31794522292619276
954.0,0.3163227011813081
953.0,0.3147958655289853
952.0,0.31363189652696377
951.0,0.3126494304419727
950.0,0.31175820402228815
949.0,0.31060233717871766
948.0,0.3094495384896414
947.0,0.3083881257855836
946.0,0.3073293008436311
945.0,0.30618514611058334
944.0,0.30504399775018176
943.0,0.3039932847814546
942.0,0.3031196283172377
941.0,0.30233483735232536
940.0,0.3015514619846711
939.0,0.30076949711659084
938.0,0.2999889376778877
937.0,0.29929628285498056
936.0,0.298518364379073
935.0,0.2974833025618495
934.0,0.2962788400729801
933.0,0.29507770877659834
932.0,0.2940508050897044
931.0,0.29319690296266177
930.0,0.29242982390206373
929.0,0.29166409731773646
928.0,0.29098458302788277
927.0,0.29039087892735127
926.0,0.2897979853446153
925.0,0.2891213823148271
924.0,0.2883614617676509
923.0,0.2873502983727887
922.0,0.2860896458710447
921.0,0.28474897112115083
920.0,0.28366271211045135
919.0,0.28282897316768985
918.0,0.28216313251307445
917.0,0.2812492652603349
916.0,0.2801717137456652
915.0,0.2789316982028409
914.0,0.27769521312567225
913.0,0.2765443279648143
912.0,0.2755602766029255
911.0,0.27482369858086275
910.0,0.2743333396858214
909.0,0.2739251297846299
908.0,0.2735988378970775
907.0,0.2733542797590882
906.0,0.27286557623951135
905.0,0.2723774220308628
904.0,0.27213355053251087
903.0,0.272214825817094
902.0,0.27270279719641266
901.0,0.27343578383775524
900.0,0.27417000967941973
899.0,0.27466018409026294
898.0,0.27482369858086275
897.0,0.27474193364003896
896.0,0.2742516670044517
895.0,0.2735988378970775
894.0,0.2725400791420911
893.0,0.2710783536271406
892.0,0.26937920211271726
891.0,0.26744542014856787
890.0,0.2654401784205238
889.0,0.26320524507563947
888.0,0.2610609687965204
887.0,0.25900606841511387
886.0,0.2571178285627269
885.0,0.25562877266813944
884.0,0.25492520841794253
883.0,0.2553159367231137
882.0,0.2571178285627269
881.0,0.26034855629062315
880.0,0.26496029496627926
879.0,0.27075419277469326
878.0,0.2773660774661879
877.0,0.2850000325879576
876.0,0.2937944581180294
875.0,0.3039932847814546
874.0,0.31551370781126575
873.0,0.32716354582860285
872.0,0.33714776673520386
871.0,0.3434227086038859
870.0,0.3455346664798542
869.0,0.34438141645877796
868.0,0.34132097141755136
867.0,0.3372421683184259
866.0,0.332547047110046
865.0,0.3279945549770482
864.0,0.32403845035783063
863.0,0.32075385458614103
862.0,0.31794522292619276
861.0,0.31551370781126575
860.0,0.3137213219327988
859.0,0.3122927203751811
858.0,0.3109576609718283
857.0,0.3098039199714864
856.0,0.30883006586839623
855.0,0.30812317744066875
854.0,0.3076819557407213
853.0,0.3076819557407213
852.0,0.3083881257855836
851.0,0.3094495384896414
850.0,0.31060233717871766
849.0,0.3118472444084337
848.0,0.31345310093699386
847.0,0.3154239126115448
846.0,0.31713320433767533
845.0,0.3183970012691315
844.0,0.31903028153410284
843.0,0.31875876262441283
842.0,0.3177646430974359
841.0,0.31623273857468837
840.0,0.3148855309534606
839.0,0.31398970868471454
838.0,0.31345310093699386
837.0,0.31291715539562936
836.0,0.3123818704282302
835.0,0.31175820402228815
834.0,0.3107799627361645
833.0,0.30927245612963317
832.0,0.30777016422724435
831.0,0.3064489144040865
830.0,0.30539480106643135
829.0,0.3041682271733077
828.0,0.3025962767995123
827.0,0.30076949711659084
826.0,0.2989503692708604
825.0,0.2974833025618495
824.0,0.2962788400729801
823.0,0.295249095709329
822.0,0.29447838657733283
821.0,0.29387989029729633
820.0,0.29353826236864533
819.0,0.29319690296266177
818.0,0.29260016886675144
817.0,0.29166409731773646
816.0,0.2905604258675891
815.0,0.2893749849392031
814.0,0.288192770958809
813.0,0.2870978749527773
812.0,0.2864254622279303
811.0,0.2860896458710447
810.0,0.2860057323393561
809.0,0.28583795390114686
808.0,0.28541879116046887
807.0,0.28458167740494367
806.0,0.2833290244398645
805.0,0.2819137052169085
804.0,0.28042014228627665
803.0,0.2791794182296561
802.0,0.277942228668536
801.0,0.2767085535224161
800.0,0.2753146117626406
799.0,0.2739251297846299
798.0,0.27270279719641266
797.0,0.272296116314646
796.0,0.27310985925817843
795.0,0.27523275435368966
794.0,0.2781069837850425
793.0,0.2808345059107866
792.0,0.2826624172761363
791.0,0.2832456425673029
790.0,0.2824127031445396
789.0,0.28058584029740663
788.0,0.2781893847874535
787.0,0.2756421957735735
786.0,0.27310985925817843
785.0,0.27075419277469326
784.0,0.2684918164039747
783.0,0.2662411644127973
782.0,0.2640021159082062
781.0,0.2618539112879401
780.0,0.2599532759485059
779.0,0.25798225285986165
778.0,0.2560201347581572
777.0,0.2539888922480742
776.0,0.2516568955124505
775.0,0.2488749284644165
774.0,0.24572813131654092
773.0,0.24260397120697563
772.0,0.2399546720341894
771.0,0.2376215706880358
770.0,0.23530093620163206
769.0,0.23247310059161808
768.0,0.2290743853610009
767.0,0.22533707746217768
766.0,0.22134236805264473
765.0,0.21724080737600282
764.0,0.2128939069634299
763.0,0.20823919598709506
762.0,0.20328693671910347
761.0,0.19825338078053978
760.0,0.1932097284159331
759.0,0.18829097330380895
758.0,0.18369240056806024
757.0,0.17933886535640453
756.0,0.17502853887630665
755.0,0.1704389437006073
754.0,0.16545214231905137
753.0,0.160145015398115
752.0,0.15452986701832638
751.0,0.14855818532794496
750.0,0.14248658522331015
749.0,0.1369151746796402
748.0,0.13194363817695853
747.0,0.12720296001040166
746.0,0.12262865413022594
745.0,0.11855827805860697
744.0,0.11548784080960606
743.0,0.11356568037106163
742.0,0.1128329791052256
741.0,0.11379137583250243
740.0,0.11724784438692004
739.0,0.12401322857151209
738.0,0.13436311230037123
737.0,0.14831368455757254
736.0,0.16532502553725603
735.0,0.1848873418101875
734.0,0.20627944318647673
733.0,0.22914798835785577
732.0,0.25336580106242135
731.0,0.2786016244784948
730.0,0.30504399775018176
729.0,0.3335756274812405
728.0,0.3650191999487715
727.0,0.39826585173989515
726.0,0.4299242946783959
725.0,0.45543590250395694
724.0,0.4715975620463826
723.0,0.4787311244016148
722.0,0.47886191629596375
721.0,0.4754740633736243
720.0,0.4712118082251038
719.0,0.4677553563734178
718.0,0.46483251488505584
717.0,0.461929212956828
716.0,0.4590451910738673
715.0,0.45593195564972433
714.0,0.45296410025998957
713.0,0.449771646944906
712.0,0.4463596637686458
711.0,0.44237251157317337
710.0,0.43806423668621863
709.0,0.433916215832004
708.0,0.43050904565121684
707.0,0.4278256863869405
706.0,0.4256214355869177
705.0,0.4238891058791603
704.0,0.4227380464141852
703.0,0.4221636587072559
702.0,0.42124621557356545
701.0,0.41941712318563273
700.0,0.4170280708951941
699.0,0.41476493663422476
698.0,0.4129628822565443
697.0,0.4115041989927899
696.0,0.4096040528159872
695.0,0.40638169187046413
694.0,0.40153779952584956
693.0,0.3958819938079652
692.0,0.39093945006991304
691.0,0.3876400520322256
690.0,0.3857357126412948
689.0,0.3847866651986416
688.0,0.384365531122584
687.0,0.383839687152417
686.0,0.3825802532628235
685.0,0.380072289708532
684.0,0.3771645204784797
683.0,0.37448177102836233
682.0,0.37232696823338407
681.0,0.37018280398148407
680.0,0.3682519256034307
679.0,0.36703683183273883
678.0,0.3666325548829932
677.0,0.36632959394855624
676.0,0.3653212478213177
675.0,0.3636124141868433
674.0,0.36201021921531473
673.0,0.3609121289162627
672.0,0.36021478701317977
671.0,0.3598168080786599
670.0,0.3595185630295781
669.0,0.35793137265849584
668.0,0.3532043112215306
667.0,0.3488189375553121
666.0,0.34794715175189506
665.0,0.3482375526198891
664.0,0.3484312611342082
663.0,0.3483343960770644
662.0,0.3476569449372853
661.0,0.34698054890038676
660.0,0.34659450933549873
659.0,0.34620881261218805
658.0,0.344861565188618
657.0,0.3429441471428962
656.0,0.34122567915564317
655.0,0.3402739047622083
654.0,0.3392293564723028
653.0,0.3374310330667398
652.0,0.33507610656191833
651.0,0.33282732752113153
650.0,0.33096219911484415
649.0,0.32947584221792003
648.0,0.3278097488117475
647.0,0.3258740172572918
646.0,0.3237637832366884
645.0,0.3226668485800983
644.0,0.3230321857052414
643.0,0.32477174640693596
642.0,0.32670256024036415
641.0,0.3279945549770482
640.0,0.3286419965565084
639.0,0.3286419965565084
638.0,0.3286419965565084
637.0,0.32956859063939437
636.0,0.33217362104928894
635.0,0.33611070137733856
634.0,0.3392293564723028
633.0,0.3392293564723028
632.0,0.3355460714188425
631.0,0.33031129194379183
630.0,0.32633412375429804
629.0,0.3252306859845737
628.0,0.32605800136591223
627.0,0.32651830292665274
626.0,0.3252306859845737
625.0,0.32339783041798165
624.0,0.32248429520124255
623.0,0.3225755622987525
622.0,0.32221060893113895
621.0,0.32093568187868726
620.0,0.31930197030236496
619.0,0.317223353685566
618.0,0.31461659019851274
617.0,0.3122927203751811
616.0,0.3114022249188302
615.0,0.3118472444084337
614.0,0.3125602254541058
613.0,0.3130957304318227
612.0,0.3143478158844757
611.0,0.31650268232018863
610.0,0.318306607995436
609.0,0.3185778442789915
608.0,0.31740370853944677
607.0,0.31515463835558766
606.0,0.31202537996544444
605.0,0.30891850787703157
604.0,0.3073293008436311
603.0,0.3074174377250909
602.0,0.3073293008436311
601.0,0.3046934775681973
600.0,0.29972906264356314
