cm-1,A
4000.0,-0.48682704311018066
3999.0,-0.4866571313388808
3998.0,-0.4866146430072025
3997.0,-0.4866712931924324
3996.0,-0.48678457139904197
3995.0,-0.48685535527694324
3994.0,-0.48684119942427495
3993.0,-0.48675625461726835
3992.0,-0.48671377598248533
3991.0,-0.4867279359890695
3990.0,-0.48681288633463016
3989.0,-0.48689782006669446
3988.0,-0.486883665598123
3987.0,-0.4867420955339874
3986.0,-0.4865013204632529
3985.0,-0.48628876096056617
3984.0,-0.4861611753045385
3983.0,-0.4861469968065726
3982.0,-0.48621788466797256
3981.0,-0.48633128118466606
3980.0,-0.48645881688464865
3979.0,-0.4865154873984503
3978.0,-0.48648715306590695
3977.0,-0.4864304788544338
3976.0,-0.48637379724616947
3975.0,-0.4863171082391835
3974.0,-0.48621788466797256
3973.0,-0.4861044585351344
3972.0,-0.48603355215578636
3971.0,-0.48603355215578636
3970.0,-0.4861044585351344
3969.0,-0.4863029348311607
3968.0,-0.48660047930620154
3967.0,-0.48689782006669446
3966.0,-0.4870534887814273
3965.0,-0.48701103921079136
3964.0,-0.48677041323894343
3963.0,-0.48640213897502127
3962.0,-0.48601936949060187
3961.0,-0.4857640022849474
3960.0,-0.4857072336195416
3959.0,-0.4857640022849474
3958.0,-0.48577819329192184
3957.0,-0.4857214264815801
3956.0,-0.48563626235111723
3955.0,-0.485536883086751
3954.0,-0.4854516827565205
3953.0,-0.4853522612411383
3952.0,-0.4851817713873774
3951.0,-0.48495434742098187
3950.0,-0.4847552537095594
3949.0,-0.4846841266876831
3948.0,-0.4847552537095594
3947.0,-0.48489747281614637
3946.0,-0.4850112145785732
3945.0,-0.48502543020456734
3944.0,-0.4849827819305612
3943.0,-0.48499699848724775
3942.0,-0.4851391384642656
3941.0,-0.4852670246803523
3940.0,-0.4853096450518586
3939.0,-0.485281231935597
3938.0,-0.4852954387260886
3937.0,-0.4854232789316639
3936.0,-0.4855226841924045
3935.0,-0.485366465708323
3934.0,-0.4849401294680282
3933.0,-0.4845418376876873
3932.0,-0.4844279729128327
3931.0,-0.48447067570193036
3930.0,-0.4843995020539067
3929.0,-0.4842143959621965
3928.0,-0.48412893576411076
3927.0,-0.4841431802983429
3926.0,-0.4841574243653808
3925.0,-0.484185911097994
3924.0,-0.4843995020539067
3923.0,-0.4846272166817833
3922.0,-0.4845987588820284
3921.0,-0.48428559995001086
3920.0,-0.48407195295462113
3919.0,-0.4841431802983429
3918.0,-0.4842713600863471
3917.0,-0.4842143959621965
3916.0,-0.48412893576411076
3915.0,-0.4841716679652541
3914.0,-0.4842713600863471
3913.0,-0.48428559995001086
3912.0,-0.484356792265614
3911.0,-0.48464144488241345
3910.0,-0.4850822880558452
3909.0,-0.4854090763225778
3908.0,-0.4854942850109718
3907.0,-0.4852670246803523
3906.0,-0.48472680429866166
3905.0,-0.48400071392719823
3904.0,-0.4833733060890273
3903.0,-0.4830735416070455
3902.0,-0.4829592911672145
3901.0,-0.48275928054666384
3900.0,-0.48247339120587895
3899.0,-0.4824447919182653
3898.0,-0.48283072348582756
3897.0,-0.4833304952573201
3896.0,-0.4836728638063108
3895.0,-0.4838439469213469
3894.0,-0.48395796490097354
3893.0,-0.48387245422267355
3892.0,-0.48345891509421346
3891.0,-0.4829878565950474
3890.0,-0.4830735416070455
3889.0,-0.48374415662816306
3888.0,-0.4841574243653808
3887.0,-0.4835445072273057
3886.0,-0.48241619074719866
3885.0,-0.4819010473145249
3884.0,-0.4820728296947343
3883.0,-0.4821873135445873
3882.0,-0.4819153651083745
3881.0,-0.48170054862187417
3880.0,-0.4819726315639583
3879.0,-0.4824447919182653
3878.0,-0.48267353350332964
3877.0,-0.4826163594008377
3876.0,-0.4824018894552933
3875.0,-0.48233037593080175
3874.0,-0.48271640914123237
3873.0,-0.48323058690210274
3872.0,-0.48305926194564686
3871.0,-0.48202989046933187
3870.0,-0.4812275779993205
3869.0,-0.4817721659241756
3868.0,-0.4830735416070455
3867.0,-0.48351597839054117
3866.0,-0.48275928054666384
3865.0,-0.4820155764507117
3864.0,-0.4822874621630189
3863.0,-0.48270211773224725
3862.0,-0.4821873135445873
3861.0,-0.4813136109793765
3860.0,-0.48117021320949993
3859.0,-0.4818724103106633
3858.0,-0.4830307012142212
3857.0,-0.484185911097994
3856.0,-0.4849259110495914
3855.0,-0.4847694777161733
3854.0,-0.4839437142904197
3853.0,-0.4835730341901314
3852.0,-0.4836443434003308
3851.0,-0.483401844299177
3850.0,-0.4826449473929424
3849.0,-0.48178648796753976
3848.0,-0.4814139612537449
3847.0,-0.48151428834602905
3846.0,-0.48164324627558397
3845.0,-0.4815859363676225
3844.0,-0.4815286188959931
3843.0,-0.4817148730271694
3842.0,-0.48210145348659816
3841.0,-0.4822302372089675
3840.0,-0.48178648796753976
3839.0,-0.48088327554790844
3838.0,-0.4798631130230975
3837.0,-0.47907119580393065
3836.0,-0.47882612895619614
3835.0,-0.47921528820137116
3834.0,-0.47983434131936065
3833.0,-0.48023697181946856
3832.0,-0.48039504601676786
3831.0,-0.480596148181724
3830.0,-0.4808545713521344
3829.0,-0.48101242095657293
3828.0,-0.48088327554790844
3827.0,-0.48068230632548703
3826.0,-0.4808402185427769
3825.0,-0.4813852921127699
3824.0,-0.4817291969600159
3823.0,-0.4812419180129224
3822.0,-0.48023697181946856
3821.0,-0.47980556770939176
3820.0,-0.4801507252732806
3819.0,-0.48033757114728415
3818.0,-0.479906267005072
3817.0,-0.47902795876054727
3816.0,-0.47862420531180794
3815.0,-0.47943133719773634
3814.0,-0.4804956087394121
3813.0,-0.48063922939018155
3812.0,-0.4801507252732806
3811.0,-0.4800500826504366
3810.0,-0.4806535888433694
3809.0,-0.48119889655155523
3808.0,-0.4809837252955296
3807.0,-0.48053869992185616
3806.0,-0.4807253789884878
3805.0,-0.4812705966197215
3804.0,-0.4812562575530457
3803.0,-0.48039504601676786
3802.0,-0.4795609150248552
3801.0,-0.47973362534304975
3800.0,-0.4802513445787868
3799.0,-0.4800357032288014
3798.0,-0.47927291177685705
3797.0,-0.4786819073622355
3796.0,-0.47882612895619614
3795.0,-0.4794025368739816
3794.0,-0.4796472787693866
3793.0,-0.4793593328069714
3792.0,-0.4790135454561337
3791.0,-0.47899913167335706
3790.0,-0.47915765697919177
3789.0,-0.4791864735462452
3788.0,-0.47907119580393065
3787.0,-0.47899913167335706
3786.0,-0.47897030267258955
3785.0,-0.4789126389293057
3784.0,-0.47889822179710206
3783.0,-0.47897030267258955
3782.0,-0.4789126389293057
3781.0,-0.478523208272323
3780.0,-0.47796008011448654
3779.0,-0.47761317642947443
3778.0,-0.47759871609411775
3777.0,-0.4777143852979582
3776.0,-0.4778444763387584
3775.0,-0.4780612081815181
3774.0,-0.4785376378588979
3773.0,-0.47907119580393065
3772.0,-0.4791720655017251
3771.0,-0.47871075551275943
3770.0,-0.478292269661063
3769.0,-0.4782489549966975
3768.0,-0.4782778319196046
3767.0,-0.4780612081815181
3766.0,-0.47780111698814887
3765.0,-0.47793118205532803
3764.0,-0.47849434766080856
3763.0,-0.4789847174121866
3762.0,-0.47889822179710206
3761.0,-0.47849434766080856
3760.0,-0.47849434766080856
3759.0,-0.47889822179710206
3758.0,-0.4789270555829246
3757.0,-0.4785376378588979
3756.0,-0.47846548513126397
3755.0,-0.47881170895181535
3754.0,-0.4790423715866301
3753.0,-0.4790423715866301
3752.0,-0.47937373464020094
3751.0,-0.4800788400654854
3750.0,-0.4801651008871213
3749.0,-0.47954651939756365
3748.0,-0.4796472787693866
3747.0,-0.4804237805994105
3746.0,-0.48038067801246864
3745.0,-0.4791720655017251
3744.0,-0.478523208272323
3743.0,-0.4791720655017251
3742.0,-0.4794457366434335
3741.0,-0.47835001582767456
3740.0,-0.47681714213050164
3739.0,-0.47591804143946836
3738.0,-0.4754677921160271
3737.0,-0.4747697096158685
3736.0,-0.47418711581745
3735.0,-0.4744056800880059
3734.0,-0.4748715832276931
3733.0,-0.474813372661389
3732.0,-0.4746823703532508
3731.0,-0.4752352226041281
3730.0,-0.4762517960070336
3729.0,-0.47684611441082625
3728.0,-0.4766867429456445
3727.0,-0.47636782445600145
3726.0,-0.4765418090274287
3725.0,-0.476889569207684
3724.0,-0.4767302136910794
3723.0,-0.4762082773455507
3722.0,-0.47588900717806526
3721.0,-0.47584545214616325
3720.0,-0.47583093283145317
3719.0,-0.4757292840347569
3718.0,-0.4757147608357353
3717.0,-0.4759470737599485
3716.0,-0.47633882024976604
3715.0,-0.47651281643875354
3714.0,-0.47629531030814753
3713.0,-0.4760631836378324
3712.0,-0.47636782445600145
3711.0,-0.476889569207684
3710.0,-0.47680265526551713
3709.0,-0.47616475432282535
3708.0,-0.4757002371510284
3707.0,-0.47567118832442956
3706.0,-0.47593255784230726
3705.0,-0.4761502456792672
3704.0,-0.47609220625759097
3703.0,-0.4757873719746417
3702.0,-0.47549685454999935
3701.0,-0.47542419481820364
3700.0,-0.47552591503928054
3699.0,-0.4756276114410811
3698.0,-0.47558403018481155
3697.0,-0.47545326016970035
3696.0,-0.47549685454999935
3695.0,-0.4757292840347569
3694.0,-0.47581641303131805
3693.0,-0.4757583289758749
3692.0,-0.4757583289758749
3691.0,-0.4756566631824728
3690.0,-0.47482792603444146
3689.0,-0.4731949092049379
3688.0,-0.4720246977002813
3687.0,-0.47244926379707186
3686.0,-0.4738663557866918
3685.0,-0.4749443354653877
3684.0,-0.47535152292802163
3683.0,-0.475598557756169
3682.0,-0.4759470737599485
3681.0,-0.4761792624817036
3680.0,-0.476266301258514
3679.0,-0.4765563045959924
3678.0,-0.4767881679172743
3677.0,-0.4762227840505844
3676.0,-0.4750898033890065
3675.0,-0.4746823703532508
3674.0,-0.4749443354653877
3673.0,-0.4751043475018628
3672.0,-0.4747260421801167
3671.0,-0.47415796560218926
3670.0,-0.4745222027387106
3669.0,-0.4756276114410811
3668.0,-0.4759615891924236
3667.0,-0.4754677921160271
3666.0,-0.4750170755177985
3665.0,-0.47488613465025065
3664.0,-0.4749006855852662
3663.0,-0.4747260421801167
3662.0,-0.47420169019139324
3661.0,-0.4735161653509161
3660.0,-0.4730049642672709
3659.0,-0.47277107178087263
3658.0,-0.4726979545387682
3657.0,-0.4728003152312845
3656.0,-0.47329715284888696
3655.0,-0.47405592443789235
3654.0,-0.4744639453212849
3653.0,-0.47412881343020974
3652.0,-0.47313647345647736
3651.0,-0.47214186084442034
3650.0,-0.47183424015123254
3649.0,-0.4718049315750368
3648.0,-0.4712476924956053
3647.0,-0.47070442972278803
3646.0,-0.47064565788672796
3645.0,-0.47080726130184747
3644.0,-0.47095412133364833
3643.0,-0.4711596419819757
3642.0,-0.4715410653455514
3641.0,-0.4719661042730605
3640.0,-0.4721125730215072
3639.0,-0.4719807533709961
3638.0,-0.4718928513705807
3637.0,-0.4720246977002813
3636.0,-0.4720979283693536
3635.0,-0.471936804594729
3634.0,-0.4719075029395614
3633.0,-0.47239072762662904
3632.0,-0.47303419197317753
3631.0,-0.47307802984423697
3630.0,-0.4725370532620774
3629.0,-0.47234682032055364
3628.0,-0.4726687041947999
3627.0,-0.47241999669807155
3626.0,-0.47167301850009125
3625.0,-0.47102753273055153
3624.0,-0.47074850338098617
3623.0,-0.4707631936064991
3622.0,-0.4705721819053825
3621.0,-0.46993977478634186
3620.0,-0.46935066118284663
3619.0,-0.4693948724333543
3618.0,-0.46977784819177293
3617.0,-0.46985145867380496
3616.0,-0.4695716724419987
3615.0,-0.4692769657622793
3614.0,-0.4692769657622793
3613.0,-0.469674772551798
3612.0,-0.4701016410291201
3611.0,-0.470116353151004
3610.0,-0.4698072938817903
3609.0,-0.469674772551798
3608.0,-0.4699544923925214
3607.0,-0.47013106477451805
3606.0,-0.4695716724419987
3605.0,-0.46855408808419075
3604.0,-0.4677560512440331
3603.0,-0.46757851040273657
3602.0,-0.4678743714959306
3601.0,-0.4681848088738869
3600.0,-0.46822913896173324
3599.0,-0.4679778752797925
3598.0,-0.4676376987478914
3597.0,-0.46744530712542565
3596.0,-0.46741570084810125
3595.0,-0.46738609255235053
3594.0,-0.4672232108340486
3593.0,-0.46708989852081606
3592.0,-0.4671491534899572
3591.0,-0.46738609255235053
3590.0,-0.4675637120559628
3589.0,-0.46750451362589596
3588.0,-0.46716396596909027
3587.0,-0.46633368813234144
3586.0,-0.4650257503057249
3585.0,-0.4639825250097074
3584.0,-0.4637885069558356
3583.0,-0.4642510223795595
3582.0,-0.4648768714581859
3581.0,-0.4653531042322756
3580.0,-0.46573965920386007
3579.0,-0.46615556475221
3578.0,-0.46651173848614524
3577.0,-0.4666748872099853
3576.0,-0.46660073629688137
3575.0,-0.4663782075646714
3574.0,-0.46615556475221
3573.0,-0.4659179532119353
3572.0,-0.4656802115982779
3571.0,-0.4653977242924432
3570.0,-0.465129935140554
3569.0,-0.46490665131090125
3568.0,-0.4649513172615296
3567.0,-0.4652043375806296
3566.0,-0.4650852875574327
3565.0,-0.4643255755326967
3564.0,-0.463474909963959
3563.0,-0.4629816567264169
3562.0,-0.4628619957697371
3561.0,-0.46295174457805466
3560.0,-0.46311623590483597
3559.0,-0.4633105544564864
3558.0,-0.463474909963959
3557.0,-0.4635346601851311
3556.0,-0.46343009190280204
3555.0,-0.46322087977479187
3554.0,-0.46296670090976155
3553.0,-0.4626824424930076
3552.0,-0.4623979978989561
3551.0,-0.4621433368291976
3550.0,-0.4619484952037616
3549.0,-0.4617835609097689
3548.0,-0.46148351980356317
3547.0,-0.46091286998728576
3546.0,-0.4600253725122907
3545.0,-0.45901533230182956
3544.0,-0.45844142797876986
3543.0,-0.45866805976489866
3542.0,-0.4595884792320084
3541.0,-0.4607625742763788
3540.0,-0.46175356612545526
3539.0,-0.46221825264624083
3538.0,-0.462098381135156
3537.0,-0.4615285391863271
3536.0,-0.4609429228889588
3535.0,-0.46077760618825403
3534.0,-0.46115323499084315
3533.0,-0.4618885263439725
3532.0,-0.46272733777209885
3531.0,-0.46338526921606027
3530.0,-0.4636839997835569
3529.0,-0.46360933640346635
3528.0,-0.4632507733927764
3527.0,-0.4627572653800014
3526.0,-0.462098381135156
3525.0,-0.461198288622493
3524.0,-0.46025117945436245
3523.0,-0.45960355183623713
3522.0,-0.45957340610465236
3521.0,-0.4601006545388451
3520.0,-0.46089784275654777
3519.0,-0.4616485680634552
3518.0,-0.462098381135156
3517.0,-0.46212835211490644
3516.0,-0.4617385679564108
3515.0,-0.461093156210612
3514.0,-0.46049191085531094
3513.0,-0.4602060274574509
3512.0,-0.4603414693677652
3511.0,-0.4607625742763788
3510.0,-0.46122832178054995
3509.0,-0.4614985267830187
3508.0,-0.4615135332439282
3507.0,-0.46134843364798295
3506.0,-0.4611231966396132
3505.0,-0.46077760618825403
3504.0,-0.4601909757485787
3503.0,-0.45942264605110106
3502.0,-0.45869826840275074
3501.0,-0.45833562599194755
3500.0,-0.45833562599194755
3499.0,-0.4584565404444314
3498.0,-0.4584716523842314
3497.0,-0.4584565404444314
3496.0,-0.4586227428679095
3495.0,-0.45904551679460637
3494.0,-0.45957340610465236
3493.0,-0.4600103145408969
3492.0,-0.46028127817791065
3491.0,-0.4603715618346498
3490.0,-0.46023612931030655
3489.0,-0.45988983197067457
3488.0,-0.45945280224886353
3487.0,-0.45916623379115284
3486.0,-0.45921149401545547
3485.0,-0.4595884792320084
3484.0,-0.4601157093783268
3483.0,-0.4604166966257357
3482.0,-0.4601909757485787
3481.0,-0.4593774078279145
3480.0,-0.4583507421396633
3479.0,-0.4577002722181076
3478.0,-0.4578062290829772
3477.0,-0.45850187468639403
3476.0,-0.4593321648920039
3475.0,-0.45982957814907977
3474.0,-0.4597843822962693
3473.0,-0.4592718336448547
3472.0,-0.45850187468639403
3471.0,-0.4576851334126366
3470.0,-0.45692751951263055
3469.0,-0.4563204753743739
3468.0,-0.4560318318952339
3467.0,-0.4561230031943837
3466.0,-0.4564874971158237
3465.0,-0.45689718744934815
3464.0,-0.45712462630340855
3463.0,-0.45710946741819436
3462.0,-0.45689718744934815
3461.0,-0.45662410350706395
3460.0,-0.4564115861051774
3459.0,-0.45635084774181767
3458.0,-0.4564267693688322
3457.0,-0.4565482163723926
3456.0,-0.4566392793428964
3455.0,-0.45659375024440774
3454.0,-0.4564571343037791
3453.0,-0.4563204753743739
3452.0,-0.45622934552542027
3451.0,-0.4561230031943837
3450.0,-0.4558190244027309
3449.0,-0.45531699376962065
3448.0,-0.454753419965662
3447.0,-0.4543264450192863
3446.0,-0.454112800025813
3445.0,-0.4540059381037902
3444.0,-0.4539143212378498
3443.0,-0.4538226850407372
3442.0,-0.4537157517007673
3441.0,-0.45353237612510666
3440.0,-0.4532418730194778
3439.0,-0.4529205643990699
3438.0,-0.45276747670249984
3437.0,-0.4528287182568427
3436.0,-0.4529817843712465
3435.0,-0.45310419843220906
3434.0,-0.4531500948107885
3433.0,-0.4531500948107885
3432.0,-0.4531500948107885
3431.0,-0.4531500948107885
3430.0,-0.45311949776400207
3429.0,-0.4530429957148159
3428.0,-0.4530123911214554
3427.0,-0.45302769368772244
3426.0,-0.45310419843220906
3425.0,-0.45322657799819055
3424.0,-0.45337950397670745
3423.0,-0.45353237612510666
3422.0,-0.4536087920248524
3421.0,-0.4536546351116004
3420.0,-0.4538226850407372
3419.0,-0.45426541431627676
3418.0,-0.45498198398435985
3417.0,-0.4557429964484898
3416.0,-0.4562901008826912
3415.0,-0.4564571343037791
3414.0,-0.45635084774181767
3413.0,-0.4562141553579888
3412.0,-0.4563204753743739
3411.0,-0.45669997738379253
3410.0,-0.45712462630340855
3409.0,-0.4573822464303814
3408.0,-0.45751857171399823
3407.0,-0.45773054824599857
3406.0,-0.4580936960466042
3405.0,-0.4584263149872103
3404.0,-0.45850187468639403
3403.0,-0.45821467786559245
3402.0,-0.4577002722181076
3401.0,-0.45723072368726925
3400.0,-0.45712462630340855
3399.0,-0.4575034265733051
3398.0,-0.45819955698116965
3397.0,-0.45886437836151783
3396.0,-0.4592567495234321
3395.0,-0.4593623273729621
3394.0,-0.4593170828659252
3393.0,-0.4591511460014761
3392.0,-0.4589247662340945
3391.0,-0.45880398209094775
3390.0,-0.45904551679460637
3389.0,-0.45972411384184264
3388.0,-0.4605971888976015
3387.0,-0.46128838186665044
3386.0,-0.46163356626784724
3385.0,-0.4616785701001427
3384.0,-0.46160356112192513
3383.0,-0.46146851230552643
3382.0,-0.46133342148109646
3381.0,-0.46127336762378723
3380.0,-0.46134843364798295
3379.0,-0.4615285391863271
3378.0,-0.46163356626784724
3377.0,-0.4615585495157384
3376.0,-0.46137845642507846
3375.0,-0.4613033955904662
3374.0,-0.46137845642507846
3373.0,-0.4614384957535633
3372.0,-0.4612583528618397
3371.0,-0.460702441425453
3370.0,-0.4598747692989691
3369.0,-0.45912096884954057
3368.0,-0.45877378080568487
3367.0,-0.45901533230182956
3366.0,-0.45981451338740476
3365.0,-0.46091286998728576
3364.0,-0.46191851180895505
3363.0,-0.46248784263573217
3362.0,-0.46254772880266426
3361.0,-0.46226319593422005
3360.0,-0.4620234446356335
3359.0,-0.4621433368291976
3358.0,-0.4626375425723781
3357.0,-0.4632657194301828
3356.0,-0.4637138615418732
3355.0,-0.46380343449916817
3354.0,-0.4635495964560694
3353.0,-0.4629966120280562
3352.0,-0.46226319593422005
3351.0,-0.4615585495157384
3350.0,-0.4611832712645878
3349.0,-0.4613033955904662
3348.0,-0.4618885263439725
3347.0,-0.4625926380092502
3346.0,-0.46302652108642706
3345.0,-0.46302652108642706
3344.0,-0.4626824424930076
3343.0,-0.4623380910801971
3342.0,-0.462203270516635
3341.0,-0.46227817599671894
3340.0,-0.46226319593422005
3339.0,-0.4620084557839901
3338.0,-0.4616785701001427
3337.0,-0.46166356934087505
3336.0,-0.4621733047067904
3335.0,-0.46302652108642706
3334.0,-0.46389298898590736
3333.0,-0.46451935385667964
3332.0,-0.46486198076603413
3331.0,-0.4650108647174078
3330.0,-0.4650108647174078
3329.0,-0.4648173056259841
3328.0,-0.4644150224261687
3327.0,-0.4638332880466556
3326.0,-0.4632657194301828
3325.0,-0.4630115668147141
3324.0,-0.4632358268409913
3323.0,-0.4637885069558356
3322.0,-0.4643404846276673
3321.0,-0.4646832526252753
3320.0,-0.4648321978499683
3319.0,-0.464921540471535
3318.0,-0.465040635383851
3317.0,-0.4651596976461789
3316.0,-0.4652489729271365
3315.0,-0.465263850356592
3314.0,-0.46511505312283985
3313.0,-0.4648321978499683
3312.0,-0.4644150224261687
3311.0,-0.46389298898590736
3310.0,-0.4632507733927764
3309.0,-0.46248784263573217
3308.0,-0.46176856377656295
3307.0,-0.46127336762378723
3306.0,-0.46110817668485193
3305.0,-0.46134843364798295
3304.0,-0.4619484952037616
3303.0,-0.46281711440950435
3302.0,-0.463743721247059
3301.0,-0.46445973896545345
3300.0,-0.46478751964593723
3299.0,-0.4647577316228859
3298.0,-0.46445973896545345
3297.0,-0.4640272861003836
3296.0,-0.46362427010640284
3295.0,-0.46332549843673343
3294.0,-0.46311623590483597
3293.0,-0.4629218303693432
3292.0,-0.46280215292532745
3291.0,-0.46293678773126024
3290.0,-0.463474909963959
3289.0,-0.4643106659258871
3288.0,-0.4651448166483223
3287.0,-0.4657099364182411
3286.0,-0.46596251527937804
3285.0,-0.4660219242575363
3284.0,-0.4660070727748673
3283.0,-0.4659773682858228
3282.0,-0.4658882426265363
3281.0,-0.46578423956850257
3280.0,-0.4657247980653265
3279.0,-0.4657099364182411
3278.0,-0.46569507426257006
3277.0,-0.4655761587039251
3276.0,-0.4653382298600883
3275.0,-0.4651001705951443
3274.0,-0.4648917616397963
3273.0,-0.46462366022946266
3272.0,-0.4641615416989291
3271.0,-0.46363920329584474
3270.0,-0.4633553848546583
3269.0,-0.46363920329584474
3268.0,-0.4644895474339714
3267.0,-0.4655612919694123
3266.0,-0.4665265727211785
3265.0,-0.4671787779430314
3264.0,-0.4674601095072637
3263.0,-0.46741570084810125
3262.0,-0.4671491534899572
3261.0,-0.46683797466776733
3260.0,-0.46660073629688137
3259.0,-0.4664523964785512
3258.0,-0.4662594789354517
3257.0,-0.4659328077424689
3256.0,-0.46559102492953786
3255.0,-0.4654572105757131
3254.0,-0.465650484743692
3253.0,-0.466051625699341
3252.0,-0.46643755970961376
3251.0,-0.4666303981813926
3250.0,-0.4665562396712484
3249.0,-0.466229791705834
3248.0,-0.4657247980653265
3247.0,-0.4652192165391904
3246.0,-0.46499597861886466
3245.0,-0.4652192165391904
3244.0,-0.46581395726947905
3243.0,-0.4664820684959099
3242.0,-0.4669861828669677
3241.0,-0.4672676391795787
3240.0,-0.46737128764747915
3239.0,-0.46734167632357293
3238.0,-0.4671787779430314
3237.0,-0.46689726401692466
3236.0,-0.46643755970961376
3235.0,-0.46582881535743637
3234.0,-0.4652489729271365
3233.0,-0.4650257503057249
3232.0,-0.4653531042322756
3231.0,-0.466051625699341
3230.0,-0.4667341988263023
3229.0,-0.4672084003754762
3228.0,-0.4675341138495921
3227.0,-0.467770843038517
3226.0,-0.46788915926111896
3225.0,-0.467933519535777
3224.0,-0.4679630905351351
3223.0,-0.4680370092257471
3222.0,-0.4680961351210633
3221.0,-0.4680222264940914
3220.0,-0.46783000517897566
3219.0,-0.46765249457386693
3218.0,-0.4676229024178249
3217.0,-0.467770843038517
3216.0,-0.4680222264940914
3215.0,-0.46822913896173324
3214.0,-0.46836210208209295
3213.0,-0.46845072155224887
3212.0,-0.46861314362982176
3211.0,-0.46884928554111305
3210.0,-0.46911479180466387
3209.0,-0.4693359230991292
3208.0,-0.4694832814345218
3207.0,-0.4695716724419987
3206.0,-0.46961586120039156
3205.0,-0.46964531787499864
3204.0,-0.469674772551798
3203.0,-0.46976312459806024
3202.0,-0.4698808993735355
3201.0,-0.4699839261086902
3200.0,-0.4700427875572135
3199.0,-0.4700280729429749
3198.0,-0.46996920949995946
3197.0,-0.4698808993735355
3196.0,-0.4698808993735355
3195.0,-0.4700575016729136
3194.0,-0.4703369751937996
3193.0,-0.4705721819053825
3192.0,-0.4705721819053825
3191.0,-0.47029285975042745
3190.0,-0.4698808993735355
3189.0,-0.46954221077168645
3188.0,-0.46943907918360717
3187.0,-0.4695569418566703
3186.0,-0.4697925712863382
3185.0,-0.4700280729429749
3184.0,-0.47016048652657183
3183.0,-0.47016048652657183
3182.0,-0.4701016410291201
3181.0,-0.4700722152901089
3180.0,-0.4701016410291201
3179.0,-0.4701751966551795
3178.0,-0.47030756539613794
3177.0,-0.47046929464292253
3176.0,-0.4706603515913934
3175.0,-0.4708219495400128
3174.0,-0.47096880460579627
3173.0,-0.47108625291478123
3172.0,-0.471144965160633
3171.0,-0.47110093172038336
3170.0,-0.4709981696608736
3169.0,-0.4709394375650504
3168.0,-0.47096880460579627
3167.0,-0.47108625291478123
3166.0,-0.4711743183073378
3165.0,-0.4712036694702526
3164.0,-0.471144965160633
3163.0,-0.4710422135209491
3162.0,-0.47092475329996786
3161.0,-0.47085132452611766
3160.0,-0.47080726130184747
3159.0,-0.47073381265855296
3158.0,-0.4706015737896587
3157.0,-0.47038108615639906
3156.0,-0.4700722152901089
3155.0,-0.46961586120039156
3154.0,-0.4689968090596017
3153.0,-0.4684064140775641
3152.0,-0.4681404742606383
3151.0,-0.46845072155224887
3150.0,-0.46923274250661207
3149.0,-0.470116353151004
3148.0,-0.470792572566896
3147.0,-0.4711889941367522
3146.0,-0.47142373998586606
3145.0,-0.4716290385697355
3144.0,-0.47177562102080417
3143.0,-0.47171699397715905
3142.0,-0.4713063829219797
3141.0,-0.4705721819053825
3140.0,-0.4698072938817903
3139.0,-0.4693948724333543
3138.0,-0.4695864025277059
3137.0,-0.4702781536067522
3136.0,-0.4710422135209491
3135.0,-0.4714677407101644
3134.0,-0.4714384073892992
3133.0,-0.47111561002987035
3132.0,-0.47070442972278803
3131.0,-0.47024873982537274
3130.0,-0.4698956189750181
3129.0,-0.46983673757548994
3128.0,-0.4701457758996961
3127.0,-0.47064565788672796
3126.0,-0.47096880460579627
3125.0,-0.4709100685383678
3124.0,-0.47055748521727425
3123.0,-0.4700427875572135
3122.0,-0.46943907918360717
3121.0,-0.4687607473704616
3120.0,-0.4681256950504178
3119.0,-0.4676820847136822
3118.0,-0.4674601095072637
3117.0,-0.4674305042390494
3116.0,-0.4676229024178249
3115.0,-0.4680370092257471
3114.0,-0.46861314362982176
3113.0,-0.46915902707201207
3112.0,-0.46943907918360717
3111.0,-0.4693653987664339
3110.0,-0.4690263077508612
3109.0,-0.4686426683915115
3108.0,-0.46853932294294776
3107.0,-0.46879026209961117
3106.0,-0.4692769657622793
3105.0,-0.4697336759130577
3104.0,-0.4700427875572135
3103.0,-0.4701751966551795
3102.0,-0.4701016410291201
3101.0,-0.46977784819177293
3100.0,-0.46935066118284663
3099.0,-0.4691295373944082
3098.0,-0.46930644543116795
3097.0,-0.4697925712863382
3096.0,-0.47030756539613794
3095.0,-0.4706603515913934
3094.0,-0.470792572566896
3093.0,-0.47073381265855296
3092.0,-0.47046929464292253
3091.0,-0.4700722152901089
3090.0,-0.469674772551798
3089.0,-0.4694538137671267
3088.0,-0.4693653987664339
3087.0,-0.4692032578342151
3086.0,-0.46884928554111305
3085.0,-0.46834733041215726
3084.0,-0.46791873328100797
3083.0,-0.4676968790275913
3082.0,-0.4676229024178249
3081.0,-0.46754891320492575
3080.0,-0.46744530712542565
3079.0,-0.46737128764747915
3078.0,-0.46748971275746465
3077.0,-0.4678743714959306
3076.0,-0.4684950245070696
3075.0,-0.4692032578342151
3074.0,-0.4698072938817903
3073.0,-0.47024873982537274
3072.0,-0.47049869349092166
3071.0,-0.4706309636849064
3070.0,-0.4706162689858946
3069.0,-0.4703222705439174
3068.0,-0.4697336759130577
3067.0,-0.46907055203125303
3066.0,-0.4686279062615655
3065.0,-0.46856885272346505
3064.0,-0.46884928554111305
3063.0,-0.4692622251774021
3062.0,-0.4697336759130577
3061.0,-0.47021932405172917
3060.0,-0.4706162689858946
3059.0,-0.47073381265855296
3058.0,-0.47049869349092166
3057.0,-0.4700280729429749
3056.0,-0.4695864025277059
3055.0,-0.4693653987664339
3054.0,-0.4693653987664339
3053.0,-0.46943907918360717
3052.0,-0.4694980145184653
3051.0,-0.4695864025277059
3050.0,-0.46983673757548994
3049.0,-0.47030756539613794
3048.0,-0.47080726130184747
3047.0,-0.47108625291478123
3046.0,-0.4709981696608736
3045.0,-0.4706897375093897
3044.0,-0.47036638300000666
3043.0,-0.4701751966551795
3042.0,-0.47013106477451805
3041.0,-0.47030756539613794
3040.0,-0.4707778833351246
3039.0,-0.47142373998586606
3038.0,-0.4719807533709961
3037.0,-0.4721125730215072
3036.0,-0.4717609650018404
3035.0,-0.4711302878432755
3034.0,-0.4706603515913934
3033.0,-0.4706162689858946
3032.0,-0.47095412133364833
3031.0,-0.47142373998586606
3030.0,-0.47181958611037267
3029.0,-0.47212721717985184
3028.0,-0.4723760923511584
3027.0,-0.472507792078809
3026.0,-0.47241999669807155
3025.0,-0.4722004305656018
3024.0,-0.47203934482198084
3023.0,-0.4720246977002813
3022.0,-0.4719954019748225
3021.0,-0.47174630848826693
3020.0,-0.4712036694702526
3019.0,-0.4705427880318078
3018.0,-0.4698808993735355
3017.0,-0.46924748409219097
3016.0,-0.46853932294294776
3015.0,-0.4677856343292186
3014.0,-0.46708989852081606
3013.0,-0.46661556749237176
3012.0,-0.46643755970961376
3011.0,-0.46661556749237176
3010.0,-0.4670306354658469
3009.0,-0.4675193139899272
3008.0,-0.46788915926111896
3007.0,-0.4680665731795979
3006.0,-0.4680517914542377
3005.0,-0.467933519535777
3004.0,-0.4678004251161729
3003.0,-0.4676968790275913
3002.0,-0.4676081055836332
3001.0,-0.4674008969525465
3000.0,-0.4669565452730775
2999.0,-0.4662891641358664
2998.0,-0.4656356205533285
2997.0,-0.4652489729271365
2996.0,-0.46517457813415897
2995.0,-0.46511505312283985
2994.0,-0.46480241289131863
2993.0,-0.4643106659258871
2992.0,-0.4639974458858669
2991.0,-0.4641466264595735
2990.0,-0.46462366022946266
2989.0,-0.46505551995182115
2988.0,-0.4651596976461789
2987.0,-0.46496620489096063
2986.0,-0.46462366022946266
2985.0,-0.4641913706409997
2984.0,-0.46363920329584474
2983.0,-0.4629068724922676
2982.0,-0.46199346641501693
2981.0,-0.46103306911814235
2980.0,-0.46023612931030655
2979.0,-0.45972411384184264
2978.0,-0.45948295635280934
2977.0,-0.4593472463943371
2976.0,-0.45912096884954057
2975.0,-0.45877378080568487
2974.0,-0.4584716523842314
2973.0,-0.45839608742625115
2972.0,-0.4585320948855509
2971.0,-0.45869826840275074
2970.0,-0.4587435774200479
2969.0,-0.4586378490256493
2968.0,-0.4585320948855509
2967.0,-0.45850187468639403
2966.0,-0.45850187468639403
2965.0,-0.4584565404444314
2964.0,-0.45836585776126126
2963.0,-0.4582902743917283
2962.0,-0.4583507421396633
2961.0,-0.45868316434648104
2960.0,-0.4592265797087687
2959.0,-0.4598747692989691
2958.0,-0.46044678388072047
2957.0,-0.46091286998728576
2956.0,-0.4613033955904662
2955.0,-0.4615735539028223
2954.0,-0.4616785701001427
2953.0,-0.4617385679564108
2952.0,-0.4619634861249384
2951.0,-0.4624728698036158
2950.0,-0.4630863330245334
2949.0,-0.4634898482899352
2948.0,-0.46356453221333727
2947.0,-0.46350478610209933
2946.0,-0.46356453221333727
2945.0,-0.4638332880466556
2944.0,-0.4643553932108344
2943.0,-0.46511505312283985
2942.0,-0.4660664756585464
2941.0,-0.4670306354658469
2940.0,-0.467770843038517
2939.0,-0.4681848088738869
2938.0,-0.4684211837380565
2937.0,-0.46868695177090514
2936.0,-0.4689968090596017
2935.0,-0.4692769657622793
2934.0,-0.4693948724333543
2933.0,-0.46935066118284663
2932.0,-0.4691295373944082
2931.0,-0.4687755049857647
2930.0,-0.4684359528962734
2929.0,-0.4683916439147624
2928.0,-0.4687607473704616
2927.0,-0.4693801358499252
2926.0,-0.4699250566813875
2925.0,-0.47018990628555235
2924.0,-0.4702634469650784
2923.0,-0.4702634469650784
2922.0,-0.47018990628555235
2921.0,-0.4699544923925214
2920.0,-0.4695127471026179
2919.0,-0.4689378056654614
2918.0,-0.46836210208209295
2917.0,-0.46783000517897566
2916.0,-0.46731206298055206
2915.0,-0.4667786772233953
2914.0,-0.4662446355743106
2913.0,-0.46587338657160116
2912.0,-0.4657693799554137
2911.0,-0.4658882426265363
2910.0,-0.466051625699341
2909.0,-0.46615556475221
2908.0,-0.46618525705604696
2907.0,-0.4662446355743106
2906.0,-0.46633368813234144
2905.0,-0.4664820684959099
2904.0,-0.4667193716815987
2903.0,-0.46704545198775627
2902.0,-0.46744530712542565
2901.0,-0.4678743714959306
2900.0,-0.46822913896173324
2899.0,-0.4684064140775641
2898.0,-0.46836210208209295
2897.0,-0.4680961351210633
2896.0,-0.4678004251161729
2895.0,-0.4676968790275913
2894.0,-0.46791873328100797
2893.0,-0.46834733041215726
2892.0,-0.46880501871203517
2891.0,-0.4691295373944082
2890.0,-0.4692769657622793
2889.0,-0.46930644543116795
2888.0,-0.46924748409219097
2887.0,-0.46914428248351303
2886.0,-0.46910004571424624
2885.0,-0.4692032578342151
2884.0,-0.4694832814345218
2883.0,-0.469822015978163
2882.0,-0.4700722152901089
2881.0,-0.4701751966551795
2880.0,-0.47016048652657183
2879.0,-0.470116353151004
2878.0,-0.47008692840883315
2877.0,-0.4699544923925214
2876.0,-0.4695716724419987
2875.0,-0.4689968090596017
2874.0,-0.46848025735761256
2873.0,-0.4683030123875356
2872.0,-0.46856885272346505
2871.0,-0.46911479180466387
2870.0,-0.469630589787438
2869.0,-0.4699544923925214
2868.0,-0.47013106477451805
2867.0,-0.4702781536067522
2866.0,-0.4704398938046821
2865.0,-0.47058687809616595
2864.0,-0.47067504479893607
2863.0,-0.47064565788672796
2862.0,-0.4704839943156851
2861.0,-0.47016048652657183
2860.0,-0.469822015978163
2859.0,-0.46970422523106103
2858.0,-0.46991033807762417
2857.0,-0.47038108615639906
2856.0,-0.47085132452611766
2855.0,-0.4711889941367522
2854.0,-0.4713503955373608
2853.0,-0.4714384073892992
2852.0,-0.47142373998586606
2851.0,-0.4713063829219797
2850.0,-0.47108625291478123
2849.0,-0.4708806975254798
2848.0,-0.47080726130184747
2847.0,-0.47102753273055153
2846.0,-0.47151173697696214
2845.0,-0.47208328322335724
2844.0,-0.4725370532620774
2843.0,-0.4727272029128171
2842.0,-0.4725809413407265
2841.0,-0.4721125730215072
2840.0,-0.4714090720870554
2839.0,-0.4707778833351246
2838.0,-0.47051339216866506
2837.0,-0.47067504479893607
2836.0,-0.4710422135209491
2835.0,-0.4713797348031652
2834.0,-0.47164369904138637
2833.0,-0.4718928513705807
2832.0,-0.47217114669236304
2831.0,-0.47234682032055364
2830.0,-0.47240536240892217
2829.0,-0.4723760923511584
2828.0,-0.47231754631684186
2827.0,-0.47224435267347253
2826.0,-0.47215650401524645
2825.0,-0.4720979283693536
2824.0,-0.4720686375834853
2823.0,-0.4720246977002813
2822.0,-0.47195145468098243
2821.0,-0.4718928513705807
2820.0,-0.47187819930729047
2819.0,-0.4719221540142664
2818.0,-0.4719954019748225
2817.0,-0.4720686375834853
2816.0,-0.47212721717985184
2815.0,-0.47212721717985184
2814.0,-0.47208328322335724
2813.0,-0.4719661042730605
2812.0,-0.4717609650018404
2811.0,-0.47145307429738725
2810.0,-0.471144965160633
2809.0,-0.47096880460579627
2808.0,-0.4709981696608736
2807.0,-0.471144965160633
2806.0,-0.4712770387002183
2805.0,-0.4713797348031652
2804.0,-0.4714970720499183
2803.0,-0.4716583590181602
2802.0,-0.47181958611037267
2801.0,-0.4718928513705807
2800.0,-0.47181958611037267
2799.0,-0.4715850541851898
2798.0,-0.47132105428937443
2797.0,-0.4712036694702526
2796.0,-0.4713063829219797
2795.0,-0.47151173697696214
2794.0,-0.47159971614167073
2793.0,-0.4714824066276635
2792.0,-0.4712476924956053
2791.0,-0.4710422135209491
2790.0,-0.47095412133364833
2789.0,-0.4709834873815266
2788.0,-0.4711596419819757
2787.0,-0.4714970720499183
2786.0,-0.471936804594729
2785.0,-0.47241999669807155
2784.0,-0.47278569375221924
2783.0,-0.4729757345942285
2782.0,-0.47301957836609976
2781.0,-0.4729903496766581
2780.0,-0.4729465029537847
2779.0,-0.4728880337696362
2778.0,-0.47277107178087263
2777.0,-0.4725955697147417
2776.0,-0.47236145658247786
2775.0,-0.4720979283693536
2774.0,-0.4719075029395614
2773.0,-0.47187819930729047
2772.0,-0.47195145468098243
2771.0,-0.47203934482198084
2770.0,-0.47212721717985184
2769.0,-0.47224435267347253
2768.0,-0.47244926379707186
2767.0,-0.4726979545387682
2766.0,-0.4728441767151277
2765.0,-0.47282955671270566
2764.0,-0.4726979545387682
2763.0,-0.4725809413407265
2762.0,-0.4725955697147417
2761.0,-0.4727125789720157
2760.0,-0.47281493621810267
2759.0,-0.47277107178087263
2758.0,-0.47255168311442786
2757.0,-0.47234682032055364
2756.0,-0.4722882703397566
2755.0,-0.47236145658247786
2754.0,-0.4724638966069894
2753.0,-0.4724638966069894
2752.0,-0.47231754631684186
2751.0,-0.47208328322335724
2750.0,-0.4718928513705807
2749.0,-0.47184889369765015
2748.0,-0.4719807533709961
2747.0,-0.47222971246440304
2746.0,-0.4724638966069894
2745.0,-0.47263945188064715
2744.0,-0.4726833296130404
2743.0,-0.47262482498466873
2742.0,-0.47255168311442786
2741.0,-0.4724931607478249
2740.0,-0.472507792078809
2739.0,-0.4725224229168825
2738.0,-0.4725224229168825
2737.0,-0.4724931607478249
2736.0,-0.47247852892389597
2735.0,-0.4725224229168825
2734.0,-0.4725955697147417
2733.0,-0.4727125789720157
2732.0,-0.4728003152312845
2731.0,-0.4728441767151277
2730.0,-0.47287341524355986
2729.0,-0.47290265180366386
2728.0,-0.47290265180366386
2727.0,-0.4728003152312845
2726.0,-0.4726101975960444
2725.0,-0.4724638966069894
2724.0,-0.47239072762662904
2723.0,-0.47240536240892217
2722.0,-0.47244926379707186
2721.0,-0.4725809413407265
2720.0,-0.4728003152312845
2719.0,-0.4729903496766581
2718.0,-0.47301957836609976
2717.0,-0.4728880337696362
2716.0,-0.4727418263612049
2715.0,-0.4726833296130404
2714.0,-0.4727125789720157
2713.0,-0.4727564493172123
2712.0,-0.4727418263612049
2711.0,-0.47263945188064715
2710.0,-0.4724931607478249
2709.0,-0.47239072762662904
2708.0,-0.47244926379707186
2707.0,-0.4726540782840134
2706.0,-0.47290265180366386
2705.0,-0.47306341771221305
2704.0,-0.47309264148464214
2703.0,-0.4730049642672709
2702.0,-0.47285879622540117
2701.0,-0.4727564493172123
2700.0,-0.4727564493172123
2699.0,-0.4728441767151277
2698.0,-0.47290265180366386
2697.0,-0.4728880337696362
2696.0,-0.47278569375221924
2695.0,-0.47263945188064715
2694.0,-0.4725224229168825
2693.0,-0.47244926379707186
2692.0,-0.4724346304941105
2691.0,-0.4724346304941105
2690.0,-0.4724346304941105
2689.0,-0.4724638966069894
2688.0,-0.47255168311442786
2687.0,-0.4726687041947999
2686.0,-0.4726979545387682
2685.0,-0.4726101975960444
2684.0,-0.4724346304941105
2683.0,-0.47217114669236304
2682.0,-0.4718928513705807
2681.0,-0.4716876774872123
2680.0,-0.47167301850009125
2679.0,-0.47183424015123254
2678.0,-0.47203934482198084
2677.0,-0.47217114669236304
2676.0,-0.4722004305656018
2675.0,-0.47215650401524645
2674.0,-0.4720686375834853
2673.0,-0.4720246977002813
2672.0,-0.47203934482198084
2671.0,-0.4721125730215072
2670.0,-0.4722004305656018
2669.0,-0.47227363161111624
2668.0,-0.47236145658247786
2667.0,-0.47247852892389597
2666.0,-0.4726101975960444
2665.0,-0.4727564493172123
2664.0,-0.47282955671270566
2663.0,-0.4728003152312845
2662.0,-0.4726687041947999
2661.0,-0.4725370532620774
2660.0,-0.4725224229168825
2659.0,-0.4726540782840134
2658.0,-0.4728441767151277
2657.0,-0.4729903496766581
2656.0,-0.47307802984423697
2655.0,-0.47313647345647736
2654.0,-0.47313647345647736
2653.0,-0.47312186329072903
2652.0,-0.47310725263346187
2651.0,-0.47310725263346187
2650.0,-0.47307802984423697
2649.0,-0.4729903496766581
2648.0,-0.47285879622540117
2647.0,-0.4727272029128171
2646.0,-0.4726833296130404
2645.0,-0.4726979545387682
2644.0,-0.4727272029128171
2643.0,-0.4727564493172123
2642.0,-0.4727418263612049
2641.0,-0.4727272029128171
2640.0,-0.4726540782840134
2639.0,-0.47255168311442786
2638.0,-0.47241999669807155
2637.0,-0.4723321835653529
2636.0,-0.47231754631684186
2635.0,-0.4723321835653529
2634.0,-0.47231754631684186
2633.0,-0.4722589923890328
2632.0,-0.4722004305656018
2631.0,-0.47217114669236304
2630.0,-0.4721125730215072
2629.0,-0.47203934482198084
2628.0,-0.4720539914497044
2627.0,-0.47215650401524645
2626.0,-0.4722882703397566
2625.0,-0.47239072762662904
2624.0,-0.47240536240892217
2623.0,-0.47239072762662904
2622.0,-0.4723760923511584
2621.0,-0.4723760923511584
2620.0,-0.47236145658247786
2619.0,-0.47231754631684186
2618.0,-0.4722589923890328
2617.0,-0.47224435267347253
2616.0,-0.47227363161111624
2615.0,-0.4722882703397566
2614.0,-0.47224435267347253
2613.0,-0.47217114669236304
2612.0,-0.4721125730215072
2611.0,-0.4720979283693536
2610.0,-0.47208328322335724
2609.0,-0.4720246977002813
2608.0,-0.47195145468098243
2607.0,-0.4719075029395614
2606.0,-0.4719075029395614
2605.0,-0.4719221540142664
2604.0,-0.47195145468098243
2603.0,-0.4719807533709961
2602.0,-0.4720246977002813
2601.0,-0.472010050084573
2600.0,-0.4718928513705807
2599.0,-0.47170233597955713
2598.0,-0.4715410653455514
2597.0,-0.4714970720499183
2596.0,-0.47157039173369864
2595.0,-0.4716143776031747
2594.0,-0.4715410653455514
2593.0,-0.47136506541801904
2592.0,-0.4711889941367522
2591.0,-0.47105689381509785
2590.0,-0.4709394375650504
2589.0,-0.4708219495400128
2588.0,-0.4707191214391644
2587.0,-0.4706603515913934
2586.0,-0.4706603515913934
2585.0,-0.47073381265855296
2584.0,-0.4708366372814248
2583.0,-0.47092475329996786
2582.0,-0.47092475329996786
2581.0,-0.4708219495400128
2580.0,-0.4706603515913934
2579.0,-0.4705427880318078
2578.0,-0.4705427880318078
2577.0,-0.4706897375093897
2576.0,-0.4708953832802161
2575.0,-0.47107157361303065
2574.0,-0.47111561002987035
2573.0,-0.47105689381509785
2572.0,-0.47095412133364833
2571.0,-0.4708366372814248
2570.0,-0.47073381265855296
2569.0,-0.4706162689858946
2568.0,-0.4704839943156851
2567.0,-0.4703957888150292
2566.0,-0.47038108615639906
2565.0,-0.4704104909759308
2564.0,-0.4704398938046821
2563.0,-0.4703957888150292
2562.0,-0.47029285975042745
2561.0,-0.47018990628555235
2560.0,-0.47016048652657183
2559.0,-0.4701751966551795
2558.0,-0.47021932405172917
2557.0,-0.4702781536067522
2556.0,-0.4703222705439174
2555.0,-0.4703222705439174
2554.0,-0.4702340321876006
2553.0,-0.4701016410291201
2552.0,-0.46996920949995946
2551.0,-0.4698956189750181
2550.0,-0.4698661792731422
2549.0,-0.46985145867380496
2548.0,-0.4698072938817903
2547.0,-0.4697336759130577
2546.0,-0.4696894991411047
2545.0,-0.4697336759130577
2544.0,-0.4698661792731422
2543.0,-0.469998642218747
2542.0,-0.4700280729429749
2541.0,-0.4700280729429749
2540.0,-0.4700722152901089
2539.0,-0.4701457758996961
2538.0,-0.4701751966551795
2537.0,-0.470116353151004
2536.0,-0.4700280729429749
2535.0,-0.4699250566813875
2534.0,-0.46991033807762417
2533.0,-0.4699839261086902
2532.0,-0.4701016410291201
2531.0,-0.4701457758996961
2530.0,-0.4700427875572135
2529.0,-0.46983673757548994
2528.0,-0.46964531787499864
2527.0,-0.4695127471026179
2526.0,-0.46943907918360717
2525.0,-0.4693948724333543
2524.0,-0.46943907918360717
2523.0,-0.4695127471026179
2522.0,-0.4695569418566703
2521.0,-0.4695274791870139
2520.0,-0.4695127471026179
2519.0,-0.46954221077168645
2518.0,-0.46961586120039156
2517.0,-0.4696894991411047
2516.0,-0.46976312459806024
2515.0,-0.4698072938817903
2514.0,-0.46977784819177293
2513.0,-0.469630589787438
2512.0,-0.4694538137671267
2511.0,-0.46930644543116795
2510.0,-0.4692622251774021
2509.0,-0.4693211845152474
2508.0,-0.46940960851675495
2507.0,-0.4693948724333543
2506.0,-0.4692622251774021
2505.0,-0.46908529912312025
2504.0,-0.4690263077508612
2503.0,-0.4691295373944082
2502.0,-0.4693211845152474
2501.0,-0.4695127471026179
2500.0,-0.469674772551798
2499.0,-0.46977784819177293
2498.0,-0.4697925712863382
2497.0,-0.4697336759130577
2496.0,-0.469674772551798
2495.0,-0.4696894991411047
2494.0,-0.4697925712863382
2493.0,-0.4698808993735355
2492.0,-0.4698661792731422
2491.0,-0.4697336759130577
2490.0,-0.4695569418566703
2489.0,-0.46946854785075365
2488.0,-0.4695127471026179
2487.0,-0.46966004546310725
2486.0,-0.46976312459806024
2485.0,-0.4697925712863382
2484.0,-0.46976312459806024
2483.0,-0.46976312459806024
2482.0,-0.4698072938817903
2481.0,-0.4698661792731422
2480.0,-0.4698956189750181
2479.0,-0.46985145867380496
2478.0,-0.4697336759130577
2477.0,-0.46954221077168645
2476.0,-0.4694538137671267
2475.0,-0.4695569418566703
2474.0,-0.469822015978163
2473.0,-0.4701457758996961
2472.0,-0.4704104909759308
2471.0,-0.47052809034894905
2470.0,-0.47052809034894905
2469.0,-0.4704398938046821
2468.0,-0.47036638300000666
2467.0,-0.47035167934581823
2466.0,-0.4703957888150292
2465.0,-0.47046929464292253
2464.0,-0.47052809034894905
2463.0,-0.4705721819053825
2462.0,-0.47064565788672796
2461.0,-0.470792572566896
2460.0,-0.4709834873815266
2459.0,-0.4711743183073378
2458.0,-0.47129171105893874
2457.0,-0.47136506541801904
2456.0,-0.47145307429738725
2455.0,-0.4715850541851898
2454.0,-0.4717609650018404
2453.0,-0.4719075029395614
2452.0,-0.4719807533709961
2451.0,-0.471936804594729
2450.0,-0.4718049315750368
2449.0,-0.47167301850009125
2448.0,-0.47164369904138637
2447.0,-0.47174630848826693
2446.0,-0.4719221540142664
2445.0,-0.47203934482198084
2444.0,-0.4720246977002813
2443.0,-0.4719075029395614
2442.0,-0.4717609650018404
2441.0,-0.47164369904138637
2440.0,-0.4715850541851898
2439.0,-0.47157039173369864
2438.0,-0.4715850541851898
2437.0,-0.47164369904138637
2436.0,-0.47174630848826693
2435.0,-0.4718049315750368
2434.0,-0.47177562102080417
2433.0,-0.47167301850009125
2432.0,-0.4715850541851898
2431.0,-0.47157039173369864
2430.0,-0.4716583590181602
2429.0,-0.471790276545192
2428.0,-0.4718928513705807
2427.0,-0.4718928513705807
2426.0,-0.47177562102080417
2425.0,-0.47164369904138637
2424.0,-0.4716143776031747
2423.0,-0.47167301850009125
2422.0,-0.47177562102080417
2421.0,-0.4718049315750368
2420.0,-0.4717316514800509
2419.0,-0.4715850541851898
2418.0,-0.47145307429738725
2417.0,-0.4714384073892992
2416.0,-0.47151173697696214
2415.0,-0.47155572878716345
2414.0,-0.4714677407101644
2413.0,-0.4712770387002183
2412.0,-0.47111561002987035
2411.0,-0.47108625291478123
2410.0,-0.47108625291478123
2409.0,-0.4710422135209491
2408.0,-0.47096880460579627
2407.0,-0.4709394375650504
2406.0,-0.4709981696608736
2405.0,-0.47107157361303065
2404.0,-0.47107157361303065
2403.0,-0.4709834873815266
2402.0,-0.4708806975254798
2401.0,-0.47086601127412475
2400.0,-0.4709834873815266
2399.0,-0.47111561002987035
2398.0,-0.4712036694702526
2397.0,-0.4712330186496456
2396.0,-0.4712330186496456
2395.0,-0.4712330186496456
2394.0,-0.4711889941367522
2393.0,-0.4711596419819757
2392.0,-0.4711596419819757
2391.0,-0.4711743183073378
2390.0,-0.471144965160633
2389.0,-0.47105689381509785
2388.0,-0.47102753273055153
2387.0,-0.47111561002987035
2386.0,-0.47132105428937443
2385.0,-0.4715410653455514
2384.0,-0.47167301850009125
2383.0,-0.47170233597955713
2382.0,-0.4716583590181602
2381.0,-0.47152640140882873
2380.0,-0.4713357251611572
2379.0,-0.4711596419819757
2378.0,-0.47102753273055153
2377.0,-0.4708953832802161
2376.0,-0.4707191214391644
2375.0,-0.47055748521727425
2374.0,-0.47052809034894905
2373.0,-0.4706603515913934
2372.0,-0.47085132452611766
2371.0,-0.4708953832802161
2370.0,-0.4706897375093897
2369.0,-0.4704545944725993
2368.0,-0.47046929464292253
2367.0,-0.4707631936064991
2366.0,-0.4709981696608736
2365.0,-0.47096880460579627
2364.0,-0.4708806975254798
2363.0,-0.4706603515913934
2362.0,-0.4702046154177246
2361.0,-0.46991033807762417
2360.0,-0.47016048652657183
2359.0,-0.47095412133364833
2358.0,-0.4713944036928326
2357.0,-0.4707191214391644
2356.0,-0.4691737711599395
2355.0,-0.46744530712542565
2354.0,-0.4663782075646714
2353.0,-0.46631884730735695
2352.0,-0.46748971275746465
2351.0,-0.4695274791870139
2350.0,-0.471144965160633
2349.0,-0.4713797348031652
2348.0,-0.469998642218747
2347.0,-0.4682586898399741
2346.0,-0.4676081055836332
2345.0,-0.46817003117233913
2344.0,-0.46923274250661207
2343.0,-0.46983673757548994
2342.0,-0.469998642218747
2341.0,-0.4695274791870139
2340.0,-0.46880501871203517
2339.0,-0.4682882387076095
2338.0,-0.4679630905351351
2337.0,-0.46759330824528167
2336.0,-0.46711952701597736
2335.0,-0.4668083269576213
2334.0,-0.46666005804016475
2333.0,-0.4665265727211785
2332.0,-0.46615556475221
2331.0,-0.4658585300084628
2330.0,-0.46566534842533036
2329.0,-0.4661704111578828
2328.0,-0.4669120850895956
2327.0,-0.4676376987478914
2326.0,-0.4677412589457326
2325.0,-0.4674008969525465
2324.0,-0.4671787779430314
2323.0,-0.4672084003754762
2322.0,-0.4674749113845986
2321.0,-0.4677116728375461
2320.0,-0.46794830528714115
2319.0,-0.4681848088738869
2318.0,-0.4683325582397755
2317.0,-0.46845072155224887
2316.0,-0.46855408808419075
2315.0,-0.46884928554111305
2314.0,-0.4690410563451577
2313.0,-0.4691295373944082
2312.0,-0.46884928554111305
2311.0,-0.46852455729970277
2310.0,-0.46822913896173324
2309.0,-0.4682439146521964
2308.0,-0.4684064140775641
2307.0,-0.4686721911461471
2306.0,-0.46889354785861537
2305.0,-0.46914428248351303
2304.0,-0.4694243441001613
2303.0,-0.4697336759130577
2302.0,-0.4698661792731422
2301.0,-0.46985145867380496
2300.0,-0.4697189508217008
2299.0,-0.469630589787438
2298.0,-0.46954221077168645
2297.0,-0.4694538137671267
2296.0,-0.4693211845152474
2295.0,-0.46921800042063166
2294.0,-0.46914428248351303
2293.0,-0.46914428248351303
2292.0,-0.4691737711599395
2291.0,-0.46918851474732914
2290.0,-0.46914428248351303
2289.0,-0.4690410563451577
2288.0,-0.468952557265534
2287.0,-0.46896730836455935
2286.0,-0.46908529912312025
2285.0,-0.46929170584685664
2284.0,-0.4694832814345218
2283.0,-0.4695864025277059
2282.0,-0.4695716724419987
2281.0,-0.4694980145184653
2280.0,-0.4694832814345218
2279.0,-0.46954221077168645
2278.0,-0.469630589787438
2277.0,-0.46966004546310725
2276.0,-0.4696011321138256
2275.0,-0.46954221077168645
2274.0,-0.4695274791870139
2273.0,-0.4695569418566703
2272.0,-0.4696011321138256
2271.0,-0.46961586120039156
2270.0,-0.4696011321138256
2269.0,-0.4695274791870139
2268.0,-0.4693801358499252
2267.0,-0.4692032578342151
2266.0,-0.46901155865568755
2265.0,-0.4689083009620356
2264.0,-0.4689230535643065
2263.0,-0.4690558044386104
2262.0,-0.46921800042063166
2261.0,-0.4692622251774021
2260.0,-0.4691737711599395
2259.0,-0.4689820589625704
2258.0,-0.46881977482307047
2257.0,-0.4687607473704616
2256.0,-0.4687755049857647
2255.0,-0.46884928554111305
2254.0,-0.46889354785861537
2253.0,-0.46884928554111305
2252.0,-0.4687607473704616
2251.0,-0.46868695177090514
2250.0,-0.46868695177090514
2249.0,-0.46879026209961117
2248.0,-0.4689378056654614
2247.0,-0.46907055203125303
2246.0,-0.46914428248351303
2245.0,-0.4692032578342151
2244.0,-0.46923274250661207
2243.0,-0.46923274250661207
2242.0,-0.46918851474732914
2241.0,-0.46915902707201207
2240.0,-0.4691295373944082
2239.0,-0.46911479180466387
2238.0,-0.46908529912312025
2237.0,-0.4690558044386104
2236.0,-0.46907055203125303
2235.0,-0.46908529912312025
2234.0,-0.46908529912312025
2233.0,-0.4690410563451577
2232.0,-0.4689968090596017
2231.0,-0.46901155865568755
2230.0,-0.4690558044386104
2229.0,-0.46910004571424624
2228.0,-0.46914428248351303
2227.0,-0.4691737711599395
2226.0,-0.46915902707201207
2225.0,-0.46910004571424624
2224.0,-0.46907055203125303
2223.0,-0.46911479180466387
2222.0,-0.46921800042063166
2221.0,-0.4693359230991292
2220.0,-0.4693801358499252
2219.0,-0.4693653987664339
2218.0,-0.4693359230991292
2217.0,-0.46929170584685664
2216.0,-0.4692622251774021
2215.0,-0.4692032578342151
2214.0,-0.46911479180466387
2213.0,-0.46901155865568755
2212.0,-0.46896730836455935
2211.0,-0.4689968090596017
2210.0,-0.4690558044386104
2209.0,-0.46907055203125303
2208.0,-0.4689968090596017
2207.0,-0.4689083009620356
2206.0,-0.46889354785861537
2205.0,-0.4689230535643065
2204.0,-0.468952557265534
2203.0,-0.468952557265534
2202.0,-0.4690410563451577
2201.0,-0.4691737711599395
2200.0,-0.46929170584685664
2199.0,-0.4692769657622793
2198.0,-0.46918851474732914
2197.0,-0.4691295373944082
2196.0,-0.4691295373944082
2195.0,-0.4691295373944082
2194.0,-0.46908529912312025
2193.0,-0.4689968090596017
2192.0,-0.4689083009620356
2191.0,-0.46881977482307047
2190.0,-0.4687755049857647
2189.0,-0.46880501871203517
2188.0,-0.46889354785861537
2187.0,-0.4689968090596017
2186.0,-0.46908529912312025
2185.0,-0.46914428248351303
2184.0,-0.4692032578342151
2183.0,-0.46923274250661207
2182.0,-0.46923274250661207
2181.0,-0.46918851474732914
2180.0,-0.46914428248351303
2179.0,-0.4690558044386104
2178.0,-0.4689230535643065
2177.0,-0.46879026209961117
2176.0,-0.4687312306353495
2175.0,-0.4687312306353495
2174.0,-0.46880501871203517
2173.0,-0.4689083009620356
2172.0,-0.4689968090596017
2171.0,-0.4690410563451577
2170.0,-0.46901155865568755
2169.0,-0.46896730836455935
2168.0,-0.468952557265534
2167.0,-0.4689378056654614
2166.0,-0.46889354785861537
2165.0,-0.4687607473704616
2164.0,-0.46861314362982176
2163.0,-0.46848025735761256
2162.0,-0.46845072155224887
2161.0,-0.4684950245070696
2160.0,-0.4685836168608062
2159.0,-0.46861314362982176
2158.0,-0.46853932294294776
2157.0,-0.4683916439147624
2156.0,-0.46821436276855
2155.0,-0.4680665731795979
2154.0,-0.4679630905351351
2153.0,-0.467933519535777
2152.0,-0.46794830528714115
2151.0,-0.467933519535777
2150.0,-0.46785958322719967
2149.0,-0.46783000517897566
2148.0,-0.4679039465228003
2147.0,-0.4680074432592365
2146.0,-0.4680370092257471
2145.0,-0.46794830528714115
2144.0,-0.46783000517897566
2143.0,-0.4677560512440331
2142.0,-0.467770843038517
2141.0,-0.4678004251161729
2140.0,-0.4678004251161729
2139.0,-0.4677116728375461
2138.0,-0.46757851040273657
2137.0,-0.4674749113845986
2136.0,-0.4674601095072637
2135.0,-0.46750451362589596
2134.0,-0.4675193139899272
2133.0,-0.4674305042390494
2132.0,-0.4672972555517876
2131.0,-0.4671491534899572
2130.0,-0.46704545198775627
2129.0,-0.46700100090548746
2128.0,-0.4670306354658469
2127.0,-0.4671047130210617
2126.0,-0.4671787779430314
2125.0,-0.4672084003754762
2124.0,-0.4671935894118153
2123.0,-0.46713434050559766
2122.0,-0.4670306354658469
2121.0,-0.4669565452730775
2120.0,-0.46689726401692466
2119.0,-0.46682315106568684
2118.0,-0.4667193716815987
2117.0,-0.46660073629688137
2116.0,-0.46658590459488725
2115.0,-0.46666005804016475
2114.0,-0.46674902546481345
2113.0,-0.46682315106568684
2112.0,-0.46683797466776733
2111.0,-0.4667786772233953
2110.0,-0.4666748872099853
2109.0,-0.46661556749237176
2108.0,-0.46666005804016475
2107.0,-0.46679350234353567
2106.0,-0.46689726401692466
2105.0,-0.4669269056564884
2104.0,-0.46686762035410956
2103.0,-0.46674902546481345
2102.0,-0.4666303981813926
2101.0,-0.46660073629688137
2100.0,-0.46668971587347485
2099.0,-0.46679350234353567
2098.0,-0.46682315106568684
2097.0,-0.4668083269576213
2096.0,-0.4667786772233953
2095.0,-0.4668083269576213
2094.0,-0.46685279776389654
2093.0,-0.46686762035410956
2092.0,-0.46685279776389654
2091.0,-0.4668083269576213
2090.0,-0.4667341988263023
2089.0,-0.4666748872099853
2088.0,-0.46664522836397904
2087.0,-0.46666005804016475
2086.0,-0.46668971587347485
2085.0,-0.46674902546481345
2084.0,-0.46686762035410956
2083.0,-0.4669861828669677
2082.0,-0.46701581843843565
2081.0,-0.4669565452730775
2080.0,-0.46686762035410956
2079.0,-0.46679350234353567
2078.0,-0.46674902546481345
2077.0,-0.46668971587347485
2076.0,-0.46664522836397904
2075.0,-0.46664522836397904
2074.0,-0.46668971587347485
2073.0,-0.46683797466776733
2072.0,-0.4670306354658469
2071.0,-0.4672380207875668
2070.0,-0.46741570084810125
2069.0,-0.4675341138495921
2068.0,-0.4676376987478914
2067.0,-0.46766728989578565
2066.0,-0.4676229024178249
2065.0,-0.46754891320492575
2064.0,-0.4674601095072637
2063.0,-0.46737128764747915
2062.0,-0.4672972555517876
2061.0,-0.4672972555517876
2060.0,-0.4674008969525465
2059.0,-0.4675637120559628
2058.0,-0.4676968790275913
2057.0,-0.4677412589457326
2056.0,-0.467770843038517
2055.0,-0.4677856343292186
2054.0,-0.4678152153994142
2053.0,-0.46791873328100797
2052.0,-0.4681256950504178
2051.0,-0.46836210208209295
2050.0,-0.46852455729970277
2049.0,-0.468598380496247
2048.0,-0.468598380496247
2047.0,-0.46856885272346505
2046.0,-0.46852455729970277
2045.0,-0.4684950245070696
2044.0,-0.46853932294294776
2043.0,-0.4685836168608062
2042.0,-0.4685836168608062
2041.0,-0.46853932294294776
2040.0,-0.46855408808419075
2039.0,-0.4686721911461471
2038.0,-0.46886404014818783
2037.0,-0.4690263077508612
2036.0,-0.46907055203125303
2035.0,-0.46896730836455935
2034.0,-0.46880501871203517
2033.0,-0.4687017118940022
2032.0,-0.4687312306353495
2031.0,-0.4688345304327517
2030.0,-0.4689083009620356
2029.0,-0.468952557265534
2028.0,-0.4689820589625704
2027.0,-0.4690263077508612
2026.0,-0.4690558044386104
2025.0,-0.46908529912312025
2024.0,-0.46915902707201207
2023.0,-0.4692769657622793
2022.0,-0.4693359230991292
2021.0,-0.46929170584685664
2020.0,-0.46918851474732914
2019.0,-0.46910004571424624
2018.0,-0.4690410563451577
2017.0,-0.4689820589625704
2016.0,-0.468952557265534
2015.0,-0.468952557265534
2014.0,-0.4689968090596017
2013.0,-0.4690410563451577
2012.0,-0.4690410563451577
2011.0,-0.4689820589625704
2010.0,-0.46889354785861537
2009.0,-0.46880501871203517
2008.0,-0.4687459892536676
2007.0,-0.4687312306353495
2006.0,-0.4687312306353495
2005.0,-0.46871647151547213
2004.0,-0.46865743001969395
2003.0,-0.4685836168608062
2002.0,-0.46852455729970277
2001.0,-0.46848025735761256
2000.0,-0.4684654897060172
1999.0,-0.4684359528962734
1998.0,-0.46837687324961674
1997.0,-0.4683030123875356
1996.0,-0.4681848088738869
1995.0,-0.4680665731795979
1994.0,-0.4679630905351351
1993.0,-0.4679630905351351
1992.0,-0.4680370092257471
1991.0,-0.4680813544018618
1990.0,-0.4680370092257471
1989.0,-0.4679630905351351
1988.0,-0.4679039465228003
1987.0,-0.46785958322719967
1986.0,-0.4678152153994142
1985.0,-0.4678004251161729
1984.0,-0.4678447944548929
1983.0,-0.46788915926111896
1982.0,-0.46785958322719967
1981.0,-0.4678004251161729
1980.0,-0.467770843038517
1979.0,-0.4677560512440331
1978.0,-0.4677116728375461
1977.0,-0.4676376987478914
1976.0,-0.46759330824528167
1975.0,-0.46750451362589596
1974.0,-0.46737128764747915
1973.0,-0.4672676391795787
1972.0,-0.4672380207875668
1971.0,-0.46725283023606545
1970.0,-0.4672232108340486
1969.0,-0.4671491534899572
1968.0,-0.4670750835152062
1967.0,-0.4669269056564884
1966.0,-0.46666005804016475
1965.0,-0.46636336826096425
1964.0,-0.46611102248979197
1963.0,-0.46587338657160116
1962.0,-0.4656207558542049
1961.0,-0.4653828514484184
1960.0,-0.4652192165391904
1959.0,-0.4651448166483223
1958.0,-0.46517457813415897
1957.0,-0.46527872727641517
1956.0,-0.46541259662715007
1955.0,-0.46553155697354986
1954.0,-0.4656207558542049
1953.0,-0.4657247980653265
1952.0,-0.46581395726947905
1951.0,-0.46582881535743637
1950.0,-0.4657247980653265
1949.0,-0.4656058906462861
1948.0,-0.465650484743692
1947.0,-0.46581395726947905
1946.0,-0.4659922207843077
1945.0,-0.4661258704181992
1944.0,-0.46627432178929196
1943.0,-0.4664820684959099
1942.0,-0.46670454403066763
1941.0,-0.4669120850895956
1940.0,-0.46716396596909027
1939.0,-0.46738609255235053
1938.0,-0.4675341138495921
1937.0,-0.46765249457386693
1936.0,-0.4677116728375461
1935.0,-0.4677412589457326
1934.0,-0.4677856343292186
1933.0,-0.4679630905351351
1932.0,-0.4682586898399741
1931.0,-0.46855408808419075
1930.0,-0.4687459892536676
1929.0,-0.46884928554111305
1928.0,-0.4689968090596017
1927.0,-0.46915902707201207
1926.0,-0.4692622251774021
1925.0,-0.4692769657622793
1924.0,-0.4692622251774021
1923.0,-0.46929170584685664
1922.0,-0.4692769657622793
1921.0,-0.4692032578342151
1920.0,-0.46924748409219097
1919.0,-0.4695274791870139
1918.0,-0.4700280729429749
1917.0,-0.4704398938046821
1916.0,-0.47064565788672796
1915.0,-0.47067504479893607
1914.0,-0.47064565788672796
1913.0,-0.47064565788672796
1912.0,-0.47074850338098617
1911.0,-0.4709834873815266
1910.0,-0.4712476924956053
1909.0,-0.4713797348031652
1908.0,-0.47136506541801904
1907.0,-0.4712770387002183
1906.0,-0.4712476924956053
1905.0,-0.47129171105893874
1904.0,-0.47136506541801904
1903.0,-0.4714677407101644
1902.0,-0.4715850541851898
1901.0,-0.4716876774872123
1900.0,-0.47184889369765015
1899.0,-0.47203934482198084
1898.0,-0.47217114669236304
1897.0,-0.47224435267347253
1896.0,-0.47231754631684186
1895.0,-0.47247852892389597
1894.0,-0.4726540782840134
1893.0,-0.47277107178087263
1892.0,-0.47282955671270566
1891.0,-0.47293188639570527
1890.0,-0.47309264148464214
1889.0,-0.47318030100493624
1888.0,-0.47316569231354766
1887.0,-0.47318030100493624
1886.0,-0.47323873085695034
1885.0,-0.4733409641859354
1884.0,-0.47344317345476217
1883.0,-0.47353076225813195
1882.0,-0.4735745500363442
1881.0,-0.47360373943595224
1880.0,-0.47372047741982914
1879.0,-0.4738371840330684
1878.0,-0.4738955255809669
1877.0,-0.4738955255809669
1876.0,-0.4739101097434313
1875.0,-0.4739830232103359
1874.0,-0.47402676541532873
1873.0,-0.4739246934161572
1872.0,-0.4736912958655157
1871.0,-0.47350156795307274
1870.0,-0.47363292687384106
1869.0,-0.4739830232103359
1868.0,-0.474274554725548
1867.0,-0.4743328375521676
1866.0,-0.47425998279668224
1865.0,-0.4741725409543931
1864.0,-0.4741725409543931
1863.0,-0.47423083747206896
1862.0,-0.47423083747206896
1861.0,-0.4741433897608056
1860.0,-0.47405592443789235
1859.0,-0.4740850815028179
1858.0,-0.47420169019139324
1857.0,-0.47431826757877316
1856.0,-0.47436197603263075
1855.0,-0.47436197603263075
1854.0,-0.4743036971165604
1853.0,-0.4741725409543931
1852.0,-0.4740850815028179
1851.0,-0.47395385929252587
1850.0,-0.473764246075135
1849.0,-0.47354535867475356
1848.0,-0.4733409641859354
1847.0,-0.47309264148464214
1846.0,-0.47285879622540117
1845.0,-0.4729611190199483
1844.0,-0.47350156795307274
1843.0,-0.4740413451713317
1842.0,-0.4740705032150436
1841.0,-0.4736475198572232
1840.0,-0.4731510831307393
1839.0,-0.47285879622540117
1838.0,-0.4727272029128171
1837.0,-0.47263945188064715
1836.0,-0.4726101975960444
1835.0,-0.4726833296130404
1834.0,-0.4726540782840134
1833.0,-0.47239072762662904
1832.0,-0.4720539914497044
1831.0,-0.4719221540142664
1830.0,-0.4720686375834853
1829.0,-0.47224435267347253
1828.0,-0.47231754631684186
1827.0,-0.47231754631684186
1826.0,-0.47241999669807155
1825.0,-0.4726979545387682
1824.0,-0.47290265180366386
1823.0,-0.4728441767151277
1822.0,-0.4726687041947999
1821.0,-0.4725809413407265
1820.0,-0.4725809413407265
1819.0,-0.47255168311442786
1818.0,-0.4725224229168825
1817.0,-0.4725663124739663
1816.0,-0.4726540782840134
1815.0,-0.4727272029128171
1814.0,-0.4727125789720157
1813.0,-0.4727125789720157
1812.0,-0.47277107178087263
1811.0,-0.47290265180366386
1810.0,-0.47309264148464214
1809.0,-0.47322412413091186
1808.0,-0.4732679428352964
1807.0,-0.47323873085695034
1806.0,-0.47323873085695034
1805.0,-0.4732825480876697
1804.0,-0.4733847711037713
1803.0,-0.4735745500363442
1802.0,-0.4738663557866918
1801.0,-0.47424541037886714
1800.0,-0.4745950135226429
1799.0,-0.47479881880063113
1798.0,-0.4748715832276931
1797.0,-0.474813372661389
1796.0,-0.47460957421471006
1795.0,-0.474274554725548
1794.0,-0.47409965930124853
1793.0,-0.47455132851713344
1792.0,-0.47552591503928054
1791.0,-0.476280806025541
1790.0,-0.47636782445600145
1789.0,-0.47597610413976543
1788.0,-0.47555497358413135
1787.0,-0.4754387277371035
1786.0,-0.4757147608357353
1785.0,-0.47616475432282535
1784.0,-0.4765418090274287
1783.0,-0.47667225173017735
1782.0,-0.47657079968074934
1781.0,-0.47664326784856614
1780.0,-0.4769185366568798
1779.0,-0.47704886627347376
1778.0,-0.4769185366568798
1777.0,-0.4767302136910794
1776.0,-0.47657079968074934
1775.0,-0.4762082773455507
1774.0,-0.4757583289758749
1773.0,-0.4760631836378324
1772.0,-0.47729493777812726
1771.0,-0.47826339369815996
1770.0,-0.4783355800058411
1769.0,-0.4781189850774563
1768.0,-0.47826339369815996
1767.0,-0.47858092374227734
1766.0,-0.47843662068343296
1765.0,-0.47778666290923955
1764.0,-0.47713573096112327
1763.0,-0.4769475021740748
1762.0,-0.47720810493131127
1761.0,-0.4774540862533301
1760.0,-0.4771646819965252
1759.0,-0.4761937701559349
1758.0,-0.47491523603277264
1757.0,-0.47402676541532873
1756.0,-0.47341397326098367
1755.0,-0.4720979283693536
1754.0,-0.469822015978163
1753.0,-0.4672972555517876
1752.0,-0.46505551995182115
1751.0,-0.462457896455275
1750.0,-0.4585320948855509
1749.0,-0.45342537127166516
1748.0,-0.44768506900495497
1747.0,-0.4412079500447832
1746.0,-0.43389778398306555
1745.0,-0.42603929939216734
1744.0,-0.41728896875373733
1743.0,-0.4072208929273966
1742.0,-0.39618190520003704
1741.0,-0.3846759233595658
1740.0,-0.37191713968252227
1739.0,-0.35726765464420884
1738.0,-0.34263977379443666
1737.0,-0.33045435972199755
1736.0,-0.3201462861110538
1735.0,-0.30788095598825294
1734.0,-0.2877121754434868
1733.0,-0.2619524328441316
1732.0,-0.24129738710999327
1731.0,-0.22466252884102955
1730.0,-0.20634005778006648
1729.0,-0.18511700114259133
1728.0,-0.1631017150439753
1727.0,-0.14151248287742346
1726.0,-0.11925588927793651
1725.0,-0.09499490094461205
1724.0,-0.06774020292624039
1723.0,-0.037585842826617366
1722.0,-0.006765452451992449
1721.0,0.02140867317992523
1720.0,0.04595055323640551
1719.0,0.07175781684269089
1718.0,0.10907622851098608
1717.0,0.15870311250971825
1716.0,0.1969527895088714
1715.0,0.21119550695535172
1714.0,0.20999647960951062
1713.0,0.19592875111433883
1712.0,0.16774662980299215
1711.0,0.12901118623942476
1710.0,0.08496970974083906
1709.0,0.03943409718180235
1708.0,-0.0054379230508221355
1707.0,-0.04925679723222709
1706.0,-0.09310635697790648
1705.0,-0.13468699255685346
1704.0,-0.16849748352303262
1703.0,-0.1935976102980943
1702.0,-0.21412826182340972
1701.0,-0.23514953647324388
1700.0,-0.2577265605586323
1699.0,-0.27664559363087626
1698.0,-0.2895443614976472
1697.0,-0.29907126002740947
1696.0,-0.30818010103066573
1695.0,-0.3176664423565012
1694.0,-0.3261719452891745
1693.0,-0.3324384599156054
1692.0,-0.3371796254098345
1691.0,-0.3417707500289273
1690.0,-0.346548558548474
1689.0,-0.35067434823328103
1688.0,-0.3538393238045425
1687.0,-0.35680955819397875
1686.0,-0.3605366145832942
1685.0,-0.36466354089476605
1684.0,-0.36659103868916976
1683.0,-0.3667030568692864
1682.0,-0.36856578536033213
1681.0,-0.3711787318162867
1680.0,-0.37364747220921757
1679.0,-0.3762118502826728
1678.0,-0.3791241460703918
1677.0,-0.3822332349705566
1676.0,-0.38521290708445477
1675.0,-0.387585570715276
1674.0,-0.3894318975821971
1673.0,-0.3913762391696496
1672.0,-0.39334702906647934
1671.0,-0.39534386935682875
1670.0,-0.39727937885359266
1669.0,-0.39885973840426114
1668.0,-0.4004689112174882
1667.0,-0.40231297873399985
1666.0,-0.404234866653423
1665.0,-0.40625055422655354
1664.0,-0.40837566113607604
1663.0,-0.4104060270683574
1662.0,-0.4118216564350874
1661.0,-0.41293070852959524
1660.0,-0.4141206260438204
1659.0,-0.4153406725324058
1658.0,-0.4166072267925043
1657.0,-0.41793646337046386
1656.0,-0.4192781831871528
1655.0,-0.42074765476947595
1654.0,-0.4226226651023879
1653.0,-0.4229179807676622
1652.0,-0.4222285982486711
1651.0,-0.4232458739368079
1650.0,-0.423688137388436
1649.0,-0.42363901923997105
1648.0,-0.4239172819911228
1647.0,-0.4241953665669005
1646.0,-0.4241463057551562
1645.0,-0.42475100210401706
1644.0,-0.42571350928506746
1643.0,-0.42641365613168825
1642.0,-0.4269177138808158
1641.0,-0.42743741864426266
1640.0,-0.428037553035308
1639.0,-0.4286530452620103
1638.0,-0.42931615213166197
1637.0,-0.42999438415170665
1636.0,-0.43033310338003217
1635.0,-0.430155711970019
1634.0,-0.43060711130139895
1633.0,-0.4311707014832571
1632.0,-0.4312833318072613
1631.0,-0.4314120164207895
1630.0,-0.43186211252997
1629.0,-0.4324401229427899
1628.0,-0.4328570969973282
1627.0,-0.4331455370003394
1626.0,-0.43352982591549516
1625.0,-0.4340416827542719
1624.0,-0.43448906315118974
1623.0,-0.43453696944233133
1622.0,-0.4342334736447713
1621.0,-0.4341056224624227
1620.0,-0.4341535710666009
1619.0,-0.4342334736447713
1618.0,-0.43429738512450866
1617.0,-0.43399372179470763
1616.0,-0.4332576563973487
1615.0,-0.43288915534840955
1614.0,-0.4329532649520842
1613.0,-0.4331455370003394
1612.0,-0.4335938410214668
1611.0,-0.4344092075875001
1610.0,-0.4352708716105713
1609.0,-0.43606718721359883
1608.0,-0.43697320951926777
1607.0,-0.43803577209307987
1606.0,-0.4391273424428461
1605.0,-0.4402319362267888
1604.0,-0.4413651664097724
1603.0,-0.4424013694827025
1602.0,-0.4432786374283153
1601.0,-0.4440135505867988
1600.0,-0.44473162508875097
1599.0,-0.4454329422951666
1598.0,-0.44608648481333546
1597.0,-0.44667693894050586
1596.0,-0.4471890512687997
1595.0,-0.44760760356731266
1594.0,-0.4478709296990484
1593.0,-0.44802575287344615
1592.0,-0.4481495716859465
1591.0,-0.4483042955758241
1590.0,-0.44833523374017537
1589.0,-0.4482114678567779
1588.0,-0.44794834818543006
1587.0,-0.4475146267992627
1586.0,-0.4467545705446496
1585.0,-0.4456042032735974
1584.0,-0.4442009888641594
1583.0,-0.4424954472826017
1582.0,-0.44056276726192056
1581.0,-0.43874797690222955
1580.0,-0.43740171915630466
1579.0,-0.4365919567947696
1578.0,-0.43643300266009755
1577.0,-0.4372271921907287
1576.0,-0.43882703872216755
1575.0,-0.4406572441446186
1574.0,-0.44219746431021356
1573.0,-0.44324733692510154
1572.0,-0.4442478357960753
1571.0,-0.4457131523799558
1570.0,-0.4474526312269931
1569.0,-0.44862903643091867
1568.0,-0.44933952617496775
1567.0,-0.4498485102659995
1566.0,-0.45026450855985134
1565.0,-0.45071087814691957
1564.0,-0.4512028920571125
1563.0,-0.45155618307642786
1562.0,-0.4518785023335039
1561.0,-0.45272153986876074
1560.0,-0.4548448600085102
1559.0,-0.4562597242664723
1558.0,-0.45444848070169197
1557.0,-0.45452473559309725
1556.0,-0.45498198398435985
1555.0,-0.454905809342959
1554.0,-0.4548905728112369
1553.0,-0.4551952019275767
1552.0,-0.4555452614563782
1551.0,-0.45572778926036905
1550.0,-0.45583422839656773
1549.0,-0.45575820310413695
1548.0,-0.45572778926036905
1547.0,-0.4558646347875279
1546.0,-0.4562141553579888
1545.0,-0.45660892714091306
1544.0,-0.456654454648449
1543.0,-0.4564115861051774
1542.0,-0.4565785728175107
1541.0,-0.4571397846595264
1540.0,-0.45763971382968016
1539.0,-0.4585623129819938
1538.0,-0.4599350168515248
1537.0,-0.46023612931030655
1536.0,-0.4596336954754583
1535.0,-0.45904551679460637
1534.0,-0.4587435774200479
1533.0,-0.4581693136328351
1532.0,-0.4574882809044376
1531.0,-0.45730649166699733
1530.0,-0.45742769294648467
1529.0,-0.45751857171399823
1528.0,-0.45742769294648467
1527.0,-0.4572458783407436
1526.0,-0.45709430800384654
1525.0,-0.45710946741819436
1524.0,-0.45723072368726925
1523.0,-0.4576094314685548
1522.0,-0.4583507421396633
1521.0,-0.4589549570218652
1520.0,-0.45930200031606505
1519.0,-0.4595131083632289
1518.0,-0.45940756716694775
1517.0,-0.4590606082543216
1516.0,-0.45851698504883
1515.0,-0.45813906817827155
1514.0,-0.45783649772544166
1513.0,-0.4571700997846193
1512.0,-0.455803819876607
1511.0,-0.45370047335977226
1510.0,-0.45092620282274165
1509.0,-0.44740612873937113
1508.0,-0.4421503956717503
1507.0,-0.43330569870812274
1506.0,-0.4250122318754439
1505.0,-0.4243261683092956
1504.0,-0.4273075507460411
1503.0,-0.4309453531684033
1502.0,-0.43519115968517763
1501.0,-0.440027009696617
1500.0,-0.4448096051729751
1499.0,-0.44899987174592804
1498.0,-0.4526755981756092
1497.0,-0.4557734092273469
1496.0,-0.45795755120363824
1495.0,-0.4593623273729621
1494.0,-0.4600554868888862
1493.0,-0.4601759235180283
1492.0,-0.4600253725122907
1491.0,-0.4600253725122907
1490.0,-0.45995007743384075
1489.0,-0.4591964077981059
1488.0,-0.4580331924965062
1487.0,-0.45710946741819436
1486.0,-0.4562901008826912
1485.0,-0.4552104277758051
1484.0,-0.4539906699682299
1483.0,-0.4527521649644579
1482.0,-0.45143333183784407
1481.0,-0.449740593779286
1480.0,-0.4478089849718141
1479.0,-0.44613312881036293
1478.0,-0.4447940102762318
1477.0,-0.4434351061149422
1476.0,-0.4417579585081639
1475.0,-0.44013736676675697
1474.0,-0.43896931373798687
1473.0,-0.4379882502194996
1472.0,-0.4370367191134883
1471.0,-0.4368779277106576
1470.0,-0.43740171915630466
1469.0,-0.43790903553949834
1468.0,-0.4382416401442919
1467.0,-0.4386530837157112
1466.0,-0.4390483352782444
1465.0,-0.438953507704396
1464.0,-0.43808328876723523
1463.0,-0.43694145123904127
1462.0,-0.43603536260786857
1461.0,-0.4353505689080448
1460.0,-0.4348721655969414
1459.0,-0.4345848704495938
1458.0,-0.4341216059186892
1457.0,-0.4325684652973578
1456.0,-0.43097755294464823
1455.0,-0.4306554476996647
1454.0,-0.43052653868064095
1453.0,-0.4303169798819737
1452.0,-0.43039759138696665
1451.0,-0.4308809464528913
1450.0,-0.43165319734657626
1449.0,-0.4325042988610277
1448.0,-0.4332576563973487
1447.0,-0.4339777336311075
1446.0,-0.4346487302419235
1445.0,-0.43533463061852595
1444.0,-0.43586028557836176
1443.0,-0.43622627527058233
1442.0,-0.4366237406415272
1441.0,-0.4371795817525119
1440.0,-0.4378298064082191
1439.0,-0.43863726616861154
1438.0,-0.4399639359209049
1437.0,-0.44183647431513284
1436.0,-0.4437166077695318
1435.0,-0.44519929570564765
1434.0,-0.4464128876388558
1433.0,-0.44766957702279253
1432.0,-0.44926235530888636
1431.0,-0.4510953116339169
1430.0,-0.4529511754638862
1429.0,-0.45457048210200357
1428.0,-0.4557734092273469
1427.0,-0.4565633948601846
1426.0,-0.4570488265856314
1425.0,-0.45733679515805425
1424.0,-0.45712462630340855
1423.0,-0.4561989646592375
1422.0,-0.45499721730945986
1421.0,-0.45373102950429356
1420.0,-0.45160224333297894
1419.0,-0.4469563477954597
1418.0,-0.43938006882606295
1417.0,-0.4303653485804704
1416.0,-0.42028588494191776
1415.0,-0.4087824944041438
1414.0,-0.39588528574766135
1413.0,-0.38176468201712455
1412.0,-0.36683370823900274
1411.0,-0.35297317900593184
1410.0,-0.3428961983852741
1409.0,-0.3379781078592594
1408.0,-0.3379781078592594
1407.0,-0.3425608434508316
1406.0,-0.35111960973767165
1405.0,-0.3622939379642309
1404.0,-0.3738678703270679
1403.0,-0.38404860202861846
1402.0,-0.3924683170438543
1401.0,-0.39967372148103797
1400.0,-0.40633575845705616
1399.0,-0.41249414725063493
1398.0,-0.4176045354408977
1397.0,-0.4214393902200495
1396.0,-0.4243752088079158
1395.0,-0.426933964071905
1394.0,-0.42931615213166197
1393.0,-0.43137984884193603
1392.0,-0.4328731264686758
1391.0,-0.4338178196143132
1390.0,-0.4345529370317922
1389.0,-0.43528681224012766
1388.0,-0.43587620458875165
1387.0,-0.4360990094874291
1386.0,-0.43605127520224274
1385.0,-0.4359717063993407
1384.0,-0.4359557908892371
1383.0,-0.43598762132621305
1382.0,-0.43605127520224274
1381.0,-0.43598762132621305
1380.0,-0.43562143037485823
1379.0,-0.43496788842781253
1378.0,-0.43420151437756216
1377.0,-0.4334337855608572
1376.0,-0.43268073375352234
1375.0,-0.4317496322269334
1374.0,-0.4305748840468646
1373.0,-0.42951004081313826
1372.0,-0.4289604645754137
1371.0,-0.4289928118480266
1370.0,-0.4294615767572276
1369.0,-0.4303653485804704
1368.0,-0.4316853446860116
1367.0,-0.43341777677003
1366.0,-0.43546212055982103
1365.0,-0.43775056282038793
1364.0,-0.4401531297735608
1363.0,-0.44255815449592273
1362.0,-0.44473162508875097
1361.0,-0.44644396083186466
1360.0,-0.44759210882153777
1359.0,-0.4482888256671216
1358.0,-0.44858265974424905
1357.0,-0.4485053542594506
1356.0,-0.4479638302267448
1355.0,-0.44697186524010313
1354.0,-0.44551079656673087
1353.0,-0.44351331932348526
1352.0,-0.4408618735775467
1351.0,-0.4373699921970249
1350.0,-0.43277694076485984
1349.0,-0.4268364538035079
1348.0,-0.41937740513912747
1347.0,-0.4103216177306823
1346.0,-0.39953527886529683
1345.0,-0.38692680679556934
1344.0,-0.37291200297010674
1343.0,-0.35844883882021383
1342.0,-0.34462802569410433
1341.0,-0.33219599532464006
1340.0,-0.322239974931152
1339.0,-0.3167459276709317
1338.0,-0.31754103245614873
1337.0,-0.32442651014173274
1336.0,-0.3357386470050501
1335.0,-0.34972422263439684
1334.0,-0.36498226163226155
1333.0,-0.3802293369380374
1332.0,-0.3944516808262164
1331.0,-0.406846633097667
1330.0,-0.41695654539034255
1329.0,-0.42463666465019756
1328.0,-0.4300911880339493
1327.0,-0.4337058447569433
1326.0,-0.4358921230156536
1325.0,-0.4370684704281609
1324.0,-0.43746516612236386
1323.0,-0.4372271921907287
1322.0,-0.43649659129550544
1321.0,-0.43547805417132457
1320.0,-0.4342494523964757
1319.0,-0.43277694076485984
1318.0,-0.43110632818114514
1317.0,-0.42931615213166197
1316.0,-0.4273887227332511
1315.0,-0.42524067910019836
1314.0,-0.42275394130134814
1313.0,-0.41995574848975803
1312.0,-0.416939917541042
1311.0,-0.41378576771973785
1310.0,-0.41054104789391355
1309.0,-0.4071698764837053
1308.0,-0.40365233491132946
1307.0,-0.4000887847320356
1306.0,-0.3966351669836934
1305.0,-0.3932592378268378
1304.0,-0.3896975482063856
1303.0,-0.38567775651871106
1302.0,-0.38106090338289045
1301.0,-0.37577331660498414
1300.0,-0.3698278925253282
1299.0,-0.36331106563662496
1298.0,-0.3564656684754004
1297.0,-0.3494135268147316
1296.0,-0.3421659764127618
1295.0,-0.3348556896172914
1294.0,-0.3276653870500419
1293.0,-0.32062395505353747
1292.0,-0.31365634661803155
1291.0,-0.30678946749567837
1290.0,-0.3001387781657119
1289.0,-0.29369395074576543
1288.0,-0.2872865392628121
1287.0,-0.28103336724772765
1286.0,-0.2750808984568587
1285.0,-0.2693728266229267
1284.0,-0.26368340055719264
1283.0,-0.2579664095081773
1282.0,-0.252294640144449
1281.0,-0.24654781774182055
1280.0,-0.24037449695823332
1279.0,-0.233732009366046
1278.0,-0.22665145045481028
1277.0,-0.2189029508628293
1276.0,-0.2101043970648857
1275.0,-0.2002210261918762
1274.0,-0.18929375588569197
1273.0,-0.17704565746213907
1272.0,-0.16301220977482966
1271.0,-0.14724335954336842
1270.0,-0.1303659372652075
1269.0,-0.11260500153457453
1268.0,-0.09384176691212831
1267.0,-0.07434094236507738
1266.0,-0.05488105486277162
1265.0,-0.035709837827861524
1264.0,-0.016908043972074793
1263.0,0.0010870956412141197
1262.0,0.017502630802287644
1261.0,0.03235843591698884
1260.0,0.046192002334692894
1259.0,0.05908526241971446
1258.0,0.07068327324650436
1257.0,0.08196966321511989
1256.0,0.09452793807529569
1255.0,0.10896458468468917
1254.0,0.1248808345374317
1253.0,0.1423660148499919
1252.0,0.16209605540705763
1251.0,0.18362611124763806
1250.0,0.2054422487452383
1249.0,0.22687207596666514
1248.0,0.24756739073852607
1247.0,0.2657603955645449
1246.0,0.27901425584626094
1245.0,0.2864254622279303
1244.0,0.2882771081727653
1243.0,0.2833290244398645
1242.0,0.2703493316640797
1241.0,0.2503409679051003
1240.0,0.22548303427145044
1239.0,0.19667947642124606
1238.0,0.16449967213268124
1237.0,0.13106182166708868
1236.0,0.09832376867362447
1235.0,0.06691783763020887
1234.0,0.036873558918095295
1233.0,0.008906891951112605
1232.0,-0.016448318259037364
1231.0,-0.03941411917613724
1230.0,-0.06050897560529789
1229.0,-0.07979606117236004
1228.0,-0.09708369606652134
1227.0,-0.11270552103089271
1226.0,-0.1271696135998961
1225.0,-0.14072796284418265
1224.0,-0.15332696149090674
1223.0,-0.1652740103112289
1222.0,-0.17690118639134722
1221.0,-0.18828147952266683
1220.0,-0.19931627425310428
1219.0,-0.20999729608236928
1218.0,-0.22047420612921798
1217.0,-0.23067878114647478
1216.0,-0.24047436346787787
1215.0,-0.24993175663419498
1214.0,-0.2591158441850663
1213.0,-0.26792229153111746
1212.0,-0.27609399175921734
1211.0,-0.28364038880036757
1210.0,-0.2907022432878543
1209.0,-0.29738841188062715
1208.0,-0.30367114466402123
1207.0,-0.3095450032954359
1206.0,-0.3150882730883171
1205.0,-0.320333262618385
1204.0,-0.325289837207551
1203.0,-0.3300077008727591
1202.0,-0.33453416860915564
1201.0,-0.33885474625232304
1200.0,-0.34291591708408564
1199.0,-0.34678314325812254
1198.0,-0.35057749181728104
1197.0,-0.35426214450448335
1196.0,-0.35780149050286836
1195.0,-0.36117990181360105
1194.0,-0.36436335461573055
1193.0,-0.3673559210260189
1192.0,-0.3700872834351996
1191.0,-0.37256221828549974
1190.0,-0.37483995965497563
1189.0,-0.3769417571467586
1188.0,-0.3787793310606915
1187.0,-0.38030171030518467
1186.0,-0.3814400028196183
1185.0,-0.3821791969602546
1184.0,-0.38248532348655484
1183.0,-0.3823412908239616
1182.0,-0.3818367999983434
1181.0,-0.38104284277190903
1180.0,-0.379957829344701
1179.0,-0.3787248615505674
1178.0,-0.37750659240663387
1177.0,-0.3765039602529274
1176.0,-0.3758647143118061
1175.0,-0.37566361396088555
1174.0,-0.37602918172818
1173.0,-0.37710581726905357
1172.0,-0.3789064000232618
1171.0,-0.3814039123652906
1170.0,-0.38438926032479914
1169.0,-0.3876567286201422
1168.0,-0.39086448437261057
1167.0,-0.39378571926105943
1166.0,-0.39623422878579984
1165.0,-0.3981136917305026
1164.0,-0.39946604100434424
1163.0,-0.40039982205381985
1162.0,-0.4010557257718439
1161.0,-0.40143500722987024
1160.0,-0.401555618262893
1159.0,-0.4013833065315806
1158.0,-0.40098672990516393
1157.0,-0.40041709537516645
1156.0,-0.3996218106717362
1155.0,-0.39844349830348413
1154.0,-0.39682678926878356
1153.0,-0.3947842790470375
1152.0,-0.39238034797755983
1151.0,-0.3896621375103
1150.0,-0.38653463509047903
1149.0,-0.38295310001504124
1148.0,-0.3788519464488811
1147.0,-0.3743083312998161
1146.0,-0.3693272006954351
1145.0,-0.3638375288361404
1144.0,-0.35780149050286836
1143.0,-0.35129371830977707
1142.0,-0.34447087190845505
1141.0,-0.3372994914067964
1140.0,-0.32956058217531004
1139.0,-0.3210596292066805
1138.0,-0.31179622918240657
1137.0,-0.3016375827268716
1136.0,-0.29045756406803847
1135.0,-0.2782046716841684
1134.0,-0.2649122245927584
1133.0,-0.25068830364572126
1132.0,-0.2356041893398375
1131.0,-0.21995108575531708
1130.0,-0.2040928384025391
1129.0,-0.1881125371650243
1128.0,-0.17193112335596705
1127.0,-0.15563963375977652
1126.0,-0.13956426617584983
1125.0,-0.12388429346000773
1124.0,-0.10866648255397182
1123.0,-0.09443618801795628
1122.0,-0.08177922676753324
1121.0,-0.07088714401854102
1120.0,-0.06182930729469893
1119.0,-0.05511063785414638
1118.0,-0.05153839051532749
1117.0,-0.05099807917338417
1116.0,-0.05257852504465799
1115.0,-0.055454784941239676
1114.0,-0.05861579701056163
1113.0,-0.0606223043099563
1112.0,-0.0600175425316003
1111.0,-0.05591322391614861
1110.0,-0.0482086670241455
1109.0,-0.036788533107720234
1108.0,-0.021850577434324947
1107.0,-0.004192356259714369
1106.0,0.014753209197138295
1105.0,0.03414006319292828
1104.0,0.053351266093323746
1103.0,0.07145053299833615
1102.0,0.0872466963286771
1101.0,0.10017949757290379
1100.0,0.1106422631110684
1099.0,0.11810202642698875
1098.0,0.12176553132495593
1097.0,0.12170805075020397
1096.0,0.11850122038501709
1095.0,0.11227020271196975
1094.0,0.10281292341984649
1093.0,0.09097914578884403
1092.0,0.07784567476894111
1091.0,0.06378795567975115
1090.0,0.04871106272232795
1089.0,0.0329671178412978
1088.0,0.017321806616515723
1087.0,0.0018278780605593958
1086.0,-0.013847995871831387
1085.0,-0.029789470831855347
1084.0,-0.04594853810533417
1083.0,-0.06250677520868297
1082.0,-0.07968762761133652
1081.0,-0.09722259251990106
1080.0,-0.11467769101087777
1079.0,-0.13187518797259257
1078.0,-0.1486334984893496
1077.0,-0.16467994075425985
1076.0,-0.17969538332450652
1075.0,-0.19368102954128164
1074.0,-0.20674494405374721
1073.0,-0.21885047765767807
1072.0,-0.22986094865499052
1071.0,-0.23984982069019134
1070.0,-0.24897809589265352
1069.0,-0.25724646490737113
1068.0,-0.2646761821488246
1067.0,-0.2713536221024846
1066.0,-0.2775633760559191
1065.0,-0.28334646535604646
1064.0,-0.2886739197645145
1063.0,-0.2934067554627844
1062.0,-0.2976073323822397
1061.0,-0.30131219537224574
1060.0,-0.30459822634363753
1059.0,-0.30751743120313124
1058.0,-0.30994938425901575
1057.0,-0.3117538610557542
1056.0,-0.3128963521917054
1055.0,-0.3134875738647547
1054.0,-0.31371961949509286
1053.0,-0.31363525361033373
1052.0,-0.3132554041850373
1051.0,-0.31264272488340517
1050.0,-0.3120080078387235
1049.0,-0.3113935650005213
1048.0,-0.3107782516125348
1047.0,-0.31018332757168965
1046.0,-0.30969402956584213
1045.0,-0.30941722577814
1044.0,-0.30948111923610355
1043.0,-0.3099919287811801
1042.0,-0.3110329697910408
1041.0,-0.3124947071896713
1040.0,-0.3142675986287222
1039.0,-0.3162849376343124
1038.0,-0.31852244214125625
1037.0,-0.320914453045575
1036.0,-0.32335524575628405
1035.0,-0.32586443661534625
1034.0,-0.32835921354780195
1033.0,-0.3306166672944384
1032.0,-0.3323172445409792
1031.0,-0.3330642009519784
1030.0,-0.33235765342511225
1029.0,-0.3296012483565187
1028.0,-0.32405598681495107
1027.0,-0.315025199312605
1026.0,-0.3020493903762502
1025.0,-0.2851295546300623
1024.0,-0.2648178230095364
1023.0,-0.2419696119130732
1022.0,-0.21748394421390627
1021.0,-0.1922607186420433
1020.0,-0.16796681339562047
1019.0,-0.14779994920119988
1018.0,-0.13592733500546839
1017.0,-0.13564141638666838
1016.0,-0.1474598958471045
1015.0,-0.16885090370955425
1014.0,-0.19526295834206175
1013.0,-0.22188349178524058
1012.0,-0.2454633133641959
1011.0,-0.2647942194071553
1010.0,-0.2801912478721422
1009.0,-0.2923225399149154
1008.0,-0.3019410577952044
1007.0,-0.30973659910928975
1006.0,-0.31613815630981845
1005.0,-0.32137055766081524
1004.0,-0.3255567100511332
1003.0,-0.32895013206978385
1002.0,-0.3318927241022167
1001.0,-0.33449396174138624
1000.0,-0.33669983031566186
999.0,-0.33867557775320245
998.0,-0.3405630833333708
997.0,-0.34234371100984173
996.0,-0.3438416874711292
995.0,-0.344981413927258
994.0,-0.3459027964765453
993.0,-0.34668541502757355
992.0,-0.34729097585610313
991.0,-0.3476812126349009
990.0,-0.34793467863525995
989.0,-0.348129551869214
988.0,-0.34830486304816066
987.0,-0.34836328438518605
986.0,-0.34824643385123366
985.0,-0.34785670485132547
984.0,-0.3470566653665226
983.0,-0.3459027964765453
982.0,-0.34447087190845505
981.0,-0.34283703691642486
980.0,-0.34091979340016243
979.0,-0.33869548901478375
978.0,-0.3362995957634176
977.0,-0.333830010445646
976.0,-0.3313665517857811
975.0,-0.329031575010839
974.0,-0.3269704503249202
973.0,-0.32541302966731367
972.0,-0.3244882333076564
971.0,-0.32434419893904076
970.0,-0.32500225216503775
969.0,-0.32639731334711275
968.0,-0.3282776444097677
967.0,-0.330494942302217
966.0,-0.3329633359395867
965.0,-0.3355982965330031
964.0,-0.33829709023269094
963.0,-0.3409990225314421
962.0,-0.3437236138426245
961.0,-0.3465094487747611
960.0,-0.3492580955127895
959.0,-0.35187357662090024
958.0,-0.3543389767880809
957.0,-0.3566376473726929
956.0,-0.35881017245856306
955.0,-0.36083945668362194
954.0,-0.3626332452723564
953.0,-0.3641756327706194
952.0,-0.3654505440975746
951.0,-0.36659103868916976
950.0,-0.36763541979051073
949.0,-0.3686215439654932
948.0,-0.3695498016648924
947.0,-0.37055009649920745
946.0,-0.3716588397154088
945.0,-0.3727647595437418
944.0,-0.37372095067684974
943.0,-0.3744733890639753
942.0,-0.3750963750953966
941.0,-0.37570018458798815
940.0,-0.3763214145472835
939.0,-0.3769964507406729
938.0,-0.37770684136962407
937.0,-0.37834338357477026
936.0,-0.37879748604603813
935.0,-0.3791241460703918
934.0,-0.379486813717274
933.0,-0.379957829344701
932.0,-0.3805368404887486
931.0,-0.38118730663416533
930.0,-0.3818548276225924
929.0,-0.3825213241896801
928.0,-0.3830609769309934
927.0,-0.3835281341697607
926.0,-0.3839589106791115
925.0,-0.38440718230899273
924.0,-0.38485499171731785
923.0,-0.3853023398563167
922.0,-0.38576709362677564
921.0,-0.38621350371676
920.0,-0.3865524687618458
919.0,-0.3867842398736805
918.0,-0.3869624412146173
917.0,-0.3871761863498824
916.0,-0.38740762492818304
915.0,-0.3876033612845555
914.0,-0.38763894023692913
913.0,-0.38742542278823144
912.0,-0.3868555291847242
911.0,-0.3859457127301833
910.0,-0.38485499171731785
909.0,-0.38374357583531316
908.0,-0.38262930839691744
907.0,-0.38149413287829814
906.0,-0.380283618094059
905.0,-0.3789608467708918
904.0,-0.3774519630245745
903.0,-0.37584643630915604
902.0,-0.3743083312998161
901.0,-0.37307759217489744
900.0,-0.372175286115064
899.0,-0.37151117072999984
898.0,-0.37101241688384023
897.0,-0.3707165885395458
896.0,-0.37069809257557695
895.0,-0.3709569644164534
894.0,-0.37141885211011205
893.0,-0.3718064585074159
892.0,-0.371935583802963
891.0,-0.3717142026426181
890.0,-0.3712711014875847
889.0,-0.3706610982843239
888.0,-0.36971667754856075
887.0,-0.36811945861502915
886.0,-0.3655441400294692
885.0,-0.3618033589256875
884.0,-0.3567522621475572
883.0,-0.35032556399670334
882.0,-0.3425608434508316
881.0,-0.33370918289727225
880.0,-0.3241177626594265
879.0,-0.31393046253346224
878.0,-0.3029366997048659
877.0,-0.2905910425493379
876.0,-0.27630092457077327
875.0,-0.2604053322398241
874.0,-0.2449694601361978
873.0,-0.23363058016446336
872.0,-0.23009111974874674
871.0,-0.23565467695694897
870.0,-0.24824308305461962
869.0,-0.26373072736832226
868.0,-0.27850209449388297
867.0,-0.2909467847343059
866.0,-0.30094312808055257
865.0,-0.3089483863095803
864.0,-0.3152774394718101
863.0,-0.3200839427156934
862.0,-0.3235202277543374
861.0,-0.3258234190027447
860.0,-0.32725673542553313
859.0,-0.32811446015838897
858.0,-0.32856306939171764
857.0,-0.32860382908033525
856.0,-0.32835921354780195
855.0,-0.3279512145681931
854.0,-0.3274406762427553
853.0,-0.32662256451565463
852.0,-0.32537196939670476
851.0,-0.32368514710198903
850.0,-0.32180548385753927
849.0,-0.3200631595949801
848.0,-0.31877265982547964
847.0,-0.3183346842261363
846.0,-0.31893939156066997
845.0,-0.3203748020236681
844.0,-0.3222813323716083
843.0,-0.32442651014173274
842.0,-0.32682723697427285
841.0,-0.32943856077945144
840.0,-0.33205449510819474
839.0,-0.334574371754929
838.0,-0.33697977520065514
837.0,-0.339411687131677
836.0,-0.3418695903493214
835.0,-0.34435296923855674
834.0,-0.34678314325812254
833.0,-0.34912204747635345
832.0,-0.3513710774980656
831.0,-0.3534930731473098
830.0,-0.3554323624705491
829.0,-0.35711500951038344
828.0,-0.35852493404698915
827.0,-0.35983548233988794
826.0,-0.36117990181360105
825.0,-0.3626520879077546
824.0,-0.3641380786626014
823.0,-0.3654131000761778
822.0,-0.36623612371829317
821.0,-0.3665723661831195
820.0,-0.3666283812929678
819.0,-0.3667030568692864
818.0,-0.3669456638525732
817.0,-0.36733728137787347
816.0,-0.36787750663788055
815.0,-0.36852860897939
814.0,-0.36914161269128476
813.0,-0.3695868907363442
812.0,-0.36988348933547943
811.0,-0.37030949525869916
810.0,-0.37103089946632606
809.0,-0.37191713968252227
808.0,-0.3727647595437418
807.0,-0.373482100188979
806.0,-0.3741248601797271
805.0,-0.37469336854539304
804.0,-0.3752611336843068
803.0,-0.3759560927879364
802.0,-0.3769417571467586
801.0,-0.37812524561937266
800.0,-0.37903343181796734
799.0,-0.3790878626431682
798.0,-0.37767043933432287
797.0,-0.3745650607227651
796.0,-0.3701428470511021
795.0,-0.3654505440975746
794.0,-0.3617089532383164
793.0,-0.35970270827411355
792.0,-0.3596457926745429
791.0,-0.36135002435226626
790.0,-0.36436335461573055
789.0,-0.3680078052211746
788.0,-0.3716219271760215
787.0,-0.374949870524949
786.0,-0.37801613554043767
785.0,-0.3808802634660098
784.0,-0.3836179145190153
783.0,-0.38626704210501384
782.0,-0.38881141347352344
781.0,-0.39114690641599115
780.0,-0.3931363002692172
779.0,-0.3947842790470375
778.0,-0.3963039837621629
777.0,-0.3977488770479587
776.0,-0.3991370103386007
775.0,-0.40053798939194607
774.0,-0.4020377277162517
773.0,-0.40365233491132946
772.0,-0.4052097143846334
771.0,-0.40655721125617283
770.0,-0.4077477122261737
769.0,-0.40891802084677975
768.0,-0.4101865286571087
767.0,-0.4115523682653044
766.0,-0.41298105275754304
765.0,-0.41448867223695185
764.0,-0.4160743909223945
763.0,-0.4176543408059521
762.0,-0.4191127628751419
761.0,-0.4203023851786898
760.0,-0.4212253993401829
759.0,-0.4219821247652562
758.0,-0.42275394130134814
757.0,-0.4236062707211681
756.0,-0.42450595640440314
755.0,-0.42527330461062984
754.0,-0.42581127198118907
753.0,-0.4262834816887793
752.0,-0.4269502136549761
751.0,-0.4277781372241729
750.0,-0.4283292107216887
749.0,-0.42819960926387735
748.0,-0.4274861090957853
747.0,-0.4265437915680961
746.0,-0.4253059276703186
745.0,-0.42318031510478615
744.0,-0.41960883490810286
743.0,-0.4144050527588834
742.0,-0.40739090447073156
741.0,-0.3980442268420141
740.0,-0.38576709362677564
739.0,-0.37021692081589075
738.0,-0.3515064229290443
737.0,-0.3300077008727591
736.0,-0.30614613168491456
735.0,-0.28039623806014236
734.0,-0.252950069184275
733.0,-0.22380733759277893
732.0,-0.19279039712065282
731.0,-0.1599279528959845
730.0,-0.12489530498849222
729.0,-0.08707120590653528
728.0,-0.046456142412591994
727.0,-0.004794110388711914
726.0,0.03371743783253667
725.0,0.06363708040225546
724.0,0.08055578953476306
723.0,0.08380934001946239
722.0,0.07649693305789551
721.0,0.06333548699992453
720.0,0.048128442871635535
719.0,0.03217132066984485
718.0,0.015247721884586563
717.0,-0.002900068611387585
716.0,-0.021478732257527167
715.0,-0.03969166164902571
714.0,-0.056942945672877165
713.0,-0.07313156494099315
712.0,-0.08831331558809685
711.0,-0.10229646615360144
710.0,-0.11501107130045307
709.0,-0.12668326338829017
708.0,-0.13770216714696204
707.0,-0.1484175466913764
706.0,-0.15866398081398936
705.0,-0.1682027468426308
704.0,-0.17710343243653615
703.0,-0.18568378031850408
702.0,-0.19426451602551698
701.0,-0.20286958771521046
700.0,-0.21154768118124778
699.0,-0.22036963245139463
698.0,-0.22927217882129014
697.0,-0.23784522686161402
696.0,-0.24571002954529142
695.0,-0.2526588895006192
694.0,-0.2587809065412605
693.0,-0.26406187071787945
692.0,-0.2686481646716019
691.0,-0.2729317793870707
690.0,-0.27742583227586115
689.0,-0.2820780545771542
688.0,-0.2863666373995941
687.0,-0.28972269821379815
686.0,-0.2920122662363456
685.0,-0.29349514347202454
684.0,-0.2945103147339778
683.0,-0.29543514235314783
682.0,-0.2963141033532408
681.0,-0.29688447553854713
680.0,-0.29708173766498636
679.0,-0.29727891023311326
678.0,-0.2981541513231858
677.0,-0.300073495267144
676.0,-0.30282858826025505
675.0,-0.3055878020723406
674.0,-0.3077740685170869
673.0,-0.30982172568023003
672.0,-0.3128963521917054
671.0,-0.3178544893314692
670.0,-0.3246939138617746
669.0,-0.3315285188686907
668.0,-0.3323172445409792
667.0,-0.32770623107169383
666.0,-0.3256593098016407
665.0,-0.3265406685165617
664.0,-0.3282776444097677
663.0,-0.3295809157418983
662.0,-0.32992644079545164
661.0,-0.3296012483565187
660.0,-0.3291537107928213
659.0,-0.3289704942369305
658.0,-0.3293978793610428
657.0,-0.33067751699893533
656.0,-0.3327817198629148
655.0,-0.3349962802432249
654.0,-0.3366198129074385
653.0,-0.3377985772622498
652.0,-0.33933216786350595
651.0,-0.3415136598702513
650.0,-0.3438220107621617
649.0,-0.3453149056523137
648.0,-0.3454717543676309
647.0,-0.3446869437056228
646.0,-0.3439400576457108
645.0,-0.34419571587143505
644.0,-0.34564814148786605
643.0,-0.3477397179200521
642.0,-0.3495689025086759
641.0,-0.3507518178164162
640.0,-0.3516803765278955
639.0,-0.3530502396425894
638.0,-0.3552024046580531
637.0,-0.3577824362314206
636.0,-0.36008195510597085
635.0,-0.36110427040030446
634.0,-0.36011986158080544
633.0,-0.35709592509573396
632.0,-0.3532043199074204
631.0,-0.3502092403099484
630.0,-0.34935524659520345
629.0,-0.3504418565350611
628.0,-0.35239478797410895
627.0,-0.35416608503141855
626.0,-0.3553940446231709
625.0,-0.35644655550447
624.0,-0.35782054393836393
623.0,-0.35962681915035155
622.0,-0.36161452702484587
621.0,-0.3633863137494191
620.0,-0.36485105200769263
619.0,-0.36603051398319364
618.0,-0.3669643203159181
617.0,-0.36759816367983333
616.0,-0.3680822440064455
615.0,-0.36871445906862776
614.0,-0.3696054340843502
613.0,-0.37030949525869916
612.0,-0.37047607954429385
611.0,-0.37038354060765366
610.0,-0.370772071705626
609.0,-0.3717142026426181
608.0,-0.37247012284186853
607.0,-0.37228587334527674
606.0,-0.3714557819130171
605.0,-0.3709569644164534
604.0,-0.3712711014875847
603.0,-0.37241485620005355
602.0,-0.374253298101757
601.0,-0.3767229138657848
600.0,-0.3792692494736474
