cm-1,A
4000.0,0.053842605077627725
3999.0,0.053842605077627725
3998.0,0.05379344615721715
3997.0,0.05379344615721715
3996.0,0.05379344615721715
3995.0,0.05374429280060267
3994.0,0.05374429280060267
3993.0,0.05374429280060267
3992.0,0.05374429280060267
3991.0,0.05379344615721715
3990.0,0.05389176956309405
3989.0,0.05389176956309405
3988.0,0.053842605077627725
3987.0,0.05379344615721715
3986.0,0.05379344615721715
3985.0,0.053842605077627725
3984.0,0.05399011523423525
3983.0,0.054186873412661596
3982.0,0.05438372077326825
3981.0,0.05443294655761144
3980.0,0.05438372077326825
3979.0,0.05423607688882637
3978.0,0.054088483180726676
3977.0,0.05394093961487645
3976.0,0.05379344615721715
3975.0,0.05369514500652506
3974.0,0.053646002773725554
3973.0,0.05354773498692689
3972.0,0.0534986094304124
3971.0,0.053449489430144714
3970.0,0.05354773498692689
3969.0,0.053646002773725554
3968.0,0.053842605077627725
3967.0,0.05403929642243144
3966.0,0.05413767551038262
3965.0,0.05413767551038262
3964.0,0.05399011523423525
3963.0,0.05374429280060267
3962.0,0.05354773498692689
3961.0,0.05340037498486727
3960.0,0.05340037498486727
3959.0,0.053449489430144714
3958.0,0.0534986094304124
3957.0,0.05354773498692689
3956.0,0.0534986094304124
3955.0,0.0534986094304124
3954.0,0.053449489430144714
3953.0,0.053351266093323746
3952.0,0.05310580489767336
3951.0,0.052762392129333646
3950.0,0.0525172634430815
3949.0,0.052419250695677544
3948.0,0.0525172634430815
3947.0,0.05266432405126009
3946.0,0.05271335532220167
3945.0,0.05271335532220167
3944.0,0.05281143447390635
3943.0,0.05300765925162776
3942.0,0.05310580489767336
3941.0,0.05310580489767336
3940.0,0.053203972728539606
3939.0,0.05354773498692689
3938.0,0.05394093961487645
3937.0,0.05403929642243144
3936.0,0.05379344615721715
3935.0,0.05340037498486727
3934.0,0.05305672930217464
3933.0,0.05286048235717078
3932.0,0.052762392129333646
3931.0,0.05271335532220167
3930.0,0.05261529831525902
3929.0,0.052419250695677544
3928.0,0.05207638016827354
3927.0,0.0518316382728683
3926.0,0.0518316382728683
3925.0,0.05192951848105887
3924.0,0.052027420754219955
3923.0,0.052027420754219955
3922.0,0.05212534510230182
3921.0,0.052419250695677544
3920.0,0.05261529831525902
3919.0,0.05266432405126009
3918.0,0.05281143447390635
3917.0,0.05325306496641513
3916.0,0.05369514500652506
3915.0,0.05379344615721715
3914.0,0.05379344615721715
3913.0,0.05389176956309405
3912.0,0.054186873412661596
3911.0,0.05448217792216048
3910.0,0.05453141486818014
3909.0,0.05423607688882637
3908.0,0.0534986094304124
3907.0,0.052419250695677544
3906.0,0.05129369109514803
3905.0,0.05056119896349576
3904.0,0.05021979163799939
3903.0,0.05012229596312534
3902.0,0.05012229596312534
3901.0,0.050414848673348
3900.0,0.051244819831730126
3899.0,0.05212534510230182
3898.0,0.05261529831525902
3897.0,0.05266432405126009
3896.0,0.05256627811294923
3895.0,0.052419250695677544
3894.0,0.052027420754219955
3893.0,0.05178270644002936
3892.0,0.05212534510230182
3891.0,0.05281143447390635
3890.0,0.05271335532220167
3889.0,0.05178270644002936
3888.0,0.05129369109514803
3887.0,0.05192951848105887
3886.0,0.052762392129333646
3885.0,0.05290953578037816
3884.0,0.05207638016827354
3883.0,0.051049389754451946
3882.0,0.05085404758005607
3881.0,0.05144033789103841
3880.0,0.05197846685889629
3879.0,0.05197846685889629
3878.0,0.05144033789103841
3877.0,0.051244819831730126
3876.0,0.051684859310652254
3875.0,0.052027420754219955
3874.0,0.0515870342213991
3873.0,0.050317309204795935
3872.0,0.049245818406496555
3871.0,0.04934311749548925
3870.0,0.050317309204795935
3869.0,0.05075640943173498
3868.0,0.04997609347667353
3867.0,0.04939177521576932
3866.0,0.050073556332087765
3865.0,0.050902874887084115
3864.0,0.05100054597304693
3863.0,0.050902874887084115
3862.0,0.05114709380028648
3861.0,0.05148923116234294
3860.0,0.05153812993871654
3859.0,0.051244819831730126
3858.0,0.05065879322950262
3857.0,0.04997609347667353
3856.0,0.049294465226138895
3855.0,0.04885683989244738
3854.0,0.04909991063361274
3853.0,0.05026854768429301
3852.0,0.05036607620073763
3851.0,0.04875964967565971
3850.0,0.048468209457651845
3849.0,0.050171041064686284
3848.0,0.05163594401163074
3847.0,0.05222329153526162
3846.0,0.05227227303668425
3845.0,0.05217431555754937
3844.0,0.05178270644002936
3843.0,0.05100054597304693
3842.0,0.04982994019179987
3841.0,0.0486139051197072
3840.0,0.047934409814949674
3839.0,0.047982909952573705
3838.0,0.048565334467987054
3837.0,0.049148541111453614
3836.0,0.04934311749548925
3835.0,0.04948910701400333
3834.0,0.05021979163799939
3833.0,0.05139145012356372
3832.0,0.05237025261564554
3831.0,0.05256627811294923
3830.0,0.05207638016827354
3829.0,0.05153812993871654
3828.0,0.05153812993871654
3827.0,0.0518316382728683
3826.0,0.0518316382728683
3825.0,0.05100054597304693
3824.0,0.049927370249842395
3823.0,0.04948910701400333
3822.0,0.04987865248862655
3821.0,0.050414848673348
3820.0,0.05026854768429301
3819.0,0.04905128560059957
3818.0,0.048565334467987054
3817.0,0.04982994019179987
3816.0,0.05139145012356372
3815.0,0.05188057561946402
3814.0,0.05144033789103841
3813.0,0.0515870342213991
3812.0,0.05271335532220167
3811.0,0.053596866100945384
3810.0,0.0534986094304124
3809.0,0.05305672930217464
3808.0,0.05305672930217464
3807.0,0.0531548860393769
3806.0,0.05232126006306337
3805.0,0.05026854768429301
3804.0,0.04875964967565971
3803.0,0.048954051864180226
3802.0,0.049927370249842395
3801.0,0.050463626623857394
3800.0,0.04963514562387683
3799.0,0.048225491918274965
3798.0,0.04837110616336182
3797.0,0.050073556332087765
3796.0,0.05173378011970464
3795.0,0.05256627811294923
3794.0,0.05290953578037816
3793.0,0.053351266093323746
3792.0,0.05394093961487645
3791.0,0.05423607688882637
3790.0,0.054186873412661596
3789.0,0.05399011523423525
3788.0,0.05369514500652506
3787.0,0.053351266093323746
3786.0,0.053203972728539606
3785.0,0.0531548860393769
3784.0,0.05300765925162776
3783.0,0.05256627811294923
3782.0,0.05212534510230182
3781.0,0.05212534510230182
3780.0,0.05256627811294923
3779.0,0.05310580489767336
3778.0,0.053351266093323746
3777.0,0.053449489430144714
3776.0,0.05369514500652506
3775.0,0.05413767551038262
3774.0,0.054088483180726676
3773.0,0.0534986094304124
3772.0,0.05290953578037816
3771.0,0.05281143447390635
3770.0,0.05300765925162776
3769.0,0.05290953578037816
3768.0,0.052419250695677544
3767.0,0.05217431555754937
3766.0,0.0525172634430815
3765.0,0.05290953578037816
3764.0,0.05266432405126009
3763.0,0.052027420754219955
3762.0,0.05163594401163074
3761.0,0.05148923116234294
3760.0,0.05114709380028648
3759.0,0.05075640943173498
3758.0,0.05065879322950262
3757.0,0.05056119896349576
3756.0,0.050073556332087765
3755.0,0.04934311749548925
3754.0,0.0486139051197072
3753.0,0.04774046340917959
3752.0,0.04667530361081473
3751.0,0.04609540658654021
3750.0,0.04643358574299339
3749.0,0.04643358574299339
3748.0,0.0454680573730859
3747.0,0.04522701031028298
3746.0,0.04696554274964315
3745.0,0.04968383607539972
3744.0,0.05163594401163074
3743.0,0.051049389754451946
3742.0,0.048808242065293994
3741.0,0.04803141550708934
3740.0,0.04837110616336182
3739.0,0.047934409814949674
3738.0,0.04672366333269573
3737.0,0.045612749855485024
3736.0,0.04508244626504121
3735.0,0.04503426894157925
3734.0,0.045516282844447975
3733.0,0.04672366333269573
3732.0,0.04832256265669943
3731.0,0.049294465226138895
3730.0,0.04934311749548925
3729.0,0.049245818406496555
3728.0,0.04953778109440221
3727.0,0.049927370249842395
3726.0,0.05002482217034632
3725.0,0.04997609347667353
3724.0,0.050073556332087765
3723.0,0.050414848673348
3722.0,0.050707598587974356
3721.0,0.05075640943173498
3720.0,0.050805225762017736
3719.0,0.050902874887084115
3718.0,0.051049389754451946
3717.0,0.05095170768433621
3716.0,0.05036607620073763
3715.0,0.04958646063061889
3714.0,0.048905443158337114
3713.0,0.048225491918274965
3712.0,0.047643522676209304
3711.0,0.047643522676209304
3710.0,0.04807992647970649
3709.0,0.048565334467987054
3708.0,0.049148541111453614
3707.0,0.04987865248862655
3706.0,0.050414848673348
3705.0,0.05051241005349638
3704.0,0.050463626623857394
3703.0,0.05051241005349638
3702.0,0.05075640943173498
3701.0,0.051098239029786274
3700.0,0.05114709380028648
3699.0,0.05095170768433621
3698.0,0.050902874887084115
3697.0,0.05100054597304693
3696.0,0.05075640943173498
3695.0,0.05002482217034632
3694.0,0.04909991063361274
3693.0,0.048128442871635535
3692.0,0.047062332249019345
3691.0,0.04628861957244457
3690.0,0.04638525830935958
3689.0,0.04754660357696672
3688.0,0.04851676924770687
3687.0,0.04832256265669943
3686.0,0.047982909952573705
3685.0,0.0486139051197072
3684.0,0.04973253198641148
3683.0,0.05021979163799939
3682.0,0.049927370249842395
3681.0,0.049294465226138895
3680.0,0.0486139051197072
3679.0,0.04740126547022694
3678.0,0.045902279520810385
3677.0,0.044937930324967956
3676.0,0.044986096961949995
3675.0,0.04570923829887308
3674.0,0.045323413081356456
3673.0,0.04402377775167454
3672.0,0.04421607108308856
3671.0,0.045612749855485024
3670.0,0.04667530361081473
3669.0,0.04725597598510167
3668.0,0.04744970610179822
3667.0,0.04778894189133087
3666.0,0.048905443158337114
3665.0,0.050073556332087765
3664.0,0.05075640943173498
3663.0,0.05100054597304693
3662.0,0.051049389754451946
3661.0,0.050805225762017736
3660.0,0.050317309204795935
3659.0,0.04973253198641148
3658.0,0.04953778109440221
3657.0,0.04982994019179987
3656.0,0.05026854768429301
3655.0,0.050073556332087765
3654.0,0.04905128560059957
3653.0,0.04807992647970649
3652.0,0.047352830241056854
3651.0,0.04624030826677128
3650.0,0.04503426894157925
3649.0,0.04513062893352182
3648.0,0.04653025674659861
3647.0,0.047643522676209304
3646.0,0.04827402457540786
3645.0,0.04919717703534143
3644.0,0.050414848673348
3643.0,0.0515870342213991
3642.0,0.05232126006306337
3641.0,0.05266432405126009
3640.0,0.05286048235717078
3639.0,0.05300765925162776
3638.0,0.05310580489767336
3637.0,0.05295859474477971
3636.0,0.05286048235717078
3635.0,0.05286048235717078
3634.0,0.05271335532220167
3633.0,0.05192951848105887
3632.0,0.05075640943173498
3631.0,0.04987865248862655
3630.0,0.04982994019179987
3629.0,0.05075640943173498
3628.0,0.05232126006306337
3627.0,0.05305672930217464
3626.0,0.0531548860393769
3625.0,0.053842605077627725
3624.0,0.05443294655761144
3623.0,0.054186873412661596
3622.0,0.0534986094304124
3621.0,0.05295859474477971
3620.0,0.052762392129333646
3619.0,0.05281143447390635
3618.0,0.05286048235717078
3617.0,0.05271335532220167
3616.0,0.05271335532220167
3615.0,0.053203972728539606
3614.0,0.05389176956309405
3613.0,0.05443294655761144
3612.0,0.05458065739693696
3611.0,0.05443294655761144
3610.0,0.05443294655761144
3609.0,0.054679159207724926
3608.0,0.05522131887649295
3607.0,0.055961719945581745
3606.0,0.0567528748621382
3605.0,0.05744631966579017
3604.0,0.05784307153250956
3603.0,0.05799194697768684
3602.0,0.05784307153250956
3601.0,0.05764465029232335
3600.0,0.05744631966579017
3599.0,0.0571489934456626
3598.0,0.0567528748621382
3597.0,0.05650548409389744
3596.0,0.05650548409389744
3595.0,0.05685187064143715
3594.0,0.05749589383191922
3593.0,0.05809122563440061
3592.0,0.05843887976392925
3591.0,0.05848856736559682
3590.0,0.05848856736559682
3589.0,0.058538260652670315
3588.0,0.058786812414678646
3587.0,0.05933412752417122
3586.0,0.0595831353183347
3585.0,0.05943371350990989
3584.0,0.05953332233647113
3583.0,0.060081579630943294
3582.0,0.060730413661268745
3581.0,0.06128018521761747
3580.0,0.061580354206806964
3579.0,0.06173051653708872
3578.0,0.061830653609679764
3577.0,0.06198090252378963
3576.0,0.06218131530164395
3575.0,0.06248210798265341
3574.0,0.06283329628496737
3573.0,0.0630843190547461
3572.0,0.06313454102437754
3571.0,0.06283329628496737
3570.0,0.06218131530164395
3569.0,0.06128018521761747
3568.0,0.060430831344098435
3567.0,0.0601813371786204
3566.0,0.06083032037482261
3565.0,0.06173051653708872
3564.0,0.0627329277885873
3563.0,0.06383825908884244
3562.0,0.06489597884855036
3561.0,0.06565307326174441
3560.0,0.06605739725873905
3559.0,0.06636088747507496
3558.0,0.0666645899223488
3557.0,0.06701917807680191
3556.0,0.06727263269847072
3555.0,0.06742477650170953
3554.0,0.06752623532284674
3553.0,0.06777998612288094
3552.0,0.0680846829187538
3551.0,0.06833876031551878
3550.0,0.06833876031551878
3549.0,0.06823711151882228
3548.0,0.06813548650796819
3547.0,0.0680846829187538
3546.0,0.06823711151882228
3545.0,0.06859298644342648
3544.0,0.0691018855898955
3543.0,0.06961138175567827
3542.0,0.07017251876930874
3541.0,0.07073438174693436
3540.0,0.07109230975604719
3539.0,0.07124579782334672
3538.0,0.07129697256940304
3537.0,0.07139934015547578
3536.0,0.07155293679081787
3535.0,0.07175781684269089
3534.0,0.07196279359311708
3533.0,0.07221915065262552
3532.0,0.07247565912497134
3531.0,0.0725783049495814
3530.0,0.07247565912497134
3529.0,0.07221915065262552
3528.0,0.07206531825882068
3527.0,0.0720140529005715
3526.0,0.07216786713341827
3525.0,0.07242434530888953
3524.0,0.07293775650699996
3523.0,0.07355465218161061
3522.0,0.07417242537525759
3521.0,0.07473949048056472
3520.0,0.07515236702446293
3519.0,0.07551395626608493
3518.0,0.07582412969807906
3517.0,0.07592757008963713
3516.0,0.0759792995259323
3515.0,0.07608277688689435
3514.0,0.07628980560343712
3513.0,0.07649693305789551
3512.0,0.07660053384128362
3511.0,0.07660053384128362
3510.0,0.07665234350217442
3509.0,0.07680780957933253
3508.0,0.07701518429111709
3507.0,0.07717078033335123
3506.0,0.07732643214144574
3505.0,0.07743023101428781
3504.0,0.07763790321520991
3503.0,0.07789763319239285
3502.0,0.07820951434181311
3501.0,0.07846958649875768
3500.0,0.07872981449018734
3499.0,0.07893810920972144
3498.0,0.07919861817434581
3497.0,0.0794592834975203
3496.0,0.07977228854307139
3495.0,0.08008551934056851
3494.0,0.08039897621588898
3493.0,0.08066036321258663
3492.0,0.08086958613938555
3491.0,0.08102656950704579
3490.0,0.08118360963962057
3489.0,0.08139308485501817
3488.0,0.08170748724464438
3487.0,0.08207457793525874
3486.0,0.0823369756726251
3485.0,0.08238947425013277
3484.0,0.08228448344050654
3483.0,0.08212704480115218
3482.0,0.08212704480115218
3481.0,0.0823369756726251
3480.0,0.08270459905431071
3479.0,0.08312512146131668
3478.0,0.08344078069888616
3477.0,0.08349341288484435
3476.0,0.08333553545860273
3475.0,0.08317771540408803
3474.0,0.08317771540408803
3473.0,0.0833881548906541
3472.0,0.08375666953466032
3471.0,0.08423093401631587
3470.0,0.08470571697731355
3469.0,0.08496970974083906
3468.0,0.08512818245994969
3467.0,0.08507535179485148
3466.0,0.08496970974083906
3465.0,0.08486409337798806
3464.0,0.08491689834879956
3463.0,0.08507535179485148
3462.0,0.08528671302637614
3461.0,0.08549817717268593
3460.0,0.0856568428805593
3459.0,0.0856568428805593
3458.0,0.08560394787021397
3457.0,0.08555105930144569
3456.0,0.08555105930144569
3455.0,0.08576265223225898
3454.0,0.0861331881037608
3453.0,0.08650404038287651
3452.0,0.08682216600953208
3451.0,0.08708744882390307
3450.0,0.0872997918091396
3449.0,0.08745911720936239
3448.0,0.08751223866767632
3447.0,0.08751223866767632
3446.0,0.08751223866767632
3445.0,0.08735289378168276
3444.0,0.0872466963286771
3443.0,0.08719360733870762
3442.0,0.0872997918091396
3441.0,0.08756536662442538
3440.0,0.08799062441302175
3439.0,0.0884695376928375
3438.0,0.08900228368935714
3437.0,0.08932224525729482
3436.0,0.08948231448273347
3435.0,0.08942895151874142
3434.0,0.0892689019566193
3433.0,0.0892689019566193
3432.0,0.08942895151874142
3431.0,0.08985603893548699
3430.0,0.09033701484598189
3429.0,0.09087205801073917
3428.0,0.09135416109288674
3427.0,0.09167586072382083
3426.0,0.0919441259012328
3425.0,0.09210516458371698
3424.0,0.0922125568893839
3423.0,0.09231997575758011
3422.0,0.09258863922541383
3421.0,0.09307265269104414
3420.0,0.09366495819490939
3419.0,0.09420411963213149
3418.0,0.09458193129745807
3417.0,0.09474395125154866
3416.0,0.09490603167212863
3415.0,0.09523037409340485
3414.0,0.09560907998763835
3413.0,0.0960964733098364
3412.0,0.09653017149282994
3411.0,0.09685572959046151
3410.0,0.09712721455392082
3409.0,0.09739886933346864
3408.0,0.09777947172068524
3407.0,0.09816040794877057
3406.0,0.09865067458435761
3405.0,0.09914149529800831
3404.0,0.09952362861074304
3403.0,0.09990609845660159
3402.0,0.10023419805561384
3401.0,0.1005625457138224
3400.0,0.10078158214862709
3399.0,0.10089114180660053
3398.0,0.10089114180660053
3397.0,0.10089114180660053
3396.0,0.10100072911021085
3395.0,0.10127481841050656
3394.0,0.10165883427249067
3393.0,0.10215306842042837
3392.0,0.10253786198693682
3391.0,0.1028679566179056
3390.0,0.10308815917397474
3389.0,0.10314322726279568
3388.0,0.10314322726279568
3387.0,0.10303309806684524
3386.0,0.10297804393963661
3385.0,0.10297804393963661
3384.0,0.1028679566179056
3383.0,0.10275789719463457
3382.0,0.10264786565568684
3381.0,0.10259286033841963
3380.0,0.10264786565568684
3379.0,0.10281292341984649
3378.0,0.10292299679057959
3377.0,0.10303309806684524
3376.0,0.10297804393963661
3375.0,0.10281292341984649
3374.0,0.10264786565568684
3373.0,0.10248287059947447
3372.0,0.10231793820358015
3371.0,0.10226297465457268
3370.0,0.10237290870955862
3369.0,0.10253786198693682
3368.0,0.10264786565568684
3367.0,0.10259286033841963
3366.0,0.10253786198693682
3365.0,0.10248287059947447
3364.0,0.10242788617426934
3363.0,0.10226297465457268
3362.0,0.10198826120249849
3361.0,0.1017686154869033
3360.0,0.10165883427249067
3359.0,0.10165883427249067
3358.0,0.1017686154869033
3357.0,0.10182351650232357
3356.0,0.10171372141087698
3355.0,0.10160395406999112
3354.0,0.1014393550602879
3353.0,0.10132965703447017
3352.0,0.10127481841050656
3351.0,0.10132965703447017
3350.0,0.1014393550602879
3349.0,0.10165883427249067
3348.0,0.10171372141087698
3347.0,0.10154908080162528
3346.0,0.10132965703447017
3345.0,0.10111034407341357
3344.0,0.10105553313349058
3343.0,0.10116516193172598
3342.0,0.1012199867101744
3341.0,0.10116516193172598
3340.0,0.10094593200182911
3339.0,0.10067205012234592
3338.0,0.1005625457138224
3337.0,0.1005625457138224
3336.0,0.10067205012234592
3335.0,0.10061729446673495
3334.0,0.10045306890913297
3333.0,0.10039834085387778
3332.0,0.1005078038618683
3331.0,0.10072681268239614
3330.0,0.10094593200182911
3329.0,0.10105553313349058
3328.0,0.10116516193172598
3327.0,0.10127481841050656
3326.0,0.1014393550602879
3325.0,0.10154908080162528
3324.0,0.10154908080162528
3323.0,0.10154908080162528
3322.0,0.10154908080162528
3321.0,0.10160395406999112
3320.0,0.10149421446564144
3319.0,0.10132965703447017
3318.0,0.10116516193172598
3317.0,0.10105553313349058
3316.0,0.10105553313349058
3315.0,0.10105553313349058
3314.0,0.10094593200182911
3313.0,0.10089114180660053
3312.0,0.10089114180660053
3311.0,0.10094593200182911
3310.0,0.10100072911021085
3309.0,0.10116516193172598
3308.0,0.1012199867101744
3307.0,0.10127481841050656
3306.0,0.10138450258381404
3305.0,0.10149421446564144
3304.0,0.10165883427249067
3303.0,0.10171372141087698
3302.0,0.10154908080162528
3301.0,0.10127481841050656
3300.0,0.10100072911021085
3299.0,0.10094593200182911
3298.0,0.10105553313349058
3297.0,0.10116516193172598
3296.0,0.10111034407341357
3295.0,0.10094593200182911
3294.0,0.10083635852278117
3293.0,0.10089114180660053
3292.0,0.10111034407341357
3291.0,0.10132965703447017
3290.0,0.10138450258381404
3289.0,0.10127481841050656
3288.0,0.10111034407341357
3287.0,0.10100072911021085
3286.0,0.10094593200182911
3285.0,0.10094593200182911
3284.0,0.10094593200182911
3283.0,0.10089114180660053
3282.0,0.10067205012234592
3281.0,0.1005078038618683
3280.0,0.10028890542885538
3279.0,0.10017949757290379
3278.0,0.10012480397898926
3277.0,0.10012480397898926
3276.0,0.10012480397898926
3275.0,0.10017949757290379
3274.0,0.10017949757290379
3273.0,0.10007011727213588
3272.0,0.09985143928065598
3271.0,0.09957824654226233
3270.0,0.09935981601739963
3269.0,0.09925064193892053
3268.0,0.09935981601739963
3267.0,0.09963287134352972
3266.0,0.09996076451267522
3265.0,0.10017949757290379
3264.0,0.10023419805561384
3263.0,0.10023419805561384
3262.0,0.10012480397898926
3261.0,0.09996076451267522
3260.0,0.09979678698310646
3259.0,0.09963287134352972
3258.0,0.09952362861074304
3257.0,0.09952362861074304
3256.0,0.09968750301627338
3255.0,0.09985143928065598
3254.0,0.10001543745060903
3253.0,0.10001543745060903
3252.0,0.09996076451267522
3251.0,0.09985143928065598
3250.0,0.09979678698310646
3249.0,0.09974214156222239
3248.0,0.09979678698310646
3247.0,0.09979678698310646
3246.0,0.09990609845660159
3245.0,0.09990609845660159
3244.0,0.09979678698310646
3243.0,0.09957824654226233
3242.0,0.09946901754724413
3241.0,0.09946901754724413
3240.0,0.09968750301627338
3239.0,0.09996076451267522
3238.0,0.10012480397898926
3237.0,0.10007011727213588
3236.0,0.09979678698310646
3235.0,0.09941441335003853
3234.0,0.09919606518963042
3233.0,0.0990869322623309
3232.0,0.09903237608087578
3231.0,0.09903237608087578
3230.0,0.09914149529800831
3229.0,0.09925064193892053
3228.0,0.09919606518963042
3227.0,0.09903237608087578
3226.0,0.0989778267519208
3225.0,0.09903237608087578
3224.0,0.09914149529800831
3223.0,0.09919606518963042
3222.0,0.0990869322623309
3221.0,0.09892328427374508
3220.0,0.09881421986284966
3219.0,0.09881421986284966
3218.0,0.09875969792669093
3217.0,0.09843270997155007
3216.0,0.09805153492691598
3215.0,0.09777947172068524
3214.0,0.09772507952549825
3213.0,0.09783387072894878
3212.0,0.09794268919153337
3211.0,0.0978882765519955
3210.0,0.09783387072894878
3209.0,0.09772507952549825
3208.0,0.09772507952549825
3207.0,0.09777947172068524
3206.0,0.09794268919153337
3205.0,0.09810596802617932
3204.0,0.09816040794877057
3203.0,0.09799710864927058
3202.0,0.09772507952549825
3201.0,0.09745322068600859
3200.0,0.09729018703012282
3199.0,0.0972358560759139
3198.0,0.09729018703012282
3197.0,0.09739886933346864
3196.0,0.09745322068600859
3195.0,0.09745322068600859
3194.0,0.09750757884139638
3193.0,0.09750757884139638
3192.0,0.09745322068600859
3191.0,0.09734452478207412
3190.0,0.0972358560759139
3189.0,0.09718153191774648
3188.0,0.09712721455392082
3187.0,0.09696430321150284
3186.0,0.09669292003582619
3185.0,0.09642170633694569
3184.0,0.09620485725896466
3183.0,0.096150661903319
3182.0,0.096150661903319
3181.0,0.096150661903319
3180.0,0.09598811640261173
3179.0,0.09566320779750503
3178.0,0.09528445472131919
3177.0,0.09490603167212863
3176.0,0.09463593123310776
3175.0,0.09447395156495153
3174.0,0.09441997176475758
3173.0,0.09441997176475758
3172.0,0.09458193129745807
3171.0,0.09479797133768142
3170.0,0.09485199814398393
3169.0,0.09474395125154866
3168.0,0.09452793807529569
3167.0,0.09431203228814788
3166.0,0.09415017335768128
3165.0,0.09415017335768128
3164.0,0.09420411963213149
3163.0,0.09425807260839858
3162.0,0.09425807260839858
3161.0,0.09404230090757282
3160.0,0.09382663635595145
3159.0,0.09366495819490939
3158.0,0.09361107884716913
3157.0,0.09361107884716913
3156.0,0.0935033402006471
3155.0,0.09334178232840018
3154.0,0.09323411045927221
3153.0,0.09318028453345462
3152.0,0.09318028453345462
3151.0,0.09318028453345462
3150.0,0.09301884677114591
3149.0,0.09269615116603047
3148.0,0.09231997575758011
3147.0,0.0919441259012328
3146.0,0.09167586072382083
3145.0,0.0916222275676053
3144.0,0.09167586072382083
3143.0,0.09183679994445204
3142.0,0.0919977988274463
3141.0,0.09215885741705532
3140.0,0.09226626300234453
3139.0,0.09226626300234453
3138.0,0.0922125568893839
3137.0,0.0919977988274463
3136.0,0.0917295005042762
3135.0,0.09135416109288674
3134.0,0.09097914578884403
3133.0,0.09076499663169257
3132.0,0.09076499663169257
3131.0,0.0908185240221473
3130.0,0.0908185240221473
3129.0,0.09065796163869155
3128.0,0.09044397075882471
3127.0,0.09012318200960712
3126.0,0.08990945440593179
3125.0,0.08974922769985194
3124.0,0.08974922769985194
3123.0,0.08974922769985194
3122.0,0.08974922769985194
3121.0,0.08964244272712252
3120.0,0.08942895151874142
3119.0,0.0892155652071629
3118.0,0.08905559425002108
3117.0,0.08900228368935714
3116.0,0.08894897967187343
3115.0,0.08889568219596411
3114.0,0.08884239126002336
3113.0,0.08868255767596933
3112.0,0.0885227828938977
3111.0,0.08836306687055773
3110.0,0.08825662214406838
3109.0,0.0880970039559672
3108.0,0.08793744441149753
3107.0,0.08788427092114603
3106.0,0.08788427092114603
3105.0,0.08788427092114603
3104.0,0.08772478950118767
3103.0,0.08740600224789441
3102.0,0.0870343792958963
3101.0,0.0867691288864394
3100.0,0.08661005636824437
3099.0,0.08650404038287651
3098.0,0.08650404038287651
3097.0,0.08655704514060414
3096.0,0.08661005636824437
3095.0,0.08655704514060414
3094.0,0.08634506491338012
3093.0,0.08608023504853413
3092.0,0.08586848736910624
3091.0,0.08570974433405087
3090.0,0.08555105930144569
3089.0,0.08533956941077814
3088.0,0.08518101955252688
3087.0,0.08512818245994969
3086.0,0.08528671302637614
3085.0,0.08549817717268593
3084.0,0.08570974433405087
3083.0,0.0856568428805593
3082.0,0.08533956941077814
3081.0,0.08491689834879956
3080.0,0.08460016478773014
3079.0,0.08438913733853282
3078.0,0.08433639649422697
3077.0,0.08428366205400617
3076.0,0.08428366205400617
3075.0,0.08423093401631587
3074.0,0.08412549714230844
3073.0,0.0839147001562972
3072.0,0.08365134772453975
3071.0,0.08344078069888616
3070.0,0.08328292240118751
3069.0,0.08317771540408803
3068.0,0.08301995267961781
3067.0,0.08286224724355584
3066.0,0.08270459905431071
3065.0,0.08254700807033655
3064.0,0.08238947425013277
3063.0,0.08217951800630297
3062.0,0.08196966321511989
3061.0,0.08181233864107451
3060.0,0.08165507103772507
3059.0,0.08149786036382611
3058.0,0.08134070657817682
3057.0,0.0812359689720008
3056.0,0.08113125661901543
3055.0,0.08113125661901543
3054.0,0.08118360963962057
3053.0,0.0812359689720008
3052.0,0.08118360963962057
3051.0,0.0809742354126397
3050.0,0.08066036321258663
3049.0,0.08039897621588898
3048.0,0.08013774644446192
3047.0,0.07987667370927598
3046.0,0.07961575782164254
3045.0,0.07935499859321249
3044.0,0.07914650387874067
3043.0,0.07904229404455076
3042.0,0.07899019850296574
3041.0,0.07883394936226118
3040.0,0.07857365898473456
3039.0,0.07820951434181311
3038.0,0.07789763319239285
3037.0,0.0777417765670334
3036.0,0.07768983678560404
3035.0,0.07763790321520991
3034.0,0.07743023101428781
3033.0,0.07701518429111709
3032.0,0.07660053384128362
3031.0,0.07623803917129979
3030.0,0.07608277688689435
3029.0,0.07592757008963713
3028.0,0.07572071393811841
3027.0,0.07541061433058172
3026.0,0.07494587968815725
3025.0,0.07443009045662374
3024.0,0.07396640332115534
3023.0,0.07350321072677968
3022.0,0.07309189829456408
3021.0,0.07273231918911849
3020.0,0.07232173586200852
3019.0,0.07191154033502922
3018.0,0.07155293679081787
3017.0,0.07114346641808922
3016.0,0.07073438174693436
3015.0,0.0702746216219956
3014.0,0.06976434723371505
3013.0,0.06915280831750303
3012.0,0.06859298644342648
3011.0,0.06798309356579857
3010.0,0.06742477650170953
3009.0,0.06691783763020887
3008.0,0.06646209802829528
3007.0,0.06600683616875758
3006.0,0.0655520510510299
3005.0,0.06499684854634524
3004.0,0.06439198148213077
3003.0,0.06378795567975115
3002.0,0.06323500239005853
3001.0,0.06278310913729457
3000.0,0.06223143295006417
2999.0,0.06163040254819374
2998.0,0.06093025007657582
2997.0,0.06038092104330195
2996.0,0.05998184499233683
2995.0,0.05963295401433477
2994.0,0.05933412752417122
2993.0,0.058836539841526925
2992.0,0.05814087347462649
2991.0,0.05724807957018618
2990.0,0.056159373598738904
2989.0,0.05522131887649295
2988.0,0.05458065739693696
2987.0,0.05428528594013993
2986.0,0.05423607688882637
2985.0,0.05423607688882637
2984.0,0.05428528594013993
2983.0,0.05428528594013993
2982.0,0.05423607688882637
2981.0,0.05399011523423525
2980.0,0.053646002773725554
2979.0,0.05330216275425803
2978.0,0.05310580489767336
2977.0,0.05300765925162776
2976.0,0.05295859474477971
2975.0,0.05286048235717078
2974.0,0.05271335532220167
2973.0,0.05256627811294923
2972.0,0.052468254304406825
2971.0,0.05256627811294923
2970.0,0.05281143447390635
2969.0,0.053203972728539606
2968.0,0.05369514500652506
2967.0,0.05423607688882637
2966.0,0.05477768336465916
2965.0,0.05531996611868961
2964.0,0.05581353871631256
2963.0,0.05625823416868636
2962.0,0.05670338543334519
2961.0,0.05724807957018618
2960.0,0.05779345772290467
2959.0,0.0583891978463662
2958.0,0.0588862729628985
2957.0,0.05928434309333741
2956.0,0.05943371350990989
2955.0,0.05943371350990989
2954.0,0.05933412752417122
2953.0,0.05918479134919874
2952.0,0.058936011780097886
2951.0,0.058538260652670315
2950.0,0.058190526991161784
2949.0,0.05799194697768684
2948.0,0.05794231615860479
2947.0,0.05799194697768684
2946.0,0.05809122563440061
2945.0,0.0583891978463662
2944.0,0.05898575629443026
2943.0,0.05998184499233683
2942.0,0.06148027482350815
2941.0,0.06338573802478864
2940.0,0.06560255921901192
2939.0,0.06813548650796819
2938.0,0.0710411591191702
2937.0,0.07422394616325367
2936.0,0.07784567476894111
2935.0,0.08181233864107451
2934.0,0.08602728844902896
2933.0,0.09049745859458458
2932.0,0.09523037409340485
2931.0,0.10039834085387778
2930.0,0.10612732120491852
2929.0,0.11232644754555254
2928.0,0.11895789180659433
2927.0,0.12598229613781387
2926.0,0.13353543402825974
2925.0,0.14164329470222659
2924.0,0.15051916275601385
2923.0,0.16020781555467067
2922.0,0.17082492608291244
2921.0,0.18243463044021913
2920.0,0.19504320014250842
2919.0,0.20837951730718585
2918.0,0.221921138062545
2917.0,0.23455498190985002
2916.0,0.24496406623222855
2915.0,0.2519671058698565
2914.0,0.25492520841794253
2913.0,0.25383303562271453
2912.0,0.24956875133979795
2911.0,0.24351603555739065
2910.0,0.23687162320086297
2909.0,0.2304749798289496
2908.0,0.22446236521904295
2907.0,0.21889116427053357
2906.0,0.21367456560992992
2905.0,0.2088709992727138
2904.0,0.20446755728984556
2903.0,0.200521601162019
2902.0,0.1969527895088714
2901.0,0.19375217280420953
2900.0,0.19097927951632743
2899.0,0.1886261029461067
2898.0,0.18668594105416525
2897.0,0.18482086986058133
2896.0,0.182963773949971
2895.0,0.18111458540599013
2894.0,0.17920761891179637
2893.0,0.17724366704860928
2892.0,0.17528855653526554
2891.0,0.173212761183708
2890.0,0.1711468403233598
2889.0,0.16889843549864048
2888.0,0.16659787076814148
2887.0,0.16424603248061653
2886.0,0.1619068615544017
2885.0,0.15958022226351387
2884.0,0.15714123755470633
2883.0,0.15471587365200845
2882.0,0.15218065270476067
2881.0,0.1495988520028415
2880.0,0.14697138528701026
2879.0,0.14454141961396383
2878.0,0.14224547794055775
2877.0,0.1400815147992842
2876.0,0.13786862068696282
2875.0,0.13554825284181704
2874.0,0.13335827943396006
2873.0,0.13135556160517425
2872.0,0.12942053944731513
2871.0,0.1275523522109867
2870.0,0.12569216687196105
2869.0,0.12383991517437187
2868.0,0.1219955297319748
2867.0,0.12015894401343741
2866.0,0.11855827805860697
2865.0,0.11730473761840288
2864.0,0.11645212073195621
2863.0,0.11594135290606156
2862.0,0.11599807523121286
2861.0,0.116736140415026
2860.0,0.11827306462358211
2859.0,0.12067469921519258
2858.0,0.12412880927263426
2857.0,0.12866061890013913
2856.0,0.1345998818206986
2855.0,0.14206473528057106
2854.0,0.1513798825658661
2853.0,0.16285365609093994
2852.0,0.17665620917935154
2851.0,0.19273564472389304
2850.0,0.21041928783557462
2849.0,0.22797183467514515
2848.0,0.2430597639532759
2847.0,0.2530545903848953
2846.0,0.25672547648806665
2845.0,0.2546909400591719
2844.0,0.2487208960166578
2843.0,0.24086118371883347
2842.0,0.23232477597203993
2841.0,0.22388020094701222
2840.0,0.21588218353707678
2839.0,0.2085198839799991
2838.0,0.20190206793751408
2837.0,0.19592875111433883
2836.0,0.19057497120296585
2835.0,0.18575240426807982
2834.0,0.18157614490792118
2833.0,0.17796275192741495
2832.0,0.17476867680009978
2831.0,0.17192040944325404
2830.0,0.16921892439363884
2829.0,0.1666616110606025
2828.0,0.16430942850757435
2827.0,0.16209605540705763
2826.0,0.1600194423216572
2825.0,0.15814019022493886
2824.0,0.15645578805436489
2823.0,0.1550260618531123
2822.0,0.15366288787019466
2821.0,0.15236565568174498
2820.0,0.15107228677292173
2819.0,0.14978275820161047
2818.0,0.14868048735125483
2817.0,0.14764201633217278
2816.0,0.1466060225493342
2815.0,0.1455724942121388
2814.0,0.14448084433219988
2813.0,0.14339193156306385
2812.0,0.1423660148499919
2811.0,0.1415831222765116
2810.0,0.1409818561111058
2809.0,0.14038142122781938
2808.0,0.1396619934290062
2807.0,0.1388839558386048
2806.0,0.1381073096085541
2805.0,0.1374512304752069
2804.0,0.13685565374733244
2803.0,0.13620146131949973
2802.0,0.13560759484941132
2801.0,0.13501453934020602
2800.0,0.13448148092522594
2799.0,0.1340081998737246
2798.0,0.13347637446715632
2797.0,0.13288622016802298
2796.0,0.132179091954427
2795.0,0.1314731132317961
2794.0,0.1308269726783169
2793.0,0.13041629228657614
2792.0,0.13012318673323353
2791.0,0.12988884463559924
2790.0,0.1295960947209729
2789.0,0.12924505510985984
2788.0,0.12877744324029283
2787.0,0.1283103343144847
2786.0,0.12784372725170723
2785.0,0.12731939284807026
2784.0,0.12685384867174432
2783.0,0.12650501774383094
2782.0,0.126156466776564
2781.0,0.1258081953209289
2780.0,0.12534426740189897
2779.0,0.1249387366082999
2778.0,0.12459143992293642
2777.0,0.12430223801979201
2776.0,0.12407101507707297
2775.0,0.12378215940835768
2774.0,0.12349349573411894
2773.0,0.12320502379929943
2772.0,0.12285911021517903
2771.0,0.12257105921178035
2770.0,0.12228319913502328
2769.0,0.1219955297319748
2768.0,0.12176553132495593
2767.0,0.12153565465853111
2766.0,0.12124847982699793
2765.0,0.12090412049992727
2764.0,0.12061736282565727
2763.0,0.12033079436794658
2762.0,0.1201016756699902
2761.0,0.11987267778337518
2760.0,0.11970100857424737
2759.0,0.11952940719622163
2758.0,0.11935787359571504
2757.0,0.11912926746757657
2756.0,0.11884367892443626
2755.0,0.11850122038501709
2754.0,0.11821604440661537
2753.0,0.11798803837334138
2752.0,0.11781711236973003
2751.0,0.11758931562603192
2750.0,0.11736163830396129
2749.0,0.11719095860756013
2748.0,0.1170772093974013
2747.0,0.11690664142431006
2746.0,0.11684980031672243
2745.0,0.1169634899723202
2744.0,0.11719095860756013
2743.0,0.11736163830396129
2742.0,0.11730473761840288
2741.0,0.1170772093974013
2740.0,0.11679296664760996
2739.0,0.1165657063169907
2738.0,0.11633856484638239
2737.0,0.11622503864474187
2736.0,0.11611154211151953
2735.0,0.11594135290606156
2734.0,0.11577123036739612
2733.0,0.11565785235294102
2732.0,0.11565785235294102
2731.0,0.11565785235294102
2730.0,0.11560117444331386
2729.0,0.11548784080960606
2728.0,0.11543118508166672
2727.0,0.11537453674376552
2726.0,0.11537453674376552
2725.0,0.11531789579397489
2724.0,0.11514801725400226
2723.0,0.1148084593931522
2722.0,0.11441264381034388
2721.0,0.1141301390960936
2720.0,0.11390426756225258
2719.0,0.11367851344052027
2718.0,0.11345287660889425
2717.0,0.1133401021387972
2716.0,0.11328372588352176
2715.0,0.11322735694556196
2714.0,0.11317099532301778
2713.0,0.11305829401658474
2712.0,0.11288929687511629
2711.0,0.1128329791052256
2710.0,0.1128329791052256
2709.0,0.11288929687511629
2708.0,0.112945621949043
2707.0,0.112945621949043
2706.0,0.1128329791052256
2705.0,0.11260778102815316
2704.0,0.11232644754555254
2703.0,0.11198908775497118
2702.0,0.1117081546434846
2701.0,0.11153968196461372
2700.0,0.1114835389250548
2699.0,0.11142740314240007
2698.0,0.11137127461477392
2697.0,0.11131515334030118
2696.0,0.11131515334030118
2695.0,0.11142740314240007
2694.0,0.11153968196461372
2693.0,0.11159583226295333
2692.0,0.11153968196461372
2691.0,0.11131515334030118
2690.0,0.11109074073646874
2689.0,0.11097857790477517
2688.0,0.11097857790477517
2687.0,0.11109074073646874
2686.0,0.11109074073646874
2685.0,0.11097857790477517
2684.0,0.11075433910702048
2683.0,0.11053021603049262
2682.0,0.11036219959333216
2681.0,0.11030620855581463
2680.0,0.11036219959333216
2679.0,0.11036219959333216
2678.0,0.11041819785037621
2677.0,0.11047420332880886
2676.0,0.11053021603049262
2675.0,0.11058623595729111
2674.0,0.11069829749368965
2673.0,0.11081038795292675
2672.0,0.11086644403327606
2671.0,0.11081038795292675
2670.0,0.11069829749368965
2669.0,0.11053021603049262
2668.0,0.11041819785037621
2667.0,0.11030620855581463
2666.0,0.11013827874181148
2665.0,0.11002636159600376
2664.0,0.10997041383658313
2663.0,0.11002636159600376
2662.0,0.11008231656379408
2661.0,0.11013827874181148
2660.0,0.11008231656379408
2659.0,0.11002636159600376
2658.0,0.10997041383658313
2657.0,0.10997041383658313
2656.0,0.11008231656379408
2655.0,0.11013827874181148
2654.0,0.11019424813191447
2653.0,0.11008231656379408
2652.0,0.1098585399354226
2651.0,0.10963487855187593
2650.0,0.10952309103982927
2649.0,0.10941133229451272
2648.0,0.10935546370475246
2647.0,0.10935546370475246
2646.0,0.10941133229451272
2645.0,0.10941133229451272
2644.0,0.10941133229451272
2643.0,0.10935546370475246
2642.0,0.10929960230112479
2641.0,0.10929960230112479
2640.0,0.10929960230112479
2639.0,0.10929960230112479
2638.0,0.10929960230112479
2637.0,0.10924374808178183
2636.0,0.10913206118855912
2635.0,0.10902040301031102
2634.0,0.10890877353227624
2633.0,0.10896458468468917
2632.0,0.10902040301031102
2631.0,0.10896458468468917
2630.0,0.10885296955122903
2629.0,0.10862982530385179
2628.0,0.10840679565103484
2627.0,0.1082953237608173
2626.0,0.1082953237608173
2625.0,0.10835105612944096
2624.0,0.10840679565103484
2623.0,0.10851829616048003
2622.0,0.10857405715200596
2621.0,0.10857405715200596
2620.0,0.10851829616048003
2619.0,0.10840679565103484
2618.0,0.1082953237608173
2617.0,0.10812816955441629
2616.0,0.10796107965870849
2615.0,0.10784972209863586
2614.0,0.10773839308446487
2613.0,0.10773839308446487
2612.0,0.10768273927751948
2611.0,0.10746019534136453
2610.0,0.10729336219433439
2609.0,0.10729336219433439
2608.0,0.10740457717110186
2607.0,0.1075158206353124
2606.0,0.10757145305477
2605.0,0.10757145305477
2604.0,0.10757145305477
2603.0,0.10757145305477
2602.0,0.10762709260156367
2601.0,0.10768273927751948
2600.0,0.10768273927751948
2599.0,0.10757145305477
2598.0,0.10740457717110186
2597.0,0.10729336219433439
2596.0,0.10729336219433439
2595.0,0.10729336219433439
2594.0,0.10734896612269962
2593.0,0.10740457717110186
2592.0,0.10734896612269962
2591.0,0.10723776538418317
2590.0,0.10707101764479421
2589.0,0.10695988804288215
2588.0,0.10695988804288215
2587.0,0.10701544928928342
2586.0,0.10695988804288215
2585.0,0.10690433390377163
2584.0,0.10668218838388821
2583.0,0.10646015643533868
2582.0,0.1063491830140364
2581.0,0.1063491830140364
2580.0,0.10640466618011679
2579.0,0.10651565378151395
2578.0,0.10651565378151395
2577.0,0.10651565378151395
2576.0,0.10640466618011679
2575.0,0.1063491830140364
2574.0,0.1062937069352865
2573.0,0.1062937069352865
2572.0,0.1063491830140364
2571.0,0.10640466618011679
2570.0,0.10651565378151395
2569.0,0.10657115822045493
2568.0,0.10662666975397506
2567.0,0.10651565378151395
2566.0,0.1063491830140364
2565.0,0.10612732120491852
2564.0,0.10590557267730127
2563.0,0.10573933555301185
2562.0,0.10573933555301185
2561.0,0.10579474085791629
2560.0,0.10596099919539115
2559.0,0.1060718734573931
2558.0,0.10612732120491852
2557.0,0.1061827760325369
2556.0,0.10612732120491852
2555.0,0.1060718734573931
2554.0,0.10585015323207791
2553.0,0.10568393731556158
2552.0,0.10557316203581202
2551.0,0.10551778498990938
2550.0,0.10551778498990938
2549.0,0.10551778498990938
2548.0,0.10551778498990938
2547.0,0.10562854614376227
2546.0,0.10573933555301185
2545.0,0.10590557267730127
2544.0,0.10601643278815298
2543.0,0.10601643278815298
2542.0,0.10590557267730127
2541.0,0.10585015323207791
2540.0,0.10579474085791629
2539.0,0.10573933555301185
2538.0,0.10579474085791629
2537.0,0.10579474085791629
2536.0,0.10579474085791629
2535.0,0.10573933555301185
2534.0,0.10557316203581202
2533.0,0.10535169620648288
2532.0,0.10513034325474746
2531.0,0.10501970907203151
2530.0,0.10501970907203151
2529.0,0.10507502264045665
2528.0,0.10518567091669917
2527.0,0.1052410056281079
2526.0,0.10529634739076998
2525.0,0.10529634739076998
2524.0,0.1052410056281079
2523.0,0.1052410056281079
2522.0,0.10518567091669917
2521.0,0.10518567091669917
2520.0,0.1052410056281079
2519.0,0.10529634739076998
2518.0,0.10529634739076998
2517.0,0.1052410056281079
2516.0,0.1052410056281079
2515.0,0.10518567091669917
2514.0,0.10513034325474746
2513.0,0.10507502264045665
2512.0,0.10496440254767725
2511.0,0.10490910306560064
2510.0,0.10490910306560064
2509.0,0.10501970907203151
2508.0,0.10518567091669917
2507.0,0.10529634739076998
2506.0,0.10540705207704448
2505.0,0.10535169620648288
2504.0,0.10518567091669917
2503.0,0.10501970907203151
2502.0,0.10490910306560064
2501.0,0.10490910306560064
2500.0,0.10490910306560064
2499.0,0.10479852522110678
2498.0,0.10463271122663809
2497.0,0.10452220372428545
2496.0,0.10452220372428545
2495.0,0.10452220372428545
2494.0,0.10457745396059215
2493.0,0.10457745396059215
2492.0,0.10457745396059215
2491.0,0.10452220372428545
2490.0,0.10452220372428545
2489.0,0.10457745396059215
2488.0,0.10463271122663809
2487.0,0.10468797552421272
2486.0,0.1047432468551055
2485.0,0.10479852522110678
2484.0,0.10485381062400778
2483.0,0.10485381062400778
2482.0,0.10468797552421272
2481.0,0.10446696051592963
2480.0,0.10435649517592083
2479.0,0.10435649517592083
2478.0,0.10441172433373724
2477.0,0.10452220372428545
2476.0,0.10463271122663809
2475.0,0.10468797552421272
2474.0,0.1047432468551055
2473.0,0.1047432468551055
2472.0,0.10485381062400778
2471.0,0.10490910306560064
2470.0,0.10490910306560064
2469.0,0.10479852522110678
2468.0,0.1047432468551055
2467.0,0.10463271122663809
2466.0,0.10463271122663809
2465.0,0.10463271122663809
2464.0,0.10452220372428545
2463.0,0.10441172433373724
2462.0,0.10430127304069425
2461.0,0.10424605792627206
2460.0,0.10424605792627206
2459.0,0.10430127304069425
2458.0,0.10435649517592083
2457.0,0.10441172433373724
2456.0,0.10446696051592963
2455.0,0.10446696051592963
2454.0,0.10446696051592963
2453.0,0.10446696051592963
2452.0,0.10452220372428545
2451.0,0.10452220372428545
2450.0,0.10446696051592963
2449.0,0.10435649517592083
2448.0,0.10441172433373724
2447.0,0.10452220372428545
2446.0,0.10468797552421272
2445.0,0.10485381062400778
2444.0,0.10490910306560064
2443.0,0.10479852522110678
2442.0,0.10468797552421272
2441.0,0.10457745396059215
2440.0,0.10452220372428545
2439.0,0.10452220372428545
2438.0,0.10452220372428545
2437.0,0.10452220372428545
2436.0,0.10452220372428545
2435.0,0.10452220372428545
2434.0,0.10446696051592963
2433.0,0.10452220372428545
2432.0,0.10463271122663809
2431.0,0.1047432468551055
2430.0,0.10479852522110678
2429.0,0.10485381062400778
2428.0,0.10479852522110678
2427.0,0.1047432468551055
2426.0,0.1047432468551055
2425.0,0.1047432468551055
2424.0,0.1047432468551055
2423.0,0.1047432468551055
2422.0,0.1047432468551055
2421.0,0.1047432468551055
2420.0,0.1047432468551055
2419.0,0.1047432468551055
2418.0,0.10468797552421272
2417.0,0.10446696051592963
2416.0,0.10430127304069425
2415.0,0.10419084983086901
2414.0,0.10424605792627206
2413.0,0.10446696051592963
2412.0,0.10463271122663809
2411.0,0.1047432468551055
2410.0,0.1047432468551055
2409.0,0.1047432468551055
2408.0,0.10479852522110678
2407.0,0.10490910306560064
2406.0,0.10507502264045665
2405.0,0.1052410056281079
2404.0,0.10540705207704448
2403.0,0.10540705207704448
2402.0,0.10529634739076998
2401.0,0.10507502264045665
2400.0,0.10490910306560064
2399.0,0.10479852522110678
2398.0,0.1047432468551055
2397.0,0.10479852522110678
2396.0,0.10490910306560064
2395.0,0.10507502264045665
2394.0,0.10507502264045665
2393.0,0.10507502264045665
2392.0,0.10501970907203151
2391.0,0.10496440254767725
2390.0,0.10490910306560064
2389.0,0.1047432468551055
2388.0,0.10452220372428545
2387.0,0.10408045468998406
2386.0,0.10358402352687701
2385.0,0.10308815917397474
2384.0,0.10259286033841963
2383.0,0.10204318999304807
2382.0,0.10138450258381404
2381.0,0.10061729446673495
2380.0,0.09985143928065598
2379.0,0.0990869322623309
2378.0,0.09843270997155007
2377.0,0.0978882765519955
2376.0,0.09745322068600859
2375.0,0.09701860020249709
2374.0,0.09642170633694569
2373.0,0.09566320779750503
2372.0,0.09506817260434741
2371.0,0.0950141189006366
2370.0,0.09571734235437201
2369.0,0.09696430321150284
2368.0,0.09821485469640057
2367.0,0.09892328427374508
2366.0,0.09892328427374508
2365.0,0.09843270997155007
2364.0,0.09810596802617932
2363.0,0.09832376867362447
2362.0,0.09886874864462802
2361.0,0.09930522554760213
2360.0,0.09930522554760213
2359.0,0.09914149529800831
2358.0,0.09886874864462802
2357.0,0.09816040794877057
2356.0,0.09734452478207412
2355.0,0.09691001300805646
2354.0,0.0975619438013351
2353.0,0.09946901754724413
2352.0,0.10182351650232357
2351.0,0.10330847343711591
2350.0,0.10319830233507843
2349.0,0.10231793820358015
2348.0,0.1014393550602879
2347.0,0.1005078038618683
2346.0,0.09941441335003853
2345.0,0.09837823590664274
2344.0,0.09750757884139638
2343.0,0.09680145295702158
2342.0,0.09691001300805646
2341.0,0.09821485469640057
2340.0,0.09963287134352972
2339.0,0.10039834085387778
2338.0,0.10034361969436434
2337.0,0.10001543745060903
2336.0,0.09968750301627338
2335.0,0.09941441335003853
2334.0,0.09941441335003853
2333.0,0.09974214156222239
2332.0,0.10045306890913297
2331.0,0.10105553313349058
2330.0,0.1014393550602879
2329.0,0.10149421446564144
2328.0,0.10154908080162528
2327.0,0.10154908080162528
2326.0,0.10198826120249849
2325.0,0.10248287059947447
2324.0,0.10308815917397474
2323.0,0.1033635694704158
2322.0,0.1033635694704158
2321.0,0.10314322726279568
2320.0,0.10281292341984649
2319.0,0.10270287794050348
2318.0,0.10281292341984649
2317.0,0.10314322726279568
2316.0,0.10347378251044459
2315.0,0.1038045895457893
2314.0,0.10402526764093545
2313.0,0.10408045468998406
2312.0,0.10408045468998406
2311.0,0.10391491457671487
2310.0,0.10385974855798041
2309.0,0.10391491457671487
2308.0,0.10419084983086901
2307.0,0.10446696051592963
2306.0,0.10468797552421272
2305.0,0.10468797552421272
2304.0,0.10446696051592963
2303.0,0.10424605792627206
2302.0,0.10424605792627206
2301.0,0.10446696051592963
2300.0,0.1047432468551055
2299.0,0.10496440254767725
2298.0,0.10507502264045665
2297.0,0.10513034325474746
2296.0,0.1052410056281079
2295.0,0.10546241500425357
2294.0,0.10573933555301185
2293.0,0.10612732120491852
2292.0,0.10640466618011679
2291.0,0.10646015643533868
2290.0,0.10640466618011679
2289.0,0.10623823794205656
2288.0,0.10612732120491852
2287.0,0.1060718734573931
2286.0,0.10612732120491852
2285.0,0.1062937069352865
2284.0,0.10651565378151395
2283.0,0.10668218838388821
2282.0,0.10679324694015202
2281.0,0.10684878687013422
2280.0,0.10690433390377163
2279.0,0.10690433390377163
2278.0,0.10673771411200872
2277.0,0.10662666975397506
2276.0,0.10662666975397506
2275.0,0.10673771411200872
2274.0,0.10690433390377163
2273.0,0.10695988804288215
2272.0,0.10701544928928342
2271.0,0.1071265931112344
2270.0,0.10718217569042365
2269.0,0.10718217569042365
2268.0,0.1071265931112344
2267.0,0.10701544928928342
2266.0,0.10695988804288215
2265.0,0.10701544928928342
2264.0,0.1071265931112344
2263.0,0.10723776538418317
2262.0,0.10740457717110186
2261.0,0.10757145305477
2260.0,0.10768273927751948
2259.0,0.10768273927751948
2258.0,0.10757145305477
2257.0,0.10757145305477
2256.0,0.1075158206353124
2255.0,0.1075158206353124
2254.0,0.10746019534136453
2253.0,0.10740457717110186
2252.0,0.10740457717110186
2251.0,0.1075158206353124
2250.0,0.10762709260156367
2249.0,0.10773839308446487
2248.0,0.10784972209863586
2247.0,0.10784972209863586
2246.0,0.10784972209863586
2245.0,0.10784972209863586
2244.0,0.10784972209863586
2243.0,0.10784972209863586
2242.0,0.10790539730951965
2241.0,0.10796107965870849
2240.0,0.10801676914803293
2239.0,0.10812816955441629
2238.0,0.10812816955441629
2237.0,0.10812816955441629
2236.0,0.10807246577932506
2235.0,0.10801676914803293
2234.0,0.10801676914803293
2233.0,0.10807246577932506
2232.0,0.1081838804751396
2231.0,0.10835105612944096
2230.0,0.10851829616048003
2229.0,0.10862982530385179
2228.0,0.10874138309586101
2227.0,0.10874138309586101
2226.0,0.10874138309586101
2225.0,0.10862982530385179
2224.0,0.10846254232743546
2223.0,0.1082953237608173
2222.0,0.10823959854332843
2221.0,0.10823959854332843
2220.0,0.10835105612944096
2219.0,0.10851829616048003
2218.0,0.10857405715200596
2217.0,0.10851829616048003
2216.0,0.10840679565103484
2215.0,0.10835105612944096
2214.0,0.10846254232743546
2213.0,0.10868560061785693
2212.0,0.10890877353227624
2211.0,0.10902040301031102
2210.0,0.10907622851098608
2209.0,0.10907622851098608
2208.0,0.10913206118855912
2207.0,0.10918790104487552
2206.0,0.10918790104487552
2205.0,0.10907622851098608
2204.0,0.10896458468468917
2203.0,0.10890877353227624
2202.0,0.10896458468468917
2201.0,0.10913206118855912
2200.0,0.10929960230112479
2199.0,0.10946720807225518
2198.0,0.10957898119908571
2197.0,0.10957898119908571
2196.0,0.10941133229451272
2195.0,0.10924374808178183
2194.0,0.10913206118855912
2193.0,0.10918790104487552
2192.0,0.10929960230112479
2191.0,0.10941133229451272
2190.0,0.10952309103982927
2189.0,0.10963487855187593
2188.0,0.10974669484546551
2187.0,0.10980261378997125
2186.0,0.10980261378997125
2185.0,0.10969078310005154
2184.0,0.10963487855187593
2183.0,0.10963487855187593
2182.0,0.10969078310005154
2181.0,0.10969078310005154
2180.0,0.10963487855187593
2179.0,0.10952309103982927
2178.0,0.10946720807225518
2177.0,0.10952309103982927
2176.0,0.10963487855187593
2175.0,0.10974669484546551
2174.0,0.10974669484546551
2173.0,0.10969078310005154
2172.0,0.10963487855187593
2171.0,0.10957898119908571
2170.0,0.10957898119908571
2169.0,0.10957898119908571
2168.0,0.10957898119908571
2167.0,0.10957898119908571
2166.0,0.10957898119908571
2165.0,0.10963487855187593
2164.0,0.10969078310005154
2163.0,0.10969078310005154
2162.0,0.10969078310005154
2161.0,0.10963487855187593
2160.0,0.10963487855187593
2159.0,0.10974669484546551
2158.0,0.1098585399354226
2157.0,0.11002636159600376
2156.0,0.11008231656379408
2155.0,0.10997041383658313
2154.0,0.10980261378997125
2153.0,0.10957898119908571
2152.0,0.10941133229451272
2151.0,0.10935546370475246
2150.0,0.10941133229451272
2149.0,0.10963487855187593
2148.0,0.1098585399354226
2147.0,0.10997041383658313
2146.0,0.10997041383658313
2145.0,0.10991447328367476
2144.0,0.10980261378997125
2143.0,0.1098585399354226
2142.0,0.10997041383658313
2141.0,0.11008231656379408
2140.0,0.11013827874181148
2139.0,0.11013827874181148
2138.0,0.11013827874181148
2137.0,0.11019424813191447
2136.0,0.11025022473596224
2135.0,0.11030620855581463
2134.0,0.11030620855581463
2133.0,0.11030620855581463
2132.0,0.11030620855581463
2131.0,0.11025022473596224
2130.0,0.11013827874181148
2129.0,0.11008231656379408
2128.0,0.11002636159600376
2127.0,0.10997041383658313
2126.0,0.11002636159600376
2125.0,0.11025022473596224
2124.0,0.11047420332880886
2123.0,0.11058623595729111
2122.0,0.11053021603049262
2121.0,0.11053021603049262
2120.0,0.1106422631110684
2119.0,0.11069829749368965
2118.0,0.11075433910702048
2117.0,0.11075433910702048
2116.0,0.11075433910702048
2115.0,0.11069829749368965
2114.0,0.11069829749368965
2113.0,0.11069829749368965
2112.0,0.1106422631110684
2111.0,0.11058623595729111
2110.0,0.1106422631110684
2109.0,0.11069829749368965
2108.0,0.11081038795292675
2107.0,0.11081038795292675
2106.0,0.11069829749368965
2105.0,0.11069829749368965
2104.0,0.11069829749368965
2103.0,0.11069829749368965
2102.0,0.11075433910702048
2101.0,0.11086644403327606
2100.0,0.11092250734993603
2099.0,0.11092250734993603
2098.0,0.11086644403327606
2097.0,0.11081038795292675
2096.0,0.11086644403327606
2095.0,0.11092250734993603
2094.0,0.11103465569966264
2093.0,0.11114683301706374
2092.0,0.11114683301706374
2091.0,0.11109074073646874
2090.0,0.11092250734993603
2089.0,0.11086644403327606
2088.0,0.11092250734993603
2087.0,0.11103465569966264
2086.0,0.11114683301706374
2085.0,0.11120293254331926
2084.0,0.11114683301706374
2083.0,0.11103465569966264
2082.0,0.11097857790477517
2081.0,0.11097857790477517
2080.0,0.11103465569966264
2079.0,0.11109074073646874
2078.0,0.11109074073646874
2077.0,0.11103465569966264
2076.0,0.11097857790477517
2075.0,0.11092250734993603
2074.0,0.11092250734993603
2073.0,0.11097857790477517
2072.0,0.11097857790477517
2071.0,0.11092250734993603
2070.0,0.11097857790477517
2069.0,0.11109074073646874
2068.0,0.11109074073646874
2067.0,0.11109074073646874
2066.0,0.11109074073646874
2065.0,0.11103465569966264
2064.0,0.11103465569966264
2063.0,0.11103465569966264
2062.0,0.11109074073646874
2061.0,0.11120293254331926
2060.0,0.11131515334030118
2059.0,0.11137127461477392
2058.0,0.11137127461477392
2057.0,0.11137127461477392
2056.0,0.11142740314240007
2055.0,0.1114835389250548
2054.0,0.11153968196461372
2053.0,0.11153968196461372
2052.0,0.11153968196461372
2051.0,0.11142740314240007
2050.0,0.11131515334030118
2049.0,0.11131515334030118
2048.0,0.11131515334030118
2047.0,0.11131515334030118
2046.0,0.11131515334030118
2045.0,0.11131515334030118
2044.0,0.11131515334030118
2043.0,0.11125903931710734
2042.0,0.11120293254331926
2041.0,0.11120293254331926
2040.0,0.11131515334030118
2039.0,0.1114835389250548
2038.0,0.11165198982195101
2037.0,0.11187669270209155
2036.0,0.11193288659256306
2035.0,0.11187669270209155
2034.0,0.1117081546434846
2033.0,0.11153968196461372
2032.0,0.11142740314240007
2031.0,0.11142740314240007
2030.0,0.11159583226295333
2029.0,0.11182050608167504
2028.0,0.11198908775497118
2027.0,0.1120452961911984
2026.0,0.1120452961911984
2025.0,0.1120452961911984
2024.0,0.11210151190312767
2023.0,0.11215773489264302
2022.0,0.11221396516162851
2021.0,0.11227020271196975
2020.0,0.11221396516162851
2019.0,0.11215773489264302
2018.0,0.1120452961911984
2017.0,0.11210151190312767
2016.0,0.11227020271196975
2015.0,0.11238269966426384
2014.0,0.11243895906999102
2013.0,0.11238269966426384
2012.0,0.11227020271196975
2011.0,0.11210151190312767
2010.0,0.11193288659256306
2009.0,0.11187669270209155
2008.0,0.11193288659256306
2007.0,0.11215773489264302
2006.0,0.11232644754555254
2005.0,0.11243895906999102
2004.0,0.11249522576462212
2003.0,0.11249522576462212
2002.0,0.11249522576462212
2001.0,0.11243895906999102
2000.0,0.11243895906999102
1999.0,0.11232644754555254
1998.0,0.11227020271196975
1997.0,0.11221396516162851
1996.0,0.11215773489264302
1995.0,0.1120452961911984
1994.0,0.11193288659256306
1993.0,0.11193288659256306
1992.0,0.11198908775497118
1991.0,0.11198908775497118
1990.0,0.11198908775497118
1989.0,0.11193288659256306
1988.0,0.11198908775497118
1987.0,0.11210151190312767
1986.0,0.11215773489264302
1985.0,0.11227020271196975
1984.0,0.11227020271196975
1983.0,0.11221396516162851
1982.0,0.11215773489264302
1981.0,0.11210151190312767
1980.0,0.11210151190312767
1979.0,0.1120452961911984
1978.0,0.1120452961911984
1977.0,0.11193288659256306
1976.0,0.11182050608167504
1975.0,0.11176432672943282
1974.0,0.11193288659256306
1973.0,0.11210151190312767
1972.0,0.11221396516162851
1971.0,0.11215773489264302
1970.0,0.11210151190312767
1969.0,0.11198908775497118
1968.0,0.11193288659256306
1967.0,0.11193288659256306
1966.0,0.11198908775497118
1965.0,0.11210151190312767
1964.0,0.11210151190312767
1963.0,0.11210151190312767
1962.0,0.1120452961911984
1961.0,0.1120452961911984
1960.0,0.1120452961911984
1959.0,0.11210151190312767
1958.0,0.11221396516162851
1957.0,0.11227020271196975
1956.0,0.11232644754555254
1955.0,0.11232644754555254
1954.0,0.11221396516162851
1953.0,0.1120452961911984
1952.0,0.11198908775497118
1951.0,0.1120452961911984
1950.0,0.11215773489264302
1949.0,0.11221396516162851
1948.0,0.11221396516162851
1947.0,0.11215773489264302
1946.0,0.11210151190312767
1945.0,0.11198908775497118
1944.0,0.11193288659256306
1943.0,0.11187669270209155
1942.0,0.11187669270209155
1941.0,0.11198908775497118
1940.0,0.11210151190312767
1939.0,0.11221396516162851
1938.0,0.11227020271196975
1937.0,0.11227020271196975
1936.0,0.11227020271196975
1935.0,0.11227020271196975
1934.0,0.11227020271196975
1933.0,0.11227020271196975
1932.0,0.11232644754555254
1931.0,0.11238269966426384
1930.0,0.11249522576462212
1929.0,0.11260778102815316
1928.0,0.11260778102815316
1927.0,0.11243895906999102
1926.0,0.11215773489264302
1925.0,0.11198908775497118
1924.0,0.11193288659256306
1923.0,0.11198908775497118
1922.0,0.11210151190312767
1921.0,0.11227020271196975
1920.0,0.11243895906999102
1919.0,0.11260778102815316
1918.0,0.11272036546997688
1917.0,0.11288929687511629
1916.0,0.112945621949043
1915.0,0.11288929687511629
1914.0,0.11277666863747693
1913.0,0.11266406960083297
1912.0,0.11249522576462212
1911.0,0.11232644754555254
1910.0,0.11227020271196975
1909.0,0.11227020271196975
1908.0,0.11232644754555254
1907.0,0.11238269966426384
1906.0,0.11243895906999102
1905.0,0.11260778102815316
1904.0,0.11277666863747693
1903.0,0.1128329791052256
1902.0,0.11277666863747693
1901.0,0.11272036546997688
1900.0,0.11260778102815316
1899.0,0.11249522576462212
1898.0,0.11249522576462212
1897.0,0.1125514997500463
1896.0,0.11272036546997688
1895.0,0.11272036546997688
1894.0,0.11272036546997688
1893.0,0.11266406960083297
1892.0,0.11266406960083297
1891.0,0.11260778102815316
1890.0,0.11266406960083297
1889.0,0.1128329791052256
1888.0,0.11305829401658474
1887.0,0.11311464101399138
1886.0,0.11305829401658474
1885.0,0.11305829401658474
1884.0,0.11305829401658474
1883.0,0.112945621949043
1882.0,0.11288929687511629
1881.0,0.11288929687511629
1880.0,0.1128329791052256
1879.0,0.11277666863747693
1878.0,0.11277666863747693
1877.0,0.1128329791052256
1876.0,0.112945621949043
1875.0,0.11288929687511629
1874.0,0.11277666863747693
1873.0,0.11260778102815316
1872.0,0.11249522576462212
1871.0,0.11238269966426384
1870.0,0.11215773489264302
1869.0,0.11210151190312767
1868.0,0.11227020271196975
1867.0,0.11238269966426384
1866.0,0.11249522576462212
1865.0,0.11260778102815316
1864.0,0.11260778102815316
1863.0,0.11249522576462212
1862.0,0.11232644754555254
1861.0,0.11227020271196975
1860.0,0.11227020271196975
1859.0,0.11227020271196975
1858.0,0.11232644754555254
1857.0,0.11249522576462212
1856.0,0.11260778102815316
1855.0,0.1125514997500463
1854.0,0.11243895906999102
1853.0,0.11249522576462212
1852.0,0.11249522576462212
1851.0,0.11238269966426384
1850.0,0.11215773489264302
1849.0,0.11193288659256306
1848.0,0.11176432672943282
1847.0,0.11193288659256306
1846.0,0.11232644754555254
1845.0,0.1128329791052256
1844.0,0.11317099532301778
1843.0,0.11305829401658474
1842.0,0.1128329791052256
1841.0,0.11277666863747693
1840.0,0.11272036546997688
1839.0,0.11249522576462212
1838.0,0.11227020271196975
1837.0,0.11215773489264302
1836.0,0.11215773489264302
1835.0,0.1120452961911984
1834.0,0.11187669270209155
1833.0,0.11176432672943282
1832.0,0.11159583226295333
1831.0,0.11131515334030118
1830.0,0.11109074073646874
1829.0,0.11109074073646874
1828.0,0.11125903931710734
1827.0,0.11165198982195101
1826.0,0.11198908775497118
1825.0,0.11215773489264302
1824.0,0.11221396516162851
1823.0,0.11215773489264302
1822.0,0.11210151190312767
1821.0,0.11210151190312767
1820.0,0.1120452961911984
1819.0,0.11198908775497118
1818.0,0.11187669270209155
1817.0,0.11193288659256306
1816.0,0.1120452961911984
1815.0,0.11198908775497118
1814.0,0.11176432672943282
1813.0,0.11153968196461372
1812.0,0.11153968196461372
1811.0,0.11159583226295333
1810.0,0.11165198982195101
1809.0,0.11176432672943282
1808.0,0.11198908775497118
1807.0,0.1120452961911984
1806.0,0.11193288659256306
1805.0,0.11187669270209155
1804.0,0.11182050608167504
1803.0,0.1117081546434846
1802.0,0.11159583226295333
1801.0,0.1114835389250548
1800.0,0.11153968196461372
1799.0,0.1114835389250548
1798.0,0.11125903931710734
1797.0,0.11120293254331926
1796.0,0.11131515334030118
1795.0,0.11159583226295333
1794.0,0.11182050608167504
1793.0,0.11198908775497118
1792.0,0.11227020271196975
1791.0,0.11238269966426384
1790.0,0.11227020271196975
1789.0,0.11227020271196975
1788.0,0.11232644754555254
1787.0,0.11221396516162851
1786.0,0.11210151190312767
1785.0,0.11210151190312767
1784.0,0.11198908775497118
1783.0,0.1117081546434846
1782.0,0.11142740314240007
1781.0,0.11125903931710734
1780.0,0.11120293254331926
1779.0,0.11125903931710734
1778.0,0.11125903931710734
1777.0,0.11114683301706374
1776.0,0.11097857790477517
1775.0,0.11092250734993603
1774.0,0.11092250734993603
1773.0,0.11075433910702048
1772.0,0.11075433910702048
1771.0,0.11103465569966264
1770.0,0.11153968196461372
1769.0,0.11215773489264302
1768.0,0.1125514997500463
1767.0,0.11249522576462212
1766.0,0.11210151190312767
1765.0,0.11187669270209155
1764.0,0.11198908775497118
1763.0,0.11210151190312767
1762.0,0.1120452961911984
1761.0,0.1117081546434846
1760.0,0.11142740314240007
1759.0,0.11142740314240007
1758.0,0.11165198982195101
1757.0,0.11182050608167504
1756.0,0.11187669270209155
1755.0,0.11187669270209155
1754.0,0.11193288659256306
1753.0,0.11193288659256306
1752.0,0.11176432672943282
1751.0,0.11153968196461372
1750.0,0.11137127461477392
1749.0,0.11131515334030118
1748.0,0.11153968196461372
1747.0,0.11182050608167504
1746.0,0.11187669270209155
1745.0,0.1117081546434846
1744.0,0.11159583226295333
1743.0,0.11182050608167504
1742.0,0.11210151190312767
1741.0,0.11232644754555254
1740.0,0.11249522576462212
1739.0,0.11243895906999102
1738.0,0.11227020271196975
1737.0,0.11249522576462212
1736.0,0.11288929687511629
1735.0,0.11288929687511629
1734.0,0.11288929687511629
1733.0,0.1128329791052256
1732.0,0.11232644754555254
1731.0,0.11243895906999102
1730.0,0.112945621949043
1729.0,0.11322735694556196
1728.0,0.11322735694556196
1727.0,0.11311464101399138
1726.0,0.1130019543289007
1725.0,0.1128329791052256
1724.0,0.1128329791052256
1723.0,0.11288929687511629
1722.0,0.11288929687511629
1721.0,0.1130019543289007
1720.0,0.11317099532301778
1719.0,0.112945621949043
1718.0,0.11249522576462212
1717.0,0.11266406960083297
1716.0,0.11322735694556196
1715.0,0.11356568037106163
1714.0,0.11390426756225258
1713.0,0.1141301390960936
1712.0,0.1141301390960936
1711.0,0.11379137583250243
1710.0,0.11328372588352176
1709.0,0.1128329791052256
1708.0,0.1125514997500463
1707.0,0.11238269966426384
1706.0,0.11232644754555254
1705.0,0.11243895906999102
1704.0,0.11266406960083297
1703.0,0.1133401021387972
1702.0,0.11429961987167014
1701.0,0.114865033936566
1700.0,0.11492161585077598
1699.0,0.11407366019856902
1698.0,0.11345287660889425
1697.0,0.1141301390960936
1696.0,0.11526126223036814
1695.0,0.11560117444331386
1694.0,0.11526126223036814
1693.0,0.11554450392951199
1692.0,0.11633856484638239
1691.0,0.11667932161702477
1690.0,0.11679296664760996
1689.0,0.11730473761840288
1688.0,0.1183871275216517
1687.0,0.11964380058076385
1686.0,0.12027350336042275
1685.0,0.12050271275057156
1684.0,0.12205304837081177
1683.0,0.12407101507707297
1682.0,0.1251124891538875
1681.0,0.126156466776564
1680.0,0.12697018793895576
1679.0,0.1275523522109867
1678.0,0.12819363554127072
1677.0,0.12883586719705065
1676.0,0.12930354201075
1675.0,0.1294790499872358
1674.0,0.12930354201075
1673.0,0.12883586719705065
1672.0,0.1284854412916181
1671.0,0.12819363554127072
1670.0,0.1282519810081284
1669.0,0.12889429901441463
1668.0,0.12942053944731513
1667.0,0.12971317100740865
1666.0,0.12994741830645506
1665.0,0.12994741830645506
1664.0,0.12965462891904034
1663.0,0.12936203678919433
1662.0,0.1294790499872358
1661.0,0.1295960947209729
1660.0,0.12971317100740865
1659.0,0.12965462891904034
1658.0,0.12942053944731513
1657.0,0.1290696416513042
1656.0,0.12912810493225724
1655.0,0.12924505510985984
1654.0,0.1290696416513042
1653.0,0.13000599987825812
1652.0,0.12971317100740865
1651.0,0.12784372725170723
1650.0,0.1276688787697493
1649.0,0.12796033202671375
1648.0,0.1276688787697493
1647.0,0.12790202572577325
1646.0,0.12895273869450063
1645.0,0.12936203678919433
1644.0,0.12924505510985984
1643.0,0.12924505510985984
1642.0,0.12936203678919433
1641.0,0.12924505510985984
1640.0,0.12889429901441463
1639.0,0.1286022185125162
1638.0,0.1286022185125162
1637.0,0.12883586719705065
1636.0,0.12983027886355947
1635.0,0.1311205537629121
1634.0,0.13106182166708868
1633.0,0.13070959579060148
1632.0,0.13076828026902376
1631.0,0.1308269726783169
1630.0,0.13094438129809216
1629.0,0.1311792938024825
1628.0,0.13176713157753506
1627.0,0.13265038281120756
1626.0,0.13359450162194508
1625.0,0.13448148092522594
1624.0,0.13554825284181704
1623.0,0.13739163603505822
1622.0,0.13960209487268727
1621.0,0.14122226269455074
1620.0,0.1423660148499919
1619.0,0.14333151638846497
1618.0,0.14381507327283027
1617.0,0.14393604666690019
1616.0,0.14375459920994582
1615.0,0.14333151638846497
1614.0,0.14315032127482774
1613.0,0.14302956651750764
1612.0,0.14230574221345038
1611.0,0.14128238513970826
1610.0,0.14038142122781938
1609.0,0.1396619934290062
1608.0,0.13894375542312654
1607.0,0.1384058553561347
1606.0,0.13798794874978348
1605.0,0.1373320497714121
1604.0,0.13643923547375736
1603.0,0.13572630319562085
1602.0,0.1352516643703412
1601.0,0.13483678049391368
1600.0,0.13442229258007088
1599.0,0.13394907599072514
1598.0,0.13341732293645103
1597.0,0.13282724882135022
1596.0,0.132179091954427
1595.0,0.1316495003520317
1594.0,0.13135556160517425
1593.0,0.1311205537629121
1592.0,0.13070959579060148
1591.0,0.1302990263261221
1590.0,0.13006458935314003
1589.0,0.12983027886355947
1588.0,0.12953756841108
1587.0,0.12924505510985984
1586.0,0.12901118623942476
1585.0,0.12877744324029283
1584.0,0.12836869546244634
1583.0,0.1280769681176266
1582.0,0.12784372725170723
1581.0,0.12743585690934855
1580.0,0.12697018793895576
1579.0,0.12667939818460128
1578.0,0.12656313677796316
1577.0,0.1263307072932056
1576.0,0.12604034525664676
1575.0,0.12569216687196105
1574.0,0.12540223129680017
1573.0,0.12557616941349803
1572.0,0.12569216687196105
1571.0,0.12540223129680017
1570.0,0.1251124891538875
1569.0,0.1251124891538875
1568.0,0.125054563914468
1567.0,0.124996646399959
1566.0,0.1249387366082999
1565.0,0.12464930342071079
1564.0,0.12424442074194553
1563.0,0.12436006299583169
1562.0,0.12482294018529605
1561.0,0.12482294018529605
1560.0,0.12337808396572703
1559.0,0.12320502379929943
1558.0,0.1252863112422209
1557.0,0.1248808345374317
1556.0,0.12464930342071079
1555.0,0.12476505354983503
1554.0,0.12459143992293642
1553.0,0.12401322857151209
1552.0,0.12355121312165873
1551.0,0.12343578601615435
1550.0,0.12343578601615435
1549.0,0.12355121312165873
1548.0,0.12355121312165873
1547.0,0.12349349573411894
1546.0,0.12303203256741524
1545.0,0.12222565000860186
1544.0,0.12153565465853111
1543.0,0.12113366304327466
1542.0,0.12061736282565727
1541.0,0.12015894401343741
1540.0,0.12101887660626365
1539.0,0.1219955297319748
1538.0,0.12147820449879343
1537.0,0.1213058996038916
1536.0,0.12165057778222454
1535.0,0.12159311241900439
1534.0,0.12124847982699793
1533.0,0.12113366304327466
1532.0,0.12119106764079435
1531.0,0.12107626603243293
1530.0,0.1207320431753871
1529.0,0.1202162199095842
1528.0,0.11981544717356662
1527.0,0.11964380058076385
1526.0,0.11947222180119477
1525.0,0.11935787359571504
1524.0,0.11924355548978971
1523.0,0.11907213473291511
1522.0,0.1190150095132465
1521.0,0.11935787359571504
1520.0,0.11935787359571504
1519.0,0.11895789180659433
1518.0,0.11844417020668851
1517.0,0.11793105556385153
1516.0,0.11781711236973003
1515.0,0.11793105556385153
1514.0,0.11804502866039956
1513.0,0.11793105556385153
1512.0,0.11741854644554883
1511.0,0.11662251025166115
1510.0,0.11582793047608719
1509.0,0.11503480179926728
1508.0,0.11446916681190777
1507.0,0.11520463605101905
1506.0,0.11628179803604044
1505.0,0.11526126223036814
1504.0,0.11429961987167014
1503.0,0.11407366019856902
1502.0,0.11396072443355765
1501.0,0.1137349409702435
1500.0,0.11350927482751816
1499.0,0.11339648571328764
1498.0,0.11311464101399138
1497.0,0.11288929687511629
1496.0,0.11260778102815316
1495.0,0.11187669270209155
1494.0,0.11114683301706374
1493.0,0.1106422631110684
1492.0,0.11019424813191447
1491.0,0.10935546370475246
1490.0,0.10862982530385179
1489.0,0.10840679565103484
1488.0,0.10840679565103484
1487.0,0.10801676914803293
1486.0,0.10734896612269962
1485.0,0.10679324694015202
1484.0,0.10612732120491852
1483.0,0.10535169620648288
1482.0,0.10419084983086901
1481.0,0.10297804393963661
1480.0,0.10209812573177213
1479.0,0.10138450258381404
1478.0,0.10072681268239614
1477.0,0.10072681268239614
1476.0,0.10270287794050348
1475.0,0.10773839308446487
1474.0,0.11645212073195621
1473.0,0.12877744324029283
1472.0,0.1407415825326932
1471.0,0.14618015414323682
1470.0,0.14672777597931685
1469.0,0.146788665496683
1468.0,0.14776406058811253
1467.0,0.1494762911210057
1466.0,0.15242734085788778
1465.0,0.15801519540988607
1464.0,0.16627930955536674
1463.0,0.17373078060627378
1462.0,0.1775703762206431
1461.0,0.17776651976115598
1460.0,0.1752235375244544
1459.0,0.17082492608291244
1458.0,0.16596098184053343
1457.0,0.16285365609093994
1456.0,0.16096212661169407
1455.0,0.15870311250971825
1454.0,0.1565180569600424
1453.0,0.1545918603782066
1452.0,0.15255073750082726
1451.0,0.15064201833870117
1450.0,0.14898639317633
1449.0,0.14782509557969692
1448.0,0.14691047014813452
1447.0,0.14618015414323682
1446.0,0.14551177495556966
1445.0,0.1447838052666366
1444.0,0.14405705376768396
1443.0,0.14333151638846497
1442.0,0.14266750356873148
1441.0,0.14200450443907608
1440.0,0.1415831222765116
1439.0,0.14140265500530758
1438.0,0.14122226269455074
1437.0,0.14116214857141451
1436.0,0.14122226269455074
1435.0,0.1407415825326932
1434.0,0.13984173868172167
1433.0,0.13894375542312654
1432.0,0.1380476250785483
1431.0,0.13727247168202528
1430.0,0.13673663634951905
1429.0,0.13620146131949973
1428.0,0.13554825284181704
1427.0,0.134659094375416
1426.0,0.13365357725039817
1425.0,0.13259144347720886
1424.0,0.13182595914036166
1423.0,0.13159069668503998
1422.0,0.1314731132317961
1421.0,0.1311792938024825
1420.0,0.1305922506177981
1419.0,0.13012318673323353
1418.0,0.12988884463559924
1417.0,0.12953756841108
1416.0,0.1290696416513042
1415.0,0.1284854412916181
1414.0,0.1277271537757949
1413.0,0.12691201440971422
1412.0,0.12627261935332057
1411.0,0.12586622117202761
1410.0,0.12546020292898974
1409.0,0.124996646399959
1408.0,0.12453358413361437
1407.0,0.12412880927263426
1406.0,0.12395544975390482
1405.0,0.12395544975390482
1404.0,0.12407101507707297
1403.0,0.12407101507707297
1402.0,0.12389767862220635
1401.0,0.12360893818081231
1400.0,0.1233203895807995
1399.0,0.12337808396572703
1398.0,0.12355121312165873
1397.0,0.12349349573411894
1396.0,0.12314735239865637
1395.0,0.12274386688641381
1394.0,0.12251347193039863
1393.0,0.12239832027072817
1392.0,0.12245589228405596
1391.0,0.12257105921178035
1390.0,0.12257105921178035
1389.0,0.12245589228405596
1388.0,0.12234075588839133
1387.0,0.12239832027072817
1386.0,0.12251347193039863
1385.0,0.12239832027072817
1384.0,0.12216810850710624
1383.0,0.12205304837081177
1382.0,0.12211057462851604
1381.0,0.12257105921178035
1380.0,0.12337808396572703
1379.0,0.1244757360506914
1378.0,0.12546020292898974
1377.0,0.12604034525664676
1376.0,0.1260984021355387
1375.0,0.126156466776564
1374.0,0.12644690648638135
1373.0,0.12702836926155658
1372.0,0.12743585690934855
1371.0,0.1276688787697493
1370.0,0.12796033202671375
1369.0,0.1283103343144847
1368.0,0.1287190271420271
1367.0,0.1290696416513042
1366.0,0.12918657608440243
1365.0,0.1290696416513042
1364.0,0.12883586719705065
1363.0,0.12889429901441463
1362.0,0.12936203678919433
1361.0,0.12983027886355947
1360.0,0.13000599987825812
1359.0,0.12983027886355947
1358.0,0.12965462891904034
1357.0,0.1294790499872358
1356.0,0.12942053944731513
1355.0,0.1295960947209729
1354.0,0.12988884463559924
1353.0,0.13018179202067182
1352.0,0.1302990263261221
1351.0,0.1302990263261221
1350.0,0.13024040521758962
1349.0,0.1302990263261221
1348.0,0.13035765534840538
1347.0,0.13053358991913355
1346.0,0.1306509192409071
1345.0,0.1306509192409071
1344.0,0.13053358991913355
1343.0,0.13024040521758962
1342.0,0.12988884463559924
1341.0,0.1295960947209729
1340.0,0.12965462891904034
1339.0,0.13024040521758962
1338.0,0.13094438129809216
1337.0,0.1312967977214634
1336.0,0.1311792938024825
1335.0,0.1308856730206247
1334.0,0.1306509192409071
1333.0,0.1304749371427727
1332.0,0.1304749371427727
1331.0,0.13053358991913355
1330.0,0.1305922506177981
1329.0,0.1306509192409071
1328.0,0.1306509192409071
1327.0,0.13070959579060148
1326.0,0.13070959579060148
1325.0,0.1308269726783169
1324.0,0.1308856730206247
1323.0,0.13094438129809216
1322.0,0.13100309751286465
1321.0,0.13100309751286465
1320.0,0.13106182166708868
1319.0,0.1312967977214634
1318.0,0.1316495003520317
1317.0,0.13194363817695853
1316.0,0.13200248965504868
1315.0,0.13200248965504868
1314.0,0.1320613491092153
1313.0,0.13229686672990226
1312.0,0.13270933014511588
1311.0,0.13318119707395182
1310.0,0.13359450162194508
1309.0,0.13394907599072514
1308.0,0.13418561983203192
1307.0,0.13448148092522594
1306.0,0.13477754370982087
1305.0,0.1349552783069008
1304.0,0.1350738084609946
1303.0,0.1352516643703412
1302.0,0.1354889189416082
1301.0,0.13572630319562085
1300.0,0.13590442657575252
1299.0,0.1360232160956132
1298.0,0.1360826230421397
1297.0,0.13626089265478303
1296.0,0.13649869935854997
1295.0,0.13673663634951905
1294.0,0.13685565374733244
1293.0,0.13685565374733244
1292.0,0.13685565374733244
1291.0,0.13697470377052956
1290.0,0.13709378643700187
1289.0,0.13727247168202528
1288.0,0.13739163603505822
1287.0,0.1374512304752069
1286.0,0.13751083309410284
1285.0,0.1375704438939911
1284.0,0.13763006287711765
1283.0,0.13774932540207496
1282.0,0.13798794874978348
1281.0,0.13816700234205515
1280.0,0.13834612978608907
1279.0,0.1384058553561347
1278.0,0.1385253311428314
1277.0,0.13858508136400327
1276.0,0.13864483980673992
1275.0,0.1387643813659596
1274.0,0.1388839558386048
1273.0,0.13894375542312654
1272.0,0.13900356324280416
1271.0,0.1390633792999063
1270.0,0.1390633792999063
1269.0,0.1390633792999063
1268.0,0.1390633792999063
1267.0,0.13912320359670227
1266.0,0.13918303613546223
1265.0,0.13918303613546223
1264.0,0.13918303613546223
1263.0,0.13912320359670227
1262.0,0.13912320359670227
1261.0,0.1390633792999063
1260.0,0.13900356324280416
1259.0,0.13900356324280416
1258.0,0.13894375542312654
1257.0,0.1388839558386048
1256.0,0.1388241644869712
1255.0,0.1388839558386048
1254.0,0.13900356324280416
1253.0,0.13912320359670227
1252.0,0.13912320359670227
1251.0,0.13912320359670227
1250.0,0.1390633792999063
1249.0,0.13912320359670227
1248.0,0.13918303613546223
1247.0,0.13936258322624528
1246.0,0.13960209487268727
1245.0,0.13990167030148193
1244.0,0.1400815147992842
1243.0,0.1400815147992842
1242.0,0.1399616101928065
1241.0,0.13990167030148193
1240.0,0.1400815147992842
1239.0,0.14038142122781938
1238.0,0.14062149557439896
1237.0,0.1407415825326932
1236.0,0.1407415825326932
1235.0,0.14062149557439896
1234.0,0.1405014418122239
1233.0,0.14026143380285316
1232.0,0.1400815147992842
1231.0,0.1399616101928065
1230.0,0.13990167030148193
1229.0,0.13984173868172167
1228.0,0.13990167030148193
1227.0,0.1400815147992842
1226.0,0.14026143380285316
1225.0,0.1405014418122239
1224.0,0.1407415825326932
1223.0,0.14086170270546927
1222.0,0.1409217752530305
1221.0,0.1409217752530305
1220.0,0.1409217752530305
1219.0,0.1409818561111058
1218.0,0.14110204276799654
1217.0,0.14116214857141451
1216.0,0.14122226269455074
1215.0,0.14128238513970826
1214.0,0.1413425159091921
1213.0,0.1414628024303608
1212.0,0.1415831222765116
1211.0,0.14176366457048695
1210.0,0.141884067809934
1209.0,0.1419442819496357
1208.0,0.14200450443907608
1207.0,0.14218522202899342
1206.0,0.14242629585250421
1205.0,0.1427278264359586
1204.0,0.14296920172737604
1203.0,0.14315032127482774
1202.0,0.1432711096171173
1201.0,0.14333151638846497
1200.0,0.14339193156306385
1199.0,0.14351278713136928
1198.0,0.14363367634075197
1197.0,0.14393604666690019
1196.0,0.14435971910985468
1195.0,0.14484442282300614
1194.0,0.14532966810466452
1193.0,0.1456939581989194
1192.0,0.14599776687301103
1191.0,0.14624096692523136
1190.0,0.14648430324307138
1189.0,0.1466060225493342
1188.0,0.14666689499766483
1187.0,0.146788665496683
1186.0,0.14691047014813452
1185.0,0.14697138528701026
1184.0,0.14703230897118158
1183.0,0.14709324120304634
1182.0,0.1472760892087941
1181.0,0.14745901423020125
1180.0,0.14782509557969692
1179.0,0.14819148577176255
1178.0,0.14849704722945534
1177.0,0.148864004988426
1176.0,0.14923127307111983
1175.0,0.1497214474819628
1174.0,0.15027355580367208
1173.0,0.15082636690117335
1172.0,0.15131834597604965
1171.0,0.15181088300860135
1170.0,0.1523039792658345
1169.0,0.15279763601907614
1168.0,0.15335367142288248
1167.0,0.15403423845451636
1166.0,0.15471587365200845
1165.0,0.15539858037365328
1164.0,0.1560823619936076
1163.0,0.15682953548010214
1162.0,0.15757799664235028
1161.0,0.15832774992636556
1160.0,0.1590787998012282
1159.0,0.159956669396506
1158.0,0.16083631708534996
1157.0,0.16178077809237412
1156.0,0.16285365609093994
1155.0,0.16399254087446846
1154.0,0.16519794595130088
1153.0,0.16627930955536674
1152.0,0.1673633724032968
1151.0,0.16857818293497795
1150.0,0.16986061257465734
1149.0,0.17108243838331405
1148.0,0.17230771132555445
1147.0,0.17360121781238225
1146.0,0.17483362774345035
1145.0,0.17613469067548881
1144.0,0.1775703762206431
1143.0,0.17907641211868253
1142.0,0.18065351591954726
1141.0,0.1821703002543944
1140.0,0.18375870000821704
1139.0,0.18535293054814383
1138.0,0.18695303483989223
1137.0,0.188357978546849
1136.0,0.1894986522334703
1135.0,0.19044028536473223
1134.0,0.191383964573008
1133.0,0.19219446772937543
1132.0,0.19300648631789286
1131.0,0.19368433019188647
1130.0,0.19436323369406505
1129.0,0.19497515557019485
1128.0,0.19572423287090612
1127.0,0.19654288435158618
1126.0,0.19729467292564795
1125.0,0.1979107421182673
1124.0,0.1985276864785288
1123.0,0.19914550849643908
1122.0,0.19983300979863605
1121.0,0.200521601162019
1120.0,0.20134935455473113
1119.0,0.20231706508510094
1118.0,0.20342566678957041
1117.0,0.2046066650687106
1116.0,0.20579088365350362
1115.0,0.20697834015401684
1114.0,0.2081690523251638
1113.0,0.2092927126723203
1112.0,0.2104897959097456
1111.0,0.21169018789295002
1110.0,0.21296481797377664
1109.0,0.21424320003735708
1108.0,0.21538270736712462
1107.0,0.21631076365268354
1106.0,0.21695442788530706
1105.0,0.2173840679683965
1104.0,0.21767073100316314
1103.0,0.21795758337944582
1102.0,0.2181010806488508
1101.0,0.2182446253475312
1100.0,0.2183882175068499
1099.0,0.21853185715820178
1098.0,0.2186036948032093
1097.0,0.21867554433301217
1096.0,0.21881927906273835
1095.0,0.21896306137886823
1094.0,0.21896306137886823
1093.0,0.21881927906273835
1092.0,0.2183882175068499
1091.0,0.21788585252092885
1090.0,0.21716919479740815
1089.0,0.21652521241775347
1088.0,0.2158107946190393
1087.0,0.21516882187553077
1086.0,0.21452779669361166
1085.0,0.21395878975744576
1084.0,0.2134615195021976
1083.0,0.21296481797377664
1082.0,0.2122562283535332
1081.0,0.21140744407964052
1080.0,0.2107013888405589
1079.0,0.2101373699536182
1078.0,0.20971483596675822
1077.0,0.2093630380682967
1076.0,0.2089412564081745
1075.0,0.20866029603486047
1074.0,0.20844969497266996
1073.0,0.20844969497266996
1072.0,0.20866029603486047
1071.0,0.2088709992727138
1070.0,0.2088007535011247
1069.0,0.2083093509798819
1068.0,0.2076083105017461
1067.0,0.20683847075444928
1066.0,0.2065588670223364
1065.0,0.20683847075444928
1064.0,0.20753826865304936
1063.0,0.2083093509798819
1062.0,0.2087305190897315
1061.0,0.20866029603486047
1060.0,0.20823919598709506
1059.0,0.2076083105017461
1058.0,0.20676855294347907
1057.0,0.20606999322731534
1056.0,0.20579088365350362
1055.0,0.20593041601836748
1054.0,0.20620961530918125
1053.0,0.206349282292827
1052.0,0.206349282292827
1051.0,0.206349282292827
1050.0,0.206349282292827
1049.0,0.206349282292827
1048.0,0.20641913263184408
1047.0,0.2065588670223364
1046.0,0.20669864638688495
1045.0,0.20683847075444928
1044.0,0.20697834015401684
1043.0,0.20725821416525125
1042.0,0.2076783636484265
1041.0,0.2083093509798819
1040.0,0.2090818047854217
1039.0,0.20971483596675822
1038.0,0.2101373699536182
1037.0,0.2104897959097456
1036.0,0.21098367320662526
1035.0,0.21161948468043668
1034.0,0.21232703531250707
1033.0,0.21296481797377664
1032.0,0.21367456560992992
1031.0,0.21417208000413446
1030.0,0.21424320003735708
1029.0,0.2137456042102197
1028.0,0.21317762050081246
1027.0,0.21296481797377664
1026.0,0.2133195468033513
1025.0,0.21395878975744576
1024.0,0.2145989750076125
1023.0,0.21502629004559926
1022.0,0.21516882187553077
1021.0,0.21531140049857878
1020.0,0.21538270736712462
1019.0,0.21552535623748348
1018.0,0.21559669824699146
1017.0,0.21552535623748348
1016.0,0.21531140049857878
1015.0,0.21516882187553077
1014.0,0.21516882187553077
1013.0,0.21516882187553077
1012.0,0.21524010533599514
1011.0,0.2150975501133452
1010.0,0.21474136664229881
1009.0,0.21438547505317596
1008.0,0.2141009716156166
1007.0,0.21381665443236653
1006.0,0.21367456560992992
1005.0,0.2137456042102197
1004.0,0.2141009716156166
1003.0,0.21445663004340698
1002.0,0.21467016498923286
1001.0,0.21474136664229881
1000.0,0.21467016498923286
999.0,0.21467016498923286
998.0,0.21481257997063818
997.0,0.21481257997063818
996.0,0.21474136664229881
995.0,0.21467016498923286
994.0,0.21452779669361166
993.0,0.21445663004340698
992.0,0.21445663004340698
991.0,0.21452779669361166
990.0,0.21445663004340698
989.0,0.21438547505317596
988.0,0.21431433171909875
987.0,0.21431433171909875
986.0,0.21438547505317596
985.0,0.21452779669361166
984.0,0.21474136664229881
983.0,0.21481257997063818
982.0,0.21481257997063818
981.0,0.21474136664229881
980.0,0.21467016498923286
979.0,0.2145989750076125
978.0,0.21452779669361166
977.0,0.21431433171909875
976.0,0.2141009716156166
975.0,0.21395878975744576
974.0,0.21388771628017356
973.0,0.2137456042102197
972.0,0.21367456560992992
971.0,0.2135325232597176
970.0,0.2134615195021976
969.0,0.2134615195021976
968.0,0.2135325232597176
967.0,0.21367456560992992
966.0,0.2137456042102197
965.0,0.21367456560992992
964.0,0.2134615195021976
963.0,0.2133195468033513
962.0,0.21317762050081246
961.0,0.21317762050081246
960.0,0.21317762050081246
959.0,0.2133195468033513
958.0,0.2135325232597176
957.0,0.21360353862769577
956.0,0.2135325232597176
955.0,0.21317762050081246
954.0,0.21275211966804597
953.0,0.21253952548158495
952.0,0.21253952548158495
951.0,0.2126103786478899
950.0,0.21275211966804597
949.0,0.21282300752944616
948.0,0.21296481797377664
947.0,0.21310667473868428
946.0,0.21317762050081246
945.0,0.2130357405642671
944.0,0.2128939069634299
943.0,0.21268124337545258
942.0,0.21239785381766252
941.0,0.2121146490590755
940.0,0.21183162885883222
939.0,0.21176090261783198
938.0,0.21190236661970263
937.0,0.2121146490590755
936.0,0.2122562283535332
935.0,0.21239785381766252
934.0,0.21246868387276563
933.0,0.21246868387276563
932.0,0.2122562283535332
931.0,0.21190236661970263
930.0,0.2115487929765445
929.0,0.21126614117229248
928.0,0.2111248842245832
927.0,0.2111248842245832
926.0,0.21105427297625234
925.0,0.21098367320662526
924.0,0.21105427297625234
923.0,0.21126614117229248
922.0,0.21147811277752715
921.0,0.21176090261783198
920.0,0.2119731159041962
919.0,0.21204387671606817
918.0,0.21204387671606817
917.0,0.21183162885883222
916.0,0.21161948468043668
915.0,0.21133678687914248
914.0,0.2111248842245832
913.0,0.21091308491197136
912.0,0.2108425080885603
911.0,0.21091308491197136
910.0,0.21091308491197136
909.0,0.21077194273266486
908.0,0.21034879120659045
907.0,0.20985563495709947
906.0,0.20957408260888943
905.0,0.20950372303289044
904.0,0.20957408260888943
903.0,0.20964445358561346
902.0,0.20964445358561346
901.0,0.20957408260888943
900.0,0.20957408260888943
899.0,0.20957408260888943
898.0,0.20971483596675822
897.0,0.20985563495709947
896.0,0.20985563495709947
895.0,0.20971483596675822
894.0,0.20950372303289044
893.0,0.20943337485392344
892.0,0.20950372303289044
891.0,0.20964445358561346
890.0,0.20971483596675822
889.0,0.20985563495709947
888.0,0.2101373699536182
887.0,0.21063084640851826
886.0,0.2111248842245832
885.0,0.2115487929765445
884.0,0.21176090261783198
883.0,0.21183162885883222
882.0,0.21176090261783198
881.0,0.2115487929765445
880.0,0.21140744407964052
879.0,0.21119550695535172
878.0,0.21105427297625234
877.0,0.21091308491197136
876.0,0.2108425080885603
875.0,0.21077194273266486
874.0,0.21063084640851826
873.0,0.21056031543282083
872.0,0.21063084640851826
871.0,0.21077194273266486
870.0,0.21077194273266486
869.0,0.21077194273266486
868.0,0.21077194273266486
867.0,0.2111248842245832
866.0,0.2115487929765445
865.0,0.2119731159041962
864.0,0.2119731159041962
863.0,0.2115487929765445
862.0,0.21091308491197136
861.0,0.21027830601907826
860.0,0.20992605157369537
859.0,0.20999647960951062
858.0,0.21027830601907826
857.0,0.21056031543282083
856.0,0.21056031543282083
855.0,0.21056031543282083
854.0,0.21056031543282083
853.0,0.21063084640851826
852.0,0.2107013888405589
851.0,0.21077194273266486
850.0,0.21077194273266486
849.0,0.21091308491197136
848.0,0.21119550695535172
847.0,0.21161948468043668
846.0,0.21190236661970263
845.0,0.21190236661970263
844.0,0.21161948468043668
843.0,0.21119550695535172
842.0,0.21091308491197136
841.0,0.21091308491197136
840.0,0.21098367320662526
839.0,0.21098367320662526
838.0,0.2107013888405589
837.0,0.21041928783557462
836.0,0.21027830601907826
835.0,0.2104897959097456
834.0,0.2108425080885603
833.0,0.21133678687914248
832.0,0.21161948468043668
831.0,0.21161948468043668
830.0,0.21140744407964052
829.0,0.21098367320662526
828.0,0.2107013888405589
827.0,0.2107013888405589
826.0,0.21098367320662526
825.0,0.21126614117229248
824.0,0.21147811277752715
823.0,0.2115487929765445
822.0,0.21126614117229248
821.0,0.21091308491197136
820.0,0.2104897959097456
819.0,0.2101373699536182
818.0,0.20985563495709947
817.0,0.20957408260888943
816.0,0.2093630380682967
815.0,0.2093630380682967
814.0,0.2093630380682967
813.0,0.2093630380682967
812.0,0.20957408260888943
811.0,0.20978522975602076
810.0,0.20999647960951062
809.0,0.20978522975602076
808.0,0.2093630380682967
807.0,0.2089412564081745
806.0,0.2087305190897315
805.0,0.2088007535011247
804.0,0.2088007535011247
803.0,0.20866029603486047
802.0,0.20844969497266996
801.0,0.20823919598709506
800.0,0.20823919598709506
799.0,0.2083093509798819
798.0,0.20823919598709506
797.0,0.20823919598709506
796.0,0.2085198839799991
795.0,0.2089412564081745
794.0,0.2092223986623063
793.0,0.20915209603456808
792.0,0.20901152491118413
791.0,0.2089412564081745
790.0,0.2088709992727138
789.0,0.2088709992727138
788.0,0.2088007535011247
787.0,0.2088007535011247
786.0,0.2088709992727138
785.0,0.20901152491118413
784.0,0.20915209603456808
783.0,0.20915209603456808
782.0,0.20901152491118413
781.0,0.2087305190897315
780.0,0.20859008433283988
779.0,0.20844969497266996
778.0,0.20823919598709506
777.0,0.20781850385032108
776.0,0.2076083105017461
775.0,0.20781850385032108
774.0,0.20837951730718585
773.0,0.2087305190897315
772.0,0.2087305190897315
771.0,0.20837951730718585
770.0,0.20788859091283163
769.0,0.20725821416525125
768.0,0.20676855294347907
767.0,0.20641913263184408
766.0,0.20613979865733034
765.0,0.20579088365350362
764.0,0.20523320205917894
763.0,0.20474581741911724
762.0,0.2043980201058202
761.0,0.2043980201058202
760.0,0.20453710560962013
759.0,0.2046066650687106
758.0,0.20446755728984556
757.0,0.20432849405397824
756.0,0.20432849405397824
755.0,0.2046066650687106
754.0,0.20502425594886842
753.0,0.20530287310800133
752.0,0.20502425594886842
751.0,0.20432849405397824
750.0,0.2033562962148836
749.0,0.20259395032361804
748.0,0.20231706508510094
747.0,0.20245548563827365
746.0,0.20273245916928362
745.0,0.20307892466983124
744.0,0.20342566678957041
743.0,0.20349504844670374
742.0,0.20307892466983124
741.0,0.20204035626280392
740.0,0.200521601162019
739.0,0.1987335295103798
738.0,0.19702114466473808
737.0,0.19558794086228604
736.0,0.19470308384201496
735.0,0.19429529556613567
734.0,0.1946350925335547
733.0,0.19647460442346754
732.0,0.20086630669793704
731.0,0.20753826865304936
730.0,0.2145989750076125
729.0,0.2193227255666319
728.0,0.22047565667521019
727.0,0.21889116427053357
726.0,0.21623930425607596
725.0,0.21402987486799052
724.0,0.21317762050081246
723.0,0.21438547505317596
722.0,0.21853185715820178
721.0,0.22635980673997413
720.0,0.23649713453240295
719.0,0.2454987706130829
718.0,0.2501091587285782
717.0,0.2498774732165998
716.0,0.24641694110709333
715.0,0.2414665777627134
714.0,0.23627259623430175
713.0,0.23128791962233652
712.0,0.22701854965503632
711.0,0.22373478173189043
710.0,0.22119779598676126
709.0,0.2192507688964478
708.0,0.21774242633669827
707.0,0.21695442788530706
706.0,0.21638223480925123
705.0,0.21524010533599514
704.0,0.2133195468033513
703.0,0.21105427297625234
702.0,0.2093630380682967
701.0,0.20859008433283988
700.0,0.20844969497266996
699.0,0.20859008433283988
698.0,0.20866029603486047
697.0,0.20844969497266996
696.0,0.20781850385032108
695.0,0.20662875108104428
694.0,0.20502425594886842
693.0,0.20349504844670374
692.0,0.20252471246266568
691.0,0.20217868863597643
690.0,0.20204035626280392
689.0,0.20197120659592693
688.0,0.20183294028406085
687.0,0.20176382363206424
686.0,0.20176382363206424
685.0,0.20197120659592693
684.0,0.20231706508510094
683.0,0.20273245916928362
682.0,0.2028710122034474
681.0,0.20245548563827365
680.0,0.20190206793751408
679.0,0.2016256233184388
678.0,0.20204035626280392
677.0,0.20294030530002893
676.0,0.2040505010971967
675.0,0.20565139610391725
674.0,0.208028798979232
673.0,0.21105427297625234
672.0,0.21388771628017356
671.0,0.21566805197785177
670.0,0.21602499658732888
669.0,0.21645371772965016
668.0,0.21961067152904712
667.0,0.224608028303388
666.0,0.22797183467514515
665.0,0.2278984307229881
664.0,0.22475374025976347
663.0,0.22004294875309416
662.0,0.21545402594547736
661.0,0.2122562283535332
660.0,0.21056031543282083
659.0,0.20964445358561346
658.0,0.20844969497266996
657.0,0.20662875108104428
656.0,0.20481541031757589
655.0,0.2037726859705613
654.0,0.20342566678957041
653.0,0.20273245916928362
652.0,0.20114226825251436
651.0,0.19928292171761486
650.0,0.1981848314185628
649.0,0.1976368256904526
648.0,0.19661117501638659
647.0,0.19409154492580294
646.0,0.19091186865365373
645.0,0.18849202005467336
644.0,0.18829097330380895
643.0,0.19017103893211385
642.0,0.1928033392890527
641.0,0.19470308384201496
640.0,0.19565608152013425
639.0,0.19647460442346754
638.0,0.1983905119726812
637.0,0.20169471797802352
636.0,0.20586064423222616
635.0,0.20943337485392344
634.0,0.2108425080885603
633.0,0.20915209603456808
632.0,0.20558166912585896
631.0,0.20210951694165114
630.0,0.19976421067264605
629.0,0.1981162928747604
628.0,0.1962698290254561
627.0,0.19422736806433094
626.0,0.1928033392890527
625.0,0.1926002872405146
624.0,0.19334527600813955
623.0,0.19429529556613567
622.0,0.19490712165732704
621.0,0.19504320014250842
620.0,0.1944311824514442
619.0,0.19334527600813955
618.0,0.19226207798589923
617.0,0.19232969876951622
616.0,0.19361649817583237
615.0,0.19538358301274483
614.0,0.19681611146465805
613.0,0.19784224681303852
612.0,0.1990768181867817
611.0,0.20072839165012724
610.0,0.20280173016104097
609.0,0.20516354218543853
608.0,0.2076083105017461
607.0,0.2101373699536182
606.0,0.21275211966804597
605.0,0.2159535841918867
604.0,0.22033137279285198
603.0,0.2252641174482466
602.0,0.22936887222219338
601.0,0.23143589048642665
600.0,0.2312139530919859
