cm-1,A
4000.0,0.0013919706849057079
3999.0,0.0014355417390583547
3998.0,0.0014791171649619628
3997.0,0.0015226969634936083
3996.0,0.0014355417390583547
3995.0,0.0012612837441823288
3994.0,0.0010870956412141197
3993.0,0.0009129773741116676
3992.0,0.0009129773741116676
3991.0,0.0009565003968372565
3990.0,0.0010435595295137379
3989.0,0.0010870956412141197
3988.0,0.0010870956412141197
3987.0,0.0011306361176557367
3986.0,0.0011741809597138886
3985.0,0.0012177301682640973
3984.0,0.0012612837441823288
3983.0,0.0011741809597138886
3982.0,0.0010870956412141197
3981.0,0.0010000277816797354
3980.0,0.0009565003968372565
3979.0,0.0010000277816797354
3978.0,0.0010435595295137379
3977.0,0.0011306361176557367
3976.0,0.0011741809597138886
3975.0,0.0011306361176557367
3974.0,0.0010870956412141197
3973.0,0.0011306361176557367
3972.0,0.0011741809597138886
3971.0,0.0012177301682640973
3970.0,0.0012177301682640973
3969.0,0.0011306361176557367
3968.0,0.0010000277816797354
3967.0,0.0009129773741116676
3966.0,0.0009129773741116676
3965.0,0.0010000277816797354
3964.0,0.0010870956412141197
3963.0,0.0011741809597138886
3962.0,0.0011306361176557367
3961.0,0.0010435595295137379
3960.0,0.0009129773741116676
3959.0,0.0008259444115150671
3958.0,0.0007389288868995258
3957.0,0.0007389288868995258
3956.0,0.0007824344698965646
3955.0,0.0008259444115150671
3954.0,0.0009129773741116676
3953.0,0.0009565003968372565
3952.0,0.0010000277816797354
3951.0,0.0009565003968372565
3950.0,0.0009565003968372565
3949.0,0.0009129773741116676
3948.0,0.0009565003968372565
3947.0,0.0010000277816797354
3946.0,0.0010435595295137379
3945.0,0.0011306361176557367
3944.0,0.0011741809597138886
3943.0,0.0012177301682640973
3942.0,0.001304841688344327
3941.0,0.001348404001626502
3940.0,0.0013919706849057079
3939.0,0.0014355417390583547
3938.0,0.0014355417390583547
3937.0,0.001348404001626502
3936.0,0.001304841688344327
3935.0,0.001304841688344327
3934.0,0.0013919706849057079
3933.0,0.0014355417390583547
3932.0,0.0014355417390583547
3931.0,0.0013919706849057079
3930.0,0.001304841688344327
3929.0,0.0012177301682640973
3928.0,0.0011741809597138886
3927.0,0.0010870956412141197
3926.0,0.0010000277816797354
3925.0,0.0009129773741116676
3924.0,0.0008259444115150671
3923.0,0.0007824344698965646
3922.0,0.000869458712629001
3921.0,0.0010435595295137379
3920.0,0.0012177301682640973
3919.0,0.001348404001626502
3918.0,0.0013919706849057079
3917.0,0.001304841688344327
3916.0,0.0011741809597138886
3915.0,0.0010435595295137379
3914.0,0.0010000277816797354
3913.0,0.0010435595295137379
3912.0,0.0010870956412141197
3911.0,0.0010870956412141197
3910.0,0.0010435595295137379
3909.0,0.0009565003968372565
3908.0,0.000869458712629001
3907.0,0.000869458712629001
3906.0,0.0009565003968372565
3905.0,0.0011741809597138886
3904.0,0.001304841688344327
3903.0,0.001304841688344327
3902.0,0.0011741809597138886
3901.0,0.0010000277816797354
3900.0,0.0009129773741116676
3899.0,0.000869458712629001
3898.0,0.000869458712629001
3897.0,0.0009129773741116676
3896.0,0.0009129773741116676
3895.0,0.000869458712629001
3894.0,0.0008259444115150671
3893.0,0.0008259444115150671
3892.0,0.0009129773741116676
3891.0,0.0010000277816797354
3890.0,0.0009129773741116676
3889.0,0.0008259444115150671
3888.0,0.0007824344698965646
3887.0,0.000869458712629001
3886.0,0.0009129773741116676
3885.0,0.0008259444115150671
3884.0,0.0006519307932786322
3883.0,0.0005649501236701937
3882.0,0.0006519307932786322
3881.0,0.0009129773741116676
3880.0,0.0011306361176557367
3879.0,0.0011741809597138886
3878.0,0.0011741809597138886
3877.0,0.0012177301682640973
3876.0,0.001304841688344327
3875.0,0.0012612837441823288
3874.0,0.0010870956412141197
3873.0,0.0007824344698965646
3872.0,0.0006519307932786322
3871.0,0.0008259444115150671
3870.0,0.0010870956412141197
3869.0,0.0011741809597138886
3868.0,0.0010435595295137379
3867.0,0.0009565003968372565
3866.0,0.0009565003968372565
3865.0,0.0009129773741116676
3864.0,0.0007824344698965646
3863.0,0.0006954276616513155
3862.0,0.0007389288868995258
3861.0,0.000869458712629001
3860.0,0.0010000277816797354
3859.0,0.0010000277816797354
3858.0,0.0009129773741116676
3857.0,0.0006954276616513155
3856.0,0.0004779868710962365
3855.0,0.0004779868710962365
3854.0,0.0006519307932786322
3853.0,0.0007824344698965646
3852.0,0.0006954276616513155
3851.0,0.0006954276616513155
3850.0,0.0009129773741116676
3849.0,0.0011306361176557367
3848.0,0.0012177301682640973
3847.0,0.0011741809597138886
3846.0,0.0011306361176557367
3845.0,0.0010435595295137379
3844.0,0.0010435595295137379
3843.0,0.0010000277816797354
3842.0,0.0009129773741116676
3841.0,0.0008259444115150671
3840.0,0.0007824344698965646
3839.0,0.000869458712629001
3838.0,0.0009565003968372565
3837.0,0.0009565003968372565
3836.0,0.0009129773741116676
3835.0,0.0009129773741116676
3834.0,0.000869458712629001
3833.0,0.0009129773741116676
3832.0,0.000869458712629001
3831.0,0.000869458712629001
3830.0,0.0008259444115150671
3829.0,0.0007824344698965646
3828.0,0.0007824344698965646
3827.0,0.0008259444115150671
3826.0,0.0007389288868995258
3825.0,0.0006519307932786322
3824.0,0.0005649501236701937
3823.0,0.0006084382809090627
3822.0,0.000869458712629001
3821.0,0.0010435595295137379
3820.0,0.0010000277816797354
3819.0,0.0009129773741116676
3818.0,0.0010000277816797354
3817.0,0.0011741809597138886
3816.0,0.0012177301682640973
3815.0,0.0010000277816797354
3814.0,0.0007389288868995258
3813.0,0.0006954276616513155
3812.0,0.0008259444115150671
3811.0,0.0009565003968372565
3810.0,0.0010435595295137379
3809.0,0.0010870956412141197
3808.0,0.0011741809597138886
3807.0,0.0011741809597138886
3806.0,0.0010435595295137379
3805.0,0.000869458712629001
3804.0,0.0009129773741116676
3803.0,0.0011306361176557367
3802.0,0.0013919706849057079
3801.0,0.0013919706849057079
3800.0,0.0012177301682640973
3799.0,0.0010870956412141197
3798.0,0.0011741809597138886
3797.0,0.001304841688344327
3796.0,0.001304841688344327
3795.0,0.0012177301682640973
3794.0,0.0012177301682640973
3793.0,0.001304841688344327
3792.0,0.0014355417390583547
3791.0,0.0015226969634936083
3790.0,0.0014791171649619628
3789.0,0.0014355417390583547
3788.0,0.001348404001626502
3787.0,0.001304841688344327
3786.0,0.0012612837441823288
3785.0,0.0011741809597138886
3784.0,0.0010435595295137379
3783.0,0.0009129773741116676
3782.0,0.0008259444115150671
3781.0,0.0009565003968372565
3780.0,0.0011741809597138886
3779.0,0.0014355417390583547
3778.0,0.0014791171649619628
3777.0,0.0014355417390583547
3776.0,0.0013919706849057079
3775.0,0.001304841688344327
3774.0,0.0011741809597138886
3773.0,0.0010870956412141197
3772.0,0.0010435595295137379
3771.0,0.0010870956412141197
3770.0,0.0011306361176557367
3769.0,0.0010870956412141197
3768.0,0.0010000277816797354
3767.0,0.0010000277816797354
3766.0,0.0010870956412141197
3765.0,0.0011741809597138886
3764.0,0.0011306361176557367
3763.0,0.0010435595295137379
3762.0,0.0010435595295137379
3761.0,0.0011306361176557367
3760.0,0.0011741809597138886
3759.0,0.0011306361176557367
3758.0,0.0010000277816797354
3757.0,0.0009129773741116676
3756.0,0.0007824344698965646
3755.0,0.0006954276616513155
3754.0,0.0006084382809090627
3753.0,0.0006084382809090627
3752.0,0.0006519307932786322
3751.0,0.0007389288868995258
3750.0,0.0008259444115150671
3749.0,0.0007824344698965646
3748.0,0.0007389288868995258
3747.0,0.0007824344698965646
3746.0,0.000869458712629001
3745.0,0.0009565003968372565
3744.0,0.0009129773741116676
3743.0,0.0006954276616513155
3742.0,0.0006084382809090627
3741.0,0.0007824344698965646
3740.0,0.000869458712629001
3739.0,0.0007824344698965646
3738.0,0.0005649501236701937
3737.0,0.0004779868710962365
3736.0,0.000521466320689834
3735.0,0.0005649501236701937
3734.0,0.0006519307932786322
3733.0,0.0007824344698965646
3732.0,0.000869458712629001
3731.0,0.0008259444115150671
3730.0,0.0006519307932786322
3729.0,0.0005649501236701937
3728.0,0.0005649501236701937
3727.0,0.0006084382809090627
3726.0,0.0007389288868995258
3725.0,0.000869458712629001
3724.0,0.0010000277816797354
3723.0,0.0011306361176557367
3722.0,0.0012177301682640973
3721.0,0.0012612837441823288
3720.0,0.001304841688344327
3719.0,0.001348404001626502
3718.0,0.0013919706849057079
3717.0,0.0013919706849057079
3716.0,0.001348404001626502
3715.0,0.0012612837441823288
3714.0,0.0010870956412141197
3713.0,0.000869458712629001
3712.0,0.0006519307932786322
3711.0,0.0005649501236701937
3710.0,0.0005649501236701937
3709.0,0.0006954276616513155
3708.0,0.0008259444115150671
3707.0,0.0009565003968372565
3706.0,0.0009565003968372565
3705.0,0.0009565003968372565
3704.0,0.0010000277816797354
3703.0,0.0010435595295137379
3702.0,0.0011306361176557367
3701.0,0.0011306361176557367
3700.0,0.0010870956412141197
3699.0,0.0010870956412141197
3698.0,0.0011741809597138886
3697.0,0.0012612837441823288
3696.0,0.001304841688344327
3695.0,0.001348404001626502
3694.0,0.001304841688344327
3693.0,0.0012612837441823288
3692.0,0.0011741809597138886
3691.0,0.0011741809597138886
3690.0,0.0012177301682640973
3689.0,0.0012177301682640973
3688.0,0.0011741809597138886
3687.0,0.0011306361176557367
3686.0,0.0011741809597138886
3685.0,0.0012612837441823288
3684.0,0.001348404001626502
3683.0,0.001348404001626502
3682.0,0.001304841688344327
3681.0,0.0012612837441823288
3680.0,0.0012612837441823288
3679.0,0.0012177301682640973
3678.0,0.0011741809597138886
3677.0,0.001304841688344327
3676.0,0.001609869681952425
3675.0,0.0016970599014589638
3674.0,0.0015662811355310335
3673.0,0.0014355417390583547
3672.0,0.0015662811355310335
3671.0,0.0016970599014589638
3670.0,0.0017406615763013722
3669.0,0.001609869681952425
3668.0,0.0014791171649619628
3667.0,0.0015226969634936083
3666.0,0.0016534626036355249
3665.0,0.0017406615763013722
3664.0,0.0017842676290416026
3663.0,0.0016970599014589638
3662.0,0.0016534626036355249
3661.0,0.0015662811355310335
3660.0,0.0015226969634936083
3659.0,0.0014355417390583547
3658.0,0.0014355417390583547
3657.0,0.0014791171649619628
3656.0,0.0014355417390583547
3655.0,0.001304841688344327
3654.0,0.0012177301682640973
3653.0,0.0012177301682640973
3652.0,0.001348404001626502
3651.0,0.0015662811355310335
3650.0,0.0017406615763013722
3649.0,0.0017842676290416026
3648.0,0.0016534626036355249
3647.0,0.001609869681952425
3646.0,0.0016970599014589638
3645.0,0.0018278780605593958
3644.0,0.0019587356365717845
3643.0,0.0020023635919956817
3642.0,0.0020023635919956817
3641.0,0.0019587356365717845
3640.0,0.001915112063444413
3639.0,0.001915112063444413
3638.0,0.0018278780605593958
3637.0,0.0017406615763013722
3636.0,0.0016534626036355249
3635.0,0.001609869681952425
3634.0,0.0016534626036355249
3633.0,0.0016534626036355249
3632.0,0.0016534626036355249
3631.0,0.0017406615763013722
3630.0,0.0019587356365717845
3629.0,0.0021332737608552588
3628.0,0.0020023635919956817
3627.0,0.0017842676290416026
3626.0,0.0017406615763013722
3625.0,0.0018714928717336043
3624.0,0.0020023635919956817
3623.0,0.002089632653256679
3622.0,0.0021332737608552588
3621.0,0.0022642234021015284
3620.0,0.002351545103793873
3619.0,0.002351545103793873
3618.0,0.0022642234021015284
3617.0,0.0021769192542746563
3616.0,0.0022205691343961664
3615.0,0.002395212539545666
3614.0,0.0025262411970197185
3613.0,0.002613615602686581
3612.0,0.0026573093983774942
3611.0,0.002701007590486082
3610.0,0.0027884171674950053
3609.0,0.0028758443407954637
3608.0,0.0028321285541661467
3607.0,0.0026573093983774942
3606.0,0.002482560585275184
3605.0,0.002482560585275184
3604.0,0.0025262411970197185
3603.0,0.0026573093983774942
3602.0,0.0027447101798967477
3601.0,0.0027884171674950053
3600.0,0.0027447101798967477
3599.0,0.002701007590486082
3598.0,0.002701007590486082
3597.0,0.0027884171674950053
3596.0,0.0028758443407954637
3595.0,0.0029632891174733444
3594.0,0.003050751504618754
3593.0,0.0030944893043338695
3592.0,0.0031382315093266833
3591.0,0.0031819781204844855
3590.0,0.0032694845648473247
3589.0,0.003488327845821315
3588.0,0.003619686766589858
3587.0,0.003619686766589858
3586.0,0.0035321097382827737
3585.0,0.003488327845821315
3584.0,0.0035758960449088217
3583.0,0.003619686766589858
3582.0,0.003619686766589858
3581.0,0.0035321097382827737
3580.0,0.003488327845821315
3579.0,0.003488327845821315
3578.0,0.0035321097382827737
3577.0,0.003619686766589858
3576.0,0.0036634819042162814
3575.0,0.0036634819042162814
3574.0,0.0035321097382827737
3573.0,0.0034445503666347133
3572.0,0.0033570086445275926
3571.0,0.0034007772998332353
3570.0,0.0035321097382827737
3569.0,0.0037510854308679953
3568.0,0.004101676353562844
3567.0,0.004452550524862486
3566.0,0.00458420145758498
3565.0,0.004540313378935901
3564.0,0.004408675747646695
3563.0,0.004277078004534696
3562.0,0.004189368323957332
3561.0,0.004189368323957332
3560.0,0.004277078004534696
3559.0,0.0043648054024501
3558.0,0.004408675747646695
3557.0,0.0043648054024501
3556.0,0.004320939488377862
3555.0,0.0043648054024501
3554.0,0.004452550524862486
3553.0,0.004540313378935901
3552.0,0.00458420145758498
3551.0,0.004540313378935901
3550.0,0.0044964297349936455
3549.0,0.004452550524862486
3548.0,0.004452550524862486
3547.0,0.004540313378935901
3546.0,0.004628093971837721
3545.0,0.004628093971837721
3544.0,0.004628093971837721
3543.0,0.004540313378935901
3542.0,0.004540313378935901
3541.0,0.004628093971837721
3540.0,0.004803708402820517
3539.0,0.005023326350308999
3538.0,0.005243055412371911
3537.0,0.00537494623139545
3536.0,0.005462895701502157
3535.0,0.005462895701502157
3534.0,0.005462895701502157
3533.0,0.005462895701502157
3532.0,0.00541891874010525
3531.0,0.00537494623139545
3530.0,0.0052870145684298375
3529.0,0.005243055412371911
3528.0,0.005243055412371911
3527.0,0.005243055412371911
3526.0,0.005243055412371911
3525.0,0.005243055412371911
3524.0,0.0052870145684298375
3523.0,0.005330978174470591
3522.0,0.005462895701502157
3521.0,0.005594853310833647
3520.0,0.00577085918230158
3519.0,0.005858888873877532
3518.0,0.005858888873877532
3517.0,0.00577085918230158
3516.0,0.005726851026829571
3515.0,0.005682847330363394
3514.0,0.005682847330363394
3513.0,0.005682847330363394
3512.0,0.005726851026829571
3511.0,0.00577085918230158
3510.0,0.00590291041179003
3509.0,0.006079041198713275
3508.0,0.00625524344553785
3507.0,0.006343371384537999
3506.0,0.006431517210272464
3505.0,0.006475596832934416
3504.0,0.006607862550997545
3503.0,0.006696062080525422
3502.0,0.006696062080525422
3501.0,0.006651960076740071
3500.0,0.006607862550997545
3499.0,0.006607862550997545
3498.0,0.006696062080525422
3497.0,0.006828394969235152
3496.0,0.006916639301937977
3495.0,0.00696076819309055
3494.0,0.00696076819309055
3493.0,0.007004901568658406
3492.0,0.007049039429553483
3491.0,0.007093181776687496
3490.0,0.007137328610972382
3489.0,0.007093181776687496
3488.0,0.007049039429553483
3487.0,0.007049039429553483
3486.0,0.007093181776687496
3485.0,0.007137328610972382
3484.0,0.007181479933320523
3483.0,0.007225635744644521
3482.0,0.007269796045857202
3481.0,0.007358130121602358
3480.0,0.0074464821678643656
3479.0,0.007490664932224611
3478.0,0.007534852191956709
3477.0,0.0075790439479759275
3476.0,0.00762324020119709
3475.0,0.00762324020119709
3474.0,0.0075790439479759275
3473.0,0.007534852191956709
3472.0,0.0075790439479759275
3471.0,0.007755855953228474
3470.0,0.007976972236149349
3469.0,0.008109696063975047
3468.0,0.008198201155356077
3467.0,0.008153946355103248
3466.0,0.008198201155356077
3465.0,0.008198201155356077
3464.0,0.008286724286910463
3463.0,0.008375265465994541
3462.0,0.008419542825660153
3461.0,0.008419542825660153
3460.0,0.008463824699968647
3459.0,0.00850811108984062
3458.0,0.008596697419959609
3457.0,0.0087296108049002
3456.0,0.008862564879688284
3455.0,0.008906891951112605
3454.0,0.008862564879688284
3453.0,0.008818242332126802
3452.0,0.008773924307505121
3451.0,0.008685301823389224
3450.0,0.008640997362049818
3449.0,0.008596697419959609
3448.0,0.008596697419959609
3447.0,0.0087296108049002
3446.0,0.008906891951112605
3445.0,0.009128595198514056
3444.0,0.009306039320248427
3443.0,0.009439170005980158
3442.0,0.009483555971770974
3441.0,0.009483555971770974
3440.0,0.009483555971770974
3439.0,0.009527946474380489
3438.0,0.00966114521239847
3437.0,0.009794384815193347
3436.0,0.009883233932095559
3435.0,0.009927665307847056
3434.0,0.009972101229705377
3433.0,0.01001654169860089
3432.0,0.010060986715464404
3431.0,0.010060986715464404
3430.0,0.010060986715464404
3429.0,0.01001654169860089
3428.0,0.009972101229705377
3427.0,0.009927665307847056
3426.0,0.009972101229705377
3425.0,0.010060986715464404
3424.0,0.010149890396819572
3423.0,0.010194349063173958
3422.0,0.010283280051895272
3421.0,0.010327752376126709
3420.0,0.01037222925484893
3419.0,0.010416710688994968
3418.0,0.010416710688994968
3417.0,0.010416710688994968
3416.0,0.010416710688994968
3415.0,0.01046119667949763
3414.0,0.010550182333308289
3413.0,0.010683695010048622
3412.0,0.01086177578421088
3411.0,0.010995384301463185
3410.0,0.011084479487313281
3409.0,0.011129033935354915
3408.0,0.011129033935354915
3407.0,0.01117359295472431
3406.0,0.011218156546359825
3405.0,0.011218156546359825
3404.0,0.011218156546359825
3403.0,0.011218156546359825
3402.0,0.011262724711199823
3401.0,0.011262724711199823
3400.0,0.011307297450183107
3399.0,0.011351874764248926
3398.0,0.011396456654336085
3397.0,0.011530229790124524
3396.0,0.011664044143949504
3395.0,0.011753276624621556
3394.0,0.011797899741219142
3393.0,0.011797899741219142
3392.0,0.011753276624621556
3391.0,0.011664044143949504
3390.0,0.011530229790124524
3389.0,0.011441043121384498
3388.0,0.011396456654336085
3387.0,0.011396456654336085
3386.0,0.011396456654336085
3385.0,0.011396456654336085
3384.0,0.011441043121384498
3383.0,0.011485634166333858
3382.0,0.011530229790124524
3381.0,0.011530229790124524
3380.0,0.011485634166333858
3379.0,0.011396456654336085
3378.0,0.011351874764248926
3377.0,0.011396456654336085
3376.0,0.011485634166333858
3375.0,0.011530229790124524
3374.0,0.011530229790124524
3373.0,0.011530229790124524
3372.0,0.011574829993696856
3371.0,0.011664044143949504
3370.0,0.011619434777991433
3369.0,0.011485634166333858
3368.0,0.011307297450183107
3367.0,0.01117359295472431
3366.0,0.011129033935354915
3365.0,0.01117359295472431
3364.0,0.011129033935354915
3363.0,0.011039929609661936
3362.0,0.010906307389674463
3361.0,0.010817248744452446
3360.0,0.010817248744452446
3359.0,0.01086177578421088
3358.0,0.010906307389674463
3357.0,0.01086177578421088
3356.0,0.01077272626946324
3355.0,0.010728208358306901
3354.0,0.010728208358306901
3353.0,0.010817248744452446
3352.0,0.010906307389674463
3351.0,0.010950843561779777
3350.0,0.01086177578421088
3349.0,0.010728208358306901
3348.0,0.010550182333308289
3347.0,0.010416710688994968
3346.0,0.010416710688994968
3345.0,0.010505687227290839
3344.0,0.010683695010048622
3343.0,0.010817248744452446
3342.0,0.01086177578421088
3341.0,0.01077272626946324
3340.0,0.010639186223752484
3339.0,0.010550182333308289
3338.0,0.010550182333308289
3337.0,0.010639186223752484
3336.0,0.010728208358306901
3335.0,0.010817248744452446
3334.0,0.01086177578421088
3333.0,0.01086177578421088
3332.0,0.01077272626946324
3331.0,0.010639186223752484
3330.0,0.010416710688994968
3329.0,0.01023881228122181
3328.0,0.010105436281226954
3327.0,0.010105436281226954
3326.0,0.010105436281226954
3325.0,0.010149890396819572
3324.0,0.010149890396819572
3323.0,0.010149890396819572
3322.0,0.010105436281226954
3321.0,0.010060986715464404
3320.0,0.010105436281226954
3319.0,0.01023881228122181
3318.0,0.01046119667949763
3317.0,0.010639186223752484
3316.0,0.010728208358306901
3315.0,0.010594681998483901
3314.0,0.010416710688994968
3313.0,0.01023881228122181
3312.0,0.010149890396819572
3311.0,0.010194349063173958
3310.0,0.01023881228122181
3309.0,0.010283280051895272
3308.0,0.01023881228122181
3307.0,0.010149890396819572
3306.0,0.010105436281226954
3305.0,0.010060986715464404
3304.0,0.009972101229705377
3303.0,0.009883233932095559
3302.0,0.009794384815193347
3301.0,0.009838807101520963
3300.0,0.009838807101520963
3299.0,0.009883233932095559
3298.0,0.009838807101520963
3297.0,0.009794384815193347
3296.0,0.00974996707218323
3295.0,0.00974996707218323
3294.0,0.009794384815193347
3293.0,0.009794384815193347
3292.0,0.00974996707218323
3291.0,0.00966114521239847
3290.0,0.009572341514736404
3289.0,0.009527946474380489
3288.0,0.009483555971770974
3287.0,0.009439170005980158
3286.0,0.009439170005980158
3285.0,0.009439170005980158
3284.0,0.00939478857608056
3283.0,0.009306039320248427
3282.0,0.009261671492462709
3281.0,0.009217308196862062
3280.0,0.009261671492462709
3279.0,0.009306039320248427
3278.0,0.009306039320248427
3277.0,0.009217308196862062
3276.0,0.009172949432521227
3275.0,0.009261671492462709
3274.0,0.009439170005980158
3273.0,0.009616741093766423
3272.0,0.009705553871561357
3271.0,0.00974996707218323
3270.0,0.009794384815193347
3269.0,0.00974996707218323
3268.0,0.009616741093766423
3267.0,0.00939478857608056
3266.0,0.009172949432521227
3265.0,0.00908424549391551
3264.0,0.009039900317800775
3263.0,0.00908424549391551
3262.0,0.009172949432521227
3261.0,0.009350411681145587
3260.0,0.009483555971770974
3259.0,0.009572341514736404
3258.0,0.009616741093766423
3257.0,0.009616741093766423
3256.0,0.009616741093766423
3255.0,0.009616741093766423
3254.0,0.009572341514736404
3253.0,0.009572341514736404
3252.0,0.00966114521239847
3251.0,0.00974996707218323
3250.0,0.009794384815193347
3249.0,0.00974996707218323
3248.0,0.009616741093766423
3247.0,0.009483555971770974
3246.0,0.009350411681145587
3245.0,0.009350411681145587
3244.0,0.00939478857608056
3243.0,0.009527946474380489
3242.0,0.009616741093766423
3241.0,0.009616741093766423
3240.0,0.00966114521239847
3239.0,0.009705553871561357
3238.0,0.00974996707218323
3237.0,0.00974996707218323
3236.0,0.009572341514736404
3235.0,0.009350411681145587
3234.0,0.009217308196862062
3233.0,0.009217308196862062
3232.0,0.009350411681145587
3231.0,0.009483555971770974
3230.0,0.009527946474380489
3229.0,0.009439170005980158
3228.0,0.009350411681145587
3227.0,0.009217308196862062
3226.0,0.00908424549391551
3225.0,0.00908424549391551
3224.0,0.009128595198514056
3223.0,0.009261671492462709
3222.0,0.009306039320248427
3221.0,0.009306039320248427
3220.0,0.009261671492462709
3219.0,0.009172949432521227
3218.0,0.00908424549391551
3217.0,0.009039900317800775
3216.0,0.008995559669244813
3215.0,0.008951223547323472
3214.0,0.008995559669244813
3213.0,0.008951223547323472
3212.0,0.008862564879688284
3211.0,0.008685301823389224
3210.0,0.008552401996197112
3209.0,0.008463824699968647
3208.0,0.008375265465994541
3207.0,0.008375265465994541
3206.0,0.008419542825660153
3205.0,0.008552401996197112
3204.0,0.008685301823389224
3203.0,0.008685301823389224
3202.0,0.008640997362049818
3201.0,0.008552401996197112
3200.0,0.00850811108984062
3199.0,0.008419542825660153
3198.0,0.008286724286910463
3197.0,0.008198201155356077
3196.0,0.008065450281052211
3195.0,0.008021209005416363
3194.0,0.008065450281052211
3193.0,0.008153946355103248
3192.0,0.008242460465651913
3191.0,0.008286724286910463
3190.0,0.008286724286910463
3189.0,0.008198201155356077
3188.0,0.008153946355103248
3187.0,0.008109696063975047
3186.0,0.008065450281052211
3185.0,0.008065450281052211
3184.0,0.008021209005416363
3183.0,0.007932739972333236
3182.0,0.007888512213050314
3181.0,0.007800070204414977
3180.0,0.007800070204414977
3179.0,0.007844288957383316
3178.0,0.007888512213050314
3177.0,0.007932739972333236
3176.0,0.007932739972333236
3175.0,0.007888512213050314
3174.0,0.007844288957383316
3173.0,0.007844288957383316
3172.0,0.007800070204414977
3171.0,0.007844288957383316
3170.0,0.007844288957383316
3169.0,0.007844288957383316
3168.0,0.007844288957383316
3167.0,0.007844288957383316
3166.0,0.007800070204414977
3165.0,0.007711646202907652
3164.0,0.007711646202907652
3163.0,0.007667440952535687
3162.0,0.00762324020119709
3161.0,0.007534852191956709
3160.0,0.0074464821678643656
3159.0,0.007358130121602358
3158.0,0.007313960837872058
3157.0,0.007313960837872058
3156.0,0.007313960837872058
3155.0,0.007269796045857202
3154.0,0.007225635744644521
3153.0,0.007181479933320523
3152.0,0.007137328610972382
3151.0,0.007093181776687496
3150.0,0.007137328610972382
3149.0,0.007225635744644521
3148.0,0.007269796045857202
3147.0,0.007269796045857202
3146.0,0.007137328610972382
3145.0,0.007049039429553483
3144.0,0.007049039429553483
3143.0,0.007049039429553483
3142.0,0.007093181776687496
3141.0,0.007181479933320523
3140.0,0.007225635744644521
3139.0,0.007269796045857202
3138.0,0.007225635744644521
3137.0,0.007049039429553483
3136.0,0.006916639301937977
3135.0,0.006784279525863024
3134.0,0.006696062080525422
3133.0,0.006607862550997545
3132.0,0.006607862550997545
3131.0,0.00656376950238835
3130.0,0.00656376950238835
3129.0,0.00656376950238835
3128.0,0.00656376950238835
3127.0,0.006475596832934416
3126.0,0.006387442061109638
3125.0,0.006343371384537999
3124.0,0.006387442061109638
3123.0,0.006475596832934416
3122.0,0.00656376950238835
3121.0,0.006519680930003435
3120.0,0.006387442061109638
3119.0,0.00621118618129457
3118.0,0.006079041198713275
3117.0,0.006035001804881146
3116.0,0.00612308505878878
3115.0,0.00621118618129457
3114.0,0.006299305179649828
3113.0,0.006343371384537999
3112.0,0.006387442061109638
3111.0,0.006343371384537999
3110.0,0.00625524344553785
3109.0,0.006167133386013823
3108.0,0.006167133386013823
3107.0,0.00625524344553785
3106.0,0.006431517210272464
3105.0,0.006607862550997545
3104.0,0.006651960076740071
3103.0,0.006607862550997545
3102.0,0.006475596832934416
3101.0,0.006387442061109638
3100.0,0.006343371384537999
3099.0,0.006343371384537999
3098.0,0.006343371384537999
3097.0,0.00625524344553785
3096.0,0.00621118618129457
3095.0,0.00621118618129457
3094.0,0.006299305179649828
3093.0,0.006387442061109638
3092.0,0.006475596832934416
3091.0,0.006431517210272464
3090.0,0.006343371384537999
3089.0,0.006299305179649828
3088.0,0.00625524344553785
3087.0,0.006343371384537999
3086.0,0.006475596832934416
3085.0,0.006607862550997545
3084.0,0.006784279525863024
3083.0,0.006872514894289861
3082.0,0.006916639301937977
3081.0,0.006828394969235152
3080.0,0.006696062080525422
3079.0,0.00656376950238835
3078.0,0.006387442061109638
3077.0,0.00625524344553785
3076.0,0.006167133386013823
3075.0,0.006167133386013823
3074.0,0.00625524344553785
3073.0,0.006343371384537999
3072.0,0.006387442061109638
3071.0,0.006299305179649828
3070.0,0.00621118618129457
3069.0,0.00612308505878878
3068.0,0.00612308505878878
3067.0,0.00621118618129457
3066.0,0.006343371384537999
3065.0,0.006519680930003435
3064.0,0.006696062080525422
3063.0,0.006828394969235152
3062.0,0.00696076819309055
3061.0,0.007093181776687496
3060.0,0.007181479933320523
3059.0,0.007181479933320523
3058.0,0.007181479933320523
3057.0,0.007093181776687496
3056.0,0.007004901568658406
3055.0,0.006916639301937977
3054.0,0.006784279525863024
3053.0,0.006696062080525422
3052.0,0.006651960076740071
3051.0,0.006607862550997545
3050.0,0.006519680930003435
3049.0,0.006475596832934416
3048.0,0.006343371384537999
3047.0,0.00625524344553785
3046.0,0.00625524344553785
3045.0,0.006299305179649828
3044.0,0.006299305179649828
3043.0,0.00625524344553785
3042.0,0.00621118618129457
3041.0,0.00612308505878878
3040.0,0.006035001804881146
3039.0,0.005990966876386672
3038.0,0.005990966876386672
3037.0,0.006079041198713275
3036.0,0.006167133386013823
3035.0,0.006299305179649828
3034.0,0.006431517210272464
3033.0,0.00656376950238835
3032.0,0.006784279525863024
3031.0,0.007137328610972382
3030.0,0.007534852191956709
3029.0,0.007976972236149349
3028.0,0.008330992620051436
3027.0,0.008552401996197112
3026.0,0.0087296108049002
3025.0,0.008818242332126802
3024.0,0.008862564879688284
3023.0,0.008773924307505121
3022.0,0.008596697419959609
3021.0,0.008463824699968647
3020.0,0.008286724286910463
3019.0,0.008065450281052211
3018.0,0.007755855953228474
3017.0,0.007402303897961815
3016.0,0.007093181776687496
3015.0,0.006872514894289861
3014.0,0.006784279525863024
3013.0,0.006740168563263094
3012.0,0.006651960076740071
3011.0,0.006475596832934416
3010.0,0.006299305179649828
3009.0,0.006167133386013823
3008.0,0.00612308505878878
3007.0,0.00621118618129457
3006.0,0.006343371384537999
3005.0,0.006387442061109638
3004.0,0.006387442061109638
3003.0,0.006387442061109638
3002.0,0.006343371384537999
3001.0,0.006343371384537999
3000.0,0.006299305179649828
2999.0,0.00625524344553785
2998.0,0.00621118618129457
2997.0,0.006079041198713275
2996.0,0.005946936412324799
2995.0,0.00577085918230158
2994.0,0.005682847330363394
2993.0,0.005594853310833647
2992.0,0.005594853310833647
2991.0,0.005638848091999105
2990.0,0.005594853310833647
2989.0,0.005550862985963967
2988.0,0.005462895701502157
2987.0,0.00537494623139545
2986.0,0.0052870145684298375
2985.0,0.005199100705396198
2984.0,0.005199100705396198
2983.0,0.005243055412371911
2982.0,0.0052870145684298375
2981.0,0.005330978174470591
2980.0,0.005330978174470591
2979.0,0.0052870145684298375
2978.0,0.005243055412371911
2977.0,0.005111204635089406
2976.0,0.005023326350308999
2975.0,0.004935465843858511
2974.0,0.00489154225525934
2973.0,0.004935465843858511
2972.0,0.004979393875242044
2971.0,0.005067263269958211
2970.0,0.005111204635089406
2969.0,0.005155150446602086
2968.0,0.005243055412371911
2967.0,0.005330978174470591
2966.0,0.00541891874010525
2965.0,0.005462895701502157
2964.0,0.005462895701502157
2963.0,0.005462895701502157
2962.0,0.005462895701502157
2961.0,0.005506877116487674
2960.0,0.005506877116487674
2959.0,0.005506877116487674
2958.0,0.005462895701502157
2957.0,0.00541891874010525
2956.0,0.00541891874010525
2955.0,0.005462895701502157
2954.0,0.005462895701502157
2953.0,0.005506877116487674
2952.0,0.005506877116487674
2951.0,0.005550862985963967
2950.0,0.005594853310833647
2949.0,0.005638848091999105
2948.0,0.005726851026829571
2947.0,0.005858888873877532
2946.0,0.00590291041179003
2945.0,0.005946936412324799
2944.0,0.005990966876386672
2943.0,0.006079041198713275
2942.0,0.00625524344553785
2941.0,0.006387442061109638
2940.0,0.00656376950238835
2939.0,0.006740168563263094
2938.0,0.006872514894289861
2937.0,0.00696076819309055
2936.0,0.007137328610972382
2935.0,0.007313960837872058
2934.0,0.007534852191956709
2933.0,0.007800070204414977
2932.0,0.008065450281052211
2931.0,0.008375265465994541
2930.0,0.008685301823389224
2929.0,0.008906891951112605
2928.0,0.009128595198514056
2927.0,0.009306039320248427
2926.0,0.009439170005980158
2925.0,0.009616741093766423
2924.0,0.00974996707218323
2923.0,0.009883233932095559
2922.0,0.009972101229705377
2921.0,0.010105436281226954
2920.0,0.010194349063173958
2919.0,0.010283280051895272
2918.0,0.010283280051895272
2917.0,0.010194349063173958
2916.0,0.010060986715464404
2915.0,0.009972101229705377
2914.0,0.009972101229705377
2913.0,0.01001654169860089
2912.0,0.010060986715464404
2911.0,0.009927665307847056
2910.0,0.00974996707218323
2909.0,0.009616741093766423
2908.0,0.009483555971770974
2907.0,0.00939478857608056
2906.0,0.009350411681145587
2905.0,0.009306039320248427
2904.0,0.009217308196862062
2903.0,0.009172949432521227
2902.0,0.00908424549391551
2901.0,0.008951223547323472
2900.0,0.008862564879688284
2899.0,0.008685301823389224
2898.0,0.00850811108984062
2897.0,0.008375265465994541
2896.0,0.008242460465651913
2895.0,0.008153946355103248
2894.0,0.008065450281052211
2893.0,0.007932739972333236
2892.0,0.007844288957383316
2891.0,0.007800070204414977
2890.0,0.007800070204414977
2889.0,0.007711646202907652
2888.0,0.0075790439479759275
2887.0,0.0074464821678643656
2886.0,0.007358130121602358
2885.0,0.007313960837872058
2884.0,0.007313960837872058
2883.0,0.007269796045857202
2882.0,0.007225635744644521
2881.0,0.007137328610972382
2880.0,0.007093181776687496
2879.0,0.007049039429553483
2878.0,0.007049039429553483
2877.0,0.007049039429553483
2876.0,0.007093181776687496
2875.0,0.007049039429553483
2874.0,0.007004901568658406
2873.0,0.006916639301937977
2872.0,0.006828394969235152
2871.0,0.006828394969235152
2870.0,0.006828394969235152
2869.0,0.006784279525863024
2868.0,0.006740168563263094
2867.0,0.006740168563263094
2866.0,0.006784279525863024
2865.0,0.006828394969235152
2864.0,0.006872514894289861
2863.0,0.006916639301937977
2862.0,0.00696076819309055
2861.0,0.007004901568658406
2860.0,0.007137328610972382
2859.0,0.007269796045857202
2858.0,0.0074464821678643656
2857.0,0.00762324020119709
2856.0,0.007800070204414977
2855.0,0.007976972236149349
2854.0,0.008153946355103248
2853.0,0.008242460465651913
2852.0,0.008286724286910463
2851.0,0.008242460465651913
2850.0,0.008242460465651913
2849.0,0.008153946355103248
2848.0,0.008109696063975047
2847.0,0.008065450281052211
2846.0,0.007976972236149349
2845.0,0.007888512213050314
2844.0,0.007800070204414977
2843.0,0.007711646202907652
2842.0,0.00762324020119709
2841.0,0.007534852191956709
2840.0,0.007490664932224611
2839.0,0.007358130121602358
2838.0,0.007269796045857202
2837.0,0.007137328610972382
2836.0,0.007049039429553483
2835.0,0.00696076819309055
2834.0,0.006828394969235152
2833.0,0.006607862550997545
2832.0,0.006431517210272464
2831.0,0.006343371384537999
2830.0,0.006387442061109638
2829.0,0.006431517210272464
2828.0,0.006475596832934416
2827.0,0.006475596832934416
2826.0,0.006475596832934416
2825.0,0.006475596832934416
2824.0,0.006475596832934416
2823.0,0.006475596832934416
2822.0,0.006387442061109638
2821.0,0.006343371384537999
2820.0,0.006299305179649828
2819.0,0.006299305179649828
2818.0,0.006299305179649828
2817.0,0.006343371384537999
2816.0,0.006343371384537999
2815.0,0.006299305179649828
2814.0,0.00621118618129457
2813.0,0.006079041198713275
2812.0,0.005990966876386672
2811.0,0.005946936412324799
2810.0,0.005990966876386672
2809.0,0.006035001804881146
2808.0,0.006079041198713275
2807.0,0.006079041198713275
2806.0,0.006035001804881146
2805.0,0.006035001804881146
2804.0,0.006035001804881146
2803.0,0.006035001804881146
2802.0,0.006079041198713275
2801.0,0.00612308505878878
2800.0,0.006167133386013823
2799.0,0.00612308505878878
2798.0,0.006079041198713275
2797.0,0.005990966876386672
2796.0,0.005946936412324799
2795.0,0.005858888873877532
2794.0,0.005814871797682919
2793.0,0.00577085918230158
2792.0,0.005726851026829571
2791.0,0.005726851026829571
2790.0,0.00577085918230158
2789.0,0.005814871797682919
2788.0,0.005858888873877532
2787.0,0.005858888873877532
2786.0,0.005858888873877532
2785.0,0.005858888873877532
2784.0,0.005814871797682919
2783.0,0.005814871797682919
2782.0,0.00577085918230158
2781.0,0.00577085918230158
2780.0,0.005726851026829571
2779.0,0.005682847330363394
2778.0,0.005682847330363394
2777.0,0.005726851026829571
2776.0,0.00577085918230158
2775.0,0.005814871797682919
2774.0,0.005814871797682919
2773.0,0.00577085918230158
2772.0,0.005726851026829571
2771.0,0.005682847330363394
2770.0,0.005682847330363394
2769.0,0.005726851026829571
2768.0,0.005726851026829571
2767.0,0.005638848091999105
2766.0,0.005594853310833647
2765.0,0.005550862985963967
2764.0,0.005550862985963967
2763.0,0.005594853310833647
2762.0,0.005638848091999105
2761.0,0.005682847330363394
2760.0,0.005726851026829571
2759.0,0.00577085918230158
2758.0,0.00577085918230158
2757.0,0.00577085918230158
2756.0,0.00577085918230158
2755.0,0.00577085918230158
2754.0,0.00577085918230158
2753.0,0.005726851026829571
2752.0,0.005638848091999105
2751.0,0.005594853310833647
2750.0,0.005638848091999105
2749.0,0.005726851026829571
2748.0,0.005858888873877532
2747.0,0.00590291041179003
2746.0,0.005814871797682919
2745.0,0.005682847330363394
2744.0,0.005594853310833647
2743.0,0.005506877116487674
2742.0,0.005506877116487674
2741.0,0.005550862985963967
2740.0,0.005638848091999105
2739.0,0.005682847330363394
2738.0,0.005682847330363394
2737.0,0.005682847330363394
2736.0,0.005638848091999105
2735.0,0.005594853310833647
2734.0,0.005550862985963967
2733.0,0.005550862985963967
2732.0,0.005550862985963967
2731.0,0.005594853310833647
2730.0,0.005682847330363394
2729.0,0.005726851026829571
2728.0,0.005726851026829571
2727.0,0.005682847330363394
2726.0,0.005638848091999105
2725.0,0.005594853310833647
2724.0,0.005594853310833647
2723.0,0.005638848091999105
2722.0,0.005638848091999105
2721.0,0.005726851026829571
2720.0,0.005814871797682919
2719.0,0.005814871797682919
2718.0,0.00577085918230158
2717.0,0.005682847330363394
2716.0,0.005638848091999105
2715.0,0.005594853310833647
2714.0,0.005550862985963967
2713.0,0.005506877116487674
2712.0,0.00541891874010525
2711.0,0.005330978174470591
2710.0,0.005243055412371911
2709.0,0.005199100705396198
2708.0,0.005199100705396198
2707.0,0.005243055412371911
2706.0,0.005330978174470591
2705.0,0.00541891874010525
2704.0,0.005462895701502157
2703.0,0.005550862985963967
2702.0,0.005594853310833647
2701.0,0.005682847330363394
2700.0,0.005682847330363394
2699.0,0.005682847330363394
2698.0,0.005594853310833647
2697.0,0.005550862985963967
2696.0,0.005550862985963967
2695.0,0.005550862985963967
2694.0,0.005594853310833647
2693.0,0.005638848091999105
2692.0,0.005682847330363394
2691.0,0.005638848091999105
2690.0,0.005594853310833647
2689.0,0.005550862985963967
2688.0,0.005594853310833647
2687.0,0.005638848091999105
2686.0,0.005682847330363394
2685.0,0.005682847330363394
2684.0,0.005638848091999105
2683.0,0.005594853310833647
2682.0,0.005550862985963967
2681.0,0.005550862985963967
2680.0,0.005550862985963967
2679.0,0.005506877116487674
2678.0,0.005550862985963967
2677.0,0.005594853310833647
2676.0,0.005682847330363394
2675.0,0.00577085918230158
2674.0,0.005858888873877532
2673.0,0.005814871797682919
2672.0,0.00577085918230158
2671.0,0.005682847330363394
2670.0,0.005638848091999105
2669.0,0.005550862985963967
2668.0,0.005506877116487674
2667.0,0.005462895701502157
2666.0,0.005506877116487674
2665.0,0.005506877116487674
2664.0,0.005506877116487674
2663.0,0.00541891874010525
2662.0,0.005330978174470591
2661.0,0.0052870145684298375
2660.0,0.005330978174470591
2659.0,0.00537494623139545
2658.0,0.00537494623139545
2657.0,0.00537494623139545
2656.0,0.005330978174470591
2655.0,0.00537494623139545
2654.0,0.00537494623139545
2653.0,0.00537494623139545
2652.0,0.00537494623139545
2651.0,0.00537494623139545
2650.0,0.00541891874010525
2649.0,0.00541891874010525
2648.0,0.005462895701502157
2647.0,0.005506877116487674
2646.0,0.005550862985963967
2645.0,0.005594853310833647
2644.0,0.005638848091999105
2643.0,0.005638848091999105
2642.0,0.005594853310833647
2641.0,0.005550862985963967
2640.0,0.005506877116487674
2639.0,0.005550862985963967
2638.0,0.005594853310833647
2637.0,0.005638848091999105
2636.0,0.005726851026829571
2635.0,0.00577085918230158
2634.0,0.00577085918230158
2633.0,0.005682847330363394
2632.0,0.005550862985963967
2631.0,0.005462895701502157
2630.0,0.005462895701502157
2629.0,0.005506877116487674
2628.0,0.005594853310833647
2627.0,0.005726851026829571
2626.0,0.00577085918230158
2625.0,0.00577085918230158
2624.0,0.005682847330363394
2623.0,0.005594853310833647
2622.0,0.005550862985963967
2621.0,0.005638848091999105
2620.0,0.00577085918230158
2619.0,0.005858888873877532
2618.0,0.005858888873877532
2617.0,0.005858888873877532
2616.0,0.00577085918230158
2615.0,0.005638848091999105
2614.0,0.005506877116487674
2613.0,0.00537494623139545
2612.0,0.00537494623139545
2611.0,0.005462895701502157
2610.0,0.005506877116487674
2609.0,0.005506877116487674
2608.0,0.005506877116487674
2607.0,0.005550862985963967
2606.0,0.005638848091999105
2605.0,0.005682847330363394
2604.0,0.005726851026829571
2603.0,0.005682847330363394
2602.0,0.005594853310833647
2601.0,0.005462895701502157
2600.0,0.00537494623139545
2599.0,0.00537494623139545
2598.0,0.00537494623139545
2597.0,0.005462895701502157
2596.0,0.005550862985963967
2595.0,0.005638848091999105
2594.0,0.005726851026829571
2593.0,0.00577085918230158
2592.0,0.00577085918230158
2591.0,0.005682847330363394
2590.0,0.005594853310833647
2589.0,0.005550862985963967
2588.0,0.005550862985963967
2587.0,0.005550862985963967
2586.0,0.005550862985963967
2585.0,0.005506877116487674
2584.0,0.005506877116487674
2583.0,0.005506877116487674
2582.0,0.005506877116487674
2581.0,0.005550862985963967
2580.0,0.005594853310833647
2579.0,0.005594853310833647
2578.0,0.005550862985963967
2577.0,0.005550862985963967
2576.0,0.005550862985963967
2575.0,0.005638848091999105
2574.0,0.005726851026829571
2573.0,0.005858888873877532
2572.0,0.00590291041179003
2571.0,0.00590291041179003
2570.0,0.005858888873877532
2569.0,0.005814871797682919
2568.0,0.00577085918230158
2567.0,0.005682847330363394
2566.0,0.005594853310833647
2565.0,0.005506877116487674
2564.0,0.005506877116487674
2563.0,0.005550862985963967
2562.0,0.005638848091999105
2561.0,0.005726851026829571
2560.0,0.005726851026829571
2559.0,0.005726851026829571
2558.0,0.005682847330363394
2557.0,0.005726851026829571
2556.0,0.005726851026829571
2555.0,0.00577085918230158
2554.0,0.00577085918230158
2553.0,0.005682847330363394
2552.0,0.005638848091999105
2551.0,0.005638848091999105
2550.0,0.005726851026829571
2549.0,0.00577085918230158
2548.0,0.005814871797682919
2547.0,0.005814871797682919
2546.0,0.005814871797682919
2545.0,0.005814871797682919
2544.0,0.005814871797682919
2543.0,0.00577085918230158
2542.0,0.005726851026829571
2541.0,0.005726851026829571
2540.0,0.005682847330363394
2539.0,0.005638848091999105
2538.0,0.005594853310833647
2537.0,0.005594853310833647
2536.0,0.005594853310833647
2535.0,0.005594853310833647
2534.0,0.005638848091999105
2533.0,0.005682847330363394
2532.0,0.00577085918230158
2531.0,0.005814871797682919
2530.0,0.005858888873877532
2529.0,0.005858888873877532
2528.0,0.00590291041179003
2527.0,0.005946936412324799
2526.0,0.00590291041179003
2525.0,0.005858888873877532
2524.0,0.005858888873877532
2523.0,0.005858888873877532
2522.0,0.005858888873877532
2521.0,0.005858888873877532
2520.0,0.00590291041179003
2519.0,0.005946936412324799
2518.0,0.005990966876386672
2517.0,0.006035001804881146
2516.0,0.005990966876386672
2515.0,0.00590291041179003
2514.0,0.005858888873877532
2513.0,0.00577085918230158
2512.0,0.005726851026829571
2511.0,0.005726851026829571
2510.0,0.00577085918230158
2509.0,0.005814871797682919
2508.0,0.005858888873877532
2507.0,0.005858888873877532
2506.0,0.005858888873877532
2505.0,0.005814871797682919
2504.0,0.005682847330363394
2503.0,0.005638848091999105
2502.0,0.005638848091999105
2501.0,0.005726851026829571
2500.0,0.005858888873877532
2499.0,0.005946936412324799
2498.0,0.005946936412324799
2497.0,0.005946936412324799
2496.0,0.00590291041179003
2495.0,0.00590291041179003
2494.0,0.005858888873877532
2493.0,0.00577085918230158
2492.0,0.005682847330363394
2491.0,0.005682847330363394
2490.0,0.005726851026829571
2489.0,0.005726851026829571
2488.0,0.00577085918230158
2487.0,0.005814871797682919
2486.0,0.005858888873877532
2485.0,0.005858888873877532
2484.0,0.005858888873877532
2483.0,0.005858888873877532
2482.0,0.00590291041179003
2481.0,0.005946936412324799
2480.0,0.005990966876386672
2479.0,0.005990966876386672
2478.0,0.005946936412324799
2477.0,0.00590291041179003
2476.0,0.005858888873877532
2475.0,0.005858888873877532
2474.0,0.005858888873877532
2473.0,0.005858888873877532
2472.0,0.005814871797682919
2471.0,0.005858888873877532
2470.0,0.005858888873877532
2469.0,0.005858888873877532
2468.0,0.005814871797682919
2467.0,0.00577085918230158
2466.0,0.005726851026829571
2465.0,0.005814871797682919
2464.0,0.00590291041179003
2463.0,0.005946936412324799
2462.0,0.005990966876386672
2461.0,0.00590291041179003
2460.0,0.005858888873877532
2459.0,0.005814871797682919
2458.0,0.005858888873877532
2457.0,0.005946936412324799
2456.0,0.006035001804881146
2455.0,0.006079041198713275
2454.0,0.00612308505878878
2453.0,0.006079041198713275
2452.0,0.005990966876386672
2451.0,0.00590291041179003
2450.0,0.005814871797682919
2449.0,0.005814871797682919
2448.0,0.005814871797682919
2447.0,0.005858888873877532
2446.0,0.00590291041179003
2445.0,0.005946936412324799
2444.0,0.005946936412324799
2443.0,0.006035001804881146
2442.0,0.006035001804881146
2441.0,0.006079041198713275
2440.0,0.006035001804881146
2439.0,0.005990966876386672
2438.0,0.005990966876386672
2437.0,0.005990966876386672
2436.0,0.005990966876386672
2435.0,0.005990966876386672
2434.0,0.005946936412324799
2433.0,0.00590291041179003
2432.0,0.00590291041179003
2431.0,0.005946936412324799
2430.0,0.005990966876386672
2429.0,0.006035001804881146
2428.0,0.006079041198713275
2427.0,0.006079041198713275
2426.0,0.006079041198713275
2425.0,0.006079041198713275
2424.0,0.00612308505878878
2423.0,0.00612308505878878
2422.0,0.006167133386013823
2421.0,0.006167133386013823
2420.0,0.00612308505878878
2419.0,0.006079041198713275
2418.0,0.005990966876386672
2417.0,0.005946936412324799
2416.0,0.00590291041179003
2415.0,0.005946936412324799
2414.0,0.005990966876386672
2413.0,0.005990966876386672
2412.0,0.005990966876386672
2411.0,0.005990966876386672
2410.0,0.005990966876386672
2409.0,0.005990966876386672
2408.0,0.005946936412324799
2407.0,0.005946936412324799
2406.0,0.005946936412324799
2405.0,0.006035001804881146
2404.0,0.006079041198713275
2403.0,0.006167133386013823
2402.0,0.00621118618129457
2401.0,0.00621118618129457
2400.0,0.006167133386013823
2399.0,0.00612308505878878
2398.0,0.00612308505878878
2397.0,0.00612308505878878
2396.0,0.006167133386013823
2395.0,0.00625524344553785
2394.0,0.006299305179649828
2393.0,0.006299305179649828
2392.0,0.00621118618129457
2391.0,0.00612308505878878
2390.0,0.005990966876386672
2389.0,0.005946936412324799
2388.0,0.005946936412324799
2387.0,0.005990966876386672
2386.0,0.006079041198713275
2385.0,0.006079041198713275
2384.0,0.005990966876386672
2383.0,0.005858888873877532
2382.0,0.005726851026829571
2381.0,0.005638848091999105
2380.0,0.005550862985963967
2379.0,0.005506877116487674
2378.0,0.00541891874010525
2377.0,0.005243055412371911
2376.0,0.005111204635089406
2375.0,0.004935465843858511
2374.0,0.00484762310854614
2373.0,0.004759798137184523
2372.0,0.004671990922590297
2371.0,0.004715892310740433
2370.0,0.004979393875242044
2369.0,0.005243055412371911
2368.0,0.005023326350308999
2367.0,0.004277078004534696
2366.0,0.003488327845821315
2365.0,0.0034007772998332353
2364.0,0.004101676353562844
2363.0,0.005067263269958211
2362.0,0.005682847330363394
2361.0,0.00590291041179003
2360.0,0.005858888873877532
2359.0,0.005858888873877532
2358.0,0.00621118618129457
2357.0,0.006828394969235152
2356.0,0.007137328610972382
2355.0,0.006740168563263094
2354.0,0.005814871797682919
2353.0,0.00484762310854614
2352.0,0.004320939488377862
2351.0,0.0044964297349936455
2350.0,0.005111204635089406
2349.0,0.005506877116487674
2348.0,0.005155150446602086
2347.0,0.00401400208620073
2346.0,0.0027447101798967477
2345.0,0.0022205691343961664
2344.0,0.0028321285541661467
2343.0,0.00401400208620073
2342.0,0.004979393875242044
2341.0,0.005462895701502157
2340.0,0.005506877116487674
2339.0,0.0052870145684298375
2338.0,0.005023326350308999
2337.0,0.004803708402820517
2336.0,0.004671990922590297
2335.0,0.004671990922590297
2334.0,0.004803708402820517
2333.0,0.005111204635089406
2332.0,0.00541891874010525
2331.0,0.005550862985963967
2330.0,0.005594853310833647
2329.0,0.005638848091999105
2328.0,0.005946936412324799
2327.0,0.006387442061109638
2326.0,0.006872514894289861
2325.0,0.007137328610972382
2324.0,0.007225635744644521
2323.0,0.007181479933320523
2322.0,0.007093181776687496
2321.0,0.007049039429553483
2320.0,0.00696076819309055
2319.0,0.006784279525863024
2318.0,0.006696062080525422
2317.0,0.006651960076740071
2316.0,0.006696062080525422
2315.0,0.006651960076740071
2314.0,0.00656376950238835
2313.0,0.006431517210272464
2312.0,0.006343371384537999
2311.0,0.006299305179649828
2310.0,0.006299305179649828
2309.0,0.006299305179649828
2308.0,0.006299305179649828
2307.0,0.006299305179649828
2306.0,0.006343371384537999
2305.0,0.006299305179649828
2304.0,0.00625524344553785
2303.0,0.006167133386013823
2302.0,0.00612308505878878
2301.0,0.006035001804881146
2300.0,0.005990966876386672
2299.0,0.006035001804881146
2298.0,0.00612308505878878
2297.0,0.00621118618129457
2296.0,0.00625524344553785
2295.0,0.006299305179649828
2294.0,0.006299305179649828
2293.0,0.006343371384537999
2292.0,0.006387442061109638
2291.0,0.006475596832934416
2290.0,0.006519680930003435
2289.0,0.00656376950238835
2288.0,0.00656376950238835
2287.0,0.006607862550997545
2286.0,0.006651960076740071
2285.0,0.006696062080525422
2284.0,0.006651960076740071
2283.0,0.006607862550997545
2282.0,0.006519680930003435
2281.0,0.006431517210272464
2280.0,0.006387442061109638
2279.0,0.006343371384537999
2278.0,0.006431517210272464
2277.0,0.006475596832934416
2276.0,0.006519680930003435
2275.0,0.006519680930003435
2274.0,0.006519680930003435
2273.0,0.006519680930003435
2272.0,0.006519680930003435
2271.0,0.006519680930003435
2270.0,0.006475596832934416
2269.0,0.006431517210272464
2268.0,0.006431517210272464
2267.0,0.006387442061109638
2266.0,0.006343371384537999
2265.0,0.006299305179649828
2264.0,0.00625524344553785
2263.0,0.006299305179649828
2262.0,0.006387442061109638
2261.0,0.006475596832934416
2260.0,0.006519680930003435
2259.0,0.006519680930003435
2258.0,0.006475596832934416
2257.0,0.006475596832934416
2256.0,0.006475596832934416
2255.0,0.006519680930003435
2254.0,0.00656376950238835
2253.0,0.00656376950238835
2252.0,0.00656376950238835
2251.0,0.00656376950238835
2250.0,0.006607862550997545
2249.0,0.006696062080525422
2248.0,0.006784279525863024
2247.0,0.006828394969235152
2246.0,0.006828394969235152
2245.0,0.006828394969235152
2244.0,0.006872514894289861
2243.0,0.006916639301937977
2242.0,0.006916639301937977
2241.0,0.006916639301937977
2240.0,0.006916639301937977
2239.0,0.006916639301937977
2238.0,0.006828394969235152
2237.0,0.006784279525863024
2236.0,0.006740168563263094
2235.0,0.006784279525863024
2234.0,0.006828394969235152
2233.0,0.006916639301937977
2232.0,0.007004901568658406
2231.0,0.007004901568658406
2230.0,0.00696076819309055
2229.0,0.006916639301937977
2228.0,0.006828394969235152
2227.0,0.006740168563263094
2226.0,0.006696062080525422
2225.0,0.006696062080525422
2224.0,0.006740168563263094
2223.0,0.006740168563263094
2222.0,0.006740168563263094
2221.0,0.006696062080525422
2220.0,0.006696062080525422
2219.0,0.006740168563263094
2218.0,0.006784279525863024
2217.0,0.006828394969235152
2216.0,0.006828394969235152
2215.0,0.006784279525863024
2214.0,0.006784279525863024
2213.0,0.006828394969235152
2212.0,0.006872514894289861
2211.0,0.006916639301937977
2210.0,0.006916639301937977
2209.0,0.006872514894289861
2208.0,0.006828394969235152
2207.0,0.006784279525863024
2206.0,0.006740168563263094
2205.0,0.006740168563263094
2204.0,0.006784279525863024
2203.0,0.006784279525863024
2202.0,0.006784279525863024
2201.0,0.006740168563263094
2200.0,0.006696062080525422
2199.0,0.006651960076740071
2198.0,0.006651960076740071
2197.0,0.006696062080525422
2196.0,0.006740168563263094
2195.0,0.006784279525863024
2194.0,0.006872514894289861
2193.0,0.006916639301937977
2192.0,0.007004901568658406
2191.0,0.007049039429553483
2190.0,0.007049039429553483
2189.0,0.007049039429553483
2188.0,0.007004901568658406
2187.0,0.007004901568658406
2186.0,0.007004901568658406
2185.0,0.007004901568658406
2184.0,0.007049039429553483
2183.0,0.007004901568658406
2182.0,0.00696076819309055
2181.0,0.006872514894289861
2180.0,0.006872514894289861
2179.0,0.006916639301937977
2178.0,0.00696076819309055
2177.0,0.007049039429553483
2176.0,0.007093181776687496
2175.0,0.007181479933320523
2174.0,0.007225635744644521
2173.0,0.007225635744644521
2172.0,0.007225635744644521
2171.0,0.007137328610972382
2170.0,0.007093181776687496
2169.0,0.007049039429553483
2168.0,0.007049039429553483
2167.0,0.007004901568658406
2166.0,0.00696076819309055
2165.0,0.00696076819309055
2164.0,0.00696076819309055
2163.0,0.007004901568658406
2162.0,0.007049039429553483
2161.0,0.007093181776687496
2160.0,0.007137328610972382
2159.0,0.007137328610972382
2158.0,0.007137328610972382
2157.0,0.007093181776687496
2156.0,0.007049039429553483
2155.0,0.007004901568658406
2154.0,0.007049039429553483
2153.0,0.007049039429553483
2152.0,0.007004901568658406
2151.0,0.007049039429553483
2150.0,0.007093181776687496
2149.0,0.007137328610972382
2148.0,0.007181479933320523
2147.0,0.007181479933320523
2146.0,0.007181479933320523
2145.0,0.007181479933320523
2144.0,0.007181479933320523
2143.0,0.007225635744644521
2142.0,0.007181479933320523
2141.0,0.007137328610972382
2140.0,0.007093181776687496
2139.0,0.007049039429553483
2138.0,0.007049039429553483
2137.0,0.007137328610972382
2136.0,0.007181479933320523
2135.0,0.007181479933320523
2134.0,0.007225635744644521
2133.0,0.007225635744644521
2132.0,0.007225635744644521
2131.0,0.007225635744644521
2130.0,0.007225635744644521
2129.0,0.007225635744644521
2128.0,0.007225635744644521
2127.0,0.007225635744644521
2126.0,0.007269796045857202
2125.0,0.007269796045857202
2124.0,0.007313960837872058
2123.0,0.007313960837872058
2122.0,0.007313960837872058
2121.0,0.007269796045857202
2120.0,0.007269796045857202
2119.0,0.007269796045857202
2118.0,0.007269796045857202
2117.0,0.007269796045857202
2116.0,0.007269796045857202
2115.0,0.007269796045857202
2114.0,0.007269796045857202
2113.0,0.007269796045857202
2112.0,0.007181479933320523
2111.0,0.007049039429553483
2110.0,0.007004901568658406
2109.0,0.007004901568658406
2108.0,0.007049039429553483
2107.0,0.007137328610972382
2106.0,0.007181479933320523
2105.0,0.007225635744644521
2104.0,0.007181479933320523
2103.0,0.007137328610972382
2102.0,0.007093181776687496
2101.0,0.007049039429553483
2100.0,0.007049039429553483
2099.0,0.007049039429553483
2098.0,0.007093181776687496
2097.0,0.007137328610972382
2096.0,0.007181479933320523
2095.0,0.007225635744644521
2094.0,0.007269796045857202
2093.0,0.007269796045857202
2092.0,0.007313960837872058
2091.0,0.007313960837872058
2090.0,0.007358130121602358
2089.0,0.007313960837872058
2088.0,0.007269796045857202
2087.0,0.007225635744644521
2086.0,0.007225635744644521
2085.0,0.007225635744644521
2084.0,0.007269796045857202
2083.0,0.007313960837872058
2082.0,0.007358130121602358
2081.0,0.007402303897961815
2080.0,0.007402303897961815
2079.0,0.0074464821678643656
2078.0,0.007490664932224611
2077.0,0.007534852191956709
2076.0,0.00762324020119709
2075.0,0.00762324020119709
2074.0,0.00762324020119709
2073.0,0.0075790439479759275
2072.0,0.007490664932224611
2071.0,0.007402303897961815
2070.0,0.007313960837872058
2069.0,0.007225635744644521
2068.0,0.007225635744644521
2067.0,0.007269796045857202
2066.0,0.007313960837872058
2065.0,0.007358130121602358
2064.0,0.007358130121602358
2063.0,0.007358130121602358
2062.0,0.007358130121602358
2061.0,0.007358130121602358
2060.0,0.007358130121602358
2059.0,0.007402303897961815
2058.0,0.0074464821678643656
2057.0,0.007490664932224611
2056.0,0.0074464821678643656
2055.0,0.0074464821678643656
2054.0,0.0074464821678643656
2053.0,0.0074464821678643656
2052.0,0.0074464821678643656
2051.0,0.007402303897961815
2050.0,0.007358130121602358
2049.0,0.007313960837872058
2048.0,0.007269796045857202
2047.0,0.007225635744644521
2046.0,0.007225635744644521
2045.0,0.007225635744644521
2044.0,0.007269796045857202
2043.0,0.007313960837872058
2042.0,0.007358130121602358
2041.0,0.007358130121602358
2040.0,0.007358130121602358
2039.0,0.007358130121602358
2038.0,0.007402303897961815
2037.0,0.007490664932224611
2036.0,0.007534852191956709
2035.0,0.00762324020119709
2034.0,0.00762324020119709
2033.0,0.007667440952535687
2032.0,0.00762324020119709
2031.0,0.0075790439479759275
2030.0,0.007490664932224611
2029.0,0.0074464821678643656
2028.0,0.007402303897961815
2027.0,0.007402303897961815
2026.0,0.007402303897961815
2025.0,0.007402303897961815
2024.0,0.0074464821678643656
2023.0,0.007490664932224611
2022.0,0.0075790439479759275
2021.0,0.007667440952535687
2020.0,0.007711646202907652
2019.0,0.007711646202907652
2018.0,0.007667440952535687
2017.0,0.00762324020119709
2016.0,0.0075790439479759275
2015.0,0.0075790439479759275
2014.0,0.0075790439479759275
2013.0,0.0075790439479759275
2012.0,0.007534852191956709
2011.0,0.007490664932224611
2010.0,0.007534852191956709
2009.0,0.0075790439479759275
2008.0,0.0075790439479759275
2007.0,0.0075790439479759275
2006.0,0.0075790439479759275
2005.0,0.0075790439479759275
2004.0,0.00762324020119709
2003.0,0.00762324020119709
2002.0,0.00762324020119709
2001.0,0.00762324020119709
2000.0,0.0075790439479759275
1999.0,0.007534852191956709
1998.0,0.007490664932224611
1997.0,0.0074464821678643656
1996.0,0.007402303897961815
1995.0,0.0074464821678643656
1994.0,0.007490664932224611
1993.0,0.0075790439479759275
1992.0,0.007667440952535687
1991.0,0.00762324020119709
1990.0,0.00762324020119709
1989.0,0.00762324020119709
1988.0,0.007667440952535687
1987.0,0.007667440952535687
1986.0,0.007667440952535687
1985.0,0.007667440952535687
1984.0,0.007667440952535687
1983.0,0.007667440952535687
1982.0,0.0075790439479759275
1981.0,0.007534852191956709
1980.0,0.007490664932224611
1979.0,0.0074464821678643656
1978.0,0.0074464821678643656
1977.0,0.007490664932224611
1976.0,0.007534852191956709
1975.0,0.0075790439479759275
1974.0,0.0075790439479759275
1973.0,0.0075790439479759275
1972.0,0.0075790439479759275
1971.0,0.0075790439479759275
1970.0,0.0075790439479759275
1969.0,0.007534852191956709
1968.0,0.007490664932224611
1967.0,0.007534852191956709
1966.0,0.00762324020119709
1965.0,0.007755855953228474
1964.0,0.007888512213050314
1963.0,0.007976972236149349
1962.0,0.008021209005416363
1961.0,0.008021209005416363
1960.0,0.008021209005416363
1959.0,0.007976972236149349
1958.0,0.007932739972333236
1957.0,0.007932739972333236
1956.0,0.007976972236149349
1955.0,0.008065450281052211
1954.0,0.008109696063975047
1953.0,0.008109696063975047
1952.0,0.008065450281052211
1951.0,0.008021209005416363
1950.0,0.008065450281052211
1949.0,0.008109696063975047
1948.0,0.008242460465651913
1947.0,0.008330992620051436
1946.0,0.008375265465994541
1945.0,0.008419542825660153
1944.0,0.008463824699968647
1943.0,0.008463824699968647
1942.0,0.00850811108984062
1941.0,0.008552401996197112
1940.0,0.008596697419959609
1939.0,0.008596697419959609
1938.0,0.008552401996197112
1937.0,0.008463824699968647
1936.0,0.008419542825660153
1935.0,0.008330992620051436
1934.0,0.008330992620051436
1933.0,0.008375265465994541
1932.0,0.008463824699968647
1931.0,0.008463824699968647
1930.0,0.008463824699968647
1929.0,0.008375265465994541
1928.0,0.008286724286910463
1927.0,0.008242460465651913
1926.0,0.008242460465651913
1925.0,0.008286724286910463
1924.0,0.008286724286910463
1923.0,0.008286724286910463
1922.0,0.008242460465651913
1921.0,0.008286724286910463
1920.0,0.008330992620051436
1919.0,0.008375265465994541
1918.0,0.008286724286910463
1917.0,0.008198201155356077
1916.0,0.008065450281052211
1915.0,0.008021209005416363
1914.0,0.008021209005416363
1913.0,0.008065450281052211
1912.0,0.008109696063975047
1911.0,0.008065450281052211
1910.0,0.008021209005416363
1909.0,0.007976972236149349
1908.0,0.007888512213050314
1907.0,0.007888512213050314
1906.0,0.007976972236149349
1905.0,0.008065450281052211
1904.0,0.008109696063975047
1903.0,0.008109696063975047
1902.0,0.008065450281052211
1901.0,0.007976972236149349
1900.0,0.007976972236149349
1899.0,0.007976972236149349
1898.0,0.008021209005416363
1897.0,0.008021209005416363
1896.0,0.008021209005416363
1895.0,0.008065450281052211
1894.0,0.008109696063975047
1893.0,0.008153946355103248
1892.0,0.008153946355103248
1891.0,0.008198201155356077
1890.0,0.008242460465651913
1889.0,0.008286724286910463
1888.0,0.008330992620051436
1887.0,0.008330992620051436
1886.0,0.008330992620051436
1885.0,0.008375265465994541
1884.0,0.008375265465994541
1883.0,0.008330992620051436
1882.0,0.008375265465994541
1881.0,0.008419542825660153
1880.0,0.008463824699968647
1879.0,0.00850811108984062
1878.0,0.00850811108984062
1877.0,0.00850811108984062
1876.0,0.008552401996197112
1875.0,0.008596697419959609
1874.0,0.008685301823389224
1873.0,0.0087296108049002
1872.0,0.008818242332126802
1871.0,0.008818242332126802
1870.0,0.008818242332126802
1869.0,0.0087296108049002
1868.0,0.008685301823389224
1867.0,0.008640997362049818
1866.0,0.0087296108049002
1865.0,0.008862564879688284
1864.0,0.008906891951112605
1863.0,0.008906891951112605
1862.0,0.008862564879688284
1861.0,0.008773924307505121
1860.0,0.008640997362049818
1859.0,0.008596697419959609
1858.0,0.008640997362049818
1857.0,0.008685301823389224
1856.0,0.0087296108049002
1855.0,0.0087296108049002
1854.0,0.008685301823389224
1853.0,0.008596697419959609
1852.0,0.00850811108984062
1851.0,0.008463824699968647
1850.0,0.008463824699968647
1849.0,0.00850811108984062
1848.0,0.00850811108984062
1847.0,0.008596697419959609
1846.0,0.008640997362049818
1845.0,0.008685301823389224
1844.0,0.008685301823389224
1843.0,0.008685301823389224
1842.0,0.008640997362049818
1841.0,0.008596697419959609
1840.0,0.00850811108984062
1839.0,0.008419542825660153
1838.0,0.008375265465994541
1837.0,0.008419542825660153
1836.0,0.008463824699968647
1835.0,0.008463824699968647
1834.0,0.008419542825660153
1833.0,0.008330992620051436
1832.0,0.008286724286910463
1831.0,0.008286724286910463
1830.0,0.008286724286910463
1829.0,0.008330992620051436
1828.0,0.008375265465994541
1827.0,0.008419542825660153
1826.0,0.008419542825660153
1825.0,0.008463824699968647
1824.0,0.00850811108984062
1823.0,0.00850811108984062
1822.0,0.008552401996197112
1821.0,0.008552401996197112
1820.0,0.008552401996197112
1819.0,0.008552401996197112
1818.0,0.008552401996197112
1817.0,0.008640997362049818
1816.0,0.008685301823389224
1815.0,0.0087296108049002
1814.0,0.0087296108049002
1813.0,0.008685301823389224
1812.0,0.0087296108049002
1811.0,0.008773924307505121
1810.0,0.008862564879688284
1809.0,0.008995559669244813
1808.0,0.00908424549391551
1807.0,0.009172949432521227
1806.0,0.009172949432521227
1805.0,0.009172949432521227
1804.0,0.009128595198514056
1803.0,0.009039900317800775
1802.0,0.008995559669244813
1801.0,0.00908424549391551
1800.0,0.009217308196862062
1799.0,0.009306039320248427
1798.0,0.009350411681145587
1797.0,0.009306039320248427
1796.0,0.009261671492462709
1795.0,0.009261671492462709
1794.0,0.009217308196862062
1793.0,0.009172949432521227
1792.0,0.009128595198514056
1791.0,0.009128595198514056
1790.0,0.009172949432521227
1789.0,0.009217308196862062
1788.0,0.009172949432521227
1787.0,0.009128595198514056
1786.0,0.009039900317800775
1785.0,0.008995559669244813
1784.0,0.008995559669244813
1783.0,0.008995559669244813
1782.0,0.008995559669244813
1781.0,0.008995559669244813
1780.0,0.008995559669244813
1779.0,0.008862564879688284
1778.0,0.0087296108049002
1777.0,0.008640997362049818
1776.0,0.008596697419959609
1775.0,0.008640997362049818
1774.0,0.008685301823389224
1773.0,0.0087296108049002
1772.0,0.0087296108049002
1771.0,0.0087296108049002
1770.0,0.008773924307505121
1769.0,0.008862564879688284
1768.0,0.008951223547323472
1767.0,0.008951223547323472
1766.0,0.008906891951112605
1765.0,0.008862564879688284
1764.0,0.008906891951112605
1763.0,0.008906891951112605
1762.0,0.008906891951112605
1761.0,0.008862564879688284
1760.0,0.008862564879688284
1759.0,0.008951223547323472
1758.0,0.008995559669244813
1757.0,0.008995559669244813
1756.0,0.008951223547323472
1755.0,0.008951223547323472
1754.0,0.008995559669244813
1753.0,0.00908424549391551
1752.0,0.009128595198514056
1751.0,0.009217308196862062
1750.0,0.009261671492462709
1749.0,0.009261671492462709
1748.0,0.009306039320248427
1747.0,0.009306039320248427
1746.0,0.009350411681145587
1745.0,0.00939478857608056
1744.0,0.009439170005980158
1743.0,0.009483555971770974
1742.0,0.009439170005980158
1741.0,0.00939478857608056
1740.0,0.009350411681145587
1739.0,0.009350411681145587
1738.0,0.00939478857608056
1737.0,0.009527946474380489
1736.0,0.009572341514736404
1735.0,0.009616741093766423
1734.0,0.009527946474380489
1733.0,0.009350411681145587
1732.0,0.009306039320248427
1731.0,0.009306039320248427
1730.0,0.00939478857608056
1729.0,0.009439170005980158
1728.0,0.009527946474380489
1727.0,0.009572341514736404
1726.0,0.009572341514736404
1725.0,0.009572341514736404
1724.0,0.009527946474380489
1723.0,0.009483555971770974
1722.0,0.009439170005980158
1721.0,0.009439170005980158
1720.0,0.009439170005980158
1719.0,0.00939478857608056
1718.0,0.009439170005980158
1717.0,0.009616741093766423
1716.0,0.00974996707218323
1715.0,0.009794384815193347
1714.0,0.00974996707218323
1713.0,0.009705553871561357
1712.0,0.00966114521239847
1711.0,0.009616741093766423
1710.0,0.009572341514736404
1709.0,0.009527946474380489
1708.0,0.009483555971770974
1707.0,0.009483555971770974
1706.0,0.009483555971770974
1705.0,0.009527946474380489
1704.0,0.00966114521239847
1703.0,0.009883233932095559
1702.0,0.010105436281226954
1701.0,0.010283280051895272
1700.0,0.010327752376126709
1699.0,0.01023881228122181
1698.0,0.01023881228122181
1697.0,0.01037222925484893
1696.0,0.010505687227290839
1695.0,0.010550182333308289
1694.0,0.010550182333308289
1693.0,0.010639186223752484
1692.0,0.010683695010048622
1691.0,0.010728208358306901
1690.0,0.010728208358306901
1689.0,0.010728208358306901
1688.0,0.010817248744452446
1687.0,0.010950843561779777
1686.0,0.011084479487313281
1685.0,0.011262724711199823
1684.0,0.011441043121384498
1683.0,0.011441043121384498
1682.0,0.011485634166333858
1681.0,0.011619434777991433
1680.0,0.011842527443247208
1679.0,0.012065734767841452
1678.0,0.012244383261476699
1677.0,0.012423105273012602
1676.0,0.012557195064198723
1675.0,0.01264661126420652
1674.0,0.01264661126420652
1673.0,0.01264661126420652
1672.0,0.012691326268817527
1671.0,0.012825498912458322
1670.0,0.013049212141483357
1669.0,0.01322826573375524
1668.0,0.013273040668781544
1667.0,0.013273040668781544
1666.0,0.01322826573375524
1665.0,0.01322826573375524
1664.0,0.013273040668781544
1663.0,0.013452186585275916
1662.0,0.013676222949234651
1661.0,0.01381070026317599
1660.0,0.013900374944870508
1659.0,0.013945219230304673
1658.0,0.013990068146738865
1657.0,0.013945219230304673
1656.0,0.013945219230304673
1655.0,0.013945219230304673
1654.0,0.014214382227394795
1653.0,0.014753209197138295
1652.0,0.014888020460646079
1651.0,0.014932966849499074
1650.0,0.015022873584506602
1649.0,0.015202742910707112
1648.0,0.015517693597737248
1647.0,0.016103208673694303
1646.0,0.016689514205884493
1645.0,0.017005545341335804
1644.0,0.017231422748988034
1643.0,0.017457417697056554
1642.0,0.01768353030793479
1641.0,0.01781925440359733
1640.0,0.017955020928509757
1639.0,0.017955020928509757
1638.0,0.017909760704207134
1637.0,0.017728766960431575
1636.0,0.017457417697056554
1635.0,0.017050711425501408
1634.0,0.016644385668211692
1633.0,0.016373712875465518
1632.0,0.016058141016111804
1631.0,0.015742798294583915
1630.0,0.01538268676325183
1629.0,0.015067833932588037
1628.0,0.014843078722943437
1627.0,0.014708281407112
1626.0,0.014573525916998342
1625.0,0.014438812226654996
1624.0,0.014304140310157809
1623.0,0.014169510141607944
1622.0,0.014124642691606404
1621.0,0.01403492169512921
1620.0,0.013945219230304673
1619.0,0.013900374944870508
1618.0,0.01385553528947936
1617.0,0.01381070026317599
1616.0,0.01372104409400876
1615.0,0.013586594534531482
1614.0,0.013496984613259544
1613.0,0.013362604389846044
1612.0,0.013273040668781544
1611.0,0.013273040668781544
1610.0,0.013362604389846044
1609.0,0.013541787262693505
1608.0,0.01385553528947936
1607.0,0.014349026309051105
1606.0,0.014932966849499074
1605.0,0.015697768020096703
1604.0,0.016599261819461697
1603.0,0.017457417697056554
1602.0,0.018226681372252695
1601.0,0.018725167293411005
1600.0,0.018861217359339655
1599.0,0.018634490921455527
1598.0,0.01809082990920774
1597.0,0.017457417697056554
1596.0,0.01677978535189717
1595.0,0.016238439713835096
1594.0,0.01578783323856614
1593.0,0.015427684378367834
1592.0,0.015112798935672522
1591.0,0.014843078722943437
1590.0,0.014618439768003144
1589.0,0.014393916947563534
1588.0,0.014259258949925524
1587.0,0.014259258949925524
1586.0,0.014438812226654996
1585.0,0.014708281407112
1584.0,0.014977917890464765
1583.0,0.015157768594724175
1582.0,0.015112798935672522
1581.0,0.014798141635428141
1580.0,0.014393916947563534
1579.0,0.013990068146738865
1578.0,0.013676222949234651
1577.0,0.013452186585275916
1576.0,0.013362604389846044
1575.0,0.013273040668781544
1574.0,0.01318349541446362
1573.0,0.013138729709955221
1572.0,0.013049212141483357
1571.0,0.012959713020733288
1570.0,0.012780770091995297
1569.0,0.01264661126420652
1568.0,0.01260190086298274
1567.0,0.01260190086298274
1566.0,0.01260190086298274
1565.0,0.012512493866907004
1564.0,0.012467797270160563
1563.0,0.012467797270160563
1562.0,0.012467797270160563
1561.0,0.012423105273012602
1560.0,0.012333735073725371
1559.0,0.012512493866907004
1558.0,0.012467797270160563
1557.0,0.012378417874516323
1556.0,0.012378417874516323
1555.0,0.012378417874516323
1554.0,0.012378417874516323
1553.0,0.012333735073725371
1552.0,0.012333735073725371
1551.0,0.012289056869694281
1550.0,0.012289056869694281
1549.0,0.012333735073725371
1548.0,0.012378417874516323
1547.0,0.012423105273012602
1546.0,0.012423105273012602
1545.0,0.012423105273012602
1544.0,0.012423105273012602
1543.0,0.012378417874516323
1542.0,0.012289056869694281
1541.0,0.012199714248127602
1540.0,0.012289056869694281
1539.0,0.012467797270160563
1538.0,0.01260190086298274
1537.0,0.01264661126420652
1536.0,0.012691326268817527
1535.0,0.012691326268817527
1534.0,0.012691326268817527
1533.0,0.012691326268817527
1532.0,0.01264661126420652
1531.0,0.01260190086298274
1530.0,0.012467797270160563
1529.0,0.012378417874516323
1528.0,0.012289056869694281
1527.0,0.012289056869694281
1526.0,0.012289056869694281
1525.0,0.012199714248127602
1524.0,0.012065734767841452
1523.0,0.011887159731648111
1522.0,0.011797899741219142
1521.0,0.011708658092512314
1520.0,0.011619434777991433
1519.0,0.011485634166333858
1518.0,0.011307297450183107
1517.0,0.011129033935354915
1516.0,0.011039929609661936
1515.0,0.010995384301463185
1514.0,0.010995384301463185
1513.0,0.010995384301463185
1512.0,0.010950843561779777
1511.0,0.01086177578421088
1510.0,0.010728208358306901
1509.0,0.010550182333308289
1508.0,0.010416710688994968
1507.0,0.01046119667949763
1506.0,0.01037222925484893
1505.0,0.01023881228122181
1504.0,0.010194349063173958
1503.0,0.01023881228122181
1502.0,0.01023881228122181
1501.0,0.010283280051895272
1500.0,0.010505687227290839
1499.0,0.01117359295472431
1498.0,0.01264661126420652
1497.0,0.015247721884586563
1496.0,0.01858915983411169
1495.0,0.021819483062586187
1494.0,0.024338466818941473
1493.0,0.025902996205869
1492.0,0.026318081496016443
1491.0,0.02544225514642018
1490.0,0.02365002099672653
1489.0,0.021773818325474092
1488.0,0.020315076172974234
1487.0,0.0192242260373785
1486.0,0.01831727262871463
1485.0,0.017547848615010242
1484.0,0.016824927962187042
1483.0,0.016193358021584725
1482.0,0.015652742414136167
1481.0,0.015202742910707112
1480.0,0.014932966849499074
1479.0,0.014663358264387139
1478.0,0.014393916947563534
1477.0,0.014079779876432497
1476.0,0.01385553528947936
1475.0,0.013631406429727155
1474.0,0.013452186585275916
1473.0,0.013407393177789162
1472.0,0.013407393177789162
1471.0,0.013362604389846044
1470.0,0.013317820220494436
1469.0,0.013317820220494436
1468.0,0.013273040668781544
1467.0,0.013273040668781544
1466.0,0.01322826573375524
1465.0,0.01322826573375524
1464.0,0.01318349541446362
1463.0,0.013049212141483357
1462.0,0.012870232340102872
1461.0,0.012780770091995297
1460.0,0.012825498912458322
1459.0,0.013138729709955221
1458.0,0.014349026309051105
1457.0,0.016915227262211507
1456.0,0.01995115493504329
1455.0,0.022688026603074007
1454.0,0.02521206778644225
1453.0,0.027288159452933503
1452.0,0.02863136320857662
1451.0,0.028956208163971375
1450.0,0.02849221828874393
1449.0,0.027612000892527133
1448.0,0.026733563891471412
1447.0,0.026041313893296225
1446.0,0.025488307262671706
1445.0,0.025074013910237447
1444.0,0.02461415101053266
1443.0,0.024108863598207186
1442.0,0.02355831062115543
1441.0,0.02300845469384938
1440.0,0.022505030926963654
1439.0,0.021956506090037076
1438.0,0.0214542995372613
1437.0,0.020952673052035298
1436.0,0.02045162529590483
1435.0,0.01990568621470623
1434.0,0.01940584422377989
1433.0,0.018906576854070378
1432.0,0.01840788278591865
1431.0,0.01800028587012159
1430.0,0.017638298366853045
1429.0,0.017412209298337533
1428.0,0.017231422748988034
1427.0,0.017141057687924732
1426.0,0.017005545341335804
1425.0,0.016870075265299933
1424.0,0.016689514205884493
1423.0,0.016509028184833463
1422.0,0.01632861713980338
1421.0,0.016103208673694303
1420.0,0.015922966097169144
1419.0,0.015832872853011715
1418.0,0.015832872853011715
1417.0,0.015832872853011715
1416.0,0.015832872853011715
1415.0,0.015832872853011715
1414.0,0.01578783323856614
1413.0,0.015742798294583915
1412.0,0.015652742414136167
1411.0,0.015607721475734415
1410.0,0.015607721475734415
1409.0,0.015607721475734415
1408.0,0.015607721475734415
1407.0,0.015607721475734415
1406.0,0.015607721475734415
1405.0,0.015607721475734415
1404.0,0.015562705203923999
1403.0,0.01547268665620738
1402.0,0.015337693809893471
1401.0,0.015157768594724175
1400.0,0.014977917890464765
1399.0,0.014932966849499074
1398.0,0.014932966849499074
1397.0,0.014932966849499074
1396.0,0.014977917890464765
1395.0,0.015067833932588037
1394.0,0.015067833932588037
1393.0,0.015067833932588037
1392.0,0.015022873584506602
1391.0,0.015022873584506602
1390.0,0.014977917890464765
1389.0,0.015022873584506602
1388.0,0.015067833932588037
1387.0,0.015202742910707112
1386.0,0.01538268676325183
1385.0,0.01547268665620738
1384.0,0.015607721475734415
1383.0,0.015697768020096703
1382.0,0.015832872853011715
1381.0,0.015922966097169144
1380.0,0.016013078034810446
1379.0,0.016103208673694303
1378.0,0.016193358021584725
1377.0,0.01632861713980338
1376.0,0.016418813294209356
1375.0,0.016509028184833463
1374.0,0.016599261819461697
1373.0,0.016689514205884493
1372.0,0.01677978535189717
1371.0,0.016824927962187042
1370.0,0.016870075265299933
1369.0,0.016870075265299933
1368.0,0.016824927962187042
1367.0,0.01677978535189717
1366.0,0.01677978535189717
1365.0,0.016734647433454652
1364.0,0.016644385668211692
1363.0,0.016599261819461697
1362.0,0.016599261819461697
1361.0,0.016644385668211692
1360.0,0.016644385668211692
1359.0,0.016644385668211692
1358.0,0.016554142658660398
1357.0,0.01646391839700767
1356.0,0.016373712875465518
1355.0,0.01628352608625061
1354.0,0.01628352608625061
1353.0,0.01632861713980338
1352.0,0.016373712875465518
1351.0,0.016373712875465518
1350.0,0.016373712875465518
1349.0,0.01632861713980338
1348.0,0.016238439713835096
1347.0,0.016238439713835096
1346.0,0.016238439713835096
1345.0,0.016193358021584725
1344.0,0.016148281008528276
1343.0,0.016058141016111804
1342.0,0.015922966097169144
1341.0,0.015832872853011715
1340.0,0.015742798294583915
1339.0,0.015742798294583915
1338.0,0.015697768020096703
1337.0,0.015697768020096703
1336.0,0.015697768020096703
1335.0,0.015697768020096703
1334.0,0.015742798294583915
1333.0,0.01578783323856614
1332.0,0.015877917138889863
1331.0,0.01596801972881945
1330.0,0.016058141016111804
1329.0,0.016103208673694303
1328.0,0.016148281008528276
1327.0,0.016193358021584725
1326.0,0.016193358021584725
1325.0,0.016193358021584725
1324.0,0.016148281008528276
1323.0,0.016103208673694303
1322.0,0.016013078034810446
1321.0,0.01596801972881945
1320.0,0.015922966097169144
1319.0,0.015922966097169144
1318.0,0.01596801972881945
1317.0,0.016103208673694303
1316.0,0.01628352608625061
1315.0,0.016373712875465518
1314.0,0.01646391839700767
1313.0,0.016554142658660398
1312.0,0.016599261819461697
1311.0,0.016644385668211692
1310.0,0.016689514205884493
1309.0,0.016689514205884493
1308.0,0.016644385668211692
1307.0,0.016644385668211692
1306.0,0.016599261819461697
1305.0,0.016554142658660398
1304.0,0.016418813294209356
1303.0,0.01632861713980338
1302.0,0.016238439713835096
1301.0,0.016193358021584725
1300.0,0.016238439713835096
1299.0,0.01628352608625061
1298.0,0.01632861713980338
1297.0,0.016373712875465518
1296.0,0.016373712875465518
1295.0,0.01632861713980338
1294.0,0.01628352608625061
1293.0,0.016193358021584725
1292.0,0.016148281008528276
1291.0,0.016103208673694303
1290.0,0.016058141016111804
1289.0,0.016058141016111804
1288.0,0.016103208673694303
1287.0,0.016103208673694303
1286.0,0.016148281008528276
1285.0,0.016148281008528276
1284.0,0.016193358021584725
1283.0,0.016193358021584725
1282.0,0.016238439713835096
1281.0,0.016238439713835096
1280.0,0.016148281008528276
1279.0,0.016013078034810446
1278.0,0.015922966097169144
1277.0,0.015922966097169144
1276.0,0.01596801972881945
1275.0,0.016013078034810446
1274.0,0.016013078034810446
1273.0,0.015922966097169144
1272.0,0.015832872853011715
1271.0,0.01578783323856614
1270.0,0.015742798294583915
1269.0,0.015697768020096703
1268.0,0.015652742414136167
1267.0,0.015607721475734415
1266.0,0.015607721475734415
1265.0,0.015652742414136167
1264.0,0.015652742414136167
1263.0,0.015607721475734415
1262.0,0.015562705203923999
1261.0,0.015517693597737248
1260.0,0.015562705203923999
1259.0,0.015562705203923999
1258.0,0.015607721475734415
1257.0,0.015562705203923999
1256.0,0.015517693597737248
1255.0,0.01547268665620738
1254.0,0.01547268665620738
1253.0,0.015517693597737248
1252.0,0.015607721475734415
1251.0,0.015697768020096703
1250.0,0.01578783323856614
1249.0,0.015832872853011715
1248.0,0.015877917138889863
1247.0,0.015832872853011715
1246.0,0.015832872853011715
1245.0,0.01578783323856614
1244.0,0.015742798294583915
1243.0,0.015697768020096703
1242.0,0.015652742414136167
1241.0,0.015652742414136167
1240.0,0.015697768020096703
1239.0,0.015742798294583915
1238.0,0.015742798294583915
1237.0,0.015697768020096703
1236.0,0.015652742414136167
1235.0,0.015607721475734415
1234.0,0.015607721475734415
1233.0,0.015652742414136167
1232.0,0.015652742414136167
1231.0,0.015652742414136167
1230.0,0.015607721475734415
1229.0,0.015562705203923999
1228.0,0.015607721475734415
1227.0,0.015697768020096703
1226.0,0.01578783323856614
1225.0,0.015832872853011715
1224.0,0.015832872853011715
1223.0,0.01578783323856614
1222.0,0.01578783323856614
1221.0,0.01578783323856614
1220.0,0.01578783323856614
1219.0,0.015832872853011715
1218.0,0.015832872853011715
1217.0,0.015877917138889863
1216.0,0.015877917138889863
1215.0,0.015832872853011715
1214.0,0.015832872853011715
1213.0,0.015877917138889863
1212.0,0.015922966097169144
1211.0,0.016013078034810446
1210.0,0.016103208673694303
1209.0,0.016193358021584725
1208.0,0.016238439713835096
1207.0,0.016238439713835096
1206.0,0.01628352608625061
1205.0,0.016373712875465518
1204.0,0.016509028184833463
1203.0,0.016644385668211692
1202.0,0.016689514205884493
1201.0,0.016734647433454652
1200.0,0.01677978535189717
1199.0,0.016870075265299933
1198.0,0.016960383953898095
1197.0,0.017050711425501408
1196.0,0.017186237868137555
1195.0,0.017367005605150476
1194.0,0.017547848615010242
1193.0,0.017638298366853045
1192.0,0.01768353030793479
1191.0,0.017774008325325275
1190.0,0.01781925440359733
1189.0,0.017864505196230507
1188.0,0.017955020928509757
1187.0,0.01809082990920774
1186.0,0.018271974638383703
1185.0,0.018498511851753108
1184.0,0.018815862601645694
1183.0,0.019133445417920836
1182.0,0.019451260640229506
1181.0,0.019723858922159776
1180.0,0.019814763052665052
1179.0,0.019769308608968306
1178.0,0.019632973815224997
1177.0,0.01949668180660491
1176.0,0.019360432556262852
1175.0,0.019269623464054586
1174.0,0.0192242260373785
1173.0,0.0192242260373785
1172.0,0.0192242260373785
1171.0,0.0192242260373785
1170.0,0.019178833355664393
1169.0,0.0190880622231564
1168.0,0.019042683770379876
1167.0,0.01899731005860028
1166.0,0.01899731005860028
1165.0,0.01899731005860028
1164.0,0.0190880622231564
1163.0,0.019178833355664393
1162.0,0.019315025636685412
1161.0,0.01949668180660491
1160.0,0.019723858922159776
1159.0,0.02004210665933459
1158.0,0.02036058777709271
1157.0,0.020770406977844713
1156.0,0.0211806132671577
1155.0,0.021545566634771474
1154.0,0.021728158389364705
1153.0,0.02168250325324883
1152.0,0.021545566634771474
1151.0,0.021317434843055594
1150.0,0.021089422824428272
1149.0,0.020861530453190058
1148.0,0.02067930261797568
1147.0,0.020497151212598652
1146.0,0.020406104151069693
1145.0,0.020406104151069693
1144.0,0.02036058777709271
1143.0,0.020315076172974234
1142.0,0.02022406727031445
1141.0,0.020087589665283012
1140.0,0.019996628416253603
1139.0,0.01995115493504329
1138.0,0.01990568621470623
1137.0,0.019814763052665052
1136.0,0.019769308608968306
1135.0,0.019723858922159776
1134.0,0.019723858922159776
1133.0,0.019769308608968306
1132.0,0.019814763052665052
1131.0,0.019814763052665052
1130.0,0.019723858922159776
1129.0,0.019723858922159776
1128.0,0.019769308608968306
1127.0,0.019860222254245663
1126.0,0.019860222254245663
1125.0,0.019814763052665052
1124.0,0.019769308608968306
1123.0,0.019769308608968306
1122.0,0.019723858922159776
1121.0,0.019678413991243593
1120.0,0.019678413991243593
1119.0,0.019678413991243593
1118.0,0.019769308608968306
1117.0,0.01995115493504329
1116.0,0.02004210665933459
1115.0,0.020087589665283012
1114.0,0.02004210665933459
1113.0,0.019996628416253603
1112.0,0.019996628416253603
1111.0,0.02004210665933459
1110.0,0.020178569969774962
1109.0,0.02026956933771462
1108.0,0.020315076172974234
1107.0,0.020315076172974234
1106.0,0.02022406727031445
1105.0,0.02013307743509718
1104.0,0.02004210665933459
1103.0,0.01995115493504329
1102.0,0.019860222254245663
1101.0,0.019860222254245663
1100.0,0.019860222254245663
1099.0,0.01990568621470623
1098.0,0.01995115493504329
1097.0,0.019996628416253603
1096.0,0.020087589665283012
1095.0,0.020178569969774962
1094.0,0.02022406727031445
1093.0,0.02022406727031445
1092.0,0.02013307743509718
1091.0,0.020087589665283012
1090.0,0.019996628416253603
1089.0,0.01990568621470623
1088.0,0.01990568621470623
1087.0,0.019996628416253603
1086.0,0.020087589665283012
1085.0,0.020087589665283012
1084.0,0.020087589665283012
1083.0,0.02004210665933459
1082.0,0.02004210665933459
1081.0,0.020087589665283012
1080.0,0.020178569969774962
1079.0,0.020315076172974234
1078.0,0.02045162529590483
1077.0,0.02058821736556471
1076.0,0.020770406977844713
1075.0,0.021043834782408455
1074.0,0.021363051615525652
1073.0,0.021728158389364705
1072.0,0.022139270735302752
1071.0,0.022505030926963654
1070.0,0.022733787572707387
1069.0,0.022733787572707387
1068.0,0.022642270454698687
1067.0,0.02255077261765881
1066.0,0.022413561996148967
1065.0,0.022322112326006227
1064.0,0.0221849739168134
1063.0,0.02200219004126036
1062.0,0.021773818325474092
1061.0,0.021545566634771474
1060.0,0.021317434843055594
1059.0,0.0211806132671577
1058.0,0.021043834782408455
1057.0,0.020907099361673565
1056.0,0.020770406977844713
1055.0,0.02058821736556471
1054.0,0.02045162529590483
1053.0,0.02036058777709271
1052.0,0.020315076172974234
1051.0,0.020315076172974234
1050.0,0.020178569969774962
1049.0,0.019996628416253603
1048.0,0.019860222254245663
1047.0,0.019723858922159776
1046.0,0.019632973815224997
1045.0,0.01954210772389997
1044.0,0.01940584422377989
1043.0,0.019269623464054586
1042.0,0.0192242260373785
1041.0,0.019178833355664393
1040.0,0.019178833355664393
1039.0,0.0192242260373785
1038.0,0.019315025636685412
1037.0,0.01958753839310856
1036.0,0.019996628416253603
1035.0,0.02058821736556471
1034.0,0.021499930688540836
1033.0,0.02259651912656535
1032.0,0.023879381700184332
1031.0,0.02516604495145991
1030.0,0.026225806029419818
1029.0,0.027010773144651168
1028.0,0.02747318213414429
1027.0,0.02751945012352408
1026.0,0.027288159452933503
1025.0,0.02691835039863255
1024.0,0.026410376572743033
1023.0,0.025902996205869
1022.0,0.02539620791296726
1021.0,0.024890010313838973
1020.0,0.024430342106337877
1019.0,0.024017056287453542
1018.0,0.023695883447997224
1017.0,0.023374947949272418
1016.0,0.023100049017062307
1015.0,0.02282532397981263
1014.0,0.02255077261765881
1013.0,0.022322112326006227
1012.0,0.022093572362881675
1011.0,0.021956506090037076
1010.0,0.021819483062586187
1009.0,0.021819483062586187
1008.0,0.021819483062586187
1007.0,0.021865152601710403
1006.0,0.021910826943857264
1005.0,0.021910826943857264
1004.0,0.021910826943857264
1003.0,0.021910826943857264
1002.0,0.021819483062586187
1001.0,0.02168250325324883
1000.0,0.021499930688540836
999.0,0.021271822861508305
998.0,0.021043834782408455
997.0,0.020861530453190058
996.0,0.02067930261797568
995.0,0.020497151212598652
994.0,0.02036058777709271
993.0,0.02026956933771462
992.0,0.02022406727031445
991.0,0.020178569969774962
990.0,0.02013307743509718
989.0,0.02013307743509718
988.0,0.02022406727031445
987.0,0.02036058777709271
986.0,0.020497151212598652
985.0,0.020633757603838898
984.0,0.020770406977844713
983.0,0.020907099361673565
982.0,0.020952673052035298
981.0,0.0209982515252789
980.0,0.021043834782408455
979.0,0.021089422824428272
978.0,0.021089422824428272
977.0,0.021089422824428272
976.0,0.0209982515252789
975.0,0.02081596632558158
974.0,0.020542681902151694
973.0,0.020315076172974234
972.0,0.02026956933771462
971.0,0.020315076172974234
970.0,0.020497151212598652
969.0,0.020724852408976924
968.0,0.020861530453190058
967.0,0.0209982515252789
966.0,0.021135015652343103
965.0,0.02122621566987748
964.0,0.021317434843055594
963.0,0.021317434843055594
962.0,0.021271822861508305
961.0,0.021089422824428272
960.0,0.020907099361673565
959.0,0.020770406977844713
958.0,0.02058821736556471
957.0,0.020497151212598652
956.0,0.02036058777709271
955.0,0.02022406727031445
954.0,0.020087589665283012
953.0,0.019996628416253603
952.0,0.019996628416253603
951.0,0.02004210665933459
950.0,0.020178569969774962
949.0,0.020315076172974234
948.0,0.020406104151069693
947.0,0.02045162529590483
946.0,0.020542681902151694
945.0,0.02058821736556471
944.0,0.02058821736556471
943.0,0.020542681902151694
942.0,0.020497151212598652
941.0,0.02045162529590483
940.0,0.020406104151069693
939.0,0.02036058777709271
938.0,0.02026956933771462
937.0,0.02013307743509718
936.0,0.019996628416253603
935.0,0.019814763052665052
934.0,0.01958753839310856
933.0,0.019451260640229506
932.0,0.019360432556262852
931.0,0.019315025636685412
930.0,0.019360432556262852
929.0,0.01949668180660491
928.0,0.01958753839310856
927.0,0.019632973815224997
926.0,0.019632973815224997
925.0,0.019632973815224997
924.0,0.019632973815224997
923.0,0.01958753839310856
922.0,0.01958753839310856
921.0,0.019632973815224997
920.0,0.019769308608968306
919.0,0.01990568621470623
918.0,0.019996628416253603
917.0,0.02013307743509718
916.0,0.020406104151069693
915.0,0.020770406977844713
914.0,0.021271822861508305
913.0,0.021773818325474092
912.0,0.022322112326006227
911.0,0.02291687968414724
910.0,0.023604163388120325
909.0,0.02438440203310499
908.0,0.02512002699306959
907.0,0.025672564576383117
906.0,0.026041313893296225
905.0,0.02613355016462182
904.0,0.02613355016462182
903.0,0.025902996205869
902.0,0.02544225514642018
901.0,0.024798037742147727
900.0,0.024154774532432866
899.0,0.02355831062115543
898.0,0.02300845469384938
897.0,0.02255077261765881
896.0,0.0221849739168134
895.0,0.021910826943857264
894.0,0.02168250325324883
893.0,0.021499930688540836
892.0,0.021317434843055594
891.0,0.0211806132671577
890.0,0.021135015652343103
889.0,0.021089422824428272
888.0,0.021043834782408455
887.0,0.021043834782408455
886.0,0.020952673052035298
885.0,0.020907099361673565
884.0,0.020861530453190058
883.0,0.020861530453190058
882.0,0.020861530453190058
881.0,0.020907099361673565
880.0,0.020907099361673565
879.0,0.020861530453190058
878.0,0.020861530453190058
877.0,0.02081596632558158
876.0,0.020770406977844713
875.0,0.02058821736556471
874.0,0.02036058777709271
873.0,0.020087589665283012
872.0,0.01990568621470623
871.0,0.019860222254245663
870.0,0.019996628416253603
869.0,0.02026956933771462
868.0,0.020497151212598652
867.0,0.020542681902151694
866.0,0.02045162529590483
865.0,0.020315076172974234
864.0,0.020178569969774962
863.0,0.020087589665283012
862.0,0.019996628416253603
861.0,0.019996628416253603
860.0,0.019996628416253603
859.0,0.02004210665933459
858.0,0.01995115493504329
857.0,0.019860222254245663
856.0,0.019769308608968306
855.0,0.019678413991243593
854.0,0.019723858922159776
853.0,0.019860222254245663
852.0,0.02004210665933459
851.0,0.02045162529590483
850.0,0.0209982515252789
849.0,0.021636852916117055
848.0,0.022230681908425698
847.0,0.022642270454698687
846.0,0.022688026603074007
845.0,0.022642270454698687
844.0,0.02259651912656535
843.0,0.022642270454698687
842.0,0.02277955336461468
841.0,0.02291687968414724
840.0,0.022871099419317753
839.0,0.022688026603074007
838.0,0.022367834754000393
837.0,0.02204787879853809
836.0,0.021773818325474092
835.0,0.021545566634771474
834.0,0.021271822861508305
833.0,0.020952673052035298
832.0,0.02067930261797568
831.0,0.02045162529590483
830.0,0.02036058777709271
829.0,0.02045162529590483
828.0,0.020542681902151694
827.0,0.020542681902151694
826.0,0.02036058777709271
825.0,0.020087589665283012
824.0,0.019678413991243593
823.0,0.01940584422377989
822.0,0.019315025636685412
821.0,0.019315025636685412
820.0,0.019360432556262852
819.0,0.019269623464054586
818.0,0.019133445417920836
817.0,0.018951941086827073
816.0,0.018815862601645694
815.0,0.018815862601645694
814.0,0.018861217359339655
813.0,0.018951941086827073
812.0,0.018951941086827073
811.0,0.018906576854070378
810.0,0.018906576854070378
809.0,0.019042683770379876
808.0,0.019178833355664393
807.0,0.0192242260373785
806.0,0.019178833355664393
805.0,0.019042683770379876
804.0,0.018951941086827073
803.0,0.018770512579999288
802.0,0.018679826740892747
801.0,0.018679826740892747
800.0,0.018770512579999288
799.0,0.018861217359339655
798.0,0.018906576854070378
797.0,0.018906576854070378
796.0,0.018861217359339655
795.0,0.018861217359339655
794.0,0.018861217359339655
793.0,0.018906576854070378
792.0,0.018906576854070378
791.0,0.018906576854070378
790.0,0.018906576854070378
789.0,0.019133445417920836
788.0,0.01954210772389997
787.0,0.01995115493504329
786.0,0.02026956933771462
785.0,0.020542681902151694
784.0,0.02081596632558158
783.0,0.0211806132671577
782.0,0.02159120737696063
781.0,0.02200219004126036
780.0,0.022367834754000393
779.0,0.02282532397981263
778.0,0.02342078135989012
777.0,0.024200690320592466
776.0,0.02521206778644225
775.0,0.026318081496016443
774.0,0.027565723042634938
773.0,0.029002634427514717
772.0,0.0307239045110681
771.0,0.032545631817259224
770.0,0.03432802877989327
769.0,0.03592902944204468
768.0,0.03744126420403626
767.0,0.038958783046687984
766.0,0.040672354027829094
765.0,0.04253638427006878
764.0,0.04440844959427559
763.0,0.04628861957244457
762.0,0.048128442871635535
761.0,0.050073556332087765
760.0,0.052027420754219955
759.0,0.05379344615721715
758.0,0.055270639696704205
757.0,0.05665390164340933
756.0,0.05799194697768684
755.0,0.05918479134919874
754.0,0.05998184499233683
753.0,0.06033101647767336
752.0,0.060430831344098435
751.0,0.060530669156469985
750.0,0.06093025007657582
749.0,0.06148027482350815
748.0,0.06203099704854709
747.0,0.062131203436140536
746.0,0.06148027482350815
745.0,0.060231224546650086
744.0,0.05863766428823891
743.0,0.05680236993107379
742.0,0.05477768336465916
741.0,0.05256627811294923
740.0,0.05021979163799939
739.0,0.04778894189133087
738.0,0.045323413081356456
737.0,0.04287180232318688
736.0,0.04062466342415694
735.0,0.038673844065289176
734.0,0.0371100126082089
733.0,0.035646070707806565
732.0,0.03414006319292828
731.0,0.03235843591698884
730.0,0.03063068826647264
729.0,0.029234840219232394
728.0,0.028167720075074953
727.0,0.027334407733889066
726.0,0.026687379547098322
725.0,0.026041313893296225
724.0,0.02539620791296726
723.0,0.024568191490736968
722.0,0.02351246269481
721.0,0.022367834754000393
720.0,0.021499930688540836
719.0,0.0209982515252789
718.0,0.020633757603838898
717.0,0.020178569969774962
716.0,0.019451260640229506
715.0,0.018770512579999288
714.0,0.01840788278591865
713.0,0.018634490921455527
712.0,0.01940584422377989
711.0,0.02081596632558158
710.0,0.023100049017062307
709.0,0.026595025589939425
708.0,0.03133029827960798
707.0,0.037346595106788616
706.0,0.04460091336073302
705.0,0.05330216275425803
704.0,0.06363708040225546
703.0,0.07535895258283709
702.0,0.08804381092731295
701.0,0.10138450258381404
700.0,0.11514801725400226
699.0,0.12883586719705065
698.0,0.14182386201765573
697.0,0.15323004646278116
696.0,0.16178077809237412
695.0,0.16564288728159493
694.0,0.1637391971415132
693.0,0.1565803347950816
692.0,0.14575470293388149
691.0,0.13324021650489182
690.0,0.12084675381575383
689.0,0.10997041383658313
688.0,0.10111034407341357
687.0,0.09398837472858723
686.0,0.08825662214406838
685.0,0.08370400543686918
684.0,0.08013774644446192
683.0,0.07711890879170658
682.0,0.07448164182257
681.0,0.07221915065262552
680.0,0.07037674848475972
679.0,0.06864384953207203
678.0,0.06671522765130522
677.0,0.06469430971007495
676.0,0.06278310913729457
675.0,0.06123017721688262
674.0,0.06003170944866376
673.0,0.05923456436878238
672.0,0.058786812414678646
671.0,0.05843887976392925
670.0,0.05804158346918653
669.0,0.05749589383191922
668.0,0.057049929922901255
667.0,0.05655495097496965
666.0,0.055122694036304765
665.0,0.05305672930217464
664.0,0.05148923116234294
663.0,0.05085404758005607
662.0,0.050902874887084115
661.0,0.051098239029786274
660.0,0.05085404758005607
659.0,0.04987865248862655
658.0,0.04832256265669943
657.0,0.04686877481655505
656.0,0.04595055323640551
655.0,0.045660991397539874
654.0,0.045660991397539874
653.0,0.045902279520810385
652.0,0.04662694927330402
651.0,0.04749815213697639
650.0,0.047982909952573705
649.0,0.047595060422975566
648.0,0.04643358574299339
647.0,0.044937930324967956
646.0,0.043495409683302455
645.0,0.04244059810252043
644.0,0.04215336629184985
643.0,0.042584285277331047
642.0,0.04325545471730896
641.0,0.04363944632667782
640.0,0.0437835307566099
639.0,0.04421607108308856
638.0,0.045323413081356456
637.0,0.04696554274964315
636.0,0.04841965509660828
635.0,0.049148541111453614
634.0,0.04905128560059957
633.0,0.04871106272232795
632.0,0.04866248120408234
631.0,0.04866248120408234
630.0,0.04841965509660828
629.0,0.047982909952573705
628.0,0.047643522676209304
627.0,0.047352830241056854
626.0,0.04720755695590784
625.0,0.047352830241056854
624.0,0.04803141550708934
623.0,0.04919717703534143
622.0,0.05051241005349638
621.0,0.05178270644002936
620.0,0.05271335532220167
619.0,0.05295859474477971
618.0,0.05212534510230182
617.0,0.0506099933550872
616.0,0.04939177521576932
615.0,0.049148541111453614
614.0,0.04958646063061889
613.0,0.05021979163799939
612.0,0.050902874887084115
611.0,0.05153812993871654
610.0,0.05192951848105887
609.0,0.05188057561946402
608.0,0.0515870342213991
607.0,0.05129369109514803
606.0,0.050805225762017736
605.0,0.04978123335813667
604.0,0.04841965509660828
603.0,0.04715914332429838
602.0,0.04624030826677128
601.0,0.04527520902093718
600.0,0.04397571771932274
