cm-1,A
4000.0,0.013362604389846044
3999.0,0.013362604389846044
3998.0,0.013362604389846044
3997.0,0.013362604389846044
3996.0,0.013407393177789162
3995.0,0.013452186585275916
3994.0,0.013452186585275916
3993.0,0.013452186585275916
3992.0,0.013407393177789162
3991.0,0.013317820220494436
3990.0,0.013273040668781544
3989.0,0.01322826573375524
3988.0,0.013273040668781544
3987.0,0.013362604389846044
3986.0,0.013496984613259544
3985.0,0.013541787262693505
3984.0,0.013541787262693505
3983.0,0.013496984613259544
3982.0,0.013362604389846044
3981.0,0.013317820220494436
3980.0,0.013317820220494436
3979.0,0.013273040668781544
3978.0,0.01322826573375524
3977.0,0.013138729709955221
3976.0,0.013093968619278806
3975.0,0.013093968619278806
3974.0,0.01318349541446362
3973.0,0.01322826573375524
3972.0,0.01322826573375524
3971.0,0.013138729709955221
3970.0,0.013004460275618523
3969.0,0.012914970375878188
3968.0,0.012914970375878188
3967.0,0.013049212141483357
3966.0,0.01318349541446362
3965.0,0.013362604389846044
3964.0,0.013541787262693505
3963.0,0.013631406429727155
3962.0,0.013586594534531482
3961.0,0.013541787262693505
3960.0,0.013496984613259544
3959.0,0.013496984613259544
3958.0,0.013452186585275916
3957.0,0.013407393177789162
3956.0,0.013362604389846044
3955.0,0.013317820220494436
3954.0,0.013317820220494436
3953.0,0.013273040668781544
3952.0,0.013317820220494436
3951.0,0.013317820220494436
3950.0,0.013317820220494436
3949.0,0.013317820220494436
3948.0,0.013273040668781544
3947.0,0.01322826573375524
3946.0,0.01322826573375524
3945.0,0.01322826573375524
3944.0,0.01322826573375524
3943.0,0.013138729709955221
3942.0,0.013049212141483357
3941.0,0.013004460275618523
3940.0,0.013093968619278806
3939.0,0.01322826573375524
3938.0,0.01322826573375524
3937.0,0.01318349541446362
3936.0,0.013138729709955221
3935.0,0.01318349541446362
3934.0,0.013273040668781544
3933.0,0.013317820220494436
3932.0,0.013362604389846044
3931.0,0.013317820220494436
3930.0,0.013273040668781544
3929.0,0.01318349541446362
3928.0,0.013138729709955221
3927.0,0.013093968619278806
3926.0,0.013093968619278806
3925.0,0.013049212141483357
3924.0,0.012959713020733288
3923.0,0.013004460275618523
3922.0,0.013049212141483357
3921.0,0.013093968619278806
3920.0,0.013093968619278806
3919.0,0.013093968619278806
3918.0,0.013273040668781544
3917.0,0.013407393177789162
3916.0,0.013452186585275916
3915.0,0.013452186585275916
3914.0,0.013496984613259544
3913.0,0.013496984613259544
3912.0,0.013452186585275916
3911.0,0.013317820220494436
3910.0,0.01318349541446362
3909.0,0.013004460275618523
3908.0,0.012825498912458322
3907.0,0.012736045877764557
3906.0,0.012691326268817527
3905.0,0.01264661126420652
3904.0,0.012512493866907004
3903.0,0.012378417874516323
3902.0,0.012512493866907004
3901.0,0.012959713020733288
3900.0,0.013407393177789162
3899.0,0.013586594534531482
3898.0,0.013541787262693505
3897.0,0.013452186585275916
3896.0,0.013362604389846044
3895.0,0.01318349541446362
3894.0,0.013004460275618523
3893.0,0.013004460275618523
3892.0,0.013004460275618523
3891.0,0.012780770091995297
3890.0,0.012467797270160563
3889.0,0.012512493866907004
3888.0,0.012870232340102872
3887.0,0.01318349541446362
3886.0,0.013138729709955221
3885.0,0.012780770091995297
3884.0,0.012512493866907004
3883.0,0.012557195064198723
3882.0,0.012870232340102872
3881.0,0.013049212141483357
3880.0,0.012959713020733288
3879.0,0.012691326268817527
3878.0,0.01264661126420652
3877.0,0.012825498912458322
3876.0,0.012870232340102872
3875.0,0.01264661126420652
3874.0,0.012289056869694281
3873.0,0.012110390002254778
3872.0,0.012423105273012602
3871.0,0.012914970375878188
3870.0,0.012959713020733288
3869.0,0.012512493866907004
3868.0,0.012199714248127602
3867.0,0.012423105273012602
3866.0,0.01260190086298274
3865.0,0.012512493866907004
3864.0,0.012423105273012602
3863.0,0.012512493866907004
3862.0,0.012736045877764557
3861.0,0.012870232340102872
3860.0,0.012870232340102872
3859.0,0.012691326268817527
3858.0,0.012423105273012602
3857.0,0.012110390002254778
3856.0,0.011931796607364653
3855.0,0.01215504982870197
3854.0,0.012691326268817527
3853.0,0.012512493866907004
3852.0,0.0119764380713403
3851.0,0.01215504982870197
3850.0,0.012870232340102872
3849.0,0.013273040668781544
3848.0,0.013317820220494436
3847.0,0.01322826573375524
3846.0,0.013138729709955221
3845.0,0.012959713020733288
3844.0,0.01264661126420652
3843.0,0.01215504982870197
3842.0,0.011664044143949504
3841.0,0.011396456654336085
3840.0,0.011485634166333858
3839.0,0.011753276624621556
3838.0,0.011887159731648111
3837.0,0.011842527443247208
3836.0,0.011753276624621556
3835.0,0.011931796607364653
3834.0,0.012333735073725371
3833.0,0.012691326268817527
3832.0,0.012914970375878188
3831.0,0.012959713020733288
3830.0,0.012959713020733288
3829.0,0.013004460275618523
3828.0,0.013049212141483357
3827.0,0.012914970375878188
3826.0,0.012512493866907004
3825.0,0.01215504982870197
3824.0,0.012065734767841452
3823.0,0.012199714248127602
3822.0,0.012423105273012602
3821.0,0.012244383261476699
3820.0,0.011664044143949504
3819.0,0.011664044143949504
3818.0,0.012199714248127602
3817.0,0.012691326268817527
3816.0,0.012736045877764557
3815.0,0.012512493866907004
3814.0,0.01264661126420652
3813.0,0.013138729709955221
3812.0,0.013407393177789162
3811.0,0.013273040668781544
3810.0,0.013138729709955221
3809.0,0.013273040668781544
3808.0,0.013496984613259544
3807.0,0.013362604389846044
3806.0,0.012780770091995297
3805.0,0.012467797270160563
3804.0,0.01260190086298274
3803.0,0.012914970375878188
3802.0,0.012959713020733288
3801.0,0.012467797270160563
3800.0,0.012021084124518078
3799.0,0.012244383261476699
3798.0,0.012870232340102872
3797.0,0.013273040668781544
3796.0,0.013317820220494436
3795.0,0.013273040668781544
3794.0,0.013362604389846044
3793.0,0.013586594534531482
3792.0,0.01372104409400876
3791.0,0.013676222949234651
3790.0,0.013586594534531482
3789.0,0.013452186585275916
3788.0,0.013317820220494436
3787.0,0.013273040668781544
3786.0,0.013317820220494436
3785.0,0.013317820220494436
3784.0,0.01318349541446362
3783.0,0.013049212141483357
3782.0,0.013004460275618523
3781.0,0.013093968619278806
3780.0,0.01322826573375524
3779.0,0.013317820220494436
3778.0,0.013407393177789162
3777.0,0.013631406429727155
3776.0,0.01385553528947936
3775.0,0.013945219230304673
3774.0,0.013765869865004277
3773.0,0.013586594534531482
3772.0,0.013407393177789162
3771.0,0.013273040668781544
3770.0,0.013049212141483357
3769.0,0.012870232340102872
3768.0,0.012914970375878188
3767.0,0.01318349541446362
3766.0,0.013362604389846044
3765.0,0.013273040668781544
3764.0,0.013138729709955221
3763.0,0.013093968619278806
3762.0,0.013138729709955221
3761.0,0.013093968619278806
3760.0,0.012959713020733288
3759.0,0.012870232340102872
3758.0,0.012736045877764557
3757.0,0.012512493866907004
3756.0,0.012333735073725371
3755.0,0.012199714248127602
3754.0,0.012110390002254778
3753.0,0.012110390002254778
3752.0,0.012333735073725371
3751.0,0.01264661126420652
3750.0,0.012512493866907004
3749.0,0.012021084124518078
3748.0,0.011887159731648111
3747.0,0.012333735073725371
3746.0,0.013093968619278806
3745.0,0.013631406429727155
3744.0,0.01322826573375524
3743.0,0.012467797270160563
3742.0,0.012423105273012602
3741.0,0.012691326268817527
3740.0,0.012512493866907004
3739.0,0.012110390002254778
3738.0,0.011842527443247208
3737.0,0.011797899741219142
3736.0,0.011797899741219142
3735.0,0.011887159731648111
3734.0,0.012199714248127602
3733.0,0.01260190086298274
3732.0,0.012780770091995297
3731.0,0.012691326268817527
3730.0,0.01264661126420652
3729.0,0.012736045877764557
3728.0,0.012780770091995297
3727.0,0.012691326268817527
3726.0,0.012512493866907004
3725.0,0.012423105273012602
3724.0,0.012512493866907004
3723.0,0.01264661126420652
3722.0,0.012825498912458322
3721.0,0.013049212141483357
3720.0,0.013273040668781544
3719.0,0.013496984613259544
3718.0,0.013541787262693505
3717.0,0.013452186585275916
3716.0,0.01322826573375524
3715.0,0.012959713020733288
3714.0,0.01264661126420652
3713.0,0.012378417874516323
3712.0,0.012333735073725371
3711.0,0.012512493866907004
3710.0,0.012736045877764557
3709.0,0.013049212141483357
3708.0,0.013317820220494436
3707.0,0.013407393177789162
3706.0,0.013362604389846044
3705.0,0.01322826573375524
3704.0,0.01318349541446362
3703.0,0.013273040668781544
3702.0,0.013452186585275916
3701.0,0.013541787262693505
3700.0,0.013586594534531482
3699.0,0.013676222949234651
3698.0,0.013765869865004277
3697.0,0.013676222949234651
3696.0,0.013452186585275916
3695.0,0.01318349541446362
3694.0,0.012959713020733288
3693.0,0.01264661126420652
3692.0,0.012467797270160563
3691.0,0.012557195064198723
3690.0,0.013049212141483357
3689.0,0.013362604389846044
3688.0,0.013317820220494436
3687.0,0.013273040668781544
3686.0,0.013496984613259544
3685.0,0.01381070026317599
3684.0,0.01385553528947936
3683.0,0.013765869865004277
3682.0,0.013676222949234651
3681.0,0.013541787262693505
3680.0,0.01318349541446362
3679.0,0.01264661126420652
3678.0,0.012423105273012602
3677.0,0.012691326268817527
3676.0,0.013049212141483357
3675.0,0.012736045877764557
3674.0,0.012199714248127602
3673.0,0.012333735073725371
3672.0,0.012914970375878188
3671.0,0.013317820220494436
3670.0,0.013541787262693505
3669.0,0.013541787262693505
3668.0,0.013676222949234651
3667.0,0.014169510141607944
3666.0,0.014618439768003144
3665.0,0.014843078722943437
3664.0,0.014888020460646079
3663.0,0.014843078722943437
3662.0,0.014708281407112
3661.0,0.0144837121472845
3660.0,0.014259258949925524
3659.0,0.014169510141607944
3658.0,0.014259258949925524
3657.0,0.014349026309051105
3656.0,0.014169510141607944
3655.0,0.01385553528947936
3654.0,0.01372104409400876
3653.0,0.013676222949234651
3652.0,0.013452186585275916
3651.0,0.01322826573375524
3650.0,0.013362604389846044
3649.0,0.013586594534531482
3648.0,0.01372104409400876
3647.0,0.013945219230304673
3646.0,0.014259258949925524
3645.0,0.014618439768003144
3644.0,0.014888020460646079
3643.0,0.014977917890464765
3642.0,0.014932966849499074
3641.0,0.014798141635428141
3640.0,0.014798141635428141
3639.0,0.014798141635428141
3638.0,0.014798141635428141
3637.0,0.014843078722943437
3636.0,0.014932966849499074
3635.0,0.014888020460646079
3634.0,0.014618439768003144
3633.0,0.014214382227394795
3632.0,0.01403492169512921
3631.0,0.014079779876432497
3630.0,0.014393916947563534
3629.0,0.014663358264387139
3628.0,0.014573525916998342
3627.0,0.014618439768003144
3626.0,0.015067833932588037
3625.0,0.01538268676325183
3624.0,0.015247721884586563
3623.0,0.014888020460646079
3622.0,0.014573525916998342
3621.0,0.0144837121472845
3620.0,0.01452861671041239
3619.0,0.014573525916998342
3618.0,0.014438812226654996
3617.0,0.014393916947563534
3616.0,0.01452861671041239
3615.0,0.014708281407112
3614.0,0.014932966849499074
3613.0,0.015067833932588037
3612.0,0.015202742910707112
3611.0,0.01538268676325183
3610.0,0.015562705203923999
3609.0,0.015697768020096703
3608.0,0.01578783323856614
3607.0,0.015832872853011715
3606.0,0.015832872853011715
3605.0,0.01578783323856614
3604.0,0.015697768020096703
3603.0,0.015562705203923999
3602.0,0.015517693597737248
3601.0,0.015427684378367834
3600.0,0.015247721884586563
3599.0,0.015067833932588037
3598.0,0.014932966849499074
3597.0,0.014888020460646079
3596.0,0.014977917890464765
3595.0,0.015157768594724175
3594.0,0.015247721884586563
3593.0,0.015337693809893471
3592.0,0.01538268676325183
3591.0,0.01538268676325183
3590.0,0.015427684378367834
3589.0,0.01547268665620738
3588.0,0.015607721475734415
3587.0,0.015652742414136167
3586.0,0.015697768020096703
3585.0,0.015832872853011715
3584.0,0.016103208673694303
3583.0,0.01628352608625061
3582.0,0.01632861713980338
3581.0,0.016373712875465518
3580.0,0.01632861713980338
3579.0,0.016238439713835096
3578.0,0.016238439713835096
3577.0,0.016238439713835096
3576.0,0.016238439713835096
3575.0,0.01628352608625061
3574.0,0.01628352608625061
3573.0,0.016238439713835096
3572.0,0.016103208673694303
3571.0,0.015922966097169144
3570.0,0.015697768020096703
3569.0,0.015607721475734415
3568.0,0.015742798294583915
3567.0,0.01596801972881945
3566.0,0.016103208673694303
3565.0,0.01632861713980338
3564.0,0.016689514205884493
3563.0,0.017050711425501408
3562.0,0.01727661233145472
3561.0,0.017321806616515723
3560.0,0.017321806616515723
3559.0,0.017321806616515723
3558.0,0.01727661233145472
3557.0,0.01727661233145472
3556.0,0.01727661233145472
3555.0,0.01727661233145472
3554.0,0.017321806616515723
3553.0,0.017457417697056554
3552.0,0.01759307113620534
3551.0,0.01759307113620534
3550.0,0.017547848615010242
3549.0,0.017547848615010242
3548.0,0.017547848615010242
3547.0,0.017638298366853045
3546.0,0.01781925440359733
3545.0,0.017955020928509757
3544.0,0.01800028587012159
3543.0,0.018045555530026514
3542.0,0.018045555530026514
3541.0,0.01800028587012159
3540.0,0.017909760704207134
3539.0,0.017864505196230507
3538.0,0.01781925440359733
3537.0,0.017774008325325275
3536.0,0.017728766960431575
3535.0,0.01759307113620534
3534.0,0.017547848615010242
3533.0,0.017502630802287644
3532.0,0.017457417697056554
3531.0,0.017412209298337533
3530.0,0.017367005605150476
3529.0,0.01727661233145472
3528.0,0.017231422748988034
3527.0,0.01727661233145472
3526.0,0.017321806616515723
3525.0,0.017457417697056554
3524.0,0.01759307113620534
3523.0,0.01768353030793479
3522.0,0.017728766960431575
3521.0,0.017774008325325275
3520.0,0.01781925440359733
3519.0,0.017864505196230507
3518.0,0.017909760704207134
3517.0,0.017955020928509757
3516.0,0.017955020928509757
3515.0,0.017864505196230507
3514.0,0.017638298366853045
3513.0,0.017367005605150476
3512.0,0.017186237868137555
3511.0,0.017141057687924732
3510.0,0.01727661233145472
3509.0,0.017457417697056554
3508.0,0.017638298366853045
3507.0,0.01768353030793479
3506.0,0.017638298366853045
3505.0,0.017502630802287644
3504.0,0.017321806616515723
3503.0,0.017231422748988034
3502.0,0.017186237868137555
3501.0,0.017231422748988034
3500.0,0.017321806616515723
3499.0,0.017412209298337533
3498.0,0.017412209298337533
3497.0,0.017367005605150476
3496.0,0.017367005605150476
3495.0,0.017367005605150476
3494.0,0.017367005605150476
3493.0,0.017367005605150476
3492.0,0.017321806616515723
3491.0,0.01727661233145472
3490.0,0.017231422748988034
3489.0,0.017186237868137555
3488.0,0.017141057687924732
3487.0,0.017095882207371904
3486.0,0.017050711425501408
3485.0,0.017095882207371904
3484.0,0.017186237868137555
3483.0,0.017367005605150476
3482.0,0.01759307113620534
3481.0,0.017774008325325275
3480.0,0.017864505196230507
3479.0,0.017864505196230507
3478.0,0.017864505196230507
3477.0,0.01781925440359733
3476.0,0.01781925440359733
3475.0,0.01781925440359733
3474.0,0.01781925440359733
3473.0,0.017774008325325275
3472.0,0.017728766960431575
3471.0,0.017728766960431575
3470.0,0.017728766960431575
3469.0,0.017728766960431575
3468.0,0.017728766960431575
3467.0,0.01768353030793479
3466.0,0.01768353030793479
3465.0,0.01768353030793479
3464.0,0.017774008325325275
3463.0,0.017864505196230507
3462.0,0.017955020928509757
3461.0,0.017909760704207134
3460.0,0.01781925440359733
3459.0,0.017774008325325275
3458.0,0.017774008325325275
3457.0,0.017864505196230507
3456.0,0.01800028587012159
3455.0,0.018226681372252695
3454.0,0.01845319495476394
3453.0,0.018679826740892747
3452.0,0.018906576854070378
3451.0,0.019042683770379876
3450.0,0.0192242260373785
3449.0,0.019360432556262852
3448.0,0.01940584422377989
3447.0,0.019360432556262852
3446.0,0.019315025636685412
3445.0,0.019360432556262852
3444.0,0.01949668180660491
3443.0,0.019678413991243593
3442.0,0.01990568621470623
3441.0,0.02004210665933459
3440.0,0.02004210665933459
3439.0,0.019996628416253603
3438.0,0.01990568621470623
3437.0,0.019860222254245663
3436.0,0.019860222254245663
3435.0,0.01995115493504329
3434.0,0.02013307743509718
3433.0,0.02026956933771462
3432.0,0.020406104151069693
3431.0,0.02045162529590483
3430.0,0.02045162529590483
3429.0,0.02045162529590483
3428.0,0.02045162529590483
3427.0,0.02045162529590483
3426.0,0.020497151212598652
3425.0,0.020497151212598652
3424.0,0.02036058777709271
3423.0,0.020087589665283012
3422.0,0.019814763052665052
3421.0,0.019632973815224997
3420.0,0.01949668180660491
3419.0,0.01940584422377989
3418.0,0.019269623464054586
3417.0,0.019178833355664393
3416.0,0.0190880622231564
3415.0,0.019042683770379876
3414.0,0.018906576854070378
3413.0,0.018634490921455527
3412.0,0.018362575344230914
3411.0,0.018136109008649592
3410.0,0.018136109008649592
3409.0,0.018271974638383703
3408.0,0.01845319495476394
3407.0,0.01858915983411169
3406.0,0.018634490921455527
3405.0,0.018543833477873584
3404.0,0.01840788278591865
3403.0,0.018226681372252695
3402.0,0.018045555530026514
3401.0,0.017864505196230507
3400.0,0.017728766960431575
3399.0,0.017638298366853045
3398.0,0.017547848615010242
3397.0,0.017547848615010242
3396.0,0.017547848615010242
3395.0,0.01759307113620534
3394.0,0.017638298366853045
3393.0,0.017638298366853045
3392.0,0.017638298366853045
3391.0,0.017728766960431575
3390.0,0.017774008325325275
3389.0,0.017864505196230507
3388.0,0.017864505196230507
3387.0,0.017864505196230507
3386.0,0.017774008325325275
3385.0,0.01768353030793479
3384.0,0.017547848615010242
3383.0,0.017412209298337533
3382.0,0.017321806616515723
3381.0,0.01727661233145472
3380.0,0.01727661233145472
3379.0,0.01727661233145472
3378.0,0.01727661233145472
3377.0,0.017367005605150476
3376.0,0.017457417697056554
3375.0,0.017502630802287644
3374.0,0.01759307113620534
3373.0,0.017638298366853045
3372.0,0.017638298366853045
3371.0,0.01768353030793479
3370.0,0.017638298366853045
3369.0,0.01759307113620534
3368.0,0.017547848615010242
3367.0,0.017457417697056554
3366.0,0.017412209298337533
3365.0,0.017321806616515723
3364.0,0.01727661233145472
3363.0,0.017321806616515723
3362.0,0.017321806616515723
3361.0,0.017321806616515723
3360.0,0.017231422748988034
3359.0,0.017141057687924732
3358.0,0.017050711425501408
3357.0,0.017095882207371904
3356.0,0.017186237868137555
3355.0,0.01727661233145472
3354.0,0.017367005605150476
3353.0,0.017367005605150476
3352.0,0.017321806616515723
3351.0,0.01727661233145472
3350.0,0.017186237868137555
3349.0,0.017141057687924732
3348.0,0.017231422748988034
3347.0,0.017321806616515723
3346.0,0.017502630802287644
3345.0,0.01759307113620534
3344.0,0.01759307113620534
3343.0,0.017502630802287644
3342.0,0.017367005605150476
3341.0,0.017321806616515723
3340.0,0.017367005605150476
3339.0,0.017457417697056554
3338.0,0.01759307113620534
3337.0,0.017638298366853045
3336.0,0.017638298366853045
3335.0,0.01759307113620534
3334.0,0.017547848615010242
3333.0,0.017457417697056554
3332.0,0.017457417697056554
3331.0,0.017412209298337533
3330.0,0.017367005605150476
3329.0,0.017321806616515723
3328.0,0.01727661233145472
3327.0,0.017321806616515723
3326.0,0.017412209298337533
3325.0,0.01759307113620534
3324.0,0.017638298366853045
3323.0,0.017638298366853045
3322.0,0.017547848615010242
3321.0,0.017457417697056554
3320.0,0.017367005605150476
3319.0,0.017321806616515723
3318.0,0.017321806616515723
3317.0,0.017231422748988034
3316.0,0.017141057687924732
3315.0,0.017050711425501408
3314.0,0.017005545341335804
3313.0,0.017005545341335804
3312.0,0.017005545341335804
3311.0,0.016960383953898095
3310.0,0.016870075265299933
3309.0,0.016824927962187042
3308.0,0.01677978535189717
3307.0,0.016824927962187042
3306.0,0.016870075265299933
3305.0,0.016960383953898095
3304.0,0.017005545341335804
3303.0,0.017095882207371904
3302.0,0.017141057687924732
3301.0,0.017095882207371904
3300.0,0.017050711425501408
3299.0,0.017050711425501408
3298.0,0.017005545341335804
3297.0,0.016960383953898095
3296.0,0.016960383953898095
3295.0,0.016960383953898095
3294.0,0.017005545341335804
3293.0,0.017095882207371904
3292.0,0.017186237868137555
3291.0,0.017231422748988034
3290.0,0.017231422748988034
3289.0,0.017095882207371904
3288.0,0.017005545341335804
3287.0,0.016915227262211507
3286.0,0.016960383953898095
3285.0,0.016960383953898095
3284.0,0.016915227262211507
3283.0,0.016870075265299933
3282.0,0.016870075265299933
3281.0,0.016960383953898095
3280.0,0.017005545341335804
3279.0,0.017095882207371904
3278.0,0.017141057687924732
3277.0,0.017186237868137555
3276.0,0.017186237868137555
3275.0,0.017141057687924732
3274.0,0.017050711425501408
3273.0,0.017005545341335804
3272.0,0.016960383953898095
3271.0,0.016960383953898095
3270.0,0.017005545341335804
3269.0,0.017050711425501408
3268.0,0.017050711425501408
3267.0,0.017005545341335804
3266.0,0.016915227262211507
3265.0,0.01677978535189717
3264.0,0.016689514205884493
3263.0,0.016644385668211692
3262.0,0.016689514205884493
3261.0,0.01677978535189717
3260.0,0.016824927962187042
3259.0,0.016870075265299933
3258.0,0.016915227262211507
3257.0,0.016915227262211507
3256.0,0.016824927962187042
3255.0,0.016734647433454652
3254.0,0.016644385668211692
3253.0,0.016599261819461697
3252.0,0.016554142658660398
3251.0,0.016554142658660398
3250.0,0.016599261819461697
3249.0,0.016644385668211692
3248.0,0.016734647433454652
3247.0,0.01677978535189717
3246.0,0.016734647433454652
3245.0,0.016554142658660398
3244.0,0.01646391839700767
3243.0,0.016509028184833463
3242.0,0.016689514205884493
3241.0,0.016824927962187042
3240.0,0.016824927962187042
3239.0,0.01677978535189717
3238.0,0.016689514205884493
3237.0,0.016689514205884493
3236.0,0.016599261819461697
3235.0,0.016554142658660398
3234.0,0.016554142658660398
3233.0,0.016644385668211692
3232.0,0.016734647433454652
3231.0,0.01677978535189717
3230.0,0.016734647433454652
3229.0,0.016734647433454652
3228.0,0.016734647433454652
3227.0,0.016734647433454652
3226.0,0.016734647433454652
3225.0,0.016734647433454652
3224.0,0.016734647433454652
3223.0,0.01677978535189717
3222.0,0.01677978535189717
3221.0,0.01677978535189717
3220.0,0.01677978535189717
3219.0,0.01677978535189717
3218.0,0.016734647433454652
3217.0,0.016689514205884493
3216.0,0.016599261819461697
3215.0,0.016554142658660398
3214.0,0.016554142658660398
3213.0,0.016599261819461697
3212.0,0.016644385668211692
3211.0,0.016689514205884493
3210.0,0.016734647433454652
3209.0,0.016734647433454652
3208.0,0.01677978535189717
3207.0,0.016734647433454652
3206.0,0.016689514205884493
3205.0,0.016599261819461697
3204.0,0.016554142658660398
3203.0,0.016509028184833463
3202.0,0.016509028184833463
3201.0,0.016418813294209356
3200.0,0.016373712875465518
3199.0,0.016373712875465518
3198.0,0.01646391839700767
3197.0,0.016509028184833463
3196.0,0.016554142658660398
3195.0,0.016509028184833463
3194.0,0.01646391839700767
3193.0,0.01646391839700767
3192.0,0.016418813294209356
3191.0,0.016418813294209356
3190.0,0.016373712875465518
3189.0,0.016373712875465518
3188.0,0.01646391839700767
3187.0,0.016599261819461697
3186.0,0.016644385668211692
3185.0,0.016599261819461697
3184.0,0.016509028184833463
3183.0,0.01646391839700767
3182.0,0.016418813294209356
3181.0,0.016418813294209356
3180.0,0.01646391839700767
3179.0,0.016509028184833463
3178.0,0.01646391839700767
3177.0,0.01632861713980338
3176.0,0.016148281008528276
3175.0,0.016058141016111804
3174.0,0.016013078034810446
3173.0,0.016103208673694303
3172.0,0.016238439713835096
3171.0,0.01632861713980338
3170.0,0.016373712875465518
3169.0,0.01628352608625061
3168.0,0.016193358021584725
3167.0,0.016058141016111804
3166.0,0.01596801972881945
3165.0,0.015922966097169144
3164.0,0.01596801972881945
3163.0,0.016103208673694303
3162.0,0.01628352608625061
3161.0,0.016418813294209356
3160.0,0.016373712875465518
3159.0,0.016238439713835096
3158.0,0.016058141016111804
3157.0,0.015922966097169144
3156.0,0.015877917138889863
3155.0,0.015877917138889863
3154.0,0.01596801972881945
3153.0,0.016058141016111804
3152.0,0.016103208673694303
3151.0,0.016148281008528276
3150.0,0.016103208673694303
3149.0,0.016058141016111804
3148.0,0.016013078034810446
3147.0,0.016058141016111804
3146.0,0.016238439713835096
3145.0,0.01646391839700767
3144.0,0.016644385668211692
3143.0,0.01677978535189717
3142.0,0.016824927962187042
3141.0,0.016824927962187042
3140.0,0.01677978535189717
3139.0,0.01677978535189717
3138.0,0.016734647433454652
3137.0,0.016734647433454652
3136.0,0.01677978535189717
3135.0,0.016824927962187042
3134.0,0.016915227262211507
3133.0,0.016960383953898095
3132.0,0.016960383953898095
3131.0,0.016960383953898095
3130.0,0.017005545341335804
3129.0,0.017095882207371904
3128.0,0.017095882207371904
3127.0,0.017050711425501408
3126.0,0.016960383953898095
3125.0,0.016824927962187042
3124.0,0.016734647433454652
3123.0,0.016689514205884493
3122.0,0.016689514205884493
3121.0,0.016689514205884493
3120.0,0.016689514205884493
3119.0,0.016734647433454652
3118.0,0.016824927962187042
3117.0,0.017005545341335804
3116.0,0.017186237868137555
3115.0,0.017367005605150476
3114.0,0.017412209298337533
3113.0,0.017412209298337533
3112.0,0.017457417697056554
3111.0,0.01759307113620534
3110.0,0.017774008325325275
3109.0,0.01800028587012159
3108.0,0.018136109008649592
3107.0,0.018226681372252695
3106.0,0.018271974638383703
3105.0,0.01831727262871463
3104.0,0.01831727262871463
3103.0,0.018271974638383703
3102.0,0.018181392829336396
3101.0,0.01809082990920774
3100.0,0.018045555530026514
3099.0,0.018045555530026514
3098.0,0.018045555530026514
3097.0,0.018045555530026514
3096.0,0.017955020928509757
3095.0,0.017864505196230507
3094.0,0.01781925440359733
3093.0,0.017864505196230507
3092.0,0.017955020928509757
3091.0,0.018045555530026514
3090.0,0.01809082990920774
3089.0,0.018045555530026514
3088.0,0.01800028587012159
3087.0,0.01809082990920774
3086.0,0.018226681372252695
3085.0,0.018498511851753108
3084.0,0.018725167293411005
3083.0,0.018861217359339655
3082.0,0.018951941086827073
3081.0,0.01899731005860028
3080.0,0.01899731005860028
3079.0,0.019042683770379876
3078.0,0.0190880622231564
3077.0,0.019178833355664393
3076.0,0.0192242260373785
3075.0,0.0192242260373785
3074.0,0.019133445417920836
3073.0,0.019042683770379876
3072.0,0.01899731005860028
3071.0,0.01899731005860028
3070.0,0.0190880622231564
3069.0,0.019178833355664393
3068.0,0.0192242260373785
3067.0,0.0192242260373785
3066.0,0.019178833355664393
3065.0,0.0190880622231564
3064.0,0.01899731005860028
3063.0,0.018951941086827073
3062.0,0.018906576854070378
3061.0,0.018951941086827073
3060.0,0.01899731005860028
3059.0,0.019042683770379876
3058.0,0.019178833355664393
3057.0,0.019315025636685412
3056.0,0.01940584422377989
3055.0,0.019451260640229506
3054.0,0.019315025636685412
3053.0,0.019178833355664393
3052.0,0.01899731005860028
3051.0,0.018861217359339655
3050.0,0.018634490921455527
3049.0,0.01840788278591865
3048.0,0.018136109008649592
3047.0,0.017864505196230507
3046.0,0.017638298366853045
3045.0,0.017457417697056554
3044.0,0.017321806616515723
3043.0,0.017186237868137555
3042.0,0.017005545341335804
3041.0,0.016870075265299933
3040.0,0.016734647433454652
3039.0,0.016689514205884493
3038.0,0.016689514205884493
3037.0,0.016599261819461697
3036.0,0.016554142658660398
3035.0,0.016509028184833463
3034.0,0.016509028184833463
3033.0,0.016554142658660398
3032.0,0.016554142658660398
3031.0,0.016554142658660398
3030.0,0.016554142658660398
3029.0,0.016509028184833463
3028.0,0.016509028184833463
3027.0,0.016554142658660398
3026.0,0.016644385668211692
3025.0,0.016734647433454652
3024.0,0.016824927962187042
3023.0,0.016915227262211507
3022.0,0.017050711425501408
3021.0,0.017141057687924732
3020.0,0.017231422748988034
3019.0,0.01727661233145472
3018.0,0.017367005605150476
3017.0,0.017547848615010242
3016.0,0.017728766960431575
3015.0,0.017909760704207134
3014.0,0.018045555530026514
3013.0,0.018181392829336396
3012.0,0.018226681372252695
3011.0,0.018362575344230914
3010.0,0.01845319495476394
3009.0,0.01858915983411169
3008.0,0.018679826740892747
3007.0,0.018770512579999288
3006.0,0.018906576854070378
3005.0,0.019042683770379876
3004.0,0.019178833355664393
3003.0,0.019269623464054586
3002.0,0.019315025636685412
3001.0,0.01940584422377989
3000.0,0.01954210772389997
2999.0,0.019678413991243593
2998.0,0.019860222254245663
2997.0,0.019996628416253603
2996.0,0.02013307743509718
2995.0,0.02022406727031445
2994.0,0.020315076172974234
2993.0,0.02045162529590483
2992.0,0.020633757603838898
2991.0,0.020861530453190058
2990.0,0.021089422824428272
2989.0,0.021317434843055594
2988.0,0.021545566634771474
2987.0,0.021819483062586187
2986.0,0.022093572362881675
2985.0,0.022413561996148967
2984.0,0.022733787572707387
2983.0,0.02300845469384938
2982.0,0.023283295636617574
2981.0,0.023604163388120325
2980.0,0.023971159908874107
2979.0,0.024430342106337877
2978.0,0.024890010313838973
2977.0,0.02539620791296726
2976.0,0.025856900097785074
2975.0,0.026271941311972746
2974.0,0.02664120011360227
2973.0,0.02691835039863255
2972.0,0.02724191609646076
2971.0,0.027612000892527133
2970.0,0.028028723600243666
2969.0,0.028538594975413334
2968.0,0.029141943003497595
2967.0,0.029839156962686353
2966.0,0.030490901403433135
2965.0,0.03105031901865729
2964.0,0.03137697904301118
2963.0,0.031563752288295444
2962.0,0.03175060589208267
2961.0,0.03189079887180224
2960.0,0.03207779326948268
2959.0,0.032124554451966825
2958.0,0.03207779326948268
2957.0,0.03193753992355086
2956.0,0.03170388495374454
2955.0,0.03147035562516054
2954.0,0.031190286087141805
2953.0,0.03081714076773867
2952.0,0.030397735151460825
2951.0,0.029885677714903025
2950.0,0.029374223311705583
2949.0,0.028816959143838528
2948.0,0.02826040911222183
2947.0,0.0277045713888604
2946.0,0.027056991894431892
2945.0,0.026410376572743033
2944.0,0.025764722556973707
2943.0,0.02512002699306959
2942.0,0.024568191490736968
2941.0,0.02406295751688936
2940.0,0.023604163388120325
2939.0,0.023191662661933732
2938.0,0.02282532397981263
2937.0,0.02255077261765881
2936.0,0.022322112326006227
2935.0,0.022139270735302752
2934.0,0.021910826943857264
2933.0,0.021636852916117055
2932.0,0.02140867317992523
2931.0,0.02122621566987748
2930.0,0.021135015652343103
2929.0,0.021089422824428272
2928.0,0.021089422824428272
2927.0,0.0209982515252789
2926.0,0.020907099361673565
2925.0,0.02081596632558158
2924.0,0.020724852408976924
2923.0,0.020724852408976924
2922.0,0.020724852408976924
2921.0,0.02067930261797568
2920.0,0.02067930261797568
2919.0,0.020633757603838898
2918.0,0.020542681902151694
2917.0,0.020497151212598652
2916.0,0.02045162529590483
2915.0,0.02045162529590483
2914.0,0.02045162529590483
2913.0,0.02045162529590483
2912.0,0.020497151212598652
2911.0,0.02058821736556471
2910.0,0.020633757603838898
2909.0,0.02067930261797568
2908.0,0.02058821736556471
2907.0,0.020542681902151694
2906.0,0.02045162529590483
2905.0,0.02045162529590483
2904.0,0.02045162529590483
2903.0,0.02045162529590483
2902.0,0.02045162529590483
2901.0,0.02045162529590483
2900.0,0.02058821736556471
2899.0,0.02081596632558158
2898.0,0.020952673052035298
2897.0,0.021043834782408455
2896.0,0.021089422824428272
2895.0,0.0211806132671577
2894.0,0.021271822861508305
2893.0,0.021317434843055594
2892.0,0.021363051615525652
2891.0,0.021363051615525652
2890.0,0.02140867317992523
2889.0,0.0214542995372613
2888.0,0.0214542995372613
2887.0,0.021363051615525652
2886.0,0.021271822861508305
2885.0,0.0211806132671577
2884.0,0.021135015652343103
2883.0,0.021043834782408455
2882.0,0.0209982515252789
2881.0,0.02081596632558158
2880.0,0.02067930261797568
2879.0,0.020542681902151694
2878.0,0.020497151212598652
2877.0,0.02045162529590483
2876.0,0.020406104151069693
2875.0,0.02036058777709271
2874.0,0.020315076172974234
2873.0,0.02022406727031445
2872.0,0.02013307743509718
2871.0,0.02004210665933459
2870.0,0.01995115493504329
2869.0,0.01990568621470623
2868.0,0.019860222254245663
2867.0,0.019769308608968306
2866.0,0.019723858922159776
2865.0,0.019678413991243593
2864.0,0.019632973815224997
2863.0,0.01958753839310856
2862.0,0.01954210772389997
2861.0,0.01954210772389997
2860.0,0.01958753839310856
2859.0,0.01958753839310856
2858.0,0.01958753839310856
2857.0,0.01949668180660491
2856.0,0.01940584422377989
2855.0,0.019315025636685412
2854.0,0.019315025636685412
2853.0,0.019315025636685412
2852.0,0.019315025636685412
2851.0,0.019315025636685412
2850.0,0.0192242260373785
2849.0,0.0190880622231564
2848.0,0.018906576854070378
2847.0,0.018634490921455527
2846.0,0.018362575344230914
2845.0,0.018181392829336396
2844.0,0.01800028587012159
2843.0,0.01781925440359733
2842.0,0.017638298366853045
2841.0,0.017457417697056554
2840.0,0.017367005605150476
2839.0,0.017321806616515723
2838.0,0.01727661233145472
2837.0,0.01727661233145472
2836.0,0.017231422748988034
2835.0,0.017095882207371904
2834.0,0.016960383953898095
2833.0,0.016824927962187042
2832.0,0.016734647433454652
2831.0,0.016734647433454652
2830.0,0.016689514205884493
2829.0,0.016554142658660398
2828.0,0.01646391839700767
2827.0,0.01632861713980338
2826.0,0.01628352608625061
2825.0,0.01628352608625061
2824.0,0.01632861713980338
2823.0,0.016373712875465518
2822.0,0.01632861713980338
2821.0,0.01628352608625061
2820.0,0.016193358021584725
2819.0,0.016148281008528276
2818.0,0.016148281008528276
2817.0,0.016103208673694303
2816.0,0.016103208673694303
2815.0,0.016103208673694303
2814.0,0.016103208673694303
2813.0,0.016103208673694303
2812.0,0.016148281008528276
2811.0,0.016238439713835096
2810.0,0.01628352608625061
2809.0,0.016238439713835096
2808.0,0.016148281008528276
2807.0,0.016103208673694303
2806.0,0.016103208673694303
2805.0,0.016148281008528276
2804.0,0.016148281008528276
2803.0,0.016103208673694303
2802.0,0.016058141016111804
2801.0,0.016013078034810446
2800.0,0.01596801972881945
2799.0,0.01596801972881945
2798.0,0.015922966097169144
2797.0,0.015877917138889863
2796.0,0.01578783323856614
2795.0,0.015742798294583915
2794.0,0.015652742414136167
2793.0,0.015607721475734415
2792.0,0.015562705203923999
2791.0,0.015562705203923999
2790.0,0.015652742414136167
2789.0,0.015742798294583915
2788.0,0.01578783323856614
2787.0,0.015697768020096703
2786.0,0.015607721475734415
2785.0,0.01547268665620738
2784.0,0.015427684378367834
2783.0,0.015427684378367834
2782.0,0.01547268665620738
2781.0,0.01547268665620738
2780.0,0.01547268665620738
2779.0,0.01547268665620738
2778.0,0.015427684378367834
2777.0,0.01538268676325183
2776.0,0.015292705517326866
2775.0,0.015292705517326866
2774.0,0.015247721884586563
2773.0,0.015202742910707112
2772.0,0.015202742910707112
2771.0,0.015157768594724175
2770.0,0.015157768594724175
2769.0,0.015157768594724175
2768.0,0.015157768594724175
2767.0,0.015157768594724175
2766.0,0.015157768594724175
2765.0,0.015112798935672522
2764.0,0.015112798935672522
2763.0,0.015112798935672522
2762.0,0.015112798935672522
2761.0,0.015112798935672522
2760.0,0.015157768594724175
2759.0,0.015202742910707112
2758.0,0.015202742910707112
2757.0,0.015112798935672522
2756.0,0.015112798935672522
2755.0,0.015112798935672522
2754.0,0.015157768594724175
2753.0,0.015157768594724175
2752.0,0.015067833932588037
2751.0,0.015022873584506602
2750.0,0.014977917890464765
2749.0,0.015022873584506602
2748.0,0.015067833932588037
2747.0,0.015067833932588037
2746.0,0.015067833932588037
2745.0,0.015022873584506602
2744.0,0.015022873584506602
2743.0,0.014977917890464765
2742.0,0.014932966849499074
2741.0,0.014843078722943437
2740.0,0.014753209197138295
2739.0,0.014753209197138295
2738.0,0.014753209197138295
2737.0,0.014753209197138295
2736.0,0.014798141635428141
2735.0,0.014753209197138295
2734.0,0.014753209197138295
2733.0,0.014708281407112
2732.0,0.014618439768003144
2731.0,0.01452861671041239
2730.0,0.014393916947563534
2729.0,0.014349026309051105
2728.0,0.014304140310157809
2727.0,0.014349026309051105
2726.0,0.014393916947563534
2725.0,0.014393916947563534
2724.0,0.014393916947563534
2723.0,0.014349026309051105
2722.0,0.014349026309051105
2721.0,0.014393916947563534
2720.0,0.014438812226654996
2719.0,0.014438812226654996
2718.0,0.014393916947563534
2717.0,0.014349026309051105
2716.0,0.014349026309051105
2715.0,0.014349026309051105
2714.0,0.014304140310157809
2713.0,0.014259258949925524
2712.0,0.014169510141607944
2711.0,0.01403492169512921
2710.0,0.013990068146738865
2709.0,0.013990068146738865
2708.0,0.013990068146738865
2707.0,0.013990068146738865
2706.0,0.013990068146738865
2705.0,0.013990068146738865
2704.0,0.01403492169512921
2703.0,0.014079779876432497
2702.0,0.014124642691606404
2701.0,0.014169510141607944
2700.0,0.014214382227394795
2699.0,0.014214382227394795
2698.0,0.014124642691606404
2697.0,0.01403492169512921
2696.0,0.013990068146738865
2695.0,0.013990068146738865
2694.0,0.013990068146738865
2693.0,0.013945219230304673
2692.0,0.013945219230304673
2691.0,0.013945219230304673
2690.0,0.013990068146738865
2689.0,0.014079779876432497
2688.0,0.014079779876432497
2687.0,0.013990068146738865
2686.0,0.01381070026317599
2685.0,0.01372104409400876
2684.0,0.013676222949234651
2683.0,0.013765869865004277
2682.0,0.01385553528947936
2681.0,0.013900374944870508
2680.0,0.013945219230304673
2679.0,0.013945219230304673
2678.0,0.01381070026317599
2677.0,0.013676222949234651
2676.0,0.013496984613259544
2675.0,0.013452186585275916
2674.0,0.013452186585275916
2673.0,0.013586594534531482
2672.0,0.013676222949234651
2671.0,0.013676222949234651
2670.0,0.013586594534531482
2669.0,0.013496984613259544
2668.0,0.013496984613259544
2667.0,0.013541787262693505
2666.0,0.013586594534531482
2665.0,0.013541787262693505
2664.0,0.013496984613259544
2663.0,0.013407393177789162
2662.0,0.013407393177789162
2661.0,0.013407393177789162
2660.0,0.013452186585275916
2659.0,0.013541787262693505
2658.0,0.013541787262693505
2657.0,0.013452186585275916
2656.0,0.013362604389846044
2655.0,0.013362604389846044
2654.0,0.013407393177789162
2653.0,0.013452186585275916
2652.0,0.013496984613259544
2651.0,0.013496984613259544
2650.0,0.013452186585275916
2649.0,0.013362604389846044
2648.0,0.01322826573375524
2647.0,0.01318349541446362
2646.0,0.013138729709955221
2645.0,0.013138729709955221
2644.0,0.01318349541446362
2643.0,0.013273040668781544
2642.0,0.013362604389846044
2641.0,0.013407393177789162
2640.0,0.013407393177789162
2639.0,0.013407393177789162
2638.0,0.013407393177789162
2637.0,0.013407393177789162
2636.0,0.013407393177789162
2635.0,0.013407393177789162
2634.0,0.013407393177789162
2633.0,0.013407393177789162
2632.0,0.013407393177789162
2631.0,0.013407393177789162
2630.0,0.013362604389846044
2629.0,0.013273040668781544
2628.0,0.01322826573375524
2627.0,0.01322826573375524
2626.0,0.01322826573375524
2625.0,0.013273040668781544
2624.0,0.013317820220494436
2623.0,0.013317820220494436
2622.0,0.013362604389846044
2621.0,0.013362604389846044
2620.0,0.013362604389846044
2619.0,0.013362604389846044
2618.0,0.013317820220494436
2617.0,0.013273040668781544
2616.0,0.013273040668781544
2615.0,0.013273040668781544
2614.0,0.013317820220494436
2613.0,0.013273040668781544
2612.0,0.013273040668781544
2611.0,0.013317820220494436
2610.0,0.013362604389846044
2609.0,0.013452186585275916
2608.0,0.013452186585275916
2607.0,0.013452186585275916
2606.0,0.013407393177789162
2605.0,0.013362604389846044
2604.0,0.013317820220494436
2603.0,0.013273040668781544
2602.0,0.01322826573375524
2601.0,0.01322826573375524
2600.0,0.01322826573375524
2599.0,0.01322826573375524
2598.0,0.013273040668781544
2597.0,0.013317820220494436
2596.0,0.013362604389846044
2595.0,0.013362604389846044
2594.0,0.013317820220494436
2593.0,0.013273040668781544
2592.0,0.01322826573375524
2591.0,0.01318349541446362
2590.0,0.013138729709955221
2589.0,0.013049212141483357
2588.0,0.013004460275618523
2587.0,0.013049212141483357
2586.0,0.013093968619278806
2585.0,0.01318349541446362
2584.0,0.01322826573375524
2583.0,0.013273040668781544
2582.0,0.013273040668781544
2581.0,0.01322826573375524
2580.0,0.01318349541446362
2579.0,0.013138729709955221
2578.0,0.013138729709955221
2577.0,0.013138729709955221
2576.0,0.01322826573375524
2575.0,0.013317820220494436
2574.0,0.013362604389846044
2573.0,0.013362604389846044
2572.0,0.013273040668781544
2571.0,0.01318349541446362
2570.0,0.013138729709955221
2569.0,0.01318349541446362
2568.0,0.01322826573375524
2567.0,0.013273040668781544
2566.0,0.01322826573375524
2565.0,0.01318349541446362
2564.0,0.013138729709955221
2563.0,0.01318349541446362
2562.0,0.01322826573375524
2561.0,0.013273040668781544
2560.0,0.013362604389846044
2559.0,0.013452186585275916
2558.0,0.013452186585275916
2557.0,0.013407393177789162
2556.0,0.013317820220494436
2555.0,0.01322826573375524
2554.0,0.01318349541446362
2553.0,0.013138729709955221
2552.0,0.013093968619278806
2551.0,0.013138729709955221
2550.0,0.013138729709955221
2549.0,0.01318349541446362
2548.0,0.01318349541446362
2547.0,0.01322826573375524
2546.0,0.013273040668781544
2545.0,0.013317820220494436
2544.0,0.013273040668781544
2543.0,0.01322826573375524
2542.0,0.01318349541446362
2541.0,0.01318349541446362
2540.0,0.01322826573375524
2539.0,0.01322826573375524
2538.0,0.013138729709955221
2537.0,0.013049212141483357
2536.0,0.013004460275618523
2535.0,0.013004460275618523
2534.0,0.013004460275618523
2533.0,0.013004460275618523
2532.0,0.013004460275618523
2531.0,0.013004460275618523
2530.0,0.013049212141483357
2529.0,0.013049212141483357
2528.0,0.013049212141483357
2527.0,0.013093968619278806
2526.0,0.013093968619278806
2525.0,0.013093968619278806
2524.0,0.013004460275618523
2523.0,0.012914970375878188
2522.0,0.012870232340102872
2521.0,0.012914970375878188
2520.0,0.012959713020733288
2519.0,0.013004460275618523
2518.0,0.012959713020733288
2517.0,0.012914970375878188
2516.0,0.012870232340102872
2515.0,0.012825498912458322
2514.0,0.012780770091995297
2513.0,0.012736045877764557
2512.0,0.012691326268817527
2511.0,0.012691326268817527
2510.0,0.012691326268817527
2509.0,0.012736045877764557
2508.0,0.012825498912458322
2507.0,0.012870232340102872
2506.0,0.012825498912458322
2505.0,0.012691326268817527
2504.0,0.01260190086298274
2503.0,0.012557195064198723
2502.0,0.01260190086298274
2501.0,0.01264661126420652
2500.0,0.01264661126420652
2499.0,0.01264661126420652
2498.0,0.01260190086298274
2497.0,0.01260190086298274
2496.0,0.01260190086298274
2495.0,0.01260190086298274
2494.0,0.012557195064198723
2493.0,0.012467797270160563
2492.0,0.012423105273012602
2491.0,0.012333735073725371
2490.0,0.012289056869694281
2489.0,0.012199714248127602
2488.0,0.01215504982870197
2487.0,0.012110390002254778
2486.0,0.012110390002254778
2485.0,0.012065734767841452
2484.0,0.012021084124518078
2483.0,0.012021084124518078
2482.0,0.0119764380713403
2481.0,0.0119764380713403
2480.0,0.012021084124518078
2479.0,0.0119764380713403
2478.0,0.011931796607364653
2477.0,0.011887159731648111
2476.0,0.011842527443247208
2475.0,0.011753276624621556
2474.0,0.011708658092512314
2473.0,0.011708658092512314
2472.0,0.011753276624621556
2471.0,0.011797899741219142
2470.0,0.011842527443247208
2469.0,0.011797899741219142
2468.0,0.011753276624621556
2467.0,0.011664044143949504
2466.0,0.011574829993696856
2465.0,0.011530229790124524
2464.0,0.011485634166333858
2463.0,0.011485634166333858
2462.0,0.011441043121384498
2461.0,0.011396456654336085
2460.0,0.011396456654336085
2459.0,0.011351874764248926
2458.0,0.011351874764248926
2457.0,0.011351874764248926
2456.0,0.011351874764248926
2455.0,0.011351874764248926
2454.0,0.011351874764248926
2453.0,0.011307297450183107
2452.0,0.011262724711199823
2451.0,0.011218156546359825
2450.0,0.011262724711199823
2449.0,0.011262724711199823
2448.0,0.011262724711199823
2447.0,0.011262724711199823
2446.0,0.011218156546359825
2445.0,0.011218156546359825
2444.0,0.01117359295472431
2443.0,0.01117359295472431
2442.0,0.01117359295472431
2441.0,0.01117359295472431
2440.0,0.011129033935354915
2439.0,0.011084479487313281
2438.0,0.011039929609661936
2437.0,0.010995384301463185
2436.0,0.011039929609661936
2435.0,0.011129033935354915
2434.0,0.011218156546359825
2433.0,0.011307297450183107
2432.0,0.011307297450183107
2431.0,0.011307297450183107
2430.0,0.011262724711199823
2429.0,0.011262724711199823
2428.0,0.011262724711199823
2427.0,0.011307297450183107
2426.0,0.011351874764248926
2425.0,0.011396456654336085
2424.0,0.011441043121384498
2423.0,0.011485634166333858
2422.0,0.011574829993696856
2421.0,0.011664044143949504
2420.0,0.011708658092512314
2419.0,0.011708658092512314
2418.0,0.011664044143949504
2417.0,0.011619434777991433
2416.0,0.011619434777991433
2415.0,0.011664044143949504
2414.0,0.011708658092512314
2413.0,0.011708658092512314
2412.0,0.011708658092512314
2411.0,0.011708658092512314
2410.0,0.011753276624621556
2409.0,0.011797899741219142
2408.0,0.011797899741219142
2407.0,0.011842527443247208
2406.0,0.011887159731648111
2405.0,0.011931796607364653
2404.0,0.0119764380713403
2403.0,0.0119764380713403
2402.0,0.011887159731648111
2401.0,0.011753276624621556
2400.0,0.011664044143949504
2399.0,0.011708658092512314
2398.0,0.011797899741219142
2397.0,0.011887159731648111
2396.0,0.011931796607364653
2395.0,0.011887159731648111
2394.0,0.011842527443247208
2393.0,0.011797899741219142
2392.0,0.011797899741219142
2391.0,0.011797899741219142
2390.0,0.011797899741219142
2389.0,0.011797899741219142
2388.0,0.011797899741219142
2387.0,0.011708658092512314
2386.0,0.011574829993696856
2385.0,0.011396456654336085
2384.0,0.01117359295472431
2383.0,0.011039929609661936
2382.0,0.010950843561779777
2381.0,0.01086177578421088
2380.0,0.01077272626946324
2379.0,0.01077272626946324
2378.0,0.010728208358306901
2377.0,0.010594681998483901
2376.0,0.010283280051895272
2375.0,0.009838807101520963
2374.0,0.009350411681145587
2373.0,0.008862564879688284
2372.0,0.008640997362049818
2371.0,0.0087296108049002
2370.0,0.008995559669244813
2369.0,0.009350411681145587
2368.0,0.009705553871561357
2367.0,0.010194349063173958
2366.0,0.011039929609661936
2365.0,0.012021084124518078
2364.0,0.012512493866907004
2363.0,0.012021084124518078
2362.0,0.010639186223752484
2361.0,0.009261671492462709
2360.0,0.008818242332126802
2359.0,0.009217308196862062
2358.0,0.009572341514736404
2357.0,0.009527946474380489
2356.0,0.009350411681145587
2355.0,0.009261671492462709
2354.0,0.00939478857608056
2353.0,0.009483555971770974
2352.0,0.009483555971770974
2351.0,0.009261671492462709
2350.0,0.00908424549391551
2349.0,0.009128595198514056
2348.0,0.009128595198514056
2347.0,0.00908424549391551
2346.0,0.008995559669244813
2345.0,0.009039900317800775
2344.0,0.00908424549391551
2343.0,0.008995559669244813
2342.0,0.0087296108049002
2341.0,0.008242460465651913
2340.0,0.007932739972333236
2339.0,0.007976972236149349
2338.0,0.008109696063975047
2337.0,0.008065450281052211
2336.0,0.00762324020119709
2335.0,0.007137328610972382
2334.0,0.00696076819309055
2333.0,0.007181479933320523
2332.0,0.007800070204414977
2331.0,0.008419542825660153
2330.0,0.008862564879688284
2329.0,0.009172949432521227
2328.0,0.009350411681145587
2327.0,0.009572341514736404
2326.0,0.009616741093766423
2325.0,0.009616741093766423
2324.0,0.009439170005980158
2323.0,0.009261671492462709
2322.0,0.009172949432521227
2321.0,0.009172949432521227
2320.0,0.009172949432521227
2319.0,0.009128595198514056
2318.0,0.009039900317800775
2317.0,0.008951223547323472
2316.0,0.008951223547323472
2315.0,0.008995559669244813
2314.0,0.009039900317800775
2313.0,0.009039900317800775
2312.0,0.008995559669244813
2311.0,0.009039900317800775
2310.0,0.00908424549391551
2309.0,0.009172949432521227
2308.0,0.009217308196862062
2307.0,0.009261671492462709
2306.0,0.009261671492462709
2305.0,0.009261671492462709
2304.0,0.009350411681145587
2303.0,0.009483555971770974
2302.0,0.009616741093766423
2301.0,0.009705553871561357
2300.0,0.00974996707218323
2299.0,0.009705553871561357
2298.0,0.009616741093766423
2297.0,0.009572341514736404
2296.0,0.009572341514736404
2295.0,0.009616741093766423
2294.0,0.009705553871561357
2293.0,0.009838807101520963
2292.0,0.009972101229705377
2291.0,0.010105436281226954
2290.0,0.010149890396819572
2289.0,0.010105436281226954
2288.0,0.010060986715464404
2287.0,0.01001654169860089
2286.0,0.010060986715464404
2285.0,0.010105436281226954
2284.0,0.010149890396819572
2283.0,0.010149890396819572
2282.0,0.010149890396819572
2281.0,0.010105436281226954
2280.0,0.010060986715464404
2279.0,0.009972101229705377
2278.0,0.009927665307847056
2277.0,0.009883233932095559
2276.0,0.009838807101520963
2275.0,0.00974996707218323
2274.0,0.00966114521239847
2273.0,0.009616741093766423
2272.0,0.009572341514736404
2271.0,0.009527946474380489
2270.0,0.009527946474380489
2269.0,0.009527946474380489
2268.0,0.009527946474380489
2267.0,0.009527946474380489
2266.0,0.009483555971770974
2265.0,0.009483555971770974
2264.0,0.009483555971770974
2263.0,0.009483555971770974
2262.0,0.009483555971770974
2261.0,0.009483555971770974
2260.0,0.009439170005980158
2259.0,0.00939478857608056
2258.0,0.009350411681145587
2257.0,0.009217308196862062
2256.0,0.009128595198514056
2255.0,0.00908424549391551
2254.0,0.00908424549391551
2253.0,0.009172949432521227
2252.0,0.009306039320248427
2251.0,0.009350411681145587
2250.0,0.009350411681145587
2249.0,0.009306039320248427
2248.0,0.009261671492462709
2247.0,0.009217308196862062
2246.0,0.009217308196862062
2245.0,0.009261671492462709
2244.0,0.009306039320248427
2243.0,0.009306039320248427
2242.0,0.009217308196862062
2241.0,0.00908424549391551
2240.0,0.009039900317800775
2239.0,0.009039900317800775
2238.0,0.00908424549391551
2237.0,0.009128595198514056
2236.0,0.00908424549391551
2235.0,0.009039900317800775
2234.0,0.008995559669244813
2233.0,0.008951223547323472
2232.0,0.008951223547323472
2231.0,0.008995559669244813
2230.0,0.009039900317800775
2229.0,0.009039900317800775
2228.0,0.008995559669244813
2227.0,0.008951223547323472
2226.0,0.008906891951112605
2225.0,0.008906891951112605
2224.0,0.008862564879688284
2223.0,0.008862564879688284
2222.0,0.008818242332126802
2221.0,0.008773924307505121
2220.0,0.008685301823389224
2219.0,0.008640997362049818
2218.0,0.008596697419959609
2217.0,0.008552401996197112
2216.0,0.00850811108984062
2215.0,0.00850811108984062
2214.0,0.00850811108984062
2213.0,0.00850811108984062
2212.0,0.008552401996197112
2211.0,0.008640997362049818
2210.0,0.008640997362049818
2209.0,0.008640997362049818
2208.0,0.008596697419959609
2207.0,0.008552401996197112
2206.0,0.008463824699968647
2205.0,0.008375265465994541
2204.0,0.008242460465651913
2203.0,0.008198201155356077
2202.0,0.008198201155356077
2201.0,0.008198201155356077
2200.0,0.008153946355103248
2199.0,0.008065450281052211
2198.0,0.007976972236149349
2197.0,0.007932739972333236
2196.0,0.007932739972333236
2195.0,0.007888512213050314
2194.0,0.007888512213050314
2193.0,0.007844288957383316
2192.0,0.007844288957383316
2191.0,0.007888512213050314
2190.0,0.007888512213050314
2189.0,0.007888512213050314
2188.0,0.007888512213050314
2187.0,0.007844288957383316
2186.0,0.007844288957383316
2185.0,0.007888512213050314
2184.0,0.007932739972333236
2183.0,0.007976972236149349
2182.0,0.007976972236149349
2181.0,0.007976972236149349
2180.0,0.007888512213050314
2179.0,0.007844288957383316
2178.0,0.007844288957383316
2177.0,0.007844288957383316
2176.0,0.007844288957383316
2175.0,0.007888512213050314
2174.0,0.007888512213050314
2173.0,0.007888512213050314
2172.0,0.007932739972333236
2171.0,0.007976972236149349
2170.0,0.008065450281052211
2169.0,0.008109696063975047
2168.0,0.008109696063975047
2167.0,0.008065450281052211
2166.0,0.007976972236149349
2165.0,0.007888512213050314
2164.0,0.007888512213050314
2163.0,0.007888512213050314
2162.0,0.007888512213050314
2161.0,0.007932739972333236
2160.0,0.007932739972333236
2159.0,0.007976972236149349
2158.0,0.008065450281052211
2157.0,0.008065450281052211
2156.0,0.008065450281052211
2155.0,0.008065450281052211
2154.0,0.008065450281052211
2153.0,0.008065450281052211
2152.0,0.008021209005416363
2151.0,0.007976972236149349
2150.0,0.007932739972333236
2149.0,0.007888512213050314
2148.0,0.007844288957383316
2147.0,0.007888512213050314
2146.0,0.007932739972333236
2145.0,0.007976972236149349
2144.0,0.007976972236149349
2143.0,0.008021209005416363
2142.0,0.008065450281052211
2141.0,0.008109696063975047
2140.0,0.008065450281052211
2139.0,0.008021209005416363
2138.0,0.007932739972333236
2137.0,0.007932739972333236
2136.0,0.007976972236149349
2135.0,0.008065450281052211
2134.0,0.008109696063975047
2133.0,0.008065450281052211
2132.0,0.008021209005416363
2131.0,0.007976972236149349
2130.0,0.007888512213050314
2129.0,0.007888512213050314
2128.0,0.007932739972333236
2127.0,0.007976972236149349
2126.0,0.007976972236149349
2125.0,0.007932739972333236
2124.0,0.007888512213050314
2123.0,0.007844288957383316
2122.0,0.007844288957383316
2121.0,0.007844288957383316
2120.0,0.007844288957383316
2119.0,0.007800070204414977
2118.0,0.007800070204414977
2117.0,0.007800070204414977
2116.0,0.007800070204414977
2115.0,0.007755855953228474
2114.0,0.007755855953228474
2113.0,0.007755855953228474
2112.0,0.007800070204414977
2111.0,0.007800070204414977
2110.0,0.007755855953228474
2109.0,0.007711646202907652
2108.0,0.007667440952535687
2107.0,0.007667440952535687
2106.0,0.00762324020119709
2105.0,0.0075790439479759275
2104.0,0.0075790439479759275
2103.0,0.0075790439479759275
2102.0,0.00762324020119709
2101.0,0.00762324020119709
2100.0,0.00762324020119709
2099.0,0.0075790439479759275
2098.0,0.007490664932224611
2097.0,0.007402303897961815
2096.0,0.007313960837872058
2095.0,0.007313960837872058
2094.0,0.007313960837872058
2093.0,0.007313960837872058
2092.0,0.007313960837872058
2091.0,0.007269796045857202
2090.0,0.007225635744644521
2089.0,0.007137328610972382
2088.0,0.007049039429553483
2087.0,0.007004901568658406
2086.0,0.00696076819309055
2085.0,0.00696076819309055
2084.0,0.006916639301937977
2083.0,0.006872514894289861
2082.0,0.006784279525863024
2081.0,0.006740168563263094
2080.0,0.006696062080525422
2079.0,0.006696062080525422
2078.0,0.006651960076740071
2077.0,0.006651960076740071
2076.0,0.006607862550997545
2075.0,0.00656376950238835
2074.0,0.006519680930003435
2073.0,0.006431517210272464
2072.0,0.006387442061109638
2071.0,0.006299305179649828
2070.0,0.00625524344553785
2069.0,0.00621118618129457
2068.0,0.006167133386013823
2067.0,0.00612308505878878
2066.0,0.00612308505878878
2065.0,0.006167133386013823
2064.0,0.00612308505878878
2063.0,0.006035001804881146
2062.0,0.005946936412324799
2061.0,0.005858888873877532
2060.0,0.00577085918230158
2059.0,0.005682847330363394
2058.0,0.005638848091999105
2057.0,0.005550862985963967
2056.0,0.005462895701502157
2055.0,0.005462895701502157
2054.0,0.005462895701502157
2053.0,0.005462895701502157
2052.0,0.00541891874010525
2051.0,0.00537494623139545
2050.0,0.005330978174470591
2049.0,0.005330978174470591
2048.0,0.005330978174470591
2047.0,0.005330978174470591
2046.0,0.005330978174470591
2045.0,0.005243055412371911
2044.0,0.005199100705396198
2043.0,0.005199100705396198
2042.0,0.005199100705396198
2041.0,0.005199100705396198
2040.0,0.005199100705396198
2039.0,0.005111204635089406
2038.0,0.004979393875242044
2037.0,0.00484762310854614
2036.0,0.004803708402820517
2035.0,0.004803708402820517
2034.0,0.00489154225525934
2033.0,0.004935465843858511
2032.0,0.004935465843858511
2031.0,0.004935465843858511
2030.0,0.00484762310854614
2029.0,0.004759798137184523
2028.0,0.004628093971837721
2027.0,0.004540313378935901
2026.0,0.0044964297349936455
2025.0,0.0044964297349936455
2024.0,0.0044964297349936455
2023.0,0.0044964297349936455
2022.0,0.004540313378935901
2021.0,0.00458420145758498
2020.0,0.004628093971837721
2019.0,0.004628093971837721
2018.0,0.004671990922590297
2017.0,0.004759798137184523
2016.0,0.004803708402820517
2015.0,0.00484762310854614
2014.0,0.004803708402820517
2013.0,0.004671990922590297
2012.0,0.004628093971837721
2011.0,0.00458420145758498
2010.0,0.004628093971837721
2009.0,0.004671990922590297
2008.0,0.004671990922590297
2007.0,0.004715892310740433
2006.0,0.004671990922590297
2005.0,0.004671990922590297
2004.0,0.004628093971837721
2003.0,0.004671990922590297
2002.0,0.004671990922590297
2001.0,0.004759798137184523
2000.0,0.00484762310854614
1999.0,0.004935465843858511
1998.0,0.005023326350308999
1997.0,0.005023326350308999
1996.0,0.005023326350308999
1995.0,0.005067263269958211
1994.0,0.005155150446602086
1993.0,0.005243055412371911
1992.0,0.005330978174470591
1991.0,0.00537494623139545
1990.0,0.00541891874010525
1989.0,0.005506877116487674
1988.0,0.005550862985963967
1987.0,0.005550862985963967
1986.0,0.005550862985963967
1985.0,0.005550862985963967
1984.0,0.005550862985963967
1983.0,0.005550862985963967
1982.0,0.005550862985963967
1981.0,0.005550862985963967
1980.0,0.005550862985963967
1979.0,0.005550862985963967
1978.0,0.005550862985963967
1977.0,0.005506877116487674
1976.0,0.005506877116487674
1975.0,0.005550862985963967
1974.0,0.005638848091999105
1973.0,0.005682847330363394
1972.0,0.005682847330363394
1971.0,0.005726851026829571
1970.0,0.005814871797682919
1969.0,0.005858888873877532
1968.0,0.005946936412324799
1967.0,0.006035001804881146
1966.0,0.006167133386013823
1965.0,0.00625524344553785
1964.0,0.006343371384537999
1963.0,0.006387442061109638
1962.0,0.006475596832934416
1961.0,0.00656376950238835
1960.0,0.006696062080525422
1959.0,0.006828394969235152
1958.0,0.006872514894289861
1957.0,0.006916639301937977
1956.0,0.007004901568658406
1955.0,0.007093181776687496
1954.0,0.007181479933320523
1953.0,0.007225635744644521
1952.0,0.007137328610972382
1951.0,0.007093181776687496
1950.0,0.007004901568658406
1949.0,0.00696076819309055
1948.0,0.00696076819309055
1947.0,0.00696076819309055
1946.0,0.006916639301937977
1945.0,0.006916639301937977
1944.0,0.007004901568658406
1943.0,0.007004901568658406
1942.0,0.006872514894289861
1941.0,0.00656376950238835
1940.0,0.00625524344553785
1939.0,0.005990966876386672
1938.0,0.00577085918230158
1937.0,0.005550862985963967
1936.0,0.00537494623139545
1935.0,0.005243055412371911
1934.0,0.005111204635089406
1933.0,0.004935465843858511
1932.0,0.004759798137184523
1931.0,0.00458420145758498
1930.0,0.004452550524862486
1929.0,0.004320939488377862
1928.0,0.004189368323957332
1927.0,0.004101676353562844
1926.0,0.003970171588923321
1925.0,0.0038387066319929275
1924.0,0.0037510854308679953
1923.0,0.003707281458678491
1922.0,0.003619686766589858
1921.0,0.0035321097382827737
1920.0,0.003488327845821315
1919.0,0.0034445503666347133
1918.0,0.0033132443998284966
1917.0,0.0030944893043338695
1916.0,0.0029632891174733444
1915.0,0.0029195645282691363
1914.0,0.0028321285541661467
1913.0,0.002701007590486082
1912.0,0.002569926202528716
1911.0,0.0024388843664115978
1910.0,0.002351545103793873
1909.0,0.0022205691343961664
1908.0,0.0020459959305969555
1907.0,0.001915112063444413
1906.0,0.0018278780605593958
1905.0,0.0017842676290416026
1904.0,0.0017406615763013722
1903.0,0.0016970599014589638
1902.0,0.001609869681952425
1901.0,0.0014355417390583547
1900.0,0.001304841688344327
1899.0,0.0012177301682640973
1898.0,0.0011741809597138886
1897.0,0.0012177301682640973
1896.0,0.0011741809597138886
1895.0,0.0010870956412141197
1894.0,0.0009129773741116676
1893.0,0.0007389288868995258
1892.0,0.0006519307932786322
1891.0,0.0006084382809090627
1890.0,0.0005649501236701937
1889.0,0.000521466320689834
1888.0,0.00043451177401765406
1887.0,0.0003475746339209884
1886.0,0.00026065489343207737
1885.0,0.0001303078917322953
1884.0,-4.3427276862573194e-05
1883.0,-0.00017368305846510168
1882.0,-0.0002604985473904087
1881.0,-0.00030389978481260016
1880.0,-0.0003472966853634851
1879.0,-0.0003472966853634851
1878.0,-0.0003472966853634851
1877.0,-0.0003906892499099257
1876.0,-0.00043407747931878404
1875.0,-0.0005208409361854294
1874.0,-0.0006075870628903246
1873.0,-0.0006075870628903246
1872.0,-0.0005642161653756084
1871.0,-0.0005208409361854294
1870.0,-0.0006075870628903246
1869.0,-0.0007376737740329986
1868.0,-0.0008677215312267172
1867.0,-0.0009110621312231615
1866.0,-0.0008677215312267172
1865.0,-0.0009110621312231615
1864.0,-0.0009110621312231615
1863.0,-0.0009543984064577238
1862.0,-0.0009977303577937136
1861.0,-0.0009977303577937136
1860.0,-0.001041057986093552
1859.0,-0.0010843812922201046
1858.0,-0.0010843812922201046
1857.0,-0.001041057986093552
1856.0,-0.0009543984064577238
1855.0,-0.0008677215312267172
1854.0,-0.0007810273534953893
1853.0,-0.0007810273534953893
1852.0,-0.0007810273534953893
1851.0,-0.0007376737740329986
1850.0,-0.0006075870628903246
1849.0,-0.0005208409361854294
1848.0,-0.00043407747931878404
1847.0,-0.0002604985473904087
1846.0,-4.3427276862573194e-05
1845.0,4.343161980746579e-05
1844.0,-4.3427276862573194e-05
1843.0,-0.00013026880522692963
1842.0,-8.685021164911433e-05
1841.0,4.343161980746579e-05
1840.0,0.00017375254558760211
1839.0,0.00021720154586435392
1838.0,0.00026065489343207737
1837.0,0.00026065489343207737
1836.0,0.00026065489343207737
1835.0,0.00026065489343207737
1834.0,0.0003475746339209884
1833.0,0.0004779868710962365
1832.0,0.0006084382809090627
1831.0,0.0006954276616513155
1830.0,0.0005649501236701937
1829.0,0.0003910410285830057
1828.0,0.00043451177401765406
1827.0,0.0007389288868995258
1826.0,0.0009129773741116676
1825.0,0.000869458712629001
1824.0,0.0007389288868995258
1823.0,0.0006519307932786322
1822.0,0.0006084382809090627
1821.0,0.0005649501236701937
1820.0,0.00043451177401765406
1819.0,0.00043451177401765406
1818.0,0.00043451177401765406
1817.0,0.0003910410285830057
1816.0,0.00021720154586435392
1815.0,8.686758342868472e-05
1814.0,-8.685021164911433e-05
1813.0,-0.00021709297223004853
1812.0,-0.00030389978481260016
1811.0,-0.0003906892499099257
1810.0,-0.0004774613744551459
1809.0,-0.0005642161653756084
1808.0,-0.0006075870628903246
1807.0,-0.0006509536295951079
1806.0,-0.0006943158663546001
1805.0,-0.0007376737740329986
1804.0,-0.0007376737740329986
1803.0,-0.0006075870628903246
1802.0,-0.0004774613744551459
1801.0,-0.0005208409361854294
1800.0,-0.0006943158663546001
1799.0,-0.0008243766056055257
1798.0,-0.0009110621312231615
1797.0,-0.0008677215312267172
1796.0,-0.0007810273534953893
1795.0,-0.0006075870628903246
1794.0,-0.0006075870628903246
1793.0,-0.0007810273534953893
1792.0,-0.001041057986093552
1791.0,-0.0011277002770349043
1790.0,-0.0010843812922201046
1789.0,-0.0009977303577937136
1788.0,-0.0009977303577937136
1787.0,-0.0009977303577937136
1786.0,-0.0009977303577937136
1785.0,-0.001041057986093552
1784.0,-0.0009977303577937136
1783.0,-0.0008677215312267172
1782.0,-0.0006943158663546001
1781.0,-0.0007376737740329986
1780.0,-0.0008677215312267172
1779.0,-0.0008677215312267172
1778.0,-0.0007810273534953893
1777.0,-0.0006943158663546001
1776.0,-0.0005208409361854294
1775.0,-0.00013026880522692963
1774.0,0.00026065489343207737
1773.0,0.0003475746339209884
1772.0,0.00021720154586435392
1771.0,0.00030411258916074324
1770.0,0.0006954276616513155
1769.0,0.0010870956412141197
1768.0,0.001304841688344327
1767.0,0.0014355417390583547
1766.0,0.0015662811355310335
1765.0,0.0018714928717336043
1764.0,0.002395212539545666
1763.0,0.0030944893043338695
1762.0,0.003794893821675638
1761.0,0.0043648054024501
1760.0,0.005023326350308999
1759.0,0.005946936412324799
1758.0,0.007049039429553483
1757.0,0.008109696063975047
1756.0,0.009128595198514056
1755.0,0.010327752376126709
1754.0,0.011708658092512314
1753.0,0.013317820220494436
1752.0,0.015517693597737248
1751.0,0.01858915983411169
1750.0,0.022230681908425698
1749.0,0.026087429580295085
1748.0,0.03030458888152676
1747.0,0.0349394793888016
1746.0,0.03995754427315856
1745.0,0.045660991397539874
1744.0,0.05232126006306337
1743.0,0.05963295401433477
1742.0,0.06712054217620067
1741.0,0.07566901529132153
1740.0,0.08602728844902896
1739.0,0.09663866374468144
1738.0,0.1047432468551055
1737.0,0.11058623595729111
1736.0,0.11730473761840288
1735.0,0.13012318673323353
1734.0,0.14898639317633
1733.0,0.16449967213268124
1732.0,0.17405485679615196
1731.0,0.18263298371240588
1730.0,0.1928710444075783
1729.0,0.20398103065285067
1728.0,0.21424320003735708
1727.0,0.22358941119265774
1726.0,0.2330669061627162
1725.0,0.24366823267894233
1724.0,0.25547232652743346
1723.0,0.26672246606741834
1722.0,0.2749872746588431
1721.0,0.2794272796357391
1720.0,0.2826624172761363
1719.0,0.2902213981517747
1718.0,0.30557030904291693
1717.0,0.32166375326781993
1716.0,0.33003263009149597
1715.0,0.33245366048848357
1714.0,0.3318005158013382
1713.0,0.32771737521107935
1712.0,0.32020882901964565
1711.0,0.3113132757158765
1710.0,0.30172542332563235
1709.0,0.2908148704497546
1708.0,0.2780245984140466
1707.0,0.2641616656829262
1706.0,0.25049557612385787
1705.0,0.23724643506662613
1704.0,0.22424396215590203
1703.0,0.2115487929765445
1702.0,0.19887081242029603
1701.0,0.18655245573517876
1700.0,0.17567887514922864
1699.0,0.16685288808721488
1698.0,0.15939212099070987
1697.0,0.15236565568174498
1696.0,0.14532966810466452
1695.0,0.13858508136400327
1694.0,0.13241467345296387
1693.0,0.12691201440971422
1692.0,0.12165057778222454
1691.0,0.11679296664760996
1690.0,0.11266406960083297
1689.0,0.10935546370475246
1688.0,0.10623823794205656
1687.0,0.10297804393963661
1686.0,0.09974214156222239
1685.0,0.09783387072894878
1684.0,0.0972358560759139
1683.0,0.09566320779750503
1682.0,0.09307265269104414
1681.0,0.09023008526723086
1680.0,0.0872997918091396
1679.0,0.08444188458847957
1678.0,0.08160266115629988
1677.0,0.0788860261633193
1676.0,0.07634157820669385
1675.0,0.07412091069849924
1674.0,0.07196279359311708
1673.0,0.06976434723371505
1672.0,0.0675769736232612
1671.0,0.0655520510510299
1670.0,0.06393888339001164
1669.0,0.06258241852286206
1668.0,0.06103020277710969
1667.0,0.05933412752417122
1666.0,0.05749589383191922
1665.0,0.05561604235915585
1664.0,0.05379344615721715
1663.0,0.05227227303668425
1662.0,0.05100054597304693
1661.0,0.04973253198641148
1660.0,0.04832256265669943
1659.0,0.0469171560879138
1658.0,0.045516282844447975
1657.0,0.04421607108308856
1656.0,0.0431115453499229
1655.0,0.04224908912272074
1654.0,0.04224908912272074
1653.0,0.04253638427006878
1652.0,0.041340572947066834
1651.0,0.04010041213405646
1650.0,0.03929144831144349
1649.0,0.038341651362284734
1648.0,0.03753595394209874
1647.0,0.03720463014276687
1646.0,0.036873558918095295
1645.0,0.036117771071222604
1644.0,0.03531618502395939
1643.0,0.03456310022373987
1642.0,0.033952178923546183
1641.0,0.03334211579824231
1640.0,0.032686081712916426
1639.0,0.03207779326948268
1638.0,0.03161045815293173
1637.0,0.03142366482450232
1636.0,0.03147035562516054
1635.0,0.031143625385307683
1634.0,0.030444315779156517
1633.0,0.029885677714903025
1632.0,0.02942069428514915
1631.0,0.02890978686288448
1630.0,0.02849221828874393
1629.0,0.028167720075074953
1628.0,0.027843464140506313
1627.0,0.02751945012352408
1626.0,0.02724191609646076
1625.0,0.02696455931306696
1624.0,0.02677975314776626
1623.0,0.026733563891471412
1622.0,0.02677975314776626
1621.0,0.02691835039863255
1620.0,0.027195677663422346
1619.0,0.0277045713888604
1618.0,0.02872415126189476
1617.0,0.030211462585061133
1616.0,0.03133029827960798
1615.0,0.03170388495374454
1614.0,0.03161045815293173
1613.0,0.031190286087141805
1612.0,0.030444315779156517
1611.0,0.029513651152349718
1610.0,0.028538594975413334
1609.0,0.027658283674251827
1608.0,0.02677975314776626
1607.0,0.025856900097785074
1606.0,0.024936003904763915
1605.0,0.02406295751688936
1604.0,0.023191662661933732
1603.0,0.022413561996148967
1602.0,0.02168250325324883
1601.0,0.021043834782408455
1600.0,0.020406104151069693
1599.0,0.019814763052665052
1598.0,0.019269623464054586
1597.0,0.018815862601645694
1596.0,0.01845319495476394
1595.0,0.018271974638383703
1594.0,0.018226681372252695
1593.0,0.018271974638383703
1592.0,0.018362575344230914
1591.0,0.01840788278591865
1590.0,0.018543833477873584
1589.0,0.018861217359339655
1588.0,0.019360432556262852
1587.0,0.02022406727031445
1586.0,0.021545566634771474
1585.0,0.023374947949272418
1584.0,0.025764722556973707
1583.0,0.02858497661500481
1582.0,0.031563752288295444
1581.0,0.03414006319292828
1580.0,0.0360705779734416
1579.0,0.03720463014276687
1578.0,0.037299268295658994
1577.0,0.03621217265444465
1576.0,0.034046110897937076
1575.0,0.03142366482450232
1574.0,0.029234840219232394
1573.0,0.02747318213414429
1572.0,0.025764722556973707
1571.0,0.02406295751688936
1570.0,0.022413561996148967
1569.0,0.0209982515252789
1568.0,0.019996628416253603
1567.0,0.019360432556262852
1566.0,0.018679826740892747
1565.0,0.017864505196230507
1564.0,0.017141057687924732
1563.0,0.016824927962187042
1562.0,0.016734647433454652
1561.0,0.016599261819461697
1560.0,0.016373712875465518
1559.0,0.01628352608625061
1558.0,0.015562705203923999
1557.0,0.014932966849499074
1556.0,0.014798141635428141
1555.0,0.014618439768003144
1554.0,0.014169510141607944
1553.0,0.013676222949234651
1552.0,0.013407393177789162
1551.0,0.013317820220494436
1550.0,0.01322826573375524
1549.0,0.013004460275618523
1548.0,0.01264661126420652
1547.0,0.012378417874516323
1546.0,0.012110390002254778
1545.0,0.011931796607364653
1544.0,0.011753276624621556
1543.0,0.011574829993696856
1542.0,0.011396456654336085
1541.0,0.011441043121384498
1540.0,0.011485634166333858
1539.0,0.01117359295472431
1538.0,0.010906307389674463
1537.0,0.010995384301463185
1536.0,0.01117359295472431
1535.0,0.011218156546359825
1534.0,0.011307297450183107
1533.0,0.011441043121384498
1532.0,0.011574829993696856
1531.0,0.011753276624621556
1530.0,0.011887159731648111
1529.0,0.012021084124518078
1528.0,0.01215504982870197
1527.0,0.012244383261476699
1526.0,0.01215504982870197
1525.0,0.0119764380713403
1524.0,0.011753276624621556
1523.0,0.011619434777991433
1522.0,0.011619434777991433
1521.0,0.011485634166333858
1520.0,0.011262724711199823
1519.0,0.011084479487313281
1518.0,0.011039929609661936
1517.0,0.011039929609661936
1516.0,0.011084479487313281
1515.0,0.011307297450183107
1514.0,0.011753276624621556
1513.0,0.012557195064198723
1512.0,0.01372104409400876
1511.0,0.015427684378367834
1510.0,0.017728766960431575
1509.0,0.0209982515252789
1508.0,0.026733563891471412
1507.0,0.0349394793888016
1506.0,0.03995754427315856
1505.0,0.03957679292217042
1504.0,0.036873558918095295
1503.0,0.03310770413286357
1502.0,0.028770552723758724
1501.0,0.024338466818941473
1500.0,0.02022406727031445
1499.0,0.016734647433454652
1498.0,0.013900374944870508
1497.0,0.011753276624621556
1496.0,0.010060986715464404
1495.0,0.0087296108049002
1494.0,0.007844288957383316
1493.0,0.007402303897961815
1492.0,0.007225635744644521
1491.0,0.007137328610972382
1490.0,0.007181479933320523
1489.0,0.007358130121602358
1488.0,0.007490664932224611
1487.0,0.0074464821678643656
1486.0,0.007490664932224611
1485.0,0.007755855953228474
1484.0,0.008153946355103248
1483.0,0.008596697419959609
1482.0,0.008995559669244813
1481.0,0.009483555971770974
1480.0,0.009972101229705377
1479.0,0.01037222925484893
1478.0,0.010817248744452446
1477.0,0.011396456654336085
1476.0,0.012065734767841452
1475.0,0.012736045877764557
1474.0,0.013452186585275916
1473.0,0.014349026309051105
1472.0,0.015112798935672522
1471.0,0.015517693597737248
1470.0,0.015922966097169144
1469.0,0.016599261819461697
1468.0,0.017547848615010242
1467.0,0.018770512579999288
1466.0,0.02058821736556471
1465.0,0.023054249440757957
1464.0,0.02553436426275746
1463.0,0.027565723042634938
1462.0,0.029281296279810798
1461.0,0.031003673351687855
1460.0,0.03282657704446046
1459.0,0.03512779136222477
1458.0,0.038531444649213764
1457.0,0.042584285277331047
1456.0,0.044937930324967956
1455.0,0.0454680573730859
1454.0,0.045516282844447975
1453.0,0.04541983725624266
1452.0,0.04522701031028298
1451.0,0.04488976902944808
1450.0,0.04455278942230456
1449.0,0.044360346976747955
1448.0,0.04426415772233416
1447.0,0.04411991377462465
1446.0,0.04387961360698034
1445.0,0.04359142880416744
1444.0,0.043303435105349175
1443.0,0.042967683653061695
1442.0,0.04253638427006878
1441.0,0.04200982159316968
1440.0,0.041340572947066834
1439.0,0.04043395336207234
1438.0,0.03914884628031379
1437.0,0.037346595106788616
1436.0,0.03503362516890207
1435.0,0.032545631817259224
1434.0,0.030071810571884017
1433.0,0.02747318213414429
1432.0,0.02475205875931885
1431.0,0.02204787879853809
1430.0,0.01954210772389997
1429.0,0.017457417697056554
1428.0,0.015877917138889863
1427.0,0.014798141635428141
1426.0,0.01403492169512921
1425.0,0.013631406429727155
1424.0,0.013631406429727155
1423.0,0.01403492169512921
1422.0,0.014843078722943437
1421.0,0.016193358021584725
1420.0,0.018861217359339655
1419.0,0.023329119375188556
1418.0,0.029002634427514717
1417.0,0.035363296211498474
1416.0,0.04272802000705722
1415.0,0.05163594401163074
1414.0,0.06218131530164395
1413.0,0.07427547306393745
1412.0,0.08698131625203986
1411.0,0.09816040794877057
1410.0,0.10568393731556158
1409.0,0.10879717273970457
1408.0,0.10762709260156367
1407.0,0.10281292341984649
1406.0,0.09550084460218011
1405.0,0.0872997918091396
1404.0,0.07961575782164254
1403.0,0.07304051161972436
1402.0,0.06747550294945781
1401.0,0.06258241852286206
1400.0,0.05814087347462649
1399.0,0.054186873412661596
1398.0,0.05100054597304693
1397.0,0.04832256265669943
1396.0,0.04585401117045196
1395.0,0.043303435105349175
1394.0,0.04081545726880842
1393.0,0.03857890593355173
1392.0,0.03663723389626394
1391.0,0.03489241415094413
1390.0,0.03343591590268957
1389.0,0.032218091924200776
1388.0,0.03128362253321426
1387.0,0.030537492025363155
1386.0,0.029978734171634214
1385.0,0.029653123769906697
1384.0,0.02960662792039992
1383.0,0.029978734171634214
1382.0,0.03081714076773867
1381.0,0.03207779326948268
1380.0,0.0338113190438627
1379.0,0.035740369803151095
1378.0,0.03772539537668518
1377.0,0.039767126871487646
1376.0,0.04196198390166317
1375.0,0.04455278942230456
1374.0,0.04715914332429838
1373.0,0.04919717703534143
1372.0,0.050317309204795935
1371.0,0.0506099933550872
1370.0,0.050171041064686284
1369.0,0.048905443158337114
1368.0,0.04672366333269573
1367.0,0.04368746915880539
1366.0,0.04014804520039483
1365.0,0.03621217265444465
1364.0,0.032031037121307726
1363.0,0.027843464140506313
1362.0,0.024154774532432866
1361.0,0.02122621566987748
1360.0,0.01899731005860028
1359.0,0.01727661233145472
1358.0,0.016013078034810446
1357.0,0.015157768594724175
1356.0,0.014663358264387139
1355.0,0.01452861671041239
1354.0,0.014663358264387139
1353.0,0.015067833932588037
1352.0,0.015697768020096703
1351.0,0.016644385668211692
1350.0,0.017909760704207134
1349.0,0.01954210772389997
1348.0,0.021545566634771474
1347.0,0.023833499868024743
1346.0,0.02636422658259252
1345.0,0.029002634427514717
1344.0,0.031563752288295444
1343.0,0.033905220553829274
1342.0,0.03583468937826462
1341.0,0.037299268295658994
1340.0,0.038057116858612794
1339.0,0.03767802727041558
1338.0,0.03602339000339416
1337.0,0.03338901331806565
1336.0,0.030211462585061133
1335.0,0.02691835039863255
1334.0,0.023925268380126097
1333.0,0.021499930688540836
1332.0,0.019723858922159776
1331.0,0.018634490921455527
1330.0,0.018226681372252695
1329.0,0.018362575344230914
1328.0,0.01899731005860028
1327.0,0.01995115493504329
1326.0,0.021135015652343103
1325.0,0.02255077261765881
1324.0,0.024154774532432866
1323.0,0.025949097207122573
1322.0,0.027797161620935595
1321.0,0.029746130405213123
1320.0,0.03175060589208267
1319.0,0.03376437590141812
1318.0,0.035693217696063595
1317.0,0.037583306554248797
1316.0,0.03948165721929198
1315.0,0.04153168163305643
1314.0,0.043735497301724546
1313.0,0.046143701775014145
1312.0,0.04871106272232795
1311.0,0.051244819831730126
1310.0,0.05379344615721715
1309.0,0.05650548409389744
1308.0,0.05923456436878238
1307.0,0.06193081377661436
1306.0,0.06454311928839007
1305.0,0.06722192993944942
1304.0,0.07012147634321675
1303.0,0.07340034609297241
1302.0,0.0772226580712021
1301.0,0.08160266115629988
1300.0,0.08661005636824437
1299.0,0.09210516458371698
1298.0,0.09805153492691598
1297.0,0.10435649517592083
1296.0,0.11092250734993603
1295.0,0.11741854644554883
1294.0,0.12372441132212098
1293.0,0.12983027886355947
1292.0,0.13584504399797437
1291.0,0.14170347546611461
1290.0,0.1472760892087941
1289.0,0.15267416921457633
1288.0,0.15789023655938994
1287.0,0.16272729749769965
1286.0,0.16698045292346864
1285.0,0.17088928984470542
1284.0,0.17444406770964305
1283.0,0.1775703762206431
1282.0,0.18032448000570733
1281.0,0.18283142761894444
1280.0,0.1851533313955367
1279.0,0.1871534630329288
1278.0,0.18896149139578422
1277.0,0.19077707831057822
1276.0,0.19300648631789286
1275.0,0.19572423287090612
1274.0,0.1990768181867817
1273.0,0.20342566678957041
1272.0,0.20901152491118413
1271.0,0.21552535623748348
1270.0,0.22271820832898515
1269.0,0.23054882059796222
1268.0,0.23889946104185777
1267.0,0.24741382125959088
1266.0,0.25586354759875274
1265.0,0.264241462556261
1264.0,0.272214825817094
1263.0,0.2793446434482756
1262.0,0.2855864077128789
1261.0,0.29089971844883333
1260.0,0.29550630299070124
1259.0,0.29903682184045066
1258.0,0.301377570297902
1257.0,0.3032069149182557
1256.0,0.30495634117870596
1255.0,0.30680085484628283
1254.0,0.3087416418668889
1253.0,0.3112243447271552
1252.0,0.31425826139773627
1251.0,0.3177646430974359
1250.0,0.32139058344107396
1249.0,0.3255062827036499
1248.0,0.32993978252686573
1247.0,0.33451281921718934
1246.0,0.33875539104066643
1245.0,0.34303981725715094
1244.0,0.34698054890038676
1243.0,0.3500812812645808
1242.0,0.35222594973116994
1241.0,0.3534982499683881
1240.0,0.3540867249661557
1239.0,0.3534002482796268
1238.0,0.35124978730198064
1237.0,0.34775365899667676
1236.0,0.3432312207339834
1235.0,0.3372421683184259
1234.0,0.32993978252686573
1233.0,0.32175484807295796
1232.0,0.31300643373532155
1231.0,0.3033815407677751
1230.0,0.29319690296266177
1229.0,0.28282897316768985
1228.0,0.2723774220308628
1227.0,0.2618539112879401
1226.0,0.2512694439015055
1225.0,0.24078556876575608
1224.0,0.2304749798289496
1223.0,0.22033137279285198
1222.0,0.21034879120659045
1221.0,0.200797343699475
1220.0,0.19178902707577805
1219.0,0.1831623690979649
1218.0,0.17509352869788763
1217.0,0.16742722515382025
1216.0,0.1602706247936121
1215.0,0.15347733158371324
1214.0,0.14703230897118158
1213.0,0.14116214857141451
1212.0,0.13572630319562085
1211.0,0.1306509192409071
1210.0,0.12592425477696523
1209.0,0.12142076193778073
1208.0,0.11719095860756013
1207.0,0.11317099532301778
1206.0,0.10935546370475246
1205.0,0.10562854614376227
1204.0,0.10209812573177213
1203.0,0.09870518283443275
1202.0,0.09544673702322726
1201.0,0.09237369515673355
1200.0,0.08937559511079884
1199.0,0.08639805027084257
1198.0,0.08349341288484435
1197.0,0.08066036321258663
1196.0,0.07789763319239285
1195.0,0.07525564752005143
1194.0,0.07268097504034388
1193.0,0.0702746216219956
1192.0,0.0680846829187538
1191.0,0.06605739725873905
1190.0,0.06429125215733666
1189.0,0.06283329628496737
1188.0,0.06163040254819374
1187.0,0.06078036414518184
1186.0,0.06038092104330195
1185.0,0.06048074738138154
1184.0,0.06108018775522828
1183.0,0.062131203436140536
1182.0,0.06353652599525317
1181.0,0.06529959828457499
1180.0,0.0671712330991534
1179.0,0.06905096883247697
1178.0,0.07078549626260622
1177.0,0.07227044022834539
1176.0,0.07334892291111106
1175.0,0.07386342893255127
1174.0,0.07365755337434488
1173.0,0.0725783049495814
1172.0,0.07063217075990047
1171.0,0.06798309356579857
1170.0,0.06479513257341862
1169.0,0.06133019897732073
1168.0,0.05789269101064454
1167.0,0.054679159207724926
1166.0,0.0518316382728683
1165.0,0.04944043838819989
1164.0,0.047595060422975566
1163.0,0.046143701775014145
1162.0,0.04508244626504121
1161.0,0.04440844959427559
1160.0,0.04411991377462465
1159.0,0.044167989767578186
1158.0,0.04464904263234004
1157.0,0.045564513671517703
1156.0,0.04686877481655505
1155.0,0.048565334467987054
1154.0,0.05065879322950262
1153.0,0.05325306496641513
1152.0,0.05630767289398331
1151.0,0.05983228596592505
1150.0,0.06383825908884244
1149.0,0.06828793294324442
1148.0,0.07304051161972436
1147.0,0.07794959783282618
1146.0,0.08291480935943274
1145.0,0.0880970039559672
1144.0,0.09344948089854999
1143.0,0.09886874864462802
1142.0,0.10424605792627206
1141.0,0.10946720807225518
1140.0,0.11446916681190777
1139.0,0.11907213473291511
1138.0,0.12326270285933538
1137.0,0.12714475529518965
1136.0,0.1308269726783169
1135.0,0.13436311230037123
1134.0,0.13774932540207496
1133.0,0.14122226269455074
1132.0,0.14496568332411575
1131.0,0.14898639317633
1130.0,0.1532918545439932
1129.0,0.15814019022493886
1128.0,0.16361258067358908
1127.0,0.16973219906635828
1126.0,0.17626501160126873
1125.0,0.1832285876666535
1124.0,0.19050762306265812
1123.0,0.1977052886025361
1122.0,0.2046066650687106
1121.0,0.21091308491197136
1120.0,0.21638223480925123
1119.0,0.22047565667521019
1118.0,0.2230809971579535
1117.0,0.22417118553538762
1116.0,0.22395292881822026
1115.0,0.22242819530859004
1114.0,0.2199708726626617
1113.0,0.21745571598998992
1112.0,0.21566805197785177
1111.0,0.21524010533599514
1110.0,0.2166682371125761
1109.0,0.22018713682941948
1108.0,0.22570206150072258
1107.0,0.2327699018892817
1106.0,0.24108810760202637
1105.0,0.2503409679051003
1104.0,0.26026947143528245
1103.0,0.2704302736980302
1102.0,0.28058584029740663
1101.0,0.2906452241656039
1100.0,0.30033567979762665
1099.0,0.3090069679001306
1098.0,0.31650268232018863
1097.0,0.3229408226078385
1096.0,0.3283644033978703
1095.0,0.33245366048848357
1094.0,0.33507610656191833
1093.0,0.3365817877473203
1092.0,0.3370533856673754
1091.0,0.3364875295848444
1090.0,0.33498217458752744
1089.0,0.3327338806177258
1088.0,0.3298469548078198
1087.0,0.3262420634504233
1086.0,0.32166375326781993
1085.0,0.31650268232018863
1084.0,0.3107799627361645
1083.0,0.30434324006380975
1082.0,0.29688065376392214
1081.0,0.2886146209015483
1080.0,0.27967528258255836
1079.0,0.2698639960033222
1078.0,0.25940048718884356
1077.0,0.24856691818065246
1076.0,0.2377717157135255
1075.0,0.22694530663573742
1074.0,0.21631076365268354
1073.0,0.20620961530918125
1072.0,0.196747788569543
1071.0,0.1878891587969005
1070.0,0.17960147729601839
1069.0,0.17204947169736973
1068.0,0.16513442009996204
1067.0,0.15870311250971825
1066.0,0.15261244897260462
1065.0,0.14703230897118158
1064.0,0.14206473528057106
1063.0,0.13768969004572962
1062.0,0.13406733180681396
1061.0,0.13106182166708868
1060.0,0.1287190271420271
1059.0,0.12697018793895576
1058.0,0.12586622117202761
1057.0,0.12551818230053358
1056.0,0.12592425477696523
1055.0,0.12702836926155658
1054.0,0.12877744324029283
1053.0,0.13100309751286465
1052.0,0.13371266091580503
1051.0,0.1366771398795441
1050.0,0.1396619934290062
1049.0,0.14266750356873148
1048.0,0.1455724942121388
1047.0,0.1482525808667361
1046.0,0.1507034591652734
1045.0,0.15285938258659382
1044.0,0.15465386258859137
1043.0,0.15602015552184012
1042.0,0.1567049172634929
1041.0,0.1567049172634929
1040.0,0.1562068016740874
1039.0,0.15521228117215347
1038.0,0.1538485234711846
1037.0,0.15236565568174498
1036.0,0.15088783381542248
1035.0,0.14929251462546267
1034.0,0.1475810070629986
1033.0,0.14587621789883287
1032.0,0.14423862766005224
1031.0,0.14266750356873148
1030.0,0.14110204276799654
1029.0,0.1397219002477652
1028.0,0.13858508136400327
1027.0,0.13792828062000573
1026.0,0.1384058553561347
1025.0,0.1407415825326932
1024.0,0.1456939581989194
1023.0,0.15397232463562127
1022.0,0.16564288728159493
1021.0,0.18052187163787736
1020.0,0.19749993223560658
1019.0,0.21452779669361166
1018.0,0.2287800980504664
1017.0,0.23747147755300002
1016.0,0.23837281543841726
1015.0,0.23106605781321843
1014.0,0.21752737583371373
1013.0,0.20072839165012724
1012.0,0.1838250095711984
1011.0,0.16845014800424418
1010.0,0.15539858037365328
1009.0,0.1446020033459312
1008.0,0.13560759484941132
1007.0,0.1280769681176266
1006.0,0.12170805075020397
1005.0,0.11645212073195621
1004.0,0.11210151190312767
1003.0,0.10840679565103484
1002.0,0.10518567091669917
1001.0,0.10226297465457268
1000.0,0.09968750301627338
999.0,0.0972358560759139
998.0,0.09512223303659528
997.0,0.09323411045927221
996.0,0.0916222275676053
995.0,0.09017663034908807
994.0,0.08889568219596411
993.0,0.0877779434675845
992.0,0.08687520961044104
991.0,0.0861331881037608
990.0,0.08549817717268593
989.0,0.08507535179485148
988.0,0.08481129482684358
987.0,0.08470571697731355
986.0,0.08460016478773014
985.0,0.08460016478773014
984.0,0.08460016478773014
983.0,0.08454739831152125
982.0,0.08460016478773014
981.0,0.08470571697731355
980.0,0.08486409337798806
979.0,0.08502252755566908
978.0,0.08512818245994969
977.0,0.08512818245994969
976.0,0.08502252755566908
975.0,0.08481129482684358
974.0,0.08454739831152125
973.0,0.08428366205400617
972.0,0.0838620168928248
971.0,0.0832303157168639
970.0,0.08223199755224364
969.0,0.0809742354126397
968.0,0.07956359344924135
967.0,0.07794959783282618
966.0,0.07628980560343712
965.0,0.07468790850035045
964.0,0.07314329105030759
963.0,0.07160414774328627
962.0,0.07001940948448526
961.0,0.06844043290919477
960.0,0.06696850489759454
959.0,0.06560255921901192
958.0,0.06439198148213077
957.0,0.06328524178879635
956.0,0.062281556382736136
955.0,0.06128018521761747
954.0,0.06033101647767336
953.0,0.0595831353183347
952.0,0.0588862729628985
951.0,0.0582898510583536
950.0,0.05764465029232335
949.0,0.0571489934456626
948.0,0.0567528748621382
947.0,0.056406567231630955
946.0,0.055961719945581745
945.0,0.05551732784983132
944.0,0.055172003656783764
943.0,0.054876229877880656
942.0,0.05462990550969615
941.0,0.05443294655761144
940.0,0.05413767551038262
939.0,0.053842605077627725
938.0,0.053596866100945384
937.0,0.053449489430144714
936.0,0.05340037498486727
935.0,0.053351266093323746
934.0,0.053203972728539606
933.0,0.05300765925162776
932.0,0.052762392129333646
931.0,0.052468254304406825
930.0,0.05217431555754937
929.0,0.05188057561946402
928.0,0.0515870342213991
927.0,0.051244819831730126
926.0,0.05095170768433621
925.0,0.05065879322950262
924.0,0.05036607620073763
923.0,0.05002482217034632
922.0,0.04973253198641148
921.0,0.04944043838819989
920.0,0.049294465226138895
919.0,0.049245818406496555
918.0,0.049245818406496555
917.0,0.04939177521576932
916.0,0.04968383607539972
915.0,0.05021979163799939
914.0,0.05100054597304693
913.0,0.05207638016827354
912.0,0.053449489430144714
911.0,0.05522131887649295
910.0,0.05734718830678798
909.0,0.05978244440026481
908.0,0.062381820606176586
907.0,0.06514819703433927
906.0,0.06803388527182741
905.0,0.0709900145060387
904.0,0.07396640332115534
903.0,0.07675598136972361
902.0,0.07904229404455076
901.0,0.0809742354126397
900.0,0.08254700807033655
899.0,0.0838620168928248
898.0,0.08481129482684358
897.0,0.0854453014823664
896.0,0.08581556657675371
895.0,0.08597434830367123
894.0,0.08597434830367123
893.0,0.08592141461088798
892.0,0.08597434830367123
891.0,0.08618614761628329
890.0,0.08655704514060414
889.0,0.08719360733870762
888.0,0.0881502035005799
887.0,0.08958906008531176
886.0,0.09146136782804049
885.0,0.0937727369476411
884.0,0.09653017149282994
883.0,0.09968750301627338
882.0,0.10347378251044459
881.0,0.10796107965870849
880.0,0.11328372588352176
879.0,0.11918640771920863
878.0,0.12546020292898974
877.0,0.1318847946727828
876.0,0.1381073096085541
875.0,0.14351278713136928
874.0,0.14752000636314366
873.0,0.14966014541652073
872.0,0.1495988520028415
871.0,0.1472151313194523
870.0,0.1427881576831076
869.0,0.1367961409713705
868.0,0.12983027886355947
867.0,0.12257105921178035
866.0,0.11560117444331386
865.0,0.10935546370475246
864.0,0.10413564875270076
863.0,0.09979678698310646
862.0,0.09631326826349751
861.0,0.09361107884716913
860.0,0.0916222275676053
859.0,0.09012318200960712
858.0,0.08905559425002108
857.0,0.08841629901892434
856.0,0.08804381092731295
855.0,0.08788427092114603
854.0,0.08772478950118767
853.0,0.08756536662442538
852.0,0.08735289378168276
851.0,0.08719360733870762
850.0,0.08698131625203986
849.0,0.08666307406737683
848.0,0.0862920860195171
847.0,0.08597434830367123
846.0,0.08576265223225898
845.0,0.08570974433405087
844.0,0.08570974433405087
843.0,0.08560394787021397
842.0,0.08518101955252688
841.0,0.08460016478773014
840.0,0.0838620168928248
839.0,0.08312512146131668
838.0,0.08228448344050654
837.0,0.0812359689720008
836.0,0.07998108397108505
835.0,0.07857365898473456
834.0,0.07711890879170658
833.0,0.07582412969807906
832.0,0.07463633264589853
831.0,0.07340034609297241
830.0,0.07206531825882068
829.0,0.07063217075990047
828.0,0.06930561233546473
827.0,0.06813548650796819
826.0,0.06722192993944942
825.0,0.06661395809694559
824.0,0.06610796423578891
823.0,0.06565307326174441
822.0,0.06514819703433927
821.0,0.06464390705442691
820.0,0.06424089625468832
819.0,0.06403953101083348
818.0,0.06398920428479049
817.0,0.06414020196211956
816.0,0.06429125215733666
815.0,0.06444235490698613
814.0,0.06454311928839007
813.0,0.06469430971007495
812.0,0.06484555278383164
811.0,0.06499684854634524
810.0,0.06509774167768612
809.0,0.06504729218214189
808.0,0.06484555278383164
807.0,0.06464390705442691
806.0,0.06449273417528723
805.0,0.06434161389936577
804.0,0.06403953101083348
803.0,0.06348625752110681
802.0,0.06288348923294618
801.0,0.06248210798265341
800.0,0.06268275223750575
799.0,0.06373765809652254
798.0,0.06615853710127872
797.0,0.0699173666076287
796.0,0.07463633264589853
795.0,0.07925073872429178
794.0,0.08265206237222844
793.0,0.08396738981143059
792.0,0.08312512146131668
791.0,0.08055578953476306
790.0,0.07701518429111709
789.0,0.0729891310243489
788.0,0.06864384953207203
787.0,0.06408986356949264
786.0,0.05963295401433477
785.0,0.055764156206519866
784.0,0.05271335532220167
783.0,0.050317309204795935
782.0,0.04832256265669943
781.0,0.04657860031896477
780.0,0.04484161307420642
779.0,0.04291974034210022
778.0,0.04091088563260792
777.0,0.039006291057664066
776.0,0.037488606492403154
775.0,0.03616496929785207
774.0,0.03498654972775217
773.0,0.03376437590141812
772.0,0.032545631817259224
771.0,0.03137697904301118
770.0,0.03030458888152676
769.0,0.029374223311705583
768.0,0.028538594975413334
767.0,0.027565723042634938
766.0,0.026456531467510258
765.0,0.025350165561278004
764.0,0.024292536462819925
763.0,0.023374947949272418
762.0,0.02259651912656535
761.0,0.021865152601710403
760.0,0.02122621566987748
759.0,0.020542681902151694
758.0,0.01995115493504329
757.0,0.01940584422377989
756.0,0.018951941086827073
755.0,0.018498511851753108
754.0,0.018045555530026514
753.0,0.017547848615010242
752.0,0.017141057687924732
751.0,0.016870075265299933
750.0,0.017005545341335804
749.0,0.017638298366853045
748.0,0.018861217359339655
747.0,0.02067930261797568
746.0,0.023191662661933732
745.0,0.02654885597506529
744.0,0.031190286087141805
743.0,0.037488606492403154
742.0,0.04599883231842972
741.0,0.056950888991593285
740.0,0.07032568205141221
739.0,0.08581556657675371
738.0,0.1028679566179056
737.0,0.12096149476276286
736.0,0.13960209487268727
735.0,0.15814019022493886
734.0,0.176525770829699
733.0,0.19524739784953948
732.0,0.2145989750076125
731.0,0.23477863369501928
730.0,0.2560984495148211
729.0,0.27901425584626094
728.0,0.3032942190660828
727.0,0.32679471822095474
726.0,0.34649805303706716
725.0,0.3598168080786599
724.0,0.3650191999487715
723.0,0.3614109167072832
722.0,0.3494011018273431
721.0,0.3305901327122174
720.0,0.3073293008436311
719.0,0.2824127031445396
718.0,0.2581396059347365
717.0,0.23597339230796277
716.0,0.21659671887743648
715.0,0.20031490909089955
714.0,0.1872871332346313
713.0,0.17743966305730785
712.0,0.17024608107502504
711.0,0.16481693015095633
710.0,0.16020781555467067
709.0,0.15564710368910672
708.0,0.15107228677292173
707.0,0.14648430324307138
706.0,0.14200450443907608
705.0,0.13763006287711765
704.0,0.13341732293645103
703.0,0.12912810493225724
702.0,0.12459143992293642
701.0,0.11970100857424737
700.0,0.11441264381034388
699.0,0.10890877353227624
698.0,0.10341867249426717
697.0,0.09854167860388774
696.0,0.09447395156495153
695.0,0.09140776115243066
694.0,0.08942895151874142
693.0,0.0880970039559672
692.0,0.0867691288864394
691.0,0.08502252755566908
690.0,0.08286224724355584
689.0,0.08086958613938555
688.0,0.07951143534170213
687.0,0.07846958649875768
686.0,0.07758597585436577
685.0,0.07675598136972361
684.0,0.07644514193245056
683.0,0.07680780957933253
682.0,0.07763790321520991
681.0,0.07836553894629472
680.0,0.07836553894629472
679.0,0.07717078033335123
678.0,0.07479107858799638
677.0,0.07170658776779781
676.0,0.06884736147670667
675.0,0.06686717627326577
674.0,0.0658551882075229
673.0,0.0655520510510299
672.0,0.06524912533642091
671.0,0.06439198148213077
670.0,0.06253226035662252
669.0,0.05978244440026481
668.0,0.057743849580535134
667.0,0.057396751157843484
666.0,0.056950888991593285
665.0,0.05561604235915585
664.0,0.05399011523423525
663.0,0.05237025261564554
662.0,0.050805225762017736
661.0,0.049148541111453614
660.0,0.047643522676209304
659.0,0.04662694927330402
658.0,0.04599883231842972
657.0,0.0454680573730859
656.0,0.04503426894157925
655.0,0.04484161307420642
654.0,0.04484161307420642
653.0,0.044793462458058375
652.0,0.04455278942230456
651.0,0.044312249686494276
650.0,0.0439276630048171
649.0,0.04344740808260106
648.0,0.043063586155803746
647.0,0.04287180232318688
646.0,0.042775942156833
645.0,0.04263219156847242
644.0,0.04263219156847242
643.0,0.04287180232318688
642.0,0.04325545471730896
641.0,0.043495409683302455
640.0,0.0437835307566099
639.0,0.044456557540257124
638.0,0.045612749855485024
637.0,0.04720755695590784
636.0,0.04953778109440221
635.0,0.05300765925162776
634.0,0.057396751157843484
633.0,0.06083032037482261
632.0,0.06153031163235467
631.0,0.05933412752417122
630.0,0.05571477931124735
629.0,0.05256627811294923
628.0,0.050707598587974356
627.0,0.05026854768429301
626.0,0.0506099933550872
625.0,0.05075640943173498
624.0,0.04997609347667353
623.0,0.04832256265669943
622.0,0.046481918555007384
621.0,0.04513062893352182
620.0,0.04455278942230456
619.0,0.044360346976747955
618.0,0.04397571771932274
617.0,0.043303435105349175
616.0,0.04263219156847242
615.0,0.042201225070002124
614.0,0.041914151478914974
613.0,0.04153168163305643
612.0,0.04129280891271536
611.0,0.041101805289228244
610.0,0.04038628892895613
609.0,0.03857890593355173
608.0,0.03597620715996652
607.0,0.0338113190438627
606.0,0.033154576345083564
605.0,0.03399914237121604
604.0,0.035740369803151095
603.0,0.03767802727041558
602.0,0.03914884628031379
601.0,0.03995754427315856
600.0,0.04010041213405646
