cm-1,A
4000.0,0.008065450281052211
3999.0,0.008153946355103248
3998.0,0.008153946355103248
3997.0,0.008109696063975047
3996.0,0.008065450281052211
3995.0,0.007976972236149349
3994.0,0.007932739972333236
3993.0,0.007888512213050314
3992.0,0.007844288957383316
3991.0,0.007800070204414977
3990.0,0.007800070204414977
3989.0,0.007888512213050314
3988.0,0.007976972236149349
3987.0,0.008021209005416363
3986.0,0.008065450281052211
3985.0,0.008065450281052211
3984.0,0.008065450281052211
3983.0,0.008065450281052211
3982.0,0.008065450281052211
3981.0,0.008021209005416363
3980.0,0.007976972236149349
3979.0,0.007888512213050314
3978.0,0.007844288957383316
3977.0,0.007755855953228474
3976.0,0.007755855953228474
3975.0,0.007755855953228474
3974.0,0.007800070204414977
3973.0,0.007844288957383316
3972.0,0.007888512213050314
3971.0,0.007932739972333236
3970.0,0.007976972236149349
3969.0,0.008021209005416363
3968.0,0.008021209005416363
3967.0,0.008021209005416363
3966.0,0.007932739972333236
3965.0,0.007888512213050314
3964.0,0.007844288957383316
3963.0,0.007888512213050314
3962.0,0.007932739972333236
3961.0,0.008065450281052211
3960.0,0.008109696063975047
3959.0,0.008109696063975047
3958.0,0.008065450281052211
3957.0,0.008021209005416363
3956.0,0.007976972236149349
3955.0,0.007976972236149349
3954.0,0.008021209005416363
3953.0,0.008065450281052211
3952.0,0.008109696063975047
3951.0,0.008109696063975047
3950.0,0.008153946355103248
3949.0,0.008153946355103248
3948.0,0.008153946355103248
3947.0,0.008153946355103248
3946.0,0.008153946355103248
3945.0,0.008109696063975047
3944.0,0.008021209005416363
3943.0,0.007888512213050314
3942.0,0.007844288957383316
3941.0,0.007932739972333236
3940.0,0.008021209005416363
3939.0,0.008109696063975047
3938.0,0.008198201155356077
3937.0,0.008286724286910463
3936.0,0.008330992620051436
3935.0,0.008286724286910463
3934.0,0.008153946355103248
3933.0,0.007976972236149349
3932.0,0.007932739972333236
3931.0,0.007932739972333236
3930.0,0.008021209005416363
3929.0,0.008065450281052211
3928.0,0.008109696063975047
3927.0,0.008109696063975047
3926.0,0.008065450281052211
3925.0,0.008065450281052211
3924.0,0.008153946355103248
3923.0,0.008242460465651913
3922.0,0.008286724286910463
3921.0,0.008242460465651913
3920.0,0.008109696063975047
3919.0,0.008065450281052211
3918.0,0.008065450281052211
3917.0,0.008065450281052211
3916.0,0.008021209005416363
3915.0,0.007976972236149349
3914.0,0.007976972236149349
3913.0,0.007976972236149349
3912.0,0.007976972236149349
3911.0,0.008065450281052211
3910.0,0.008153946355103248
3909.0,0.008242460465651913
3908.0,0.008330992620051436
3907.0,0.008419542825660153
3906.0,0.008463824699968647
3905.0,0.008552401996197112
3904.0,0.0087296108049002
3903.0,0.008862564879688284
3902.0,0.008951223547323472
3901.0,0.008818242332126802
3900.0,0.008640997362049818
3899.0,0.008419542825660153
3898.0,0.008330992620051436
3897.0,0.008242460465651913
3896.0,0.008153946355103248
3895.0,0.008065450281052211
3894.0,0.008021209005416363
3893.0,0.008109696063975047
3892.0,0.008286724286910463
3891.0,0.008419542825660153
3890.0,0.00850811108984062
3889.0,0.008685301823389224
3888.0,0.008685301823389224
3887.0,0.008463824699968647
3886.0,0.008198201155356077
3885.0,0.008198201155356077
3884.0,0.008463824699968647
3883.0,0.0087296108049002
3882.0,0.008773924307505121
3881.0,0.008596697419959609
3880.0,0.008463824699968647
3879.0,0.008419542825660153
3878.0,0.008463824699968647
3877.0,0.00850811108984062
3876.0,0.008419542825660153
3875.0,0.008286724286910463
3874.0,0.008286724286910463
3873.0,0.008419542825660153
3872.0,0.00850811108984062
3871.0,0.008330992620051436
3870.0,0.008021209005416363
3869.0,0.007976972236149349
3868.0,0.008242460465651913
3867.0,0.008463824699968647
3866.0,0.008419542825660153
3865.0,0.008242460465651913
3864.0,0.008198201155356077
3863.0,0.008286724286910463
3862.0,0.008330992620051436
3861.0,0.008330992620051436
3860.0,0.008330992620051436
3859.0,0.008375265465994541
3858.0,0.00850811108984062
3857.0,0.008773924307505121
3856.0,0.008862564879688284
3855.0,0.008596697419959609
3854.0,0.008286724286910463
3853.0,0.008198201155356077
3852.0,0.008198201155356077
3851.0,0.008286724286910463
3850.0,0.008375265465994541
3849.0,0.008375265465994541
3848.0,0.008375265465994541
3847.0,0.008375265465994541
3846.0,0.008375265465994541
3845.0,0.008375265465994541
3844.0,0.008375265465994541
3843.0,0.008419542825660153
3842.0,0.00850811108984062
3841.0,0.008596697419959609
3840.0,0.008552401996197112
3839.0,0.00850811108984062
3838.0,0.008419542825660153
3837.0,0.008330992620051436
3836.0,0.008286724286910463
3835.0,0.008330992620051436
3834.0,0.008419542825660153
3833.0,0.008463824699968647
3832.0,0.008463824699968647
3831.0,0.008375265465994541
3830.0,0.008375265465994541
3829.0,0.008419542825660153
3828.0,0.008463824699968647
3827.0,0.008463824699968647
3826.0,0.008596697419959609
3825.0,0.008862564879688284
3824.0,0.009172949432521227
3823.0,0.009172949432521227
3822.0,0.008906891951112605
3821.0,0.008685301823389224
3820.0,0.008640997362049818
3819.0,0.008773924307505121
3818.0,0.008773924307505121
3817.0,0.008552401996197112
3816.0,0.008375265465994541
3815.0,0.008375265465994541
3814.0,0.008552401996197112
3813.0,0.008640997362049818
3812.0,0.008552401996197112
3811.0,0.008419542825660153
3810.0,0.008463824699968647
3809.0,0.00850811108984062
3808.0,0.00850811108984062
3807.0,0.008463824699968647
3806.0,0.00850811108984062
3805.0,0.008640997362049818
3804.0,0.008640997362049818
3803.0,0.008375265465994541
3802.0,0.008109696063975047
3801.0,0.008153946355103248
3800.0,0.008419542825660153
3799.0,0.0087296108049002
3798.0,0.008862564879688284
3797.0,0.008818242332126802
3796.0,0.0087296108049002
3795.0,0.008640997362049818
3794.0,0.008552401996197112
3793.0,0.008419542825660153
3792.0,0.008286724286910463
3791.0,0.008242460465651913
3790.0,0.008330992620051436
3789.0,0.008419542825660153
3788.0,0.00850811108984062
3787.0,0.008596697419959609
3786.0,0.008640997362049818
3785.0,0.008640997362049818
3784.0,0.008685301823389224
3783.0,0.0087296108049002
3782.0,0.008773924307505121
3781.0,0.008773924307505121
3780.0,0.0087296108049002
3779.0,0.008685301823389224
3778.0,0.0087296108049002
3777.0,0.008818242332126802
3776.0,0.008862564879688284
3775.0,0.008906891951112605
3774.0,0.008951223547323472
3773.0,0.008951223547323472
3772.0,0.008906891951112605
3771.0,0.008773924307505121
3770.0,0.008685301823389224
3769.0,0.0087296108049002
3768.0,0.008862564879688284
3767.0,0.008995559669244813
3766.0,0.008951223547323472
3765.0,0.008951223547323472
3764.0,0.008995559669244813
3763.0,0.00908424549391551
3762.0,0.009039900317800775
3761.0,0.008906891951112605
3760.0,0.008862564879688284
3759.0,0.008951223547323472
3758.0,0.009039900317800775
3757.0,0.009039900317800775
3756.0,0.009039900317800775
3755.0,0.00908424549391551
3754.0,0.009128595198514056
3753.0,0.009172949432521227
3752.0,0.00939478857608056
3751.0,0.009616741093766423
3750.0,0.009483555971770974
3749.0,0.009217308196862062
3748.0,0.009217308196862062
3747.0,0.009483555971770974
3746.0,0.009483555971770974
3745.0,0.009128595198514056
3744.0,0.0087296108049002
3743.0,0.008552401996197112
3742.0,0.008596697419959609
3741.0,0.008640997362049818
3740.0,0.008640997362049818
3739.0,0.008640997362049818
3738.0,0.008640997362049818
3737.0,0.008640997362049818
3736.0,0.008818242332126802
3735.0,0.009128595198514056
3734.0,0.00939478857608056
3733.0,0.009350411681145587
3732.0,0.009128595198514056
3731.0,0.008951223547323472
3730.0,0.008906891951112605
3729.0,0.008951223547323472
3728.0,0.008906891951112605
3727.0,0.008906891951112605
3726.0,0.00908424549391551
3725.0,0.009306039320248427
3724.0,0.00939478857608056
3723.0,0.009350411681145587
3722.0,0.009261671492462709
3721.0,0.009172949432521227
3720.0,0.009128595198514056
3719.0,0.009039900317800775
3718.0,0.008995559669244813
3717.0,0.008995559669244813
3716.0,0.00908424549391551
3715.0,0.009217308196862062
3714.0,0.009128595198514056
3713.0,0.008906891951112605
3712.0,0.0087296108049002
3711.0,0.008685301823389224
3710.0,0.008773924307505121
3709.0,0.008818242332126802
3708.0,0.008818242332126802
3707.0,0.008818242332126802
3706.0,0.0087296108049002
3705.0,0.008685301823389224
3704.0,0.008596697419959609
3703.0,0.008596697419959609
3702.0,0.008685301823389224
3701.0,0.008773924307505121
3700.0,0.008818242332126802
3699.0,0.008773924307505121
3698.0,0.008685301823389224
3697.0,0.008552401996197112
3696.0,0.008596697419959609
3695.0,0.0087296108049002
3694.0,0.008906891951112605
3693.0,0.008995559669244813
3692.0,0.008995559669244813
3691.0,0.008995559669244813
3690.0,0.009039900317800775
3689.0,0.00908424549391551
3688.0,0.008995559669244813
3687.0,0.008995559669244813
3686.0,0.009039900317800775
3685.0,0.009039900317800775
3684.0,0.009039900317800775
3683.0,0.009039900317800775
3682.0,0.009128595198514056
3681.0,0.009261671492462709
3680.0,0.009350411681145587
3679.0,0.00939478857608056
3678.0,0.00939478857608056
3677.0,0.009217308196862062
3676.0,0.00908424549391551
3675.0,0.009128595198514056
3674.0,0.009350411681145587
3673.0,0.009616741093766423
3672.0,0.009705553871561357
3671.0,0.009616741093766423
3670.0,0.009616741093766423
3669.0,0.00966114521239847
3668.0,0.00966114521239847
3667.0,0.009572341514736404
3666.0,0.009483555971770974
3665.0,0.009350411681145587
3664.0,0.009306039320248427
3663.0,0.009261671492462709
3662.0,0.009261671492462709
3661.0,0.009306039320248427
3660.0,0.009439170005980158
3659.0,0.00966114521239847
3658.0,0.009838807101520963
3657.0,0.009883233932095559
3656.0,0.009838807101520963
3655.0,0.009794384815193347
3654.0,0.009838807101520963
3653.0,0.009838807101520963
3652.0,0.009616741093766423
3651.0,0.009439170005980158
3650.0,0.009838807101520963
3649.0,0.010550182333308289
3648.0,0.010906307389674463
3647.0,0.010817248744452446
3646.0,0.010594681998483901
3645.0,0.01046119667949763
3644.0,0.010416710688994968
3643.0,0.010416710688994968
3642.0,0.01046119667949763
3641.0,0.010505687227290839
3640.0,0.010550182333308289
3639.0,0.010594681998483901
3638.0,0.010683695010048622
3637.0,0.010817248744452446
3636.0,0.010950843561779777
3635.0,0.010950843561779777
3634.0,0.010950843561779777
3633.0,0.011039929609661936
3632.0,0.011218156546359825
3631.0,0.011218156546359825
3630.0,0.011039929609661936
3629.0,0.011084479487313281
3628.0,0.011218156546359825
3627.0,0.011218156546359825
3626.0,0.01117359295472431
3625.0,0.011084479487313281
3624.0,0.011039929609661936
3623.0,0.011084479487313281
3622.0,0.011262724711199823
3621.0,0.011396456654336085
3620.0,0.011530229790124524
3619.0,0.011574829993696856
3618.0,0.011574829993696856
3617.0,0.011574829993696856
3616.0,0.011574829993696856
3615.0,0.011574829993696856
3614.0,0.011619434777991433
3613.0,0.011753276624621556
3612.0,0.011887159731648111
3611.0,0.011931796607364653
3610.0,0.011931796607364653
3609.0,0.011842527443247208
3608.0,0.011708658092512314
3607.0,0.011619434777991433
3606.0,0.011396456654336085
3605.0,0.011218156546359825
3604.0,0.011084479487313281
3603.0,0.011084479487313281
3602.0,0.011218156546359825
3601.0,0.011351874764248926
3600.0,0.011441043121384498
3599.0,0.011441043121384498
3598.0,0.011441043121384498
3597.0,0.011530229790124524
3596.0,0.011664044143949504
3595.0,0.011797899741219142
3594.0,0.011797899741219142
3593.0,0.011797899741219142
3592.0,0.011797899741219142
3591.0,0.011887159731648111
3590.0,0.0119764380713403
3589.0,0.012021084124518078
3588.0,0.012065734767841452
3587.0,0.012065734767841452
3586.0,0.012021084124518078
3585.0,0.011931796607364653
3584.0,0.011931796607364653
3583.0,0.0119764380713403
3582.0,0.012021084124518078
3581.0,0.012065734767841452
3580.0,0.012021084124518078
3579.0,0.011931796607364653
3578.0,0.011842527443247208
3577.0,0.011887159731648111
3576.0,0.0119764380713403
3575.0,0.012065734767841452
3574.0,0.012110390002254778
3573.0,0.012110390002254778
3572.0,0.012199714248127602
3571.0,0.012289056869694281
3570.0,0.012378417874516323
3569.0,0.012378417874516323
3568.0,0.012423105273012602
3567.0,0.01260190086298274
3566.0,0.012825498912458322
3565.0,0.012914970375878188
3564.0,0.012870232340102872
3563.0,0.012825498912458322
3562.0,0.012736045877764557
3561.0,0.012736045877764557
3560.0,0.012736045877764557
3559.0,0.012736045877764557
3558.0,0.012691326268817527
3557.0,0.01264661126420652
3556.0,0.01260190086298274
3555.0,0.01260190086298274
3554.0,0.01260190086298274
3553.0,0.01264661126420652
3552.0,0.012736045877764557
3551.0,0.012780770091995297
3550.0,0.012825498912458322
3549.0,0.012870232340102872
3548.0,0.012959713020733288
3547.0,0.013093968619278806
3546.0,0.01318349541446362
3545.0,0.013273040668781544
3544.0,0.013273040668781544
3543.0,0.013317820220494436
3542.0,0.013362604389846044
3541.0,0.013407393177789162
3540.0,0.013407393177789162
3539.0,0.013452186585275916
3538.0,0.013496984613259544
3537.0,0.013541787262693505
3536.0,0.013541787262693505
3535.0,0.013496984613259544
3534.0,0.013452186585275916
3533.0,0.013407393177789162
3532.0,0.013273040668781544
3531.0,0.01318349541446362
3530.0,0.013093968619278806
3529.0,0.013138729709955221
3528.0,0.013362604389846044
3527.0,0.013631406429727155
3526.0,0.013765869865004277
3525.0,0.013765869865004277
3524.0,0.013631406429727155
3523.0,0.013452186585275916
3522.0,0.013407393177789162
3521.0,0.013362604389846044
3520.0,0.013362604389846044
3519.0,0.013317820220494436
3518.0,0.013273040668781544
3517.0,0.01322826573375524
3516.0,0.01318349541446362
3515.0,0.01318349541446362
3514.0,0.01318349541446362
3513.0,0.01322826573375524
3512.0,0.013273040668781544
3511.0,0.013273040668781544
3510.0,0.01322826573375524
3509.0,0.01318349541446362
3508.0,0.01322826573375524
3507.0,0.013317820220494436
3506.0,0.013407393177789162
3505.0,0.013541787262693505
3504.0,0.013631406429727155
3503.0,0.01372104409400876
3502.0,0.01385553528947936
3501.0,0.013900374944870508
3500.0,0.01381070026317599
3499.0,0.013631406429727155
3498.0,0.013407393177789162
3497.0,0.013317820220494436
3496.0,0.013362604389846044
3495.0,0.013452186585275916
3494.0,0.013496984613259544
3493.0,0.013452186585275916
3492.0,0.013362604389846044
3491.0,0.013273040668781544
3490.0,0.01322826573375524
3489.0,0.01322826573375524
3488.0,0.01322826573375524
3487.0,0.01318349541446362
3486.0,0.01318349541446362
3485.0,0.01318349541446362
3484.0,0.01322826573375524
3483.0,0.013317820220494436
3482.0,0.013452186585275916
3481.0,0.013586594534531482
3480.0,0.013676222949234651
3479.0,0.013676222949234651
3478.0,0.013586594534531482
3477.0,0.013496984613259544
3476.0,0.013407393177789162
3475.0,0.013362604389846044
3474.0,0.013407393177789162
3473.0,0.013541787262693505
3472.0,0.013676222949234651
3471.0,0.013765869865004277
3470.0,0.01372104409400876
3469.0,0.013586594534531482
3468.0,0.013452186585275916
3467.0,0.013362604389846044
3466.0,0.013317820220494436
3465.0,0.013362604389846044
3464.0,0.013496984613259544
3463.0,0.013631406429727155
3462.0,0.013676222949234651
3461.0,0.013765869865004277
3460.0,0.01381070026317599
3459.0,0.01385553528947936
3458.0,0.013900374944870508
3457.0,0.013945219230304673
3456.0,0.013945219230304673
3455.0,0.013945219230304673
3454.0,0.01403492169512921
3453.0,0.014124642691606404
3452.0,0.014304140310157809
3451.0,0.014438812226654996
3450.0,0.014573525916998342
3449.0,0.014573525916998342
3448.0,0.01452861671041239
3447.0,0.0144837121472845
3446.0,0.014573525916998342
3445.0,0.014753209197138295
3444.0,0.015022873584506602
3443.0,0.015202742910707112
3442.0,0.015292705517326866
3441.0,0.015247721884586563
3440.0,0.015247721884586563
3439.0,0.015247721884586563
3438.0,0.015247721884586563
3437.0,0.015247721884586563
3436.0,0.015202742910707112
3435.0,0.015247721884586563
3434.0,0.015337693809893471
3433.0,0.015517693597737248
3432.0,0.015742798294583915
3431.0,0.015922966097169144
3430.0,0.01596801972881945
3429.0,0.015877917138889863
3428.0,0.015742798294583915
3427.0,0.015697768020096703
3426.0,0.015697768020096703
3425.0,0.015742798294583915
3424.0,0.015832872853011715
3423.0,0.01578783323856614
3422.0,0.015652742414136167
3421.0,0.015517693597737248
3420.0,0.015337693809893471
3419.0,0.015247721884586563
3418.0,0.015157768594724175
3417.0,0.015112798935672522
3416.0,0.015112798935672522
3415.0,0.015067833932588037
3414.0,0.015022873584506602
3413.0,0.014977917890464765
3412.0,0.015022873584506602
3411.0,0.015022873584506602
3410.0,0.015022873584506602
3409.0,0.014888020460646079
3408.0,0.014708281407112
3407.0,0.014573525916998342
3406.0,0.0144837121472845
3405.0,0.0144837121472845
3404.0,0.0144837121472845
3403.0,0.014393916947563534
3402.0,0.014304140310157809
3401.0,0.014259258949925524
3400.0,0.014214382227394795
3399.0,0.014214382227394795
3398.0,0.014304140310157809
3397.0,0.014349026309051105
3396.0,0.014349026309051105
3395.0,0.014304140310157809
3394.0,0.014259258949925524
3393.0,0.014304140310157809
3392.0,0.014304140310157809
3391.0,0.014349026309051105
3390.0,0.014304140310157809
3389.0,0.014304140310157809
3388.0,0.014349026309051105
3387.0,0.014349026309051105
3386.0,0.014349026309051105
3385.0,0.014304140310157809
3384.0,0.014259258949925524
3383.0,0.014169510141607944
3382.0,0.014079779876432497
3381.0,0.013990068146738865
3380.0,0.013900374944870508
3379.0,0.013945219230304673
3378.0,0.013990068146738865
3377.0,0.014124642691606404
3376.0,0.014259258949925524
3375.0,0.014393916947563534
3374.0,0.014438812226654996
3373.0,0.014393916947563534
3372.0,0.014304140310157809
3371.0,0.014259258949925524
3370.0,0.014259258949925524
3369.0,0.014259258949925524
3368.0,0.014304140310157809
3367.0,0.014304140310157809
3366.0,0.014349026309051105
3365.0,0.014393916947563534
3364.0,0.014438812226654996
3363.0,0.014393916947563534
3362.0,0.014349026309051105
3361.0,0.014259258949925524
3360.0,0.014214382227394795
3359.0,0.014124642691606404
3358.0,0.014079779876432497
3357.0,0.01403492169512921
3356.0,0.014079779876432497
3355.0,0.014169510141607944
3354.0,0.014304140310157809
3353.0,0.014349026309051105
3352.0,0.014349026309051105
3351.0,0.014214382227394795
3350.0,0.014079779876432497
3349.0,0.013990068146738865
3348.0,0.013990068146738865
3347.0,0.014124642691606404
3346.0,0.014304140310157809
3345.0,0.014438812226654996
3344.0,0.01452861671041239
3343.0,0.014573525916998342
3342.0,0.01452861671041239
3341.0,0.0144837121472845
3340.0,0.014438812226654996
3339.0,0.014349026309051105
3338.0,0.014259258949925524
3337.0,0.014259258949925524
3336.0,0.014304140310157809
3335.0,0.014438812226654996
3334.0,0.0144837121472845
3333.0,0.014438812226654996
3332.0,0.014304140310157809
3331.0,0.014124642691606404
3330.0,0.01403492169512921
3329.0,0.01403492169512921
3328.0,0.014079779876432497
3327.0,0.014124642691606404
3326.0,0.014169510141607944
3325.0,0.014169510141607944
3324.0,0.014169510141607944
3323.0,0.014214382227394795
3322.0,0.014259258949925524
3321.0,0.014349026309051105
3320.0,0.014393916947563534
3319.0,0.014349026309051105
3318.0,0.014304140310157809
3317.0,0.014304140310157809
3316.0,0.014304140310157809
3315.0,0.014349026309051105
3314.0,0.014438812226654996
3313.0,0.0144837121472845
3312.0,0.01452861671041239
3311.0,0.01452861671041239
3310.0,0.0144837121472845
3309.0,0.014438812226654996
3308.0,0.014349026309051105
3307.0,0.014259258949925524
3306.0,0.014124642691606404
3305.0,0.01403492169512921
3304.0,0.013990068146738865
3303.0,0.013990068146738865
3302.0,0.01403492169512921
3301.0,0.014079779876432497
3300.0,0.014079779876432497
3299.0,0.014079779876432497
3298.0,0.014079779876432497
3297.0,0.014124642691606404
3296.0,0.014124642691606404
3295.0,0.014169510141607944
3294.0,0.014214382227394795
3293.0,0.014259258949925524
3292.0,0.014349026309051105
3291.0,0.014438812226654996
3290.0,0.0144837121472845
3289.0,0.0144837121472845
3288.0,0.01452861671041239
3287.0,0.01452861671041239
3286.0,0.014573525916998342
3285.0,0.01452861671041239
3284.0,0.0144837121472845
3283.0,0.014438812226654996
3282.0,0.014349026309051105
3281.0,0.014259258949925524
3280.0,0.014214382227394795
3279.0,0.014169510141607944
3278.0,0.014214382227394795
3277.0,0.014214382227394795
3276.0,0.014259258949925524
3275.0,0.014259258949925524
3274.0,0.014349026309051105
3273.0,0.014438812226654996
3272.0,0.0144837121472845
3271.0,0.014438812226654996
3270.0,0.014349026309051105
3269.0,0.014349026309051105
3268.0,0.014349026309051105
3267.0,0.014393916947563534
3266.0,0.014438812226654996
3265.0,0.014393916947563534
3264.0,0.014349026309051105
3263.0,0.014304140310157809
3262.0,0.014259258949925524
3261.0,0.014214382227394795
3260.0,0.014169510141607944
3259.0,0.014124642691606404
3258.0,0.014214382227394795
3257.0,0.014304140310157809
3256.0,0.014438812226654996
3255.0,0.0144837121472845
3254.0,0.01452861671041239
3253.0,0.0144837121472845
3252.0,0.014438812226654996
3251.0,0.014438812226654996
3250.0,0.014438812226654996
3249.0,0.0144837121472845
3248.0,0.01452861671041239
3247.0,0.01452861671041239
3246.0,0.01452861671041239
3245.0,0.014573525916998342
3244.0,0.014573525916998342
3243.0,0.014573525916998342
3242.0,0.014573525916998342
3241.0,0.01452861671041239
3240.0,0.01452861671041239
3239.0,0.0144837121472845
3238.0,0.014349026309051105
3237.0,0.014259258949925524
3236.0,0.014214382227394795
3235.0,0.014259258949925524
3234.0,0.014304140310157809
3233.0,0.014393916947563534
3232.0,0.0144837121472845
3231.0,0.0144837121472845
3230.0,0.0144837121472845
3229.0,0.014438812226654996
3228.0,0.014438812226654996
3227.0,0.014393916947563534
3226.0,0.014349026309051105
3225.0,0.014349026309051105
3224.0,0.014393916947563534
3223.0,0.0144837121472845
3222.0,0.01452861671041239
3221.0,0.01452861671041239
3220.0,0.01452861671041239
3219.0,0.0144837121472845
3218.0,0.01452861671041239
3217.0,0.014573525916998342
3216.0,0.014663358264387139
3215.0,0.014708281407112
3214.0,0.014753209197138295
3213.0,0.014708281407112
3212.0,0.014573525916998342
3211.0,0.014438812226654996
3210.0,0.014304140310157809
3209.0,0.014214382227394795
3208.0,0.014214382227394795
3207.0,0.014214382227394795
3206.0,0.014304140310157809
3205.0,0.014393916947563534
3204.0,0.0144837121472845
3203.0,0.0144837121472845
3202.0,0.014438812226654996
3201.0,0.014349026309051105
3200.0,0.014259258949925524
3199.0,0.014169510141607944
3198.0,0.014214382227394795
3197.0,0.014304140310157809
3196.0,0.01452861671041239
3195.0,0.014708281407112
3194.0,0.014798141635428141
3193.0,0.014708281407112
3192.0,0.014573525916998342
3191.0,0.014438812226654996
3190.0,0.014349026309051105
3189.0,0.014393916947563534
3188.0,0.014393916947563534
3187.0,0.014349026309051105
3186.0,0.014214382227394795
3185.0,0.014124642691606404
3184.0,0.01403492169512921
3183.0,0.014079779876432497
3182.0,0.014169510141607944
3181.0,0.014214382227394795
3180.0,0.014214382227394795
3179.0,0.014169510141607944
3178.0,0.014169510141607944
3177.0,0.014169510141607944
3176.0,0.014214382227394795
3175.0,0.014259258949925524
3174.0,0.014259258949925524
3173.0,0.014259258949925524
3172.0,0.014304140310157809
3171.0,0.014349026309051105
3170.0,0.014393916947563534
3169.0,0.0144837121472845
3168.0,0.01452861671041239
3167.0,0.01452861671041239
3166.0,0.014393916947563534
3165.0,0.014214382227394795
3164.0,0.01403492169512921
3163.0,0.013945219230304673
3162.0,0.013945219230304673
3161.0,0.013990068146738865
3160.0,0.014079779876432497
3159.0,0.014169510141607944
3158.0,0.014304140310157809
3157.0,0.014393916947563534
3156.0,0.0144837121472845
3155.0,0.0144837121472845
3154.0,0.014438812226654996
3153.0,0.014349026309051105
3152.0,0.014304140310157809
3151.0,0.014259258949925524
3150.0,0.014214382227394795
3149.0,0.014214382227394795
3148.0,0.014214382227394795
3147.0,0.014214382227394795
3146.0,0.014214382227394795
3145.0,0.014259258949925524
3144.0,0.014304140310157809
3143.0,0.014259258949925524
3142.0,0.014169510141607944
3141.0,0.014079779876432497
3140.0,0.01403492169512921
3139.0,0.014079779876432497
3138.0,0.014169510141607944
3137.0,0.014259258949925524
3136.0,0.014304140310157809
3135.0,0.014349026309051105
3134.0,0.014349026309051105
3133.0,0.014349026309051105
3132.0,0.014304140310157809
3131.0,0.014259258949925524
3130.0,0.014214382227394795
3129.0,0.014214382227394795
3128.0,0.014214382227394795
3127.0,0.014304140310157809
3126.0,0.0144837121472845
3125.0,0.014618439768003144
3124.0,0.014708281407112
3123.0,0.014618439768003144
3122.0,0.01452861671041239
3121.0,0.014393916947563534
3120.0,0.014393916947563534
3119.0,0.014393916947563534
3118.0,0.014438812226654996
3117.0,0.0144837121472845
3116.0,0.01452861671041239
3115.0,0.01452861671041239
3114.0,0.014618439768003144
3113.0,0.014753209197138295
3112.0,0.014977917890464765
3111.0,0.015157768594724175
3110.0,0.015292705517326866
3109.0,0.01538268676325183
3108.0,0.01547268665620738
3107.0,0.015562705203923999
3106.0,0.015562705203923999
3105.0,0.015517693597737248
3104.0,0.015427684378367834
3103.0,0.015292705517326866
3102.0,0.015157768594724175
3101.0,0.015022873584506602
3100.0,0.014977917890464765
3099.0,0.014977917890464765
3098.0,0.015022873584506602
3097.0,0.015067833932588037
3096.0,0.015022873584506602
3095.0,0.014932966849499074
3094.0,0.014843078722943437
3093.0,0.014753209197138295
3092.0,0.014798141635428141
3091.0,0.014932966849499074
3090.0,0.015067833932588037
3089.0,0.015157768594724175
3088.0,0.015247721884586563
3087.0,0.015337693809893471
3086.0,0.01547268665620738
3085.0,0.015607721475734415
3084.0,0.015742798294583915
3083.0,0.015832872853011715
3082.0,0.015922966097169144
3081.0,0.015922966097169144
3080.0,0.015922966097169144
3079.0,0.015877917138889863
3078.0,0.01578783323856614
3077.0,0.015652742414136167
3076.0,0.015517693597737248
3075.0,0.01547268665620738
3074.0,0.01547268665620738
3073.0,0.015562705203923999
3072.0,0.015697768020096703
3071.0,0.01578783323856614
3070.0,0.015832872853011715
3069.0,0.015877917138889863
3068.0,0.015877917138889863
3067.0,0.015877917138889863
3066.0,0.015832872853011715
3065.0,0.015832872853011715
3064.0,0.01578783323856614
3063.0,0.015742798294583915
3062.0,0.015742798294583915
3061.0,0.015742798294583915
3060.0,0.01578783323856614
3059.0,0.015877917138889863
3058.0,0.01596801972881945
3057.0,0.016058141016111804
3056.0,0.016103208673694303
3055.0,0.016103208673694303
3054.0,0.016103208673694303
3053.0,0.016058141016111804
3052.0,0.016013078034810446
3051.0,0.015922966097169144
3050.0,0.015742798294583915
3049.0,0.015517693597737248
3048.0,0.015247721884586563
3047.0,0.014977917890464765
3046.0,0.014798141635428141
3045.0,0.014708281407112
3044.0,0.014573525916998342
3043.0,0.014438812226654996
3042.0,0.014349026309051105
3041.0,0.014214382227394795
3040.0,0.014079779876432497
3039.0,0.013945219230304673
3038.0,0.01385553528947936
3037.0,0.01381070026317599
3036.0,0.01385553528947936
3035.0,0.01385553528947936
3034.0,0.01381070026317599
3033.0,0.01372104409400876
3032.0,0.013676222949234651
3031.0,0.013631406429727155
3030.0,0.013586594534531482
3029.0,0.013586594534531482
3028.0,0.013631406429727155
3027.0,0.01372104409400876
3026.0,0.013765869865004277
3025.0,0.01381070026317599
3024.0,0.01385553528947936
3023.0,0.01385553528947936
3022.0,0.013900374944870508
3021.0,0.013900374944870508
3020.0,0.013900374944870508
3019.0,0.013900374944870508
3018.0,0.013900374944870508
3017.0,0.013945219230304673
3016.0,0.01403492169512921
3015.0,0.014169510141607944
3014.0,0.014304140310157809
3013.0,0.014393916947563534
3012.0,0.014438812226654996
3011.0,0.014393916947563534
3010.0,0.014393916947563534
3009.0,0.014393916947563534
3008.0,0.014438812226654996
3007.0,0.01452861671041239
3006.0,0.014573525916998342
3005.0,0.014573525916998342
3004.0,0.014618439768003144
3003.0,0.014663358264387139
3002.0,0.014708281407112
3001.0,0.014798141635428141
3000.0,0.014798141635428141
2999.0,0.014798141635428141
2998.0,0.014753209197138295
2997.0,0.014708281407112
2996.0,0.014663358264387139
2995.0,0.014708281407112
2994.0,0.014843078722943437
2993.0,0.014977917890464765
2992.0,0.015112798935672522
2991.0,0.015247721884586563
2990.0,0.015337693809893471
2989.0,0.015427684378367834
2988.0,0.015562705203923999
2987.0,0.015697768020096703
2986.0,0.015832872853011715
2985.0,0.016058141016111804
2984.0,0.016373712875465518
2983.0,0.016734647433454652
2982.0,0.016960383953898095
2981.0,0.017095882207371904
2980.0,0.017186237868137555
2979.0,0.01727661233145472
2978.0,0.017457417697056554
2977.0,0.017774008325325275
2976.0,0.018226681372252695
2975.0,0.018679826740892747
2974.0,0.019042683770379876
2973.0,0.019360432556262852
2972.0,0.019678413991243593
2971.0,0.019996628416253603
2970.0,0.020315076172974234
2969.0,0.02058821736556471
2968.0,0.020907099361673565
2967.0,0.0211806132671577
2966.0,0.0214542995372613
2965.0,0.021819483062586187
2964.0,0.022230681908425698
2963.0,0.02259651912656535
2962.0,0.022871099419317753
2961.0,0.023054249440757957
2960.0,0.023191662661933732
2959.0,0.023237476732539397
2958.0,0.023283295636617574
2957.0,0.023329119375188556
2956.0,0.023374947949272418
2955.0,0.023374947949272418
2954.0,0.023283295636617574
2953.0,0.023054249440757957
2952.0,0.022688026603074007
2951.0,0.02227639471115217
2950.0,0.021865152601710403
2949.0,0.0214542995372613
2948.0,0.021043834782408455
2947.0,0.02058821736556471
2946.0,0.02013307743509718
2945.0,0.019632973815224997
2944.0,0.0192242260373785
2943.0,0.018861217359339655
2942.0,0.01845319495476394
2941.0,0.01809082990920774
2940.0,0.017774008325325275
2939.0,0.017457417697056554
2938.0,0.017186237868137555
2937.0,0.016915227262211507
2936.0,0.016644385668211692
2935.0,0.016418813294209356
2934.0,0.016238439713835096
2933.0,0.016058141016111804
2932.0,0.015877917138889863
2931.0,0.015697768020096703
2930.0,0.015562705203923999
2929.0,0.015517693597737248
2928.0,0.015562705203923999
2927.0,0.015562705203923999
2926.0,0.015517693597737248
2925.0,0.015337693809893471
2924.0,0.015202742910707112
2923.0,0.015022873584506602
2922.0,0.014932966849499074
2921.0,0.014888020460646079
2920.0,0.014798141635428141
2919.0,0.014753209197138295
2918.0,0.014753209197138295
2917.0,0.014753209197138295
2916.0,0.014798141635428141
2915.0,0.014798141635428141
2914.0,0.014843078722943437
2913.0,0.014932966849499074
2912.0,0.015067833932588037
2911.0,0.015157768594724175
2910.0,0.015247721884586563
2909.0,0.015247721884586563
2908.0,0.015292705517326866
2907.0,0.015292705517326866
2906.0,0.015292705517326866
2905.0,0.015247721884586563
2904.0,0.015202742910707112
2903.0,0.015067833932588037
2902.0,0.014977917890464765
2901.0,0.014977917890464765
2900.0,0.015067833932588037
2899.0,0.015247721884586563
2898.0,0.01538268676325183
2897.0,0.015562705203923999
2896.0,0.015697768020096703
2895.0,0.015877917138889863
2894.0,0.016058141016111804
2893.0,0.016193358021584725
2892.0,0.01628352608625061
2891.0,0.01628352608625061
2890.0,0.016238439713835096
2889.0,0.016193358021584725
2888.0,0.016103208673694303
2887.0,0.016058141016111804
2886.0,0.016013078034810446
2885.0,0.01596801972881945
2884.0,0.015922966097169144
2883.0,0.015922966097169144
2882.0,0.015877917138889863
2881.0,0.015832872853011715
2880.0,0.015742798294583915
2879.0,0.015652742414136167
2878.0,0.015562705203923999
2877.0,0.015562705203923999
2876.0,0.015607721475734415
2875.0,0.015607721475734415
2874.0,0.015607721475734415
2873.0,0.015607721475734415
2872.0,0.01547268665620738
2871.0,0.015337693809893471
2870.0,0.015202742910707112
2869.0,0.015112798935672522
2868.0,0.015022873584506602
2867.0,0.014977917890464765
2866.0,0.014977917890464765
2865.0,0.015022873584506602
2864.0,0.015067833932588037
2863.0,0.015112798935672522
2862.0,0.015202742910707112
2861.0,0.015247721884586563
2860.0,0.015292705517326866
2859.0,0.015247721884586563
2858.0,0.015202742910707112
2857.0,0.015112798935672522
2856.0,0.015067833932588037
2855.0,0.015022873584506602
2854.0,0.014977917890464765
2853.0,0.014888020460646079
2852.0,0.014888020460646079
2851.0,0.014932966849499074
2850.0,0.014932966849499074
2849.0,0.014977917890464765
2848.0,0.014932966849499074
2847.0,0.014888020460646079
2846.0,0.014888020460646079
2845.0,0.014843078722943437
2844.0,0.014753209197138295
2843.0,0.014618439768003144
2842.0,0.014438812226654996
2841.0,0.014304140310157809
2840.0,0.014214382227394795
2839.0,0.014169510141607944
2838.0,0.014124642691606404
2837.0,0.014079779876432497
2836.0,0.014079779876432497
2835.0,0.014079779876432497
2834.0,0.014079779876432497
2833.0,0.014079779876432497
2832.0,0.014079779876432497
2831.0,0.014079779876432497
2830.0,0.01403492169512921
2829.0,0.013945219230304673
2828.0,0.013900374944870508
2827.0,0.01385553528947936
2826.0,0.01385553528947936
2825.0,0.01381070026317599
2824.0,0.01372104409400876
2823.0,0.013631406429727155
2822.0,0.013586594534531482
2821.0,0.013586594534531482
2820.0,0.013676222949234651
2819.0,0.01372104409400876
2818.0,0.01372104409400876
2817.0,0.013676222949234651
2816.0,0.013631406429727155
2815.0,0.013586594534531482
2814.0,0.013541787262693505
2813.0,0.013496984613259544
2812.0,0.013496984613259544
2811.0,0.013452186585275916
2810.0,0.013452186585275916
2809.0,0.013407393177789162
2808.0,0.013452186585275916
2807.0,0.013496984613259544
2806.0,0.013541787262693505
2805.0,0.013631406429727155
2804.0,0.013676222949234651
2803.0,0.013676222949234651
2802.0,0.013586594534531482
2801.0,0.013362604389846044
2800.0,0.013138729709955221
2799.0,0.013049212141483357
2798.0,0.013049212141483357
2797.0,0.013093968619278806
2796.0,0.013138729709955221
2795.0,0.01318349541446362
2794.0,0.01318349541446362
2793.0,0.01318349541446362
2792.0,0.01322826573375524
2791.0,0.01322826573375524
2790.0,0.01318349541446362
2789.0,0.013093968619278806
2788.0,0.013004460275618523
2787.0,0.012959713020733288
2786.0,0.012959713020733288
2785.0,0.013004460275618523
2784.0,0.013004460275618523
2783.0,0.013004460275618523
2782.0,0.013004460275618523
2781.0,0.013004460275618523
2780.0,0.013049212141483357
2779.0,0.013049212141483357
2778.0,0.013138729709955221
2777.0,0.01318349541446362
2776.0,0.01318349541446362
2775.0,0.013138729709955221
2774.0,0.013004460275618523
2773.0,0.012870232340102872
2772.0,0.012870232340102872
2771.0,0.012914970375878188
2770.0,0.013049212141483357
2769.0,0.013138729709955221
2768.0,0.01318349541446362
2767.0,0.013138729709955221
2766.0,0.013049212141483357
2765.0,0.012959713020733288
2764.0,0.012870232340102872
2763.0,0.012780770091995297
2762.0,0.012736045877764557
2761.0,0.012780770091995297
2760.0,0.012870232340102872
2759.0,0.012914970375878188
2758.0,0.012914970375878188
2757.0,0.012870232340102872
2756.0,0.012825498912458322
2755.0,0.012780770091995297
2754.0,0.012780770091995297
2753.0,0.012780770091995297
2752.0,0.012780770091995297
2751.0,0.012736045877764557
2750.0,0.012691326268817527
2749.0,0.01264661126420652
2748.0,0.01264661126420652
2747.0,0.01264661126420652
2746.0,0.01264661126420652
2745.0,0.01264661126420652
2744.0,0.01264661126420652
2743.0,0.01264661126420652
2742.0,0.01264661126420652
2741.0,0.012691326268817527
2740.0,0.012691326268817527
2739.0,0.01264661126420652
2738.0,0.012512493866907004
2737.0,0.012423105273012602
2736.0,0.012378417874516323
2735.0,0.012467797270160563
2734.0,0.01260190086298274
2733.0,0.01264661126420652
2732.0,0.01260190086298274
2731.0,0.012467797270160563
2730.0,0.012333735073725371
2729.0,0.012244383261476699
2728.0,0.012199714248127602
2727.0,0.012199714248127602
2726.0,0.012199714248127602
2725.0,0.01215504982870197
2724.0,0.012110390002254778
2723.0,0.012021084124518078
2722.0,0.0119764380713403
2721.0,0.012021084124518078
2720.0,0.01215504982870197
2719.0,0.012244383261476699
2718.0,0.012199714248127602
2717.0,0.01215504982870197
2716.0,0.012110390002254778
2715.0,0.012065734767841452
2714.0,0.012065734767841452
2713.0,0.012065734767841452
2712.0,0.012065734767841452
2711.0,0.012110390002254778
2710.0,0.012110390002254778
2709.0,0.012065734767841452
2708.0,0.012065734767841452
2707.0,0.012021084124518078
2706.0,0.0119764380713403
2705.0,0.011931796607364653
2704.0,0.011931796607364653
2703.0,0.011931796607364653
2702.0,0.011931796607364653
2701.0,0.011931796607364653
2700.0,0.011931796607364653
2699.0,0.011931796607364653
2698.0,0.011887159731648111
2697.0,0.011842527443247208
2696.0,0.011797899741219142
2695.0,0.011753276624621556
2694.0,0.011664044143949504
2693.0,0.011619434777991433
2692.0,0.011485634166333858
2691.0,0.011441043121384498
2690.0,0.011441043121384498
2689.0,0.011485634166333858
2688.0,0.011485634166333858
2687.0,0.011485634166333858
2686.0,0.011441043121384498
2685.0,0.011485634166333858
2684.0,0.011574829993696856
2683.0,0.011619434777991433
2682.0,0.011619434777991433
2681.0,0.011574829993696856
2680.0,0.011530229790124524
2679.0,0.011530229790124524
2678.0,0.011619434777991433
2677.0,0.011664044143949504
2676.0,0.011708658092512314
2675.0,0.011619434777991433
2674.0,0.011485634166333858
2673.0,0.011396456654336085
2672.0,0.011351874764248926
2671.0,0.011307297450183107
2670.0,0.011307297450183107
2669.0,0.011262724711199823
2668.0,0.011218156546359825
2667.0,0.011218156546359825
2666.0,0.011262724711199823
2665.0,0.011262724711199823
2664.0,0.011351874764248926
2663.0,0.011441043121384498
2662.0,0.011485634166333858
2661.0,0.011530229790124524
2660.0,0.011574829993696856
2659.0,0.011530229790124524
2658.0,0.011485634166333858
2657.0,0.011351874764248926
2656.0,0.011307297450183107
2655.0,0.011307297450183107
2654.0,0.011351874764248926
2653.0,0.011396456654336085
2652.0,0.011441043121384498
2651.0,0.011396456654336085
2650.0,0.011351874764248926
2649.0,0.011307297450183107
2648.0,0.011262724711199823
2647.0,0.011218156546359825
2646.0,0.011262724711199823
2645.0,0.011307297450183107
2644.0,0.011351874764248926
2643.0,0.011307297450183107
2642.0,0.011218156546359825
2641.0,0.011084479487313281
2640.0,0.010950843561779777
2639.0,0.010906307389674463
2638.0,0.010950843561779777
2637.0,0.011084479487313281
2636.0,0.011262724711199823
2635.0,0.011396456654336085
2634.0,0.011485634166333858
2633.0,0.011530229790124524
2632.0,0.011530229790124524
2631.0,0.011530229790124524
2630.0,0.011485634166333858
2629.0,0.011485634166333858
2628.0,0.011441043121384498
2627.0,0.011396456654336085
2626.0,0.011307297450183107
2625.0,0.011218156546359825
2624.0,0.01117359295472431
2623.0,0.011129033935354915
2622.0,0.011129033935354915
2621.0,0.011129033935354915
2620.0,0.011129033935354915
2619.0,0.011129033935354915
2618.0,0.011129033935354915
2617.0,0.011084479487313281
2616.0,0.011129033935354915
2615.0,0.01117359295472431
2614.0,0.011218156546359825
2613.0,0.01117359295472431
2612.0,0.01117359295472431
2611.0,0.011129033935354915
2610.0,0.01117359295472431
2609.0,0.011218156546359825
2608.0,0.011262724711199823
2607.0,0.011307297450183107
2606.0,0.011262724711199823
2605.0,0.01117359295472431
2604.0,0.01117359295472431
2603.0,0.01117359295472431
2602.0,0.01117359295472431
2601.0,0.01117359295472431
2600.0,0.01117359295472431
2599.0,0.01117359295472431
2598.0,0.01117359295472431
2597.0,0.011129033935354915
2596.0,0.011129033935354915
2595.0,0.011084479487313281
2594.0,0.011039929609661936
2593.0,0.010995384301463185
2592.0,0.010950843561779777
2591.0,0.010950843561779777
2590.0,0.010906307389674463
2589.0,0.010906307389674463
2588.0,0.010906307389674463
2587.0,0.010950843561779777
2586.0,0.010995384301463185
2585.0,0.011039929609661936
2584.0,0.011039929609661936
2583.0,0.010995384301463185
2582.0,0.010995384301463185
2581.0,0.011039929609661936
2580.0,0.011129033935354915
2579.0,0.011262724711199823
2578.0,0.011307297450183107
2577.0,0.011307297450183107
2576.0,0.011307297450183107
2575.0,0.011262724711199823
2574.0,0.011307297450183107
2573.0,0.011307297450183107
2572.0,0.011396456654336085
2571.0,0.011396456654336085
2570.0,0.011396456654336085
2569.0,0.011351874764248926
2568.0,0.011262724711199823
2567.0,0.011262724711199823
2566.0,0.011218156546359825
2565.0,0.011218156546359825
2564.0,0.01117359295472431
2563.0,0.01117359295472431
2562.0,0.011129033935354915
2561.0,0.01117359295472431
2560.0,0.011218156546359825
2559.0,0.011262724711199823
2558.0,0.011307297450183107
2557.0,0.011307297450183107
2556.0,0.011262724711199823
2555.0,0.011218156546359825
2554.0,0.011262724711199823
2553.0,0.011307297450183107
2552.0,0.011307297450183107
2551.0,0.011262724711199823
2550.0,0.011218156546359825
2549.0,0.011129033935354915
2548.0,0.011129033935354915
2547.0,0.011129033935354915
2546.0,0.011129033935354915
2545.0,0.011039929609661936
2544.0,0.011039929609661936
2543.0,0.011084479487313281
2542.0,0.011129033935354915
2541.0,0.01117359295472431
2540.0,0.01117359295472431
2539.0,0.01117359295472431
2538.0,0.011084479487313281
2537.0,0.011039929609661936
2536.0,0.010995384301463185
2535.0,0.010950843561779777
2534.0,0.010995384301463185
2533.0,0.011039929609661936
2532.0,0.011039929609661936
2531.0,0.011084479487313281
2530.0,0.011039929609661936
2529.0,0.010995384301463185
2528.0,0.010950843561779777
2527.0,0.010906307389674463
2526.0,0.01086177578421088
2525.0,0.01086177578421088
2524.0,0.010906307389674463
2523.0,0.010906307389674463
2522.0,0.010906307389674463
2521.0,0.010906307389674463
2520.0,0.010906307389674463
2519.0,0.010950843561779777
2518.0,0.010995384301463185
2517.0,0.010950843561779777
2516.0,0.010950843561779777
2515.0,0.010995384301463185
2514.0,0.011039929609661936
2513.0,0.011039929609661936
2512.0,0.010995384301463185
2511.0,0.010950843561779777
2510.0,0.010906307389674463
2509.0,0.010817248744452446
2508.0,0.01077272626946324
2507.0,0.010728208358306901
2506.0,0.010683695010048622
2505.0,0.010683695010048622
2504.0,0.010639186223752484
2503.0,0.010550182333308289
2502.0,0.010505687227290839
2501.0,0.010505687227290839
2500.0,0.010550182333308289
2499.0,0.010594681998483901
2498.0,0.010683695010048622
2497.0,0.010683695010048622
2496.0,0.010639186223752484
2495.0,0.010639186223752484
2494.0,0.010639186223752484
2493.0,0.010683695010048622
2492.0,0.010683695010048622
2491.0,0.010683695010048622
2490.0,0.010639186223752484
2489.0,0.010594681998483901
2488.0,0.010550182333308289
2487.0,0.01046119667949763
2486.0,0.01037222925484893
2485.0,0.010283280051895272
2484.0,0.01023881228122181
2483.0,0.01023881228122181
2482.0,0.010283280051895272
2481.0,0.010283280051895272
2480.0,0.01023881228122181
2479.0,0.010194349063173958
2478.0,0.010149890396819572
2477.0,0.010105436281226954
2476.0,0.010105436281226954
2475.0,0.010105436281226954
2474.0,0.010105436281226954
2473.0,0.010105436281226954
2472.0,0.010149890396819572
2471.0,0.010149890396819572
2470.0,0.010149890396819572
2469.0,0.010149890396819572
2468.0,0.010105436281226954
2467.0,0.010060986715464404
2466.0,0.009972101229705377
2465.0,0.009927665307847056
2464.0,0.009838807101520963
2463.0,0.009794384815193347
2462.0,0.00974996707218323
2461.0,0.00974996707218323
2460.0,0.00974996707218323
2459.0,0.00974996707218323
2458.0,0.00974996707218323
2457.0,0.00974996707218323
2456.0,0.009838807101520963
2455.0,0.009883233932095559
2454.0,0.009927665307847056
2453.0,0.009927665307847056
2452.0,0.009883233932095559
2451.0,0.009838807101520963
2450.0,0.00974996707218323
2449.0,0.009705553871561357
2448.0,0.009705553871561357
2447.0,0.00966114521239847
2446.0,0.009616741093766423
2445.0,0.009572341514736404
2444.0,0.009572341514736404
2443.0,0.00966114521239847
2442.0,0.00974996707218323
2441.0,0.009794384815193347
2440.0,0.00974996707218323
2439.0,0.00966114521239847
2438.0,0.00966114521239847
2437.0,0.00966114521239847
2436.0,0.009705553871561357
2435.0,0.009705553871561357
2434.0,0.009705553871561357
2433.0,0.009616741093766423
2432.0,0.009616741093766423
2431.0,0.009705553871561357
2430.0,0.009794384815193347
2429.0,0.009883233932095559
2428.0,0.009927665307847056
2427.0,0.009883233932095559
2426.0,0.009838807101520963
2425.0,0.009838807101520963
2424.0,0.009838807101520963
2423.0,0.009838807101520963
2422.0,0.009794384815193347
2421.0,0.009794384815193347
2420.0,0.009794384815193347
2419.0,0.009838807101520963
2418.0,0.009838807101520963
2417.0,0.009794384815193347
2416.0,0.00974996707218323
2415.0,0.00974996707218323
2414.0,0.009794384815193347
2413.0,0.009883233932095559
2412.0,0.009972101229705377
2411.0,0.01001654169860089
2410.0,0.010060986715464404
2409.0,0.010060986715464404
2408.0,0.010060986715464404
2407.0,0.010105436281226954
2406.0,0.010105436281226954
2405.0,0.010149890396819572
2404.0,0.010194349063173958
2403.0,0.010194349063173958
2402.0,0.010105436281226954
2401.0,0.01001654169860089
2400.0,0.009972101229705377
2399.0,0.009972101229705377
2398.0,0.01001654169860089
2397.0,0.010105436281226954
2396.0,0.010105436281226954
2395.0,0.010105436281226954
2394.0,0.010105436281226954
2393.0,0.010105436281226954
2392.0,0.010105436281226954
2391.0,0.010105436281226954
2390.0,0.010105436281226954
2389.0,0.010149890396819572
2388.0,0.010149890396819572
2387.0,0.010105436281226954
2386.0,0.010105436281226954
2385.0,0.010105436281226954
2384.0,0.010105436281226954
2383.0,0.01001654169860089
2382.0,0.009927665307847056
2381.0,0.009794384815193347
2380.0,0.009616741093766423
2379.0,0.009483555971770974
2378.0,0.009306039320248427
2377.0,0.009128595198514056
2376.0,0.009039900317800775
2375.0,0.00908424549391551
2374.0,0.009172949432521227
2373.0,0.009217308196862062
2372.0,0.009172949432521227
2371.0,0.009128595198514056
2370.0,0.009306039320248427
2369.0,0.009705553871561357
2368.0,0.010149890396819572
2367.0,0.010060986715464404
2366.0,0.008995559669244813
2365.0,0.007402303897961815
2364.0,0.006607862550997545
2363.0,0.007313960837872058
2362.0,0.008773924307505121
2361.0,0.009883233932095559
2360.0,0.010550182333308289
2359.0,0.010950843561779777
2358.0,0.011039929609661936
2357.0,0.010505687227290839
2356.0,0.00966114521239847
2355.0,0.009039900317800775
2354.0,0.008685301823389224
2353.0,0.008552401996197112
2352.0,0.008552401996197112
2351.0,0.0087296108049002
2350.0,0.008818242332126802
2349.0,0.008596697419959609
2348.0,0.008153946355103248
2347.0,0.007667440952535687
2346.0,0.00762324020119709
2345.0,0.007888512213050314
2344.0,0.008286724286910463
2343.0,0.008596697419959609
2342.0,0.0087296108049002
2341.0,0.008419542825660153
2340.0,0.007711646202907652
2339.0,0.007004901568658406
2338.0,0.006872514894289861
2337.0,0.007313960837872058
2336.0,0.008021209005416363
2335.0,0.008419542825660153
2334.0,0.008375265465994541
2333.0,0.008198201155356077
2332.0,0.008153946355103248
2331.0,0.008330992620051436
2330.0,0.008552401996197112
2329.0,0.0087296108049002
2328.0,0.008951223547323472
2327.0,0.009217308196862062
2326.0,0.009306039320248427
2325.0,0.009172949432521227
2324.0,0.008951223547323472
2323.0,0.008773924307505121
2322.0,0.008773924307505121
2321.0,0.008862564879688284
2320.0,0.008906891951112605
2319.0,0.008906891951112605
2318.0,0.008862564879688284
2317.0,0.008773924307505121
2316.0,0.0087296108049002
2315.0,0.0087296108049002
2314.0,0.0087296108049002
2313.0,0.008773924307505121
2312.0,0.008818242332126802
2311.0,0.008773924307505121
2310.0,0.008685301823389224
2309.0,0.008596697419959609
2308.0,0.008596697419959609
2307.0,0.0087296108049002
2306.0,0.008862564879688284
2305.0,0.008995559669244813
2304.0,0.008995559669244813
2303.0,0.008951223547323472
2302.0,0.008862564879688284
2301.0,0.008818242332126802
2300.0,0.008773924307505121
2299.0,0.008773924307505121
2298.0,0.0087296108049002
2297.0,0.008685301823389224
2296.0,0.008685301823389224
2295.0,0.008773924307505121
2294.0,0.008818242332126802
2293.0,0.008862564879688284
2292.0,0.008906891951112605
2291.0,0.008951223547323472
2290.0,0.008995559669244813
2289.0,0.008995559669244813
2288.0,0.009039900317800775
2287.0,0.00908424549391551
2286.0,0.009128595198514056
2285.0,0.009172949432521227
2284.0,0.009217308196862062
2283.0,0.009217308196862062
2282.0,0.009128595198514056
2281.0,0.009039900317800775
2280.0,0.008906891951112605
2279.0,0.008818242332126802
2278.0,0.008773924307505121
2277.0,0.008773924307505121
2276.0,0.008773924307505121
2275.0,0.008773924307505121
2274.0,0.008685301823389224
2273.0,0.008596697419959609
2272.0,0.00850811108984062
2271.0,0.008419542825660153
2270.0,0.008330992620051436
2269.0,0.008242460465651913
2268.0,0.008242460465651913
2267.0,0.008286724286910463
2266.0,0.008330992620051436
2265.0,0.008375265465994541
2264.0,0.008375265465994541
2263.0,0.008330992620051436
2262.0,0.008286724286910463
2261.0,0.008242460465651913
2260.0,0.008198201155356077
2259.0,0.008198201155356077
2258.0,0.008286724286910463
2257.0,0.008375265465994541
2256.0,0.008419542825660153
2255.0,0.008419542825660153
2254.0,0.008330992620051436
2253.0,0.008242460465651913
2252.0,0.008198201155356077
2251.0,0.008198201155356077
2250.0,0.008198201155356077
2249.0,0.008198201155356077
2248.0,0.008198201155356077
2247.0,0.008198201155356077
2246.0,0.008198201155356077
2245.0,0.008242460465651913
2244.0,0.008286724286910463
2243.0,0.008330992620051436
2242.0,0.008286724286910463
2241.0,0.008198201155356077
2240.0,0.008109696063975047
2239.0,0.008021209005416363
2238.0,0.007976972236149349
2237.0,0.007976972236149349
2236.0,0.007976972236149349
2235.0,0.008021209005416363
2234.0,0.008021209005416363
2233.0,0.008021209005416363
2232.0,0.008065450281052211
2231.0,0.008065450281052211
2230.0,0.008065450281052211
2229.0,0.008065450281052211
2228.0,0.008021209005416363
2227.0,0.008021209005416363
2226.0,0.007976972236149349
2225.0,0.007932739972333236
2224.0,0.007888512213050314
2223.0,0.007888512213050314
2222.0,0.007888512213050314
2221.0,0.007932739972333236
2220.0,0.007976972236149349
2219.0,0.008021209005416363
2218.0,0.007976972236149349
2217.0,0.007888512213050314
2216.0,0.007800070204414977
2215.0,0.007667440952535687
2214.0,0.00762324020119709
2213.0,0.007534852191956709
2212.0,0.007534852191956709
2211.0,0.007534852191956709
2210.0,0.007490664932224611
2209.0,0.007402303897961815
2208.0,0.007402303897961815
2207.0,0.0074464821678643656
2206.0,0.0074464821678643656
2205.0,0.0074464821678643656
2204.0,0.007402303897961815
2203.0,0.007313960837872058
2202.0,0.007269796045857202
2201.0,0.007269796045857202
2200.0,0.007313960837872058
2199.0,0.007313960837872058
2198.0,0.007313960837872058
2197.0,0.007313960837872058
2196.0,0.007313960837872058
2195.0,0.007269796045857202
2194.0,0.007181479933320523
2193.0,0.007093181776687496
2192.0,0.007049039429553483
2191.0,0.007049039429553483
2190.0,0.007093181776687496
2189.0,0.007093181776687496
2188.0,0.007093181776687496
2187.0,0.007093181776687496
2186.0,0.007137328610972382
2185.0,0.007137328610972382
2184.0,0.007181479933320523
2183.0,0.007225635744644521
2182.0,0.007225635744644521
2181.0,0.007225635744644521
2180.0,0.007269796045857202
2179.0,0.007269796045857202
2178.0,0.007269796045857202
2177.0,0.007225635744644521
2176.0,0.007225635744644521
2175.0,0.007181479933320523
2174.0,0.007137328610972382
2173.0,0.007137328610972382
2172.0,0.007137328610972382
2171.0,0.007181479933320523
2170.0,0.007137328610972382
2169.0,0.007093181776687496
2168.0,0.007093181776687496
2167.0,0.007049039429553483
2166.0,0.007049039429553483
2165.0,0.007093181776687496
2164.0,0.007181479933320523
2163.0,0.007225635744644521
2162.0,0.007225635744644521
2161.0,0.007137328610972382
2160.0,0.007093181776687496
2159.0,0.007093181776687496
2158.0,0.007093181776687496
2157.0,0.007137328610972382
2156.0,0.007137328610972382
2155.0,0.007181479933320523
2154.0,0.007225635744644521
2153.0,0.007269796045857202
2152.0,0.007313960837872058
2151.0,0.007313960837872058
2150.0,0.007225635744644521
2149.0,0.007181479933320523
2148.0,0.007137328610972382
2147.0,0.007181479933320523
2146.0,0.007225635744644521
2145.0,0.007225635744644521
2144.0,0.007181479933320523
2143.0,0.007137328610972382
2142.0,0.007137328610972382
2141.0,0.007137328610972382
2140.0,0.007181479933320523
2139.0,0.007225635744644521
2138.0,0.007225635744644521
2137.0,0.007225635744644521
2136.0,0.007225635744644521
2135.0,0.007225635744644521
2134.0,0.007181479933320523
2133.0,0.007181479933320523
2132.0,0.007181479933320523
2131.0,0.007225635744644521
2130.0,0.007181479933320523
2129.0,0.007137328610972382
2128.0,0.007093181776687496
2127.0,0.007137328610972382
2126.0,0.007137328610972382
2125.0,0.007093181776687496
2124.0,0.007049039429553483
2123.0,0.007004901568658406
2122.0,0.00696076819309055
2121.0,0.00696076819309055
2120.0,0.00696076819309055
2119.0,0.007004901568658406
2118.0,0.007004901568658406
2117.0,0.007049039429553483
2116.0,0.007049039429553483
2115.0,0.007049039429553483
2114.0,0.007049039429553483
2113.0,0.007004901568658406
2112.0,0.007004901568658406
2111.0,0.00696076819309055
2110.0,0.00696076819309055
2109.0,0.006916639301937977
2108.0,0.006916639301937977
2107.0,0.006916639301937977
2106.0,0.006828394969235152
2105.0,0.006740168563263094
2104.0,0.006651960076740071
2103.0,0.006651960076740071
2102.0,0.006696062080525422
2101.0,0.006740168563263094
2100.0,0.006740168563263094
2099.0,0.006740168563263094
2098.0,0.006696062080525422
2097.0,0.006696062080525422
2096.0,0.006740168563263094
2095.0,0.006740168563263094
2094.0,0.006651960076740071
2093.0,0.00656376950238835
2092.0,0.006475596832934416
2091.0,0.006475596832934416
2090.0,0.006431517210272464
2089.0,0.006387442061109638
2088.0,0.006299305179649828
2087.0,0.00621118618129457
2086.0,0.00612308505878878
2085.0,0.006079041198713275
2084.0,0.006079041198713275
2083.0,0.006079041198713275
2082.0,0.006079041198713275
2081.0,0.006079041198713275
2080.0,0.006035001804881146
2079.0,0.005990966876386672
2078.0,0.00590291041179003
2077.0,0.005858888873877532
2076.0,0.00590291041179003
2075.0,0.005946936412324799
2074.0,0.005946936412324799
2073.0,0.005858888873877532
2072.0,0.005726851026829571
2071.0,0.005594853310833647
2070.0,0.005550862985963967
2069.0,0.005506877116487674
2068.0,0.005506877116487674
2067.0,0.005550862985963967
2066.0,0.005506877116487674
2065.0,0.005462895701502157
2064.0,0.00537494623139545
2063.0,0.005243055412371911
2062.0,0.005111204635089406
2061.0,0.004979393875242044
2060.0,0.00489154225525934
2059.0,0.00489154225525934
2058.0,0.00489154225525934
2057.0,0.004935465843858511
2056.0,0.004935465843858511
2055.0,0.00489154225525934
2054.0,0.00484762310854614
2053.0,0.00484762310854614
2052.0,0.00484762310854614
2051.0,0.00484762310854614
2050.0,0.004803708402820517
2049.0,0.004759798137184523
2048.0,0.004715892310740433
2047.0,0.004671990922590297
2046.0,0.00458420145758498
2045.0,0.0044964297349936455
2044.0,0.004408675747646695
2043.0,0.004408675747646695
2042.0,0.004408675747646695
2041.0,0.004408675747646695
2040.0,0.004408675747646695
2039.0,0.004408675747646695
2038.0,0.004408675747646695
2037.0,0.0043648054024501
2036.0,0.0043648054024501
2035.0,0.004408675747646695
2034.0,0.004408675747646695
2033.0,0.004408675747646695
2032.0,0.0043648054024501
2031.0,0.004320939488377862
2030.0,0.004233220950025984
2029.0,0.004145520125434121
2028.0,0.0040578370074493275
2027.0,0.00401400208620073
2026.0,0.00401400208620073
2025.0,0.003970171588923321
2024.0,0.003970171588923321
2023.0,0.003926345514724705
2022.0,0.0038825238627120395
2021.0,0.0038825238627120395
2020.0,0.003926345514724705
2019.0,0.003970171588923321
2018.0,0.003970171588923321
2017.0,0.003970171588923321
2016.0,0.0038825238627120395
2015.0,0.0038387066319929275
2014.0,0.003794893821675638
2013.0,0.0037510854308679953
2012.0,0.0037510854308679953
2011.0,0.003794893821675638
2010.0,0.0038387066319929275
2009.0,0.0038387066319929275
2008.0,0.0038825238627120395
2007.0,0.003970171588923321
2006.0,0.00401400208620073
2005.0,0.004101676353562844
2004.0,0.004101676353562844
2003.0,0.004145520125434121
2002.0,0.004101676353562844
2001.0,0.00401400208620073
2000.0,0.00401400208620073
1999.0,0.00401400208620073
1998.0,0.00401400208620073
1997.0,0.00401400208620073
1996.0,0.0040578370074493275
1995.0,0.004101676353562844
1994.0,0.004233220950025984
1993.0,0.004320939488377862
1992.0,0.004408675747646695
1991.0,0.004452550524862486
1990.0,0.004452550524862486
1989.0,0.0043648054024501
1988.0,0.004320939488377862
1987.0,0.004320939488377862
1986.0,0.004320939488377862
1985.0,0.004320939488377862
1984.0,0.004320939488377862
1983.0,0.004320939488377862
1982.0,0.004320939488377862
1981.0,0.004277078004534696
1980.0,0.004233220950025984
1979.0,0.004277078004534696
1978.0,0.004277078004534696
1977.0,0.004320939488377862
1976.0,0.0043648054024501
1975.0,0.004408675747646695
1974.0,0.004452550524862486
1973.0,0.004452550524862486
1972.0,0.004452550524862486
1971.0,0.0044964297349936455
1970.0,0.00458420145758498
1969.0,0.004671990922590297
1968.0,0.004759798137184523
1967.0,0.004803708402820517
1966.0,0.004759798137184523
1965.0,0.004715892310740433
1964.0,0.004715892310740433
1963.0,0.004803708402820517
1962.0,0.004935465843858511
1961.0,0.005023326350308999
1960.0,0.005067263269958211
1959.0,0.005155150446602086
1958.0,0.005199100705396198
1957.0,0.0052870145684298375
1956.0,0.005330978174470591
1955.0,0.00541891874010525
1954.0,0.005462895701502157
1953.0,0.005462895701502157
1952.0,0.00541891874010525
1951.0,0.005462895701502157
1950.0,0.005462895701502157
1949.0,0.005462895701502157
1948.0,0.005462895701502157
1947.0,0.005462895701502157
1946.0,0.00541891874010525
1945.0,0.00537494623139545
1944.0,0.00537494623139545
1943.0,0.005330978174470591
1942.0,0.005199100705396198
1941.0,0.004979393875242044
1940.0,0.004759798137184523
1939.0,0.004540313378935901
1938.0,0.0043648054024501
1937.0,0.004189368323957332
1936.0,0.00401400208620073
1935.0,0.0038825238627120395
1934.0,0.003707281458678491
1933.0,0.0035321097382827737
1932.0,0.0034007772998332353
1931.0,0.0032694845648473247
1930.0,0.0031819781204844855
1929.0,0.003050751504618754
1928.0,0.0029195645282691363
1927.0,0.0028321285541661467
1926.0,0.0027447101798967477
1925.0,0.002701007590486082
1924.0,0.002701007590486082
1923.0,0.0026573093983774942
1922.0,0.002569926202528716
1921.0,0.002482560585275184
1920.0,0.002351545103793873
1919.0,0.0022205691343961664
1918.0,0.0020459959305969555
1917.0,0.0018714928717336043
1916.0,0.0017406615763013722
1915.0,0.0016970599014589638
1914.0,0.001609869681952425
1913.0,0.0015662811355310335
1912.0,0.0015226969634936083
1911.0,0.0014355417390583547
1910.0,0.001348404001626502
1909.0,0.0011741809597138886
1908.0,0.0010435595295137379
1907.0,0.0009565003968372565
1906.0,0.000869458712629001
1905.0,0.0008259444115150671
1904.0,0.0007824344698965646
1903.0,0.0006954276616513155
1902.0,0.0005649501236701937
1901.0,0.0004779868710962365
1900.0,0.0003910410285830057
1899.0,0.0003910410285830057
1898.0,0.00043451177401765406
1897.0,0.00043451177401765406
1896.0,0.0003475746339209884
1895.0,0.00017375254558760211
1894.0,0.0
1893.0,-8.685021164911433e-05
1892.0,-0.00013026880522692963
1891.0,-0.00017368305846510168
1890.0,-0.0002604985473904087
1889.0,-0.00043407747931878404
1888.0,-0.0006075870628903246
1887.0,-0.0006943158663546001
1886.0,-0.0007376737740329986
1885.0,-0.0008243766056055257
1884.0,-0.0008677215312267172
1883.0,-0.0009110621312231615
1882.0,-0.0009543984064577238
1881.0,-0.0009977303577937136
1880.0,-0.001041057986093552
1879.0,-0.0011277002770349043
1878.0,-0.00121432528617893
1877.0,-0.001344230411601366
1876.0,-0.001474096691732818
1875.0,-0.0015606526425728795
1874.0,-0.0016471913460383014
1873.0,-0.0016471913460383014
1872.0,-0.0016471913460383014
1871.0,-0.0016039241497978196
1870.0,-0.0016039241497978196
1869.0,-0.0016471913460383014
1868.0,-0.0016904542321527494
1867.0,-0.001733712809000476
1866.0,-0.001776967077439462
1865.0,-0.0019067040408846658
1864.0,-0.0019931738235303698
1863.0,-0.0020796263931210923
1862.0,-0.0021228462251614566
1861.0,-0.0022092729880145434
1860.0,-0.0022524799205383417
1859.0,-0.0022524799205383417
1858.0,-0.0022956825549340643
1857.0,-0.0022956825549340643
1856.0,-0.0022956825549340643
1855.0,-0.0022956825549340643
1854.0,-0.002338880892056583
1853.0,-0.0024252646779014952
1852.0,-0.0024684501283323
1851.0,-0.0023820749327607693
1850.0,-0.002338880892056583
1849.0,-0.002338880892056583
1848.0,-0.002338880892056583
1847.0,-0.002338880892056583
1846.0,-0.0022956825549340643
1845.0,-0.002338880892056583
1844.0,-0.0023820749327607693
1843.0,-0.0023820749327607693
1842.0,-0.002338880892056583
1841.0,-0.0022524799205383417
1840.0,-0.0022524799205383417
1839.0,-0.0021660617565077978
1838.0,-0.0021228462251614566
1837.0,-0.0021228462251614566
1836.0,-0.0021228462251614566
1835.0,-0.0021228462251614566
1834.0,-0.0020364022595291686
1833.0,-0.0019067040408846658
1832.0,-0.0016904542321527494
1831.0,-0.001474096691732818
1830.0,-0.001474096691732818
1829.0,-0.0016039241497978196
1828.0,-0.0016471913460383014
1827.0,-0.0016471913460383014
1826.0,-0.0016471913460383014
1825.0,-0.0018202170383281313
1824.0,-0.0019931738235303698
1823.0,-0.0020796263931210923
1822.0,-0.0021228462251614566
1821.0,-0.0021660617565077978
1820.0,-0.0022524799205383417
1819.0,-0.0023820749327607693
1818.0,-0.0024684501283323
1817.0,-0.0025548081484823015
1816.0,-0.002597980719908577
1815.0,-0.0025548081484823015
1814.0,-0.0025116312849080558
1813.0,-0.0025548081484823015
1812.0,-0.0026411490000399773
1811.0,-0.0027706281011936618
1810.0,-0.002900068611387585
1809.0,-0.0029863408567849525
1808.0,-0.0030725959676747294
1807.0,-0.003115717099805959
1806.0,-0.0032450548131470747
1805.0,-0.0033743540197499478
1804.0,-0.0034605321095062536
1803.0,-0.003503614742536687
1802.0,-0.003503614742536687
1801.0,-0.003632837004408529
1800.0,-0.0037189638231147626
1799.0,-0.0038481220342978517
1798.0,-0.003891166236910326
1797.0,-0.003934206173708432
1796.0,-0.003891166236910326
1795.0,-0.003675902548784027
1794.0,-0.0035897671891400584
1793.0,-0.003762020828246282
1792.0,-0.004063300397667113
1791.0,-0.004321373782642635
1790.0,-0.00445035298922436
1789.0,-0.004493337547274212
1788.0,-0.00445035298922436
1787.0,-0.004364371107751008
1786.0,-0.004321373782642635
1785.0,-0.004364371107751008
1784.0,-0.004407364176330919
1783.0,-0.0042783722001624724
1782.0,-0.004149341900058889
1781.0,-0.004149341900058889
1780.0,-0.004192356259714369
1779.0,-0.004106323279658319
1778.0,-0.003934206173708432
1777.0,-0.0038481220342978517
1776.0,-0.003762020828246282
1775.0,-0.0035897671891400584
1774.0,-0.0033743540197499478
1773.0,-0.0033312585613267665
1772.0,-0.0033743540197499478
1771.0,-0.0032881588260753603
1770.0,-0.003158833950862139
1769.0,-0.003115717099805959
1768.0,-0.0029863408567849525
1767.0,-0.002684312989729598
1766.0,-0.002338880892056583
1765.0,-0.0019931738235303698
1764.0,-0.0015173768235041685
1763.0,-0.0009977303577937136
1762.0,-0.0005208409361854294
1761.0,-0.00017368305846510168
1760.0,0.0003475746339209884
1759.0,0.0011741809597138886
1758.0,0.0021332737608552588
1757.0,0.003050751504618754
1756.0,0.003926345514724705
1755.0,0.004935465843858511
1754.0,0.005990966876386672
1753.0,0.007269796045857202
1752.0,0.009128595198514056
1751.0,0.011931796607364653
1750.0,0.015292705517326866
1749.0,0.018861217359339655
1748.0,0.022688026603074007
1747.0,0.026872146400301444
1746.0,0.03137697904301118
1745.0,0.03649550058570927
1744.0,0.042584285277331047
1743.0,0.04919717703534143
1742.0,0.05601112492622806
1741.0,0.06378795567975115
1740.0,0.0734517753643813
1739.0,0.0833881548906541
1738.0,0.09060445403289452
1737.0,0.09523037409340485
1736.0,0.10072681268239614
1735.0,0.11238269966426384
1734.0,0.13035765534840538
1733.0,0.1450869776921444
1732.0,0.15397232463562127
1731.0,0.16203298163134527
1730.0,0.17179138553205453
1729.0,0.1821703002543944
1728.0,0.19158644859963192
1727.0,0.20003947259401644
1726.0,0.20859008433283988
1725.0,0.2182446253475312
1724.0,0.22914798835785577
1723.0,0.23957751657678794
1722.0,0.24703013497091586
1721.0,0.25088233764367773
1720.0,0.25328797748333964
1719.0,0.2594794139463352
1718.0,0.273191317475036
1717.0,0.2883614617676509
1716.0,0.2967086218813386
1715.0,0.2994693430214084
1714.0,0.2993828043179432
1713.0,0.29610704636745555
1712.0,0.2899673009342465
1711.0,0.28249592523579814
1710.0,0.2744967311406845
1709.0,0.2652801583443203
1708.0,0.2543787786930616
1707.0,0.2423003749122612
1706.0,0.2301059641878309
1705.0,0.21846003139405834
1704.0,0.20697834015401684
1703.0,0.19551981089400727
1702.0,0.18395765907800343
1701.0,0.1724368887452763
1700.0,0.16234844215360744
1699.0,0.15428198203334142
1698.0,0.1472151313194523
1697.0,0.14026143380285316
1696.0,0.13359450162194508
1695.0,0.12784372725170723
1694.0,0.12285911021517903
1693.0,0.11827306462358211
1692.0,0.11367851344052027
1691.0,0.10924374808178183
1690.0,0.10540705207704448
1689.0,0.10215306842042837
1688.0,0.09892328427374508
1687.0,0.09539263618455207
1686.0,0.09210516458371698
1685.0,0.09023008526723086
1684.0,0.08996287644694911
1683.0,0.08905559425002108
1682.0,0.08687520961044104
1681.0,0.08444188458847957
1680.0,0.08191721535781271
1679.0,0.0794592834975203
1678.0,0.07691148455760066
1677.0,0.07453319930846214
1676.0,0.07252697900472405
1675.0,0.07088774334533943
1674.0,0.06930561233546473
1673.0,0.06752623532284674
1672.0,0.06565307326174441
1671.0,0.06383825908884244
1670.0,0.062381820606176586
1669.0,0.0611301784870133
1668.0,0.05963295401433477
1667.0,0.05789269101064454
1666.0,0.056159373598738904
1665.0,0.05448217792216048
1664.0,0.05290953578037816
1663.0,0.0515870342213991
1662.0,0.050463626623857394
1661.0,0.049245818406496555
1660.0,0.047934409814949674
1659.0,0.04657860031896477
1658.0,0.04527520902093718
1657.0,0.04387961360698034
1656.0,0.042392712939904875
1655.0,0.041149548320321694
1654.0,0.04062466342415694
1653.0,0.040958607678906356
1652.0,0.040529297924893015
1651.0,0.03986232513620536
1650.0,0.03924390909822728
1649.0,0.038531444649213764
1648.0,0.03777276864991497
1647.0,0.037251946641359446
1646.0,0.036873558918095295
1645.0,0.03630659476198117
1644.0,0.035646070707806565
1643.0,0.03498654972775217
1642.0,0.03437503289075727
1641.0,0.0338113190438627
1640.0,0.0332483359486222
1639.0,0.03263926003405038
1638.0,0.03207779326948268
1637.0,0.03179733185715028
1636.0,0.03179733185715028
1635.0,0.031563752288295444
1634.0,0.031003673351687855
1633.0,0.030397735151460825
1632.0,0.029839156962686353
1631.0,0.02932775731028059
1630.0,0.029002634427514717
1629.0,0.028770552723758724
1628.0,0.028538594975413334
1627.0,0.028214062120885508
1626.0,0.027843464140506313
1625.0,0.027565723042634938
1624.0,0.02738066094037661
1623.0,0.027195677663422346
1622.0,0.027056991894431892
1621.0,0.02682594731702781
1620.0,0.026595025589939425
1619.0,0.02654885597506529
1618.0,0.027149444152769986
1617.0,0.02849221828874393
1616.0,0.029746130405213123
1615.0,0.030211462585061133
1614.0,0.03002526987828502
1613.0,0.029560137048236124
1612.0,0.028956208163971375
1611.0,0.028306761050139073
1610.0,0.027565723042634938
1609.0,0.02682594731702781
1608.0,0.026087429580295085
1607.0,0.025350165561278004
1606.0,0.024660115394541604
1605.0,0.023971159908874107
1604.0,0.023237476732539397
1603.0,0.022505030926963654
1602.0,0.021773818325474092
1601.0,0.021089422824428272
1600.0,0.020406104151069693
1599.0,0.019814763052665052
1598.0,0.019315025636685412
1597.0,0.018906576854070378
1596.0,0.01858915983411169
1595.0,0.018362575344230914
1594.0,0.018136109008649592
1593.0,0.01800028587012159
1592.0,0.01781925440359733
1591.0,0.017728766960431575
1590.0,0.017728766960431575
1589.0,0.017909760704207134
1588.0,0.018181392829336396
1587.0,0.018634490921455527
1586.0,0.01949668180660491
1585.0,0.02081596632558158
1584.0,0.022688026603074007
1583.0,0.024936003904763915
1582.0,0.027334407733889066
1581.0,0.029513651152349718
1580.0,0.03105031901865729
1579.0,0.03184406285002961
1578.0,0.03184406285002961
1577.0,0.031003673351687855
1576.0,0.029560137048236124
1575.0,0.02798240132598462
1574.0,0.026595025589939425
1573.0,0.025350165561278004
1572.0,0.024154774532432866
1571.0,0.022871099419317753
1570.0,0.021545566634771474
1569.0,0.020315076172974234
1568.0,0.019451260640229506
1567.0,0.018815862601645694
1566.0,0.018226681372252695
1565.0,0.017638298366853045
1564.0,0.016915227262211507
1563.0,0.016148281008528276
1562.0,0.015517693597737248
1561.0,0.015112798935672522
1560.0,0.014753209197138295
1559.0,0.0144837121472845
1558.0,0.014259258949925524
1557.0,0.013900374944870508
1556.0,0.013676222949234651
1555.0,0.013407393177789162
1554.0,0.013093968619278806
1553.0,0.012736045877764557
1552.0,0.012467797270160563
1551.0,0.012244383261476699
1550.0,0.0119764380713403
1549.0,0.011664044143949504
1548.0,0.011351874764248926
1547.0,0.011039929609661936
1546.0,0.01077272626946324
1545.0,0.010505687227290839
1544.0,0.010327752376126709
1543.0,0.010105436281226954
1542.0,0.009927665307847056
1541.0,0.009705553871561357
1540.0,0.009483555971770974
1539.0,0.009172949432521227
1538.0,0.009039900317800775
1537.0,0.009217308196862062
1536.0,0.009439170005980158
1535.0,0.00974996707218323
1534.0,0.010060986715464404
1533.0,0.010283280051895272
1532.0,0.010283280051895272
1531.0,0.010149890396819572
1530.0,0.010149890396819572
1529.0,0.010194349063173958
1528.0,0.010194349063173958
1527.0,0.010105436281226954
1526.0,0.009927665307847056
1525.0,0.00974996707218323
1524.0,0.009572341514736404
1523.0,0.00939478857608056
1522.0,0.009261671492462709
1521.0,0.009128595198514056
1520.0,0.009039900317800775
1519.0,0.00908424549391551
1518.0,0.009172949432521227
1517.0,0.009128595198514056
1516.0,0.008951223547323472
1515.0,0.008773924307505121
1514.0,0.008862564879688284
1513.0,0.009306039320248427
1512.0,0.010105436281226954
1511.0,0.011218156546359825
1510.0,0.01264661126420652
1509.0,0.014753209197138295
1508.0,0.01940584422377989
1507.0,0.02691835039863255
1506.0,0.03179733185715028
1505.0,0.031984286006358165
1504.0,0.030164906924202484
1503.0,0.027334407733889066
1502.0,0.024017056287453542
1501.0,0.020497151212598652
1500.0,0.017141057687924732
1499.0,0.01403492169512921
1498.0,0.011262724711199823
1497.0,0.008995559669244813
1496.0,0.007358130121602358
1495.0,0.006299305179649828
1494.0,0.005726851026829571
1493.0,0.005506877116487674
1492.0,0.00541891874010525
1491.0,0.0052870145684298375
1490.0,0.005023326350308999
1489.0,0.00489154225525934
1488.0,0.00484762310854614
1487.0,0.004715892310740433
1486.0,0.004628093971837721
1485.0,0.004715892310740433
1484.0,0.004935465843858511
1483.0,0.005155150446602086
1482.0,0.005462895701502157
1481.0,0.005814871797682919
1480.0,0.006167133386013823
1479.0,0.006431517210272464
1478.0,0.006740168563263094
1477.0,0.007137328610972382
1476.0,0.007534852191956709
1475.0,0.007888512213050314
1474.0,0.008198201155356077
1473.0,0.008773924307505121
1472.0,0.009350411681145587
1471.0,0.009794384815193347
1470.0,0.010194349063173958
1469.0,0.01077272626946324
1468.0,0.011574829993696856
1467.0,0.01264661126420652
1466.0,0.014214382227394795
1465.0,0.016418813294209356
1464.0,0.018679826740892747
1463.0,0.020497151212598652
1462.0,0.021910826943857264
1461.0,0.023283295636617574
1460.0,0.024706084643793647
1459.0,0.026318081496016443
1458.0,0.028863370523193765
1457.0,0.032218091924200776
1456.0,0.034469056377139484
1455.0,0.035363296211498474
1454.0,0.03578752703018084
1453.0,0.03602339000339416
1452.0,0.03597620715996652
1451.0,0.035740369803151095
1450.0,0.03550466044490741
1449.0,0.035363296211498474
1448.0,0.03522197797762394
1447.0,0.03503362516890207
1446.0,0.03479829897408804
1445.0,0.03465716443937783
1444.0,0.034516075754861264
1443.0,0.03432802877989327
1442.0,0.034046110897937076
1441.0,0.03362357691107709
1440.0,0.0329671178412978
1439.0,0.031984286006358165
1438.0,0.03063068826647264
1437.0,0.028863370523193765
1436.0,0.026733563891471412
1435.0,0.02461415101053266
1434.0,0.022688026603074007
1433.0,0.02067930261797568
1432.0,0.01858915983411169
1431.0,0.01646391839700767
1430.0,0.014349026309051105
1429.0,0.012423105273012602
1428.0,0.01086177578421088
1427.0,0.009794384815193347
1426.0,0.00908424549391551
1425.0,0.008640997362049818
1424.0,0.008552401996197112
1423.0,0.008685301823389224
1422.0,0.009039900317800775
1421.0,0.009883233932095559
1420.0,0.0119764380713403
1419.0,0.015742798294583915
1418.0,0.02058821736556471
1417.0,0.026041313893296225
1416.0,0.032545631817259224
1415.0,0.04043395336207234
1414.0,0.04987865248862655
1413.0,0.06078036414518184
1412.0,0.07227044022834539
1411.0,0.08244197917456386
1410.0,0.0892689019566193
1409.0,0.09226626300234453
1408.0,0.09146136782804049
1407.0,0.08735289378168276
1406.0,0.08081727095749947
1405.0,0.07340034609297241
1404.0,0.06646209802829528
1403.0,0.06068046892176193
1402.0,0.055961719945581745
1401.0,0.0518316382728683
1400.0,0.04803141550708934
1399.0,0.044456557540257124
1398.0,0.041436116778032606
1397.0,0.038911280232103884
1396.0,0.036542739883292485
1395.0,0.03414006319292828
1394.0,0.03189079887180224
1393.0,0.030071810571884017
1392.0,0.02858497661500481
1391.0,0.027195677663422346
1390.0,0.025902996205869
1389.0,0.024660115394541604
1388.0,0.023604163388120325
1387.0,0.02282532397981263
1386.0,0.02245929405346514
1385.0,0.022322112326006227
1384.0,0.02245929405346514
1383.0,0.02282532397981263
1382.0,0.02351246269481
1381.0,0.024476287039668643
1380.0,0.025764722556973707
1379.0,0.027288159452933503
1378.0,0.029002634427514717
1377.0,0.030863766403287585
1376.0,0.0329671178412978
1375.0,0.035363296211498474
1374.0,0.03777276864991497
1373.0,0.03962436858984186
1372.0,0.04062466342415694
1371.0,0.041006334969674096
1370.0,0.04076775094900409
1369.0,0.039767126871487646
1368.0,0.03786753070176463
1367.0,0.03522197797762394
1366.0,0.032031037121307726
1365.0,0.028538594975413334
1364.0,0.024660115394541604
1363.0,0.020633757603838898
1362.0,0.017095882207371904
1361.0,0.0144837121472845
1360.0,0.01260190086298274
1359.0,0.01117359295472431
1358.0,0.010105436281226954
1357.0,0.009350411681145587
1356.0,0.008862564879688284
1355.0,0.008596697419959609
1354.0,0.008640997362049818
1353.0,0.008906891951112605
1352.0,0.009439170005980158
1351.0,0.010194349063173958
1350.0,0.011262724711199823
1349.0,0.01264661126420652
1348.0,0.014304140310157809
1347.0,0.016193358021584725
1346.0,0.01831727262871463
1345.0,0.02058821736556471
1344.0,0.022733787572707387
1343.0,0.02461415101053266
1342.0,0.026087429580295085
1341.0,0.027195677663422346
1340.0,0.0277045713888604
1339.0,0.02724191609646076
1338.0,0.025764722556973707
1337.0,0.02365002099672653
1336.0,0.0211806132671577
1335.0,0.018725167293411005
1334.0,0.016509028184833463
1333.0,0.014663358264387139
1332.0,0.013362604389846044
1331.0,0.01260190086298274
1330.0,0.012378417874516323
1329.0,0.01264661126420652
1328.0,0.013317820220494436
1327.0,0.014304140310157809
1326.0,0.01547268665620738
1325.0,0.016870075265299933
1324.0,0.01840788278591865
1323.0,0.019996628416253603
1322.0,0.02168250325324883
1321.0,0.02342078135989012
1320.0,0.02521206778644225
1319.0,0.027010773144651168
1318.0,0.028816959143838528
1317.0,0.03058408764601861
1316.0,0.03235843591698884
1315.0,0.03423403581731388
1314.0,0.03630659476198117
1313.0,0.03857890593355173
1312.0,0.041006334969674096
1311.0,0.04344740808260106
1310.0,0.045902279520810385
1309.0,0.04841965509660828
1308.0,0.05100054597304693
1307.0,0.053596866100945384
1306.0,0.056159373598738904
1305.0,0.058786812414678646
1304.0,0.061680456657844385
1303.0,0.06484555278383164
1302.0,0.0684912781333824
1301.0,0.07268097504034388
1300.0,0.07753405470158659
1299.0,0.08291480935943274
1298.0,0.08857603462370545
1297.0,0.09452793807529569
1296.0,0.10067205012234592
1295.0,0.10673771411200872
1294.0,0.11266406960083297
1293.0,0.11844417020668851
1292.0,0.12418661116024232
1291.0,0.1295960947209729
1290.0,0.13477754370982087
1289.0,0.13978181533124334
1288.0,0.1446020033459312
1287.0,0.1490476002065071
1286.0,0.15304467498017615
1285.0,0.1565803347950816
1284.0,0.15983115075924403
1283.0,0.16272729749769965
1282.0,0.16519794595130088
1281.0,0.1673633724032968
1280.0,0.16941133131485575
1279.0,0.1712756728612086
1278.0,0.1730186630880064
1277.0,0.1748985884019969
1276.0,0.17717835469689547
1275.0,0.17992996568767428
1274.0,0.1832285876666535
1273.0,0.18762148884580565
1272.0,0.19314197048118253
1271.0,0.19969542244380145
1270.0,0.20683847075444928
1269.0,0.2145989750076125
1268.0,0.22279074185431513
1267.0,0.23106605781321843
1266.0,0.23920068836928232
1265.0,0.24718356881172854
1264.0,0.2548471049230996
1263.0,0.2616952069258951
1262.0,0.26768667252875744
1261.0,0.27294698864614264
1260.0,0.27744833799904156
1259.0,0.2806687130162735
1258.0,0.28282897316768985
1257.0,0.28441444810680383
1256.0,0.2860057323393561
1255.0,0.2876870913186347
1254.0,0.28945955206670293
1253.0,0.2918341421444599
1252.0,0.2949063894521269
1251.0,0.2982593675627876
1250.0,0.3019864960608183
1249.0,0.30609725893393946
1248.0,0.31060233717871766
1247.0,0.3149752148942859
1246.0,0.31921138849331765
1245.0,0.3234892897174464
1244.0,0.3278097488117475
1243.0,0.3314277308154421
1242.0,0.3340439705460432
1241.0,0.3359224098149254
1240.0,0.3370533856673754
1239.0,0.3370533856673754
1238.0,0.3355460714188425
1237.0,0.33282732752113153
1236.0,0.32882715728491685
1235.0,0.3233063903751334
1234.0,0.31650268232018863
1233.0,0.3087416418668889
1232.0,0.30042240860109093
1231.0,0.29140915484965624
1230.0,0.28174749990224934
1229.0,0.2720522904552032
1228.0,0.2624893093265239
1227.0,0.2528990686350139
1226.0,0.24313577593945102
1225.0,0.2334384473624691
1224.0,0.22395292881822026
1223.0,0.21467016498923286
1222.0,0.20565139610391725
1221.0,0.19702114466473808
1220.0,0.18882730493344568
1219.0,0.1809828013109407
1218.0,0.1733422081241307
1217.0,0.16621562534352097
1216.0,0.159517512786558
1215.0,0.15323004646278116
1214.0,0.1472760892087941
1213.0,0.14176366457048695
1212.0,0.13661765155921235
1211.0,0.13170831198214428
1210.0,0.1270865583796048
1209.0,0.12268625668776156
1208.0,0.11861534322942724
1207.0,0.11469533241103202
1206.0,0.11086644403327606
1205.0,0.10729336219433439
1204.0,0.10385974855798041
1203.0,0.1005625457138224
1202.0,0.09734452478207412
1201.0,0.09431203228814788
1200.0,0.09135416109288674
1199.0,0.08841629901892434
1198.0,0.08555105930144569
1197.0,0.08270459905431071
1196.0,0.07998108397108505
1195.0,0.07732643214144574
1194.0,0.07473949048056472
1193.0,0.07227044022834539
1192.0,0.06996838504902692
1191.0,0.06788152797087754
1190.0,0.0659562809644747
1189.0,0.06419054619006714
1188.0,0.06268275223750575
1187.0,0.061380218497318895
1186.0,0.06048074738138154
1185.0,0.06003170944866376
1184.0,0.05998184499233683
1183.0,0.06038092104330195
1182.0,0.06103020277710969
1181.0,0.06203099704854709
1180.0,0.06328524178879635
1179.0,0.06469430971007495
1178.0,0.06610796423578891
1177.0,0.06732334137759932
1176.0,0.0681862960408608
1175.0,0.0685421293109949
1174.0,0.06833876031551878
1173.0,0.06747550294945781
1172.0,0.0658551882075229
1171.0,0.06348625752110681
1170.0,0.060530669156469985
1169.0,0.057198533682059516
1168.0,0.053842605077627725
1167.0,0.050707598587974356
1166.0,0.047982909952573705
1165.0,0.04575749056067524
1164.0,0.0439276630048171
1163.0,0.04244059810252043
1162.0,0.041197296600497646
1161.0,0.040243327009005014
1160.0,0.03952922246570112
1159.0,0.03919637508823026
1158.0,0.03919637508823026
1157.0,0.03957679292217042
1156.0,0.040338629726504704
1155.0,0.041483896576958834
1154.0,0.04315950984076644
1153.0,0.04537162249272897
1152.0,0.04807992647970649
1151.0,0.051244819831730126
1150.0,0.054728418492290265
1149.0,0.058538260652670315
1148.0,0.06278310913729457
1147.0,0.06742477650170953
1146.0,0.07232173586200852
1145.0,0.07748213975538865
1144.0,0.08270459905431071
1143.0,0.08783110394037297
1142.0,0.09274991711867164
1141.0,0.09750757884139638
1140.0,0.10209812573177213
1139.0,0.10640466618011679
1138.0,0.11030620855581463
1137.0,0.11401718864502697
1136.0,0.1174754620451195
1135.0,0.1207893947082408
1134.0,0.12395544975390482
1133.0,0.12731939284807026
1132.0,0.1308856730206247
1131.0,0.13471831500438958
1130.0,0.13894375542312654
1129.0,0.14369413356670102
1128.0,0.14898639317633
1127.0,0.15471587365200845
1126.0,0.16089921729284673
1125.0,0.167618839752959
1124.0,0.17476867680009978
1123.0,0.18190613085336405
1122.0,0.1887602272467106
1121.0,0.19497515557019485
1120.0,0.200246033588114
1119.0,0.2041199826559248
1118.0,0.2065588670223364
1117.0,0.20753826865304936
1116.0,0.20711825461460287
1115.0,0.20537255533549192
1114.0,0.20280173016104097
1113.0,0.20017716900668026
1112.0,0.19845909380968174
1111.0,0.1979107421182673
1110.0,0.19921420967223735
1109.0,0.20259395032361804
1108.0,0.20809891999042884
1107.0,0.21524010533599514
1106.0,0.2234440892967382
1105.0,0.2326214758858196
1104.0,0.24252805223433205
1103.0,0.25282132863983553
1102.0,0.263046046216854
1101.0,0.27310985925817843
1100.0,0.2826624172761363
1099.0,0.2912392763096834
1098.0,0.29886393390747346
1097.0,0.30557030904291693
1096.0,0.31149119234347866
1095.0,0.3159629625134803
1094.0,0.31893975636818817
1093.0,0.32075385458614103
1092.0,0.32157267756613295
1091.0,0.3212085656337562
1090.0,0.31984585826562695
1089.0,0.3178549236261683
1088.0,0.31524437789137605
1087.0,0.3118472444084337
1086.0,0.3075937651663696
1085.0,0.3027706572402824
1084.0,0.2975694635544748
1083.0,0.29166409731773646
1082.0,0.2849163293050727
1081.0,0.27761290582287623
1080.0,0.26970233790285025
1079.0,0.2612194415156308
1078.0,0.2521222941802099
1077.0,0.24283180778572744
1076.0,0.23358715288760057
1075.0,0.22424396215590203
1074.0,0.21495504166845603
1073.0,0.20613979865733034
1072.0,0.19777376230892996
1071.0,0.18990195931885712
1070.0,0.18243463044021913
1069.0,0.1754836719927908
1068.0,0.16889843549864048
1067.0,0.16266413198498508
1066.0,0.15689185800039307
1065.0,0.15168769637271562
1064.0,0.14709324120304634
1063.0,0.1427881576831076
1062.0,0.1387643813659596
1061.0,0.1352516643703412
1060.0,0.13235576609690147
1059.0,0.13006458935314003
1058.0,0.12842706445412122
1057.0,0.1275523522109867
1056.0,0.12737762097471172
1055.0,0.1276688787697493
1054.0,0.12842706445412122
1053.0,0.12977172098820566
1052.0,0.1316495003520317
1051.0,0.13388996015562338
1050.0,0.13632033212410222
1049.0,0.13900356324280416
1048.0,0.141884067809934
1047.0,0.14466259553045968
1046.0,0.1471541819850033
1045.0,0.14929251462546267
1044.0,0.15101079374883275
1043.0,0.15218065270476067
1042.0,0.1527358982292355
1041.0,0.15285938258659382
1040.0,0.15261244897260462
1039.0,0.15187248943212528
1038.0,0.15082636690117335
1037.0,0.1494762911210057
1036.0,0.1480693213597324
1035.0,0.14642345638035836
1034.0,0.1446020033459312
1033.0,0.14290884532648618
1032.0,0.1413425159091921
1031.0,0.1397219002477652
1030.0,0.13792828062000573
1029.0,0.1360826230421397
1028.0,0.13442229258007088
1027.0,0.13324021650489182
1026.0,0.13306318226836056
1025.0,0.13448148092522594
1024.0,0.13828641242856565
1023.0,0.14502632627358292
1022.0,0.15527437202677397
1021.0,0.16889843549864048
1020.0,0.18508681872492616
1019.0,0.20183294028406085
1018.0,0.21652521241775347
1017.0,0.22650610772902935
1016.0,0.2296635589048508
1015.0,0.2251911696892941
1014.0,0.2145989750076125
1013.0,0.20065945054641832
1012.0,0.18628560811885508
1011.0,0.1730833528150797
1010.0,0.16178077809237412
1009.0,0.15236565568174498
1008.0,0.14435971910985468
1007.0,0.13751083309410284
1006.0,0.13153190097901324
1005.0,0.12644690648638135
1004.0,0.12228319913502328
1003.0,0.11867241589944855
1002.0,0.11554450392951199
1001.0,0.11277666863747693
1000.0,0.11025022473596224
999.0,0.10784972209863586
998.0,0.10568393731556158
997.0,0.10369429253391926
996.0,0.10198826120249849
995.0,0.10039834085387778
994.0,0.09892328427374508
993.0,0.0975619438013351
992.0,0.09631326826349751
991.0,0.09517630019905599
990.0,0.09415017335768128
989.0,0.09339562827501968
988.0,0.09291125492570451
987.0,0.09242742120144909
986.0,0.0919977988274463
985.0,0.0916222275676053
984.0,0.09124698081546634
983.0,0.09092559859909577
982.0,0.09060445403289452
981.0,0.09033701484598189
980.0,0.0900697402471693
979.0,0.08974922769985194
978.0,0.08948231448273347
977.0,0.0892155652071629
976.0,0.08905559425002108
975.0,0.08884239126002336
974.0,0.08857603462370545
973.0,0.0880970039559672
972.0,0.08740600224789441
971.0,0.08650404038287651
970.0,0.08555105930144569
969.0,0.08449463824562353
968.0,0.0833881548906541
967.0,0.08207457793525874
966.0,0.08066036321258663
965.0,0.07925073872429178
964.0,0.07779372256098371
963.0,0.0763933569825408
962.0,0.07499749231902242
961.0,0.07360609973031784
960.0,0.07232173586200852
959.0,0.07114346641808922
958.0,0.07012147634321675
957.0,0.06925467168888666
956.0,0.06859298644342648
955.0,0.06788152797087754
954.0,0.0671712330991534
953.0,0.06641148980334699
952.0,0.06565307326174441
951.0,0.06494641076893504
950.0,0.06429125215733666
949.0,0.06373765809652254
948.0,0.06333548699992453
947.0,0.06298389253518577
946.0,0.06263258248271053
945.0,0.062281556382736136
944.0,0.061880730805688344
943.0,0.06143024377893891
942.0,0.06098022355133348
941.0,0.06068046892176193
940.0,0.06048074738138154
939.0,0.06033101647767336
938.0,0.060131455540490375
937.0,0.05998184499233683
936.0,0.05978244440026481
935.0,0.05953332233647113
934.0,0.059135024033278416
933.0,0.058786812414678646
932.0,0.05848856736559682
931.0,0.05824018618530458
930.0,0.05799194697768684
929.0,0.05769424710410598
928.0,0.05729763111133224
927.0,0.05665390164340933
926.0,0.05586292684190197
925.0,0.055122694036304765
924.0,0.05453141486818014
923.0,0.05403929642243144
922.0,0.05354773498692689
921.0,0.05310580489767336
920.0,0.05266432405126009
919.0,0.05227227303668425
918.0,0.05188057561946402
917.0,0.05153812993871654
916.0,0.05144033789103841
915.0,0.05153812993871654
914.0,0.05197846685889629
913.0,0.05271335532220167
912.0,0.05379344615721715
911.0,0.055122694036304765
910.0,0.05655495097496965
909.0,0.05824018618530458
908.0,0.0601813371786204
907.0,0.062381820606176586
906.0,0.06464390705442691
905.0,0.06712054217620067
904.0,0.06966236426227002
903.0,0.07216786713341827
902.0,0.07443009045662374
901.0,0.07634157820669385
900.0,0.07800156869172903
899.0,0.07935499859321249
898.0,0.08045124103115198
897.0,0.0812359689720008
896.0,0.08175990977858505
895.0,0.08191721535781271
894.0,0.08186477383364066
893.0,0.08175990977858505
892.0,0.08181233864107451
891.0,0.08207457793525874
890.0,0.08249449044745338
889.0,0.0832303157168639
888.0,0.08423093401631587
887.0,0.08549817717268593
886.0,0.08698131625203986
885.0,0.08873582900163002
884.0,0.0910326995816122
883.0,0.09382663635595145
882.0,0.0972358560759139
881.0,0.10127481841050656
880.0,0.10590557267730127
879.0,0.11103465569966264
878.0,0.11667932161702477
877.0,0.12268625668776156
876.0,0.12866061890013913
875.0,0.13406733180681396
874.0,0.13816700234205515
873.0,0.1407415825326932
872.0,0.1414628024303608
871.0,0.13990167030148193
870.0,0.13620146131949973
869.0,0.13094438129809216
868.0,0.12476505354983503
867.0,0.11821604440661537
866.0,0.11193288659256306
865.0,0.10623823794205656
864.0,0.1014393550602879
863.0,0.09739886933346864
862.0,0.09398837472858723
861.0,0.09124698081546634
860.0,0.08910891135547172
859.0,0.08751223866767632
858.0,0.08645104209348209
857.0,0.08581556657675371
856.0,0.08555105930144569
855.0,0.08533956941077814
854.0,0.08507535179485148
853.0,0.08470571697731355
852.0,0.08433639649422697
851.0,0.08402008585977572
850.0,0.08365134772453975
849.0,0.0833881548906541
848.0,0.08317771540408803
847.0,0.0830725338870073
846.0,0.0830725338870073
845.0,0.08312512146131668
844.0,0.08312512146131668
843.0,0.08301995267961781
842.0,0.08265206237222844
841.0,0.08228448344050654
840.0,0.08191721535781271
839.0,0.08155025759884227
838.0,0.0809742354126397
837.0,0.08018997982980403
836.0,0.07914650387874067
835.0,0.07779372256098371
834.0,0.0763933569825408
833.0,0.07515236702446293
832.0,0.07412091069849924
831.0,0.07319468988839395
830.0,0.07227044022834539
829.0,0.07124579782334672
828.0,0.0702746216219956
827.0,0.06940751155740177
826.0,0.06874559358358656
825.0,0.06823711151882228
824.0,0.06777998612288094
823.0,0.06727263269847072
822.0,0.06681652082538614
821.0,0.06656333217371957
820.0,0.0665127121512945
819.0,0.0665127121512945
818.0,0.0665127121512945
817.0,0.06656333217371957
816.0,0.06661395809694559
815.0,0.0666645899223488
814.0,0.0666645899223488
813.0,0.06656333217371957
812.0,0.06641148980334699
811.0,0.06615853710127872
810.0,0.0659562809644747
809.0,0.06590573164451952
808.0,0.06580465065211571
807.0,0.06565307326174441
806.0,0.0653500770992892
805.0,0.06499684854634524
804.0,0.06464390705442691
803.0,0.06414020196211956
802.0,0.06348625752110681
801.0,0.06283329628496737
800.0,0.06248210798265341
799.0,0.06298389253518577
798.0,0.06474471821595262
797.0,0.06798309356579857
796.0,0.07211658966929302
795.0,0.0760310351245288
794.0,0.07883394936226118
793.0,0.07998108397108505
792.0,0.07935499859321249
791.0,0.0772226580712021
790.0,0.07391491307485598
789.0,0.07012147634321675
788.0,0.06625970050306473
787.0,0.06253226035662252
786.0,0.05898575629443026
785.0,0.05571477931124735
784.0,0.052762392129333646
783.0,0.050073556332087765
782.0,0.047595060422975566
781.0,0.045564513671517703
780.0,0.04397571771932274
779.0,0.04268010314465909
778.0,0.041436116778032606
777.0,0.04019568349166214
776.0,0.039006291057664066
775.0,0.03786753070176463
774.0,0.03692083935817303
773.0,0.03597620715996652
772.0,0.0349394793888016
771.0,0.03367050483612166
770.0,0.03235843591698884
769.0,0.031143625385307683
768.0,0.030118356253500123
767.0,0.029141943003497595
766.0,0.028214062120885508
765.0,0.027334407733889066
764.0,0.026595025589939425
763.0,0.025856900097785074
762.0,0.025074013910237447
761.0,0.024246610963712723
760.0,0.023283295636617574
759.0,0.022230681908425698
758.0,0.021135015652343103
757.0,0.020178569969774962
756.0,0.01940584422377989
755.0,0.018861217359339655
754.0,0.018362575344230914
753.0,0.01781925440359733
752.0,0.01727661233145472
751.0,0.016644385668211692
750.0,0.016193358021584725
749.0,0.016193358021584725
748.0,0.016689514205884493
747.0,0.017774008325325275
746.0,0.019451260640229506
745.0,0.022139270735302752
744.0,0.026225806029419818
743.0,0.03207779326948268
742.0,0.03995754427315856
741.0,0.050171041064686284
740.0,0.06293368798257193
739.0,0.07784567476894111
738.0,0.09431203228814788
737.0,0.11182050608167504
736.0,0.12988884463559924
735.0,0.1480693213597324
734.0,0.16596098184053343
733.0,0.18395765907800343
732.0,0.20273245916928362
731.0,0.2225731776106885
730.0,0.24389662841489446
729.0,0.2671239586372933
728.0,0.2915790998652872
727.0,0.31515463835558766
726.0,0.3356401254488588
725.0,0.35095736591382365
724.0,0.35912122129838164
723.0,0.3580304022979406
722.0,0.3471736974389954
721.0,0.3283644033978703
720.0,0.304781081094849
719.0,0.2800061736323962
718.0,0.25672547648806665
717.0,0.23627259623430175
716.0,0.21896306137886823
715.0,0.20446755728984556
714.0,0.19253262431572216
713.0,0.18289759574307696
712.0,0.1752235375244544
711.0,0.16889843549864048
710.0,0.16348600110932865
709.0,0.15882830550046778
708.0,0.1548399223480541
707.0,0.15113378850522063
706.0,0.14733705565543076
705.0,0.14345235514325205
704.0,0.1396619934290062
703.0,0.13584504399797437
702.0,0.13176713157753506
701.0,0.12720296001040166
700.0,0.12216810850710624
699.0,0.1169634899723202
698.0,0.11215773489264302
697.0,0.10807246577932506
696.0,0.10452220372428545
695.0,0.1012199867101744
694.0,0.09821485469640057
693.0,0.0957714836599215
692.0,0.09398837472858723
691.0,0.09242742120144909
690.0,0.09033701484598189
689.0,0.08767164203958999
688.0,0.08486409337798806
687.0,0.08265206237222844
686.0,0.08170748724464438
685.0,0.08212704480115218
684.0,0.0830725338870073
683.0,0.08370400543686918
682.0,0.08354605145007499
681.0,0.0830725338870073
680.0,0.08254700807033655
679.0,0.08165507103772507
678.0,0.08029446545087904
677.0,0.07862570458152551
676.0,0.07691148455760066
675.0,0.07489427319033615
674.0,0.07242434530888953
673.0,0.06996838504902692
672.0,0.06828793294324442
671.0,0.06742477650170953
670.0,0.06686717627326577
669.0,0.06545105233385295
668.0,0.06303410289212974
667.0,0.06133019897732073
666.0,0.06003170944866376
665.0,0.0583891978463662
664.0,0.057049929922901255
663.0,0.05650548409389744
662.0,0.0567528748621382
661.0,0.056950888991593285
660.0,0.05606053552778367
659.0,0.05413767551038262
658.0,0.05237025261564554
657.0,0.051684859310652254
656.0,0.05227227303668425
655.0,0.053203972728539606
654.0,0.053596866100945384
653.0,0.05295859474477971
652.0,0.05163594401163074
651.0,0.050414848673348
650.0,0.05002482217034632
649.0,0.050414848673348
648.0,0.050902874887084115
647.0,0.050902874887084115
646.0,0.05036607620073763
645.0,0.04968383607539972
644.0,0.04900266601119507
643.0,0.04817696468408794
642.0,0.047595060422975566
641.0,0.04803141550708934
640.0,0.04997609347667353
639.0,0.05290953578037816
638.0,0.055961719945581745
637.0,0.05858795962645047
636.0,0.06063052992534024
635.0,0.06208109735221967
634.0,0.06298389253518577
633.0,0.06343599486473406
632.0,0.06328524178879635
631.0,0.06208109735221967
630.0,0.05988213325228142
629.0,0.05744631966579017
628.0,0.05546797900801881
627.0,0.054088483180726676
626.0,0.05310580489767336
625.0,0.05207638016827354
624.0,0.050902874887084115
623.0,0.04987865248862655
622.0,0.04958646063061889
621.0,0.05036607620073763
620.0,0.05197846685889629
619.0,0.05340037498486727
618.0,0.05354773498692689
617.0,0.05217431555754937
616.0,0.049927370249842395
615.0,0.04754660357696672
614.0,0.04522701031028298
613.0,0.0431115453499229
612.0,0.041627267521392675
611.0,0.04124505013091051
610.0,0.04200982159316968
609.0,0.0431115453499229
608.0,0.04383156952463674
607.0,0.0439276630048171
606.0,0.04363944632667782
605.0,0.042775942156833
604.0,0.04072004986906119
603.0,0.037583306554248797
602.0,0.03545753392086315
601.0,0.036731748473764814
600.0,0.041006334969674096
