cm-1,A
4000.0,0.09930522554760213
3999.0,0.09925064193892053
3998.0,0.09919606518963042
3997.0,0.09919606518963042
3996.0,0.09914149529800831
3995.0,0.09914149529800831
3994.0,0.09914149529800831
3993.0,0.09914149529800831
3992.0,0.09914149529800831
3991.0,0.09919606518963042
3990.0,0.09925064193892053
3989.0,0.09930522554760213
3988.0,0.09941441335003853
3987.0,0.09946901754724413
3986.0,0.09968750301627338
3985.0,0.09990609845660159
3984.0,0.10007011727213588
3983.0,0.10012480397898926
3982.0,0.10001543745060903
3981.0,0.09979678698310646
3980.0,0.09963287134352972
3979.0,0.09952362861074304
3978.0,0.09957824654226233
3977.0,0.09963287134352972
3976.0,0.09968750301627338
3975.0,0.09968750301627338
3974.0,0.09968750301627338
3973.0,0.09974214156222239
3972.0,0.09990609845660159
3971.0,0.10023419805561384
3970.0,0.10061729446673495
3969.0,0.10100072911021085
3968.0,0.10111034407341357
3967.0,0.10083635852278117
3966.0,0.10034361969436434
3965.0,0.09979678698310646
3964.0,0.09952362861074304
3963.0,0.09963287134352972
3962.0,0.10007011727213588
3961.0,0.10039834085387778
3960.0,0.1005078038618683
3959.0,0.10039834085387778
3958.0,0.10023419805561384
3957.0,0.10007011727213588
3956.0,0.10007011727213588
3955.0,0.10007011727213588
3954.0,0.09996076451267522
3953.0,0.09979678698310646
3952.0,0.09946901754724413
3951.0,0.09919606518963042
3950.0,0.0990869322623309
3949.0,0.09930522554760213
3948.0,0.09963287134352972
3947.0,0.09996076451267522
3946.0,0.10007011727213588
3945.0,0.10007011727213588
3944.0,0.10017949757290379
3943.0,0.10028890542885538
3942.0,0.10034361969436434
3941.0,0.10028890542885538
3940.0,0.10034361969436434
3939.0,0.10072681268239614
3938.0,0.10116516193172598
3937.0,0.10132965703447017
3936.0,0.10105553313349058
3935.0,0.10072681268239614
3934.0,0.1005625457138224
3933.0,0.1005078038618683
3932.0,0.10039834085387778
3931.0,0.10017949757290379
3930.0,0.10001543745060903
3929.0,0.09985143928065598
3928.0,0.09974214156222239
3927.0,0.09968750301627338
3926.0,0.09985143928065598
3925.0,0.10001543745060903
3924.0,0.10001543745060903
3923.0,0.09985143928065598
3922.0,0.09985143928065598
3921.0,0.10001543745060903
3920.0,0.10012480397898926
3919.0,0.10012480397898926
3918.0,0.10023419805561384
3917.0,0.10072681268239614
3916.0,0.10127481841050656
3915.0,0.10160395406999112
3914.0,0.10182351650232357
3913.0,0.10215306842042837
3912.0,0.10237290870955862
3911.0,0.10237290870955862
3910.0,0.10204318999304807
3909.0,0.10160395406999112
3908.0,0.10100072911021085
3907.0,0.10034361969436434
3906.0,0.09974214156222239
3905.0,0.09930522554760213
3904.0,0.09914149529800831
3903.0,0.0989778267519208
3902.0,0.09881421986284966
3901.0,0.0990869322623309
3900.0,0.09996076451267522
3899.0,0.10072681268239614
3898.0,0.10089114180660053
3897.0,0.1005078038618683
3896.0,0.10023419805561384
3895.0,0.10001543745060903
3894.0,0.09985143928065598
3893.0,0.09985143928065598
3892.0,0.1005078038618683
3891.0,0.10138450258381404
3890.0,0.10138450258381404
3889.0,0.10039834085387778
3888.0,0.09996076451267522
3887.0,0.10067205012234592
3886.0,0.10165883427249067
3885.0,0.10182351650232357
3884.0,0.10105553313349058
3883.0,0.10023419805561384
3882.0,0.10039834085387778
3881.0,0.10116516193172598
3880.0,0.10149421446564144
3879.0,0.10100072911021085
3878.0,0.10001543745060903
3877.0,0.09952362861074304
3876.0,0.09985143928065598
3875.0,0.10023419805561384
3874.0,0.09985143928065598
3873.0,0.09892328427374508
3872.0,0.09848719087006019
3871.0,0.09935981601739963
3870.0,0.10100072911021085
3869.0,0.10149421446564144
3868.0,0.10028890542885538
3867.0,0.09930522554760213
3866.0,0.09985143928065598
3865.0,0.10072681268239614
3864.0,0.10089114180660053
3863.0,0.10078158214862709
3862.0,0.10105553313349058
3861.0,0.10138450258381404
3860.0,0.10138450258381404
3859.0,0.10094593200182911
3858.0,0.10039834085387778
3857.0,0.09974214156222239
3856.0,0.09914149529800831
3855.0,0.09886874864462802
3854.0,0.09935981601739963
3853.0,0.10083635852278117
3852.0,0.1012199867101744
3851.0,0.09952362861074304
3850.0,0.09914149529800831
3849.0,0.10067205012234592
3848.0,0.10182351650232357
3847.0,0.10204318999304807
3846.0,0.10193333935836524
3845.0,0.1017686154869033
3844.0,0.10132965703447017
3843.0,0.1005625457138224
3842.0,0.09946901754724413
3841.0,0.09859617317474823
3840.0,0.09854167860388774
3839.0,0.09919606518963042
3838.0,0.10007011727213588
3837.0,0.1005078038618683
3836.0,0.10012480397898926
3835.0,0.09952362861074304
3834.0,0.09952362861074304
3833.0,0.10017949757290379
3832.0,0.10094593200182911
3831.0,0.10138450258381404
3830.0,0.10138450258381404
3829.0,0.10138450258381404
3828.0,0.10171372141087698
3827.0,0.10209812573177213
3826.0,0.10182351650232357
3825.0,0.10067205012234592
3824.0,0.09941441335003853
3823.0,0.0990869322623309
3822.0,0.09957824654226233
3821.0,0.10028890542885538
3820.0,0.10028890542885538
3819.0,0.09919606518963042
3818.0,0.0990869322623309
3817.0,0.10105553313349058
3816.0,0.10325338439259446
3815.0,0.10402526764093545
3814.0,0.10347378251044459
3813.0,0.10314322726279568
3812.0,0.10374943753836186
3811.0,0.10408045468998406
3810.0,0.10352889952072264
3809.0,0.10297804393963661
3808.0,0.10319830233507843
3807.0,0.10391491457671487
3806.0,0.10369429253391926
3805.0,0.10204318999304807
3804.0,0.10072681268239614
3803.0,0.10089114180660053
3802.0,0.10182351650232357
3801.0,0.10237290870955862
3800.0,0.1017686154869033
3799.0,0.10067205012234592
3798.0,0.10100072911021085
3797.0,0.10253786198693682
3796.0,0.10363915453068362
3795.0,0.1038045895457893
3794.0,0.10374943753836186
3793.0,0.10419084983086901
3792.0,0.10490910306560064
3791.0,0.10529634739076998
3790.0,0.1052410056281079
3789.0,0.10490910306560064
3788.0,0.10457745396059215
3787.0,0.10435649517592083
3786.0,0.10435649517592083
3785.0,0.10457745396059215
3784.0,0.10463271122663809
3783.0,0.10430127304069425
3782.0,0.10374943753836186
3781.0,0.10352889952072264
3780.0,0.10369429253391926
3779.0,0.10385974855798041
3778.0,0.10385974855798041
3777.0,0.10374943753836186
3776.0,0.10391491457671487
3775.0,0.10441172433373724
3774.0,0.10452220372428545
3773.0,0.10419084983086901
3772.0,0.10402526764093545
3771.0,0.10435649517592083
3770.0,0.10485381062400778
3769.0,0.10479852522110678
3768.0,0.10419084983086901
3767.0,0.1038045895457893
3766.0,0.10419084983086901
3765.0,0.1047432468551055
3764.0,0.1047432468551055
3763.0,0.10435649517592083
3762.0,0.10424605792627206
3761.0,0.10435649517592083
3760.0,0.10408045468998406
3759.0,0.10363915453068362
3758.0,0.1033635694704158
3757.0,0.10319830233507843
3756.0,0.10281292341984649
3755.0,0.10237290870955862
3754.0,0.1022080180607754
3753.0,0.10187842445889239
3752.0,0.1012199867101744
3751.0,0.10094593200182911
3750.0,0.10160395406999112
3749.0,0.10187842445889239
3748.0,0.10083635852278117
3747.0,0.10028890542885538
3746.0,0.10160395406999112
3745.0,0.10385974855798041
3744.0,0.10535169620648288
3743.0,0.10468797552421272
3742.0,0.10292299679057959
3741.0,0.10297804393963661
3740.0,0.10408045468998406
3739.0,0.10402526764093545
3738.0,0.10292299679057959
3737.0,0.10193333935836524
3736.0,0.10154908080162528
3735.0,0.10165883427249067
3734.0,0.1022080180607754
3733.0,0.10308815917397474
3732.0,0.10402526764093545
3731.0,0.10441172433373724
3730.0,0.10419084983086901
3729.0,0.10419084983086901
3728.0,0.10468797552421272
3727.0,0.10507502264045665
3726.0,0.10490910306560064
3725.0,0.10441172433373724
3724.0,0.10430127304069425
3723.0,0.10457745396059215
3722.0,0.10485381062400778
3721.0,0.10496440254767725
3720.0,0.10507502264045665
3719.0,0.10535169620648288
3718.0,0.10579474085791629
3717.0,0.10579474085791629
3716.0,0.10535169620648288
3715.0,0.10479852522110678
3714.0,0.10446696051592963
3713.0,0.10424605792627206
3712.0,0.10391491457671487
3711.0,0.1038045895457893
3710.0,0.10391491457671487
3709.0,0.10408045468998406
3708.0,0.10446696051592963
3707.0,0.10501970907203151
3706.0,0.10546241500425357
3705.0,0.10557316203581202
3704.0,0.10546241500425357
3703.0,0.10546241500425357
3702.0,0.10557316203581202
3701.0,0.10573933555301185
3700.0,0.10568393731556158
3699.0,0.10551778498990938
3698.0,0.10579474085791629
3697.0,0.1062937069352865
3696.0,0.10640466618011679
3695.0,0.10590557267730127
3694.0,0.10518567091669917
3693.0,0.10446696051592963
3692.0,0.10352889952072264
3691.0,0.10270287794050348
3690.0,0.10259286033841963
3689.0,0.10363915453068362
3688.0,0.10468797552421272
3687.0,0.10468797552421272
3686.0,0.10457745396059215
3685.0,0.10535169620648288
3684.0,0.10646015643533868
3683.0,0.10690433390377163
3682.0,0.10662666975397506
3681.0,0.1061827760325369
3680.0,0.10562854614376227
3679.0,0.10452220372428545
3678.0,0.10303309806684524
3677.0,0.10226297465457268
3676.0,0.10264786565568684
3675.0,0.10369429253391926
3674.0,0.1033635694704158
3673.0,0.10204318999304807
3672.0,0.10231793820358015
3671.0,0.10385974855798041
3670.0,0.10479852522110678
3669.0,0.10496440254767725
3668.0,0.1047432468551055
3667.0,0.1047432468551055
3666.0,0.10562854614376227
3665.0,0.10668218838388821
3664.0,0.10729336219433439
3663.0,0.10762709260156367
3662.0,0.10784972209863586
3661.0,0.10790539730951965
3660.0,0.1075158206353124
3659.0,0.10707101764479421
3658.0,0.10690433390377163
3657.0,0.10740457717110186
3656.0,0.10801676914803293
3655.0,0.10784972209863586
3654.0,0.10679324694015202
3653.0,0.10585015323207791
3652.0,0.1052410056281079
3651.0,0.10430127304069425
3650.0,0.10319830233507843
3649.0,0.1033635694704158
3648.0,0.10452220372428545
3647.0,0.1052410056281079
3646.0,0.10546241500425357
3645.0,0.1061827760325369
3644.0,0.10734896612269962
3643.0,0.10840679565103484
3642.0,0.10896458468468917
3641.0,0.10918790104487552
3640.0,0.10929960230112479
3639.0,0.10957898119908571
3638.0,0.10980261378997125
3637.0,0.10969078310005154
3636.0,0.10946720807225518
3635.0,0.10946720807225518
3634.0,0.10946720807225518
3633.0,0.10907622851098608
3632.0,0.10823959854332843
3631.0,0.10762709260156367
3630.0,0.10746019534136453
3629.0,0.10796107965870849
3628.0,0.10902040301031102
3627.0,0.10946720807225518
3626.0,0.10957898119908571
3625.0,0.11053021603049262
3624.0,0.11131515334030118
3623.0,0.11109074073646874
3622.0,0.11036219959333216
3621.0,0.10969078310005154
3620.0,0.10929960230112479
3619.0,0.10918790104487552
3618.0,0.10907622851098608
3617.0,0.10879717273970457
3616.0,0.10857405715200596
3615.0,0.10874138309586101
3614.0,0.10907622851098608
3613.0,0.10935546370475246
3612.0,0.10957898119908571
3611.0,0.10991447328367476
3610.0,0.11041819785037621
3609.0,0.11097857790477517
3608.0,0.11142740314240007
3607.0,0.1117081546434846
3606.0,0.11198908775497118
3605.0,0.11215773489264302
3604.0,0.11221396516162851
3603.0,0.11193288659256306
3602.0,0.11159583226295333
3601.0,0.1114835389250548
3600.0,0.11159583226295333
3599.0,0.11176432672943282
3598.0,0.11176432672943282
3597.0,0.11159583226295333
3596.0,0.11131515334030118
3595.0,0.11120293254331926
3594.0,0.11125903931710734
3593.0,0.11137127461477392
3592.0,0.11142740314240007
3591.0,0.11131515334030118
3590.0,0.11114683301706374
3589.0,0.11081038795292675
3588.0,0.11053021603049262
3587.0,0.11075433910702048
3586.0,0.11125903931710734
3585.0,0.1117081546434846
3584.0,0.11221396516162851
3583.0,0.11277666863747693
3582.0,0.11305829401658474
3581.0,0.1130019543289007
3580.0,0.11277666863747693
3579.0,0.1125514997500463
3578.0,0.11232644754555254
3577.0,0.11210151190312767
3576.0,0.11193288659256306
3575.0,0.11193288659256306
3574.0,0.11215773489264302
3573.0,0.1125514997500463
3572.0,0.1128329791052256
3571.0,0.11277666863747693
3570.0,0.11238269966426384
3569.0,0.11176432672943282
3568.0,0.11120293254331926
3567.0,0.11103465569966264
3566.0,0.11114683301706374
3565.0,0.11120293254331926
3564.0,0.11137127461477392
3563.0,0.11193288659256306
3562.0,0.11266406960083297
3561.0,0.11317099532301778
3560.0,0.11345287660889425
3559.0,0.11367851344052027
3558.0,0.11379137583250243
3557.0,0.11390426756225258
3556.0,0.11401718864502697
3555.0,0.11396072443355765
3554.0,0.1138478180292033
3553.0,0.11379137583250243
3552.0,0.1138478180292033
3551.0,0.11396072443355765
3550.0,0.11401718864502697
3549.0,0.11390426756225258
3548.0,0.1138478180292033
3547.0,0.1138478180292033
3546.0,0.11407366019856902
3545.0,0.11446916681190777
3544.0,0.11475189221861393
3543.0,0.11492161585077598
3542.0,0.11509140583739286
3541.0,0.11548784080960606
3540.0,0.11594135290606156
3539.0,0.11622503864474187
3538.0,0.11633856484638239
3537.0,0.1163953390777075
3536.0,0.1165657063169907
3535.0,0.116736140415026
3534.0,0.11690664142431006
3533.0,0.11684980031672243
3532.0,0.116736140415026
3531.0,0.1165657063169907
3530.0,0.11633856484638239
3529.0,0.11611154211151953
3528.0,0.11577123036739612
3527.0,0.11531789579397489
3526.0,0.1148084593931522
3525.0,0.1145256971708426
3524.0,0.11458223488906394
3523.0,0.114865033936566
3522.0,0.11526126223036814
3521.0,0.11565785235294102
3520.0,0.11599807523121286
3519.0,0.11628179803604044
3518.0,0.11645212073195621
3517.0,0.11645212073195621
3516.0,0.11633856484638239
3515.0,0.11628179803604044
3514.0,0.11628179803604044
3513.0,0.11628179803604044
3512.0,0.11622503864474187
3511.0,0.11622503864474187
3510.0,0.1163953390777075
3509.0,0.1165657063169907
3508.0,0.1165657063169907
3507.0,0.1163953390777075
3506.0,0.11605480496572018
3505.0,0.1157145376603248
3504.0,0.11548784080960606
3503.0,0.11537453674376552
3502.0,0.11537453674376552
3501.0,0.11531789579397489
3500.0,0.11526126223036814
3499.0,0.11531789579397489
3498.0,0.11560117444331386
3497.0,0.11605480496572018
3496.0,0.11645212073195621
3495.0,0.11667932161702477
3494.0,0.11679296664760996
3493.0,0.11679296664760996
3492.0,0.116736140415026
3491.0,0.11667932161702477
3490.0,0.1165657063169907
3489.0,0.1163953390777075
3488.0,0.11633856484638239
3487.0,0.11633856484638239
3486.0,0.11628179803604044
3485.0,0.11611154211151953
3484.0,0.11599807523121286
3483.0,0.11605480496572018
3482.0,0.11628179803604044
3481.0,0.11662251025166115
3480.0,0.11684980031672243
3479.0,0.1169634899723202
3478.0,0.11702034596270106
3477.0,0.11713408027837091
3476.0,0.11713408027837091
3475.0,0.11713408027837091
3474.0,0.11719095860756013
3473.0,0.11730473761840288
3472.0,0.11758931562603192
3471.0,0.11781711236973003
3470.0,0.11798803837334138
3469.0,0.11810202642698875
3468.0,0.11815903167507247
3467.0,0.11815903167507247
3466.0,0.11810202642698875
3465.0,0.11798803837334138
3464.0,0.11781711236973003
3463.0,0.11770319906234805
3462.0,0.11764625361128611
3461.0,0.11764625361128611
3460.0,0.11770319906234805
3459.0,0.11781711236973003
3458.0,0.11804502866039956
3457.0,0.11833009232793867
3456.0,0.11872949607064243
3455.0,0.1190150095132465
3454.0,0.11924355548978971
3453.0,0.11935787359571504
3452.0,0.11941504393502012
3451.0,0.11947222180119477
3450.0,0.11947222180119477
3449.0,0.11947222180119477
3448.0,0.11947222180119477
3447.0,0.11941504393502012
3446.0,0.11935787359571504
3445.0,0.11941504393502012
3444.0,0.11958660012208333
3443.0,0.11992991593593283
3442.0,0.12033079436794658
3441.0,0.12061736282565727
3440.0,0.12096149476276286
3439.0,0.1213058996038916
3438.0,0.12159311241900439
3437.0,0.12182301950849372
3436.0,0.1219955297319748
3435.0,0.12205304837081177
3434.0,0.12211057462851604
3433.0,0.12216810850710624
3432.0,0.12222565000860186
3431.0,0.12228319913502328
3430.0,0.12251347193039863
3429.0,0.12285911021517903
3428.0,0.12320502379929943
3427.0,0.12320502379929943
3426.0,0.12280148472821018
3425.0,0.12222565000860186
3424.0,0.12176553132495593
3423.0,0.12170805075020397
3422.0,0.12211057462851604
3421.0,0.12274386688641381
3420.0,0.1233203895807995
3419.0,0.12349349573411894
3418.0,0.12326270285933538
3417.0,0.12274386688641381
3416.0,0.12234075588839133
3415.0,0.12205304837081177
3414.0,0.12188051530283239
3413.0,0.12176553132495593
3412.0,0.12153565465853111
3411.0,0.12147820449879343
3410.0,0.12165057778222454
3409.0,0.1219955297319748
3408.0,0.12234075588839133
3407.0,0.12245589228405596
3406.0,0.12234075588839133
3405.0,0.12216810850710624
3404.0,0.1219955297319748
3403.0,0.12182301950849372
3402.0,0.12159311241900439
3401.0,0.1213058996038916
3400.0,0.12101887660626365
3399.0,0.1207320431753871
3398.0,0.12061736282565727
3397.0,0.12061736282565727
3396.0,0.12067469921519258
3395.0,0.1207893947082408
3394.0,0.12067469921519258
3393.0,0.12050271275057156
3392.0,0.12027350336042275
3391.0,0.12015894401343741
3390.0,0.1202162199095842
3389.0,0.12050271275057156
3388.0,0.1207320431753871
3387.0,0.12084675381575383
3386.0,0.12084675381575383
3385.0,0.1207320431753871
3384.0,0.12056003400478299
3383.0,0.12050271275057156
3382.0,0.12050271275057156
3381.0,0.12050271275057156
3380.0,0.12061736282565727
3379.0,0.1207320431753871
3378.0,0.12084675381575383
3377.0,0.12101887660626365
3376.0,0.12119106764079435
3375.0,0.1213058996038916
3374.0,0.12119106764079435
3373.0,0.12084675381575383
3372.0,0.12056003400478299
3371.0,0.12044539906102569
3370.0,0.12056003400478299
3369.0,0.1207320431753871
3368.0,0.12090412049992727
3367.0,0.12096149476276286
3366.0,0.12090412049992727
3365.0,0.1207893947082408
3364.0,0.12067469921519258
3363.0,0.12056003400478299
3362.0,0.12061736282565727
3361.0,0.1207320431753871
3360.0,0.12084675381575383
3359.0,0.12090412049992727
3358.0,0.1207893947082408
3357.0,0.12067469921519258
3356.0,0.12067469921519258
3355.0,0.12084675381575383
3354.0,0.12119106764079435
3353.0,0.12159311241900439
3352.0,0.12188051530283239
3351.0,0.12188051530283239
3350.0,0.12159311241900439
3349.0,0.12119106764079435
3348.0,0.12084675381575383
3347.0,0.1207320431753871
3346.0,0.12084675381575383
3345.0,0.12101887660626365
3344.0,0.12113366304327466
3343.0,0.12113366304327466
3342.0,0.12107626603243293
3341.0,0.12107626603243293
3340.0,0.12107626603243293
3339.0,0.12107626603243293
3338.0,0.12107626603243293
3337.0,0.12107626603243293
3336.0,0.12113366304327466
3335.0,0.12124847982699793
3334.0,0.12124847982699793
3333.0,0.12124847982699793
3332.0,0.12136332697348307
3331.0,0.12165057778222454
3330.0,0.12193801870998744
3329.0,0.12211057462851604
3328.0,0.12211057462851604
3327.0,0.1219955297319748
3326.0,0.12193801870998744
3325.0,0.12193801870998744
3324.0,0.12188051530283239
3323.0,0.12176553132495593
3322.0,0.12153565465853111
3321.0,0.12136332697348307
3320.0,0.1213058996038916
3319.0,0.12147820449879343
3318.0,0.12170805075020397
3317.0,0.12193801870998744
3316.0,0.1219955297319748
3315.0,0.12188051530283239
3314.0,0.12153565465853111
3313.0,0.12124847982699793
3312.0,0.12101887660626365
3311.0,0.12107626603243293
3310.0,0.12136332697348307
3309.0,0.12165057778222454
3308.0,0.12188051530283239
3307.0,0.12193801870998744
3306.0,0.12182301950849372
3305.0,0.12176553132495593
3304.0,0.12176553132495593
3303.0,0.12176553132495593
3302.0,0.12170805075020397
3301.0,0.12159311241900439
3300.0,0.12147820449879343
3299.0,0.12147820449879343
3298.0,0.12159311241900439
3297.0,0.12165057778222454
3296.0,0.12170805075020397
3295.0,0.12188051530283239
3294.0,0.12216810850710624
3293.0,0.12251347193039863
3292.0,0.12274386688641381
3291.0,0.12268625668776156
3290.0,0.12245589228405596
3289.0,0.12222565000860186
3288.0,0.12211057462851604
3287.0,0.12211057462851604
3286.0,0.12216810850710624
3285.0,0.12211057462851604
3284.0,0.1219955297319748
3283.0,0.12188051530283239
3282.0,0.12188051530283239
3281.0,0.12188051530283239
3280.0,0.12188051530283239
3279.0,0.12188051530283239
3278.0,0.12188051530283239
3277.0,0.12205304837081177
3276.0,0.12234075588839133
3275.0,0.12257105921178035
3274.0,0.12268625668776156
3273.0,0.12268625668776156
3272.0,0.12268625668776156
3271.0,0.12274386688641381
3270.0,0.12274386688641381
3269.0,0.12257105921178035
3268.0,0.12216810850710624
3267.0,0.12170805075020397
3266.0,0.12142076193778073
3265.0,0.1213058996038916
3264.0,0.12136332697348307
3263.0,0.12147820449879343
3262.0,0.12165057778222454
3261.0,0.12188051530283239
3260.0,0.12216810850710624
3259.0,0.12245589228405596
3258.0,0.12262865413022594
3257.0,0.12257105921178035
3256.0,0.12239832027072817
3255.0,0.12228319913502328
3254.0,0.12234075588839133
3253.0,0.12257105921178035
3252.0,0.12280148472821018
3251.0,0.12297438413275108
3250.0,0.12314735239865637
3249.0,0.12320502379929943
3248.0,0.12320502379929943
3247.0,0.12308968865537295
3246.0,0.12291674334934943
3245.0,0.12280148472821018
3244.0,0.12268625668776156
3243.0,0.12274386688641381
3242.0,0.12285911021517903
3241.0,0.12291674334934943
3240.0,0.12285911021517903
3239.0,0.12262865413022594
3238.0,0.12234075588839133
3237.0,0.12222565000860186
3236.0,0.12222565000860186
3235.0,0.12239832027072817
3234.0,0.12251347193039863
3233.0,0.12257105921178035
3232.0,0.12268625668776156
3231.0,0.12274386688641381
3230.0,0.12280148472821018
3229.0,0.12280148472821018
3228.0,0.12268625668776156
3227.0,0.12245589228405596
3226.0,0.12216810850710624
3225.0,0.12188051530283239
3224.0,0.12176553132495593
3223.0,0.12188051530283239
3222.0,0.12216810850710624
3221.0,0.12251347193039863
3220.0,0.12274386688641381
3219.0,0.12274386688641381
3218.0,0.12262865413022594
3217.0,0.12257105921178035
3216.0,0.12257105921178035
3215.0,0.12268625668776156
3214.0,0.12285911021517903
3213.0,0.12297438413275108
3212.0,0.12297438413275108
3211.0,0.12285911021517903
3210.0,0.12268625668776156
3209.0,0.12245589228405596
3208.0,0.12216810850710624
3207.0,0.12193801870998744
3206.0,0.12176553132495593
3205.0,0.12170805075020397
3204.0,0.12182301950849372
3203.0,0.12205304837081177
3202.0,0.12239832027072817
3201.0,0.12280148472821018
3200.0,0.12308968865537295
3199.0,0.12314735239865637
3198.0,0.12308968865537295
3197.0,0.12314735239865637
3196.0,0.12326270285933538
3195.0,0.1233203895807995
3194.0,0.12326270285933538
3193.0,0.12308968865537295
3192.0,0.12297438413275108
3191.0,0.12291674334934943
3190.0,0.12285911021517903
3189.0,0.12285911021517903
3188.0,0.12285911021517903
3187.0,0.12280148472821018
3186.0,0.12268625668776156
3185.0,0.12251347193039863
3184.0,0.12245589228405596
3183.0,0.12251347193039863
3182.0,0.12268625668776156
3181.0,0.12291674334934943
3180.0,0.12303203256741524
3179.0,0.12308968865537295
3178.0,0.12303203256741524
3177.0,0.12291674334934943
3176.0,0.12291674334934943
3175.0,0.12303203256741524
3174.0,0.12326270285933538
3173.0,0.12343578601615435
3172.0,0.12355121312165873
3171.0,0.12355121312165873
3170.0,0.12349349573411894
3169.0,0.12349349573411894
3168.0,0.12355121312165873
3167.0,0.1236666709136196
3166.0,0.1236666709136196
3165.0,0.1236666709136196
3164.0,0.12360893818081231
3163.0,0.1236666709136196
3162.0,0.12372441132212098
3161.0,0.1236666709136196
3160.0,0.12355121312165873
3159.0,0.12337808396572703
3158.0,0.12326270285933538
3157.0,0.12320502379929943
3156.0,0.12314735239865637
3155.0,0.12308968865537295
3154.0,0.12303203256741524
3153.0,0.12297438413275108
3152.0,0.12297438413275108
3151.0,0.12314735239865637
3150.0,0.12326270285933538
3149.0,0.1233203895807995
3148.0,0.12326270285933538
3147.0,0.12308968865537295
3146.0,0.12297438413275108
3145.0,0.12303203256741524
3144.0,0.12303203256741524
3143.0,0.12303203256741524
3142.0,0.12291674334934943
3141.0,0.12285911021517903
3140.0,0.12291674334934943
3139.0,0.12308968865537295
3138.0,0.1233203895807995
3137.0,0.12343578601615435
3136.0,0.12355121312165873
3135.0,0.12360893818081231
3134.0,0.12360893818081231
3133.0,0.12360893818081231
3132.0,0.12360893818081231
3131.0,0.12383991517437187
3130.0,0.12412880927263426
3129.0,0.12441789567211425
3128.0,0.12453358413361437
3127.0,0.12453358413361437
3126.0,0.12436006299583169
3125.0,0.12424442074194553
3124.0,0.12412880927263426
3123.0,0.12412880927263426
3122.0,0.12424442074194553
3121.0,0.1244757360506914
3120.0,0.12464930342071079
3119.0,0.12476505354983503
3118.0,0.12470717462899183
3117.0,0.12470717462899183
3116.0,0.12470717462899183
3115.0,0.12476505354983503
3114.0,0.12482294018529605
3113.0,0.12482294018529605
3112.0,0.12476505354983503
3111.0,0.12476505354983503
3110.0,0.12482294018529605
3109.0,0.1249387366082999
3108.0,0.125054563914468
3107.0,0.12534426740189897
3106.0,0.12569216687196105
3105.0,0.126156466776564
3104.0,0.12650501774383094
3103.0,0.126621263590859
3102.0,0.12644690648638135
3101.0,0.1260984021355387
3100.0,0.1258081953209289
3099.0,0.12569216687196105
3098.0,0.12563416426995122
3097.0,0.12557616941349803
3096.0,0.12546020292898974
3095.0,0.1252863112422209
3094.0,0.12522836281570182
3093.0,0.12517042212027807
3092.0,0.12522836281570182
3091.0,0.1252863112422209
3090.0,0.12534426740189897
3089.0,0.12540223129680017
3088.0,0.12563416426995122
3087.0,0.12592425477696523
3086.0,0.1263307072932056
3085.0,0.12667939818460128
3084.0,0.12691201440971422
3083.0,0.12714475529518965
3082.0,0.12726117252733116
3081.0,0.12737762097471172
3080.0,0.12749410065407507
3079.0,0.12749410065407507
3078.0,0.12743585690934855
3077.0,0.12737762097471172
3076.0,0.12737762097471172
3075.0,0.12731939284807026
3074.0,0.12720296001040166
3073.0,0.12697018793895576
3072.0,0.12679569072295926
3071.0,0.1267375405612734
3070.0,0.12679569072295926
3069.0,0.12691201440971422
3068.0,0.12714475529518965
3067.0,0.12743585690934855
3066.0,0.12778543660241448
3065.0,0.1280769681176266
3064.0,0.12819363554127072
3063.0,0.1280769681176266
3062.0,0.12784372725170723
3061.0,0.1275523522109867
3060.0,0.12737762097471172
3059.0,0.12737762097471172
3058.0,0.1275523522109867
3057.0,0.12790202572577325
3056.0,0.1280769681176266
3055.0,0.12819363554127072
3054.0,0.12819363554127072
3053.0,0.1282519810081284
3052.0,0.12842706445412122
3051.0,0.12877744324029283
3050.0,0.12912810493225724
3049.0,0.12924505510985984
3048.0,0.12895273869450063
3047.0,0.1284854412916181
3046.0,0.12790202572577325
3045.0,0.1275523522109867
3044.0,0.12731939284807026
3043.0,0.12731939284807026
3042.0,0.12726117252733116
3041.0,0.12702836926155658
3040.0,0.12656313677796316
3039.0,0.12592425477696523
3038.0,0.12534426740189897
3037.0,0.125054563914468
3036.0,0.125054563914468
3035.0,0.12522836281570182
3034.0,0.12534426740189897
3033.0,0.12534426740189897
3032.0,0.12522836281570182
3031.0,0.1251124891538875
3030.0,0.124996646399959
3029.0,0.12476505354983503
3028.0,0.12459143992293642
3027.0,0.12441789567211425
3026.0,0.12441789567211425
3025.0,0.1244757360506914
3024.0,0.12453358413361437
3023.0,0.1244757360506914
3022.0,0.12436006299583169
3021.0,0.12430223801979201
3020.0,0.12430223801979201
3019.0,0.12436006299583169
3018.0,0.12441789567211425
3017.0,0.12436006299583169
3016.0,0.12430223801979201
3015.0,0.12430223801979201
3014.0,0.12441789567211425
3013.0,0.12459143992293642
3012.0,0.12470717462899183
3011.0,0.12476505354983503
3010.0,0.12482294018529605
3009.0,0.12482294018529605
3008.0,0.1248808345374317
3007.0,0.1249387366082999
3006.0,0.1248808345374317
3005.0,0.1248808345374317
3004.0,0.12482294018529605
3003.0,0.12482294018529605
3002.0,0.12482294018529605
3001.0,0.12482294018529605
3000.0,0.12470717462899183
2999.0,0.12464930342071079
2998.0,0.12459143992293642
2997.0,0.12459143992293642
2996.0,0.12470717462899183
2995.0,0.1248808345374317
2994.0,0.12517042212027807
2993.0,0.12546020292898974
2992.0,0.12563416426995122
2991.0,0.12546020292898974
2990.0,0.125054563914468
2989.0,0.12464930342071079
2988.0,0.12453358413361437
2987.0,0.12470717462899183
2986.0,0.125054563914468
2985.0,0.12551818230053358
2984.0,0.12598229613781387
2983.0,0.12650501774383094
2982.0,0.1270865583796048
2981.0,0.1276688787697493
2980.0,0.1283103343144847
2979.0,0.12889429901441463
2978.0,0.12942053944731513
2977.0,0.12977172098820566
2976.0,0.13000599987825812
2975.0,0.13041629228657614
2974.0,0.13106182166708868
2973.0,0.13200248965504868
2972.0,0.13300418688935212
2971.0,0.13394907599072514
2970.0,0.13489602535887202
2969.0,0.13572630319562085
2968.0,0.13655817138629134
2967.0,0.1375704438939911
2966.0,0.13864483980673992
2965.0,0.13990167030148193
2964.0,0.14122226269455074
2963.0,0.1425468829647336
2962.0,0.1438755557576996
2961.0,0.1450869776921444
2960.0,0.14624096692523136
2959.0,0.14739803066176504
2958.0,0.14849704722945534
2957.0,0.14941502364796855
2956.0,0.1502121757623145
2955.0,0.15082636690117335
2954.0,0.15125681810431635
2953.0,0.1514414278762366
2952.0,0.15131834597604965
2951.0,0.15113378850522063
2950.0,0.15107228677292173
2949.0,0.15125681810431635
2948.0,0.1514414278762366
2947.0,0.1515645446685292
2946.0,0.1515645446685292
2945.0,0.1513798825658661
2944.0,0.15101079374883275
2943.0,0.15064201833870117
2942.0,0.1503963419175529
2941.0,0.1502121757623145
2940.0,0.15027355580367208
2939.0,0.15045774799498335
2938.0,0.15076490868527737
2937.0,0.15125681810431635
2936.0,0.15193410459600853
2935.0,0.15279763601907614
2934.0,0.15391041964201602
2933.0,0.15508812608785938
2932.0,0.15614457737683884
2931.0,0.15707887924001773
2930.0,0.15807768832054925
2929.0,0.15914144595812063
2928.0,0.1603334431175667
2927.0,0.16133977401105848
2926.0,0.16215913834447737
2925.0,0.1626009756579776
2924.0,0.1627904721987936
2923.0,0.1627904721987936
2922.0,0.16266413198498508
2921.0,0.1624115617644888
2920.0,0.16184381524785207
2919.0,0.16102504504453208
2918.0,0.1600194423216572
2917.0,0.15882830550046778
2916.0,0.15757799664235028
2915.0,0.1562068016740874
2914.0,0.1548399223480541
2913.0,0.15366288787019466
2912.0,0.15255073750082726
2911.0,0.1514414278762366
2910.0,0.15027355580367208
2909.0,0.14917004015146906
2908.0,0.14819148577176255
2907.0,0.14745901423020125
2906.0,0.14691047014813452
2905.0,0.14648430324307138
2904.0,0.14605855411951008
2903.0,0.14551177495556966
2902.0,0.14484442282300614
2901.0,0.14429916916456276
2900.0,0.14393604666690019
2899.0,0.14381507327283027
2898.0,0.14375459920994582
2897.0,0.14369413356670102
2896.0,0.14351278713136928
2895.0,0.14345235514325205
2894.0,0.14345235514325205
2893.0,0.14345235514325205
2892.0,0.14339193156306385
2891.0,0.1430899396992138
2890.0,0.1427278264359586
2889.0,0.14224547794055775
2888.0,0.141884067809934
2887.0,0.1415229581866595
2886.0,0.1413425159091921
2885.0,0.1413425159091921
2884.0,0.1413425159091921
2883.0,0.1414628024303608
2882.0,0.1414628024303608
2881.0,0.14140265500530758
2880.0,0.14140265500530758
2879.0,0.14140265500530758
2878.0,0.1415229581866595
2877.0,0.14170347546611461
2876.0,0.1419442819496357
2875.0,0.14212497447643746
2874.0,0.14230574221345038
2873.0,0.14242629585250421
2872.0,0.14248658522331015
2871.0,0.1423660148499919
2870.0,0.14224547794055775
2869.0,0.14224547794055775
2868.0,0.1425468829647336
2867.0,0.14296920172737604
2866.0,0.14339193156306385
2865.0,0.14363367634075197
2864.0,0.14381507327283027
2863.0,0.14417809459397013
2862.0,0.1447838052666366
2861.0,0.14575470293388149
2860.0,0.14684956355215717
2859.0,0.14800825203784274
2858.0,0.14923127307111983
2857.0,0.15051916275601385
2856.0,0.15181088300860135
2855.0,0.15310645668337486
2854.0,0.15415809257824264
2853.0,0.15477789357098626
2852.0,0.15477789357098626
2851.0,0.15434394001645568
2850.0,0.1535391748706676
2849.0,0.15255073750082726
2848.0,0.1514414278762366
2847.0,0.15015080439474215
2846.0,0.14874165128092476
2845.0,0.1472151313194523
2844.0,0.14581545616639335
2843.0,0.1446020033459312
2842.0,0.14351278713136928
2841.0,0.1425468829647336
2840.0,0.14170347546611461
2839.0,0.1410419452819942
2838.0,0.14056146454494378
2837.0,0.1400815147992842
2836.0,0.13960209487268727
2835.0,0.13918303613546223
2834.0,0.1388241644869712
2833.0,0.13858508136400327
2832.0,0.1384058553561347
2831.0,0.13834612978608907
2830.0,0.13822670328130693
2829.0,0.1380476250785483
2828.0,0.13786862068696282
2827.0,0.13774932540207496
2826.0,0.13763006287711765
2825.0,0.1374512304752069
2824.0,0.13727247168202528
2823.0,0.13709378643700187
2822.0,0.1369151746796402
2821.0,0.1366771398795441
2820.0,0.13643923547375736
2819.0,0.13632033212410222
2818.0,0.1363797797296844
2817.0,0.13643923547375736
2816.0,0.13643923547375736
2815.0,0.1363797797296844
2814.0,0.13632033212410222
2813.0,0.13632033212410222
2812.0,0.1363797797296844
2811.0,0.1363797797296844
2810.0,0.13626089265478303
2809.0,0.1360826230421397
2808.0,0.13578566953867033
2807.0,0.13554825284181704
2806.0,0.1354889189416082
2805.0,0.1354889189416082
2804.0,0.1354889189416082
2803.0,0.1354889189416082
2802.0,0.1354889189416082
2801.0,0.13554825284181704
2800.0,0.13566694496660703
2799.0,0.13566694496660703
2798.0,0.13566694496660703
2797.0,0.13554825284181704
2796.0,0.13537027545448765
2795.0,0.13531096586314884
2794.0,0.13537027545448765
2793.0,0.1354889189416082
2792.0,0.13560759484941132
2791.0,0.13566694496660703
2790.0,0.13560759484941132
2789.0,0.13537027545448765
2788.0,0.13513308567147386
2787.0,0.13489602535887202
2786.0,0.13471831500438958
2785.0,0.134659094375416
2784.0,0.1345998818206986
2783.0,0.13454067733803532
2782.0,0.13454067733803532
2781.0,0.1345998818206986
2780.0,0.134659094375416
2779.0,0.13471831500438958
2778.0,0.13477754370982087
2777.0,0.13471831500438958
2776.0,0.1345998818206986
2775.0,0.13448148092522594
2774.0,0.13436311230037123
2773.0,0.13430394008392943
2772.0,0.13424477592854833
2771.0,0.1341264717921853
2770.0,0.13406733180681396
2769.0,0.1341264717921853
2768.0,0.13436311230037123
2767.0,0.134659094375416
2766.0,0.13483678049391368
2765.0,0.13483678049391368
2764.0,0.13471831500438958
2763.0,0.1345998818206986
2762.0,0.1345998818206986
2761.0,0.134659094375416
2760.0,0.13471831500438958
2759.0,0.13483678049391368
2758.0,0.13489602535887202
2757.0,0.1350738084609946
2756.0,0.13513308567147386
2755.0,0.1350738084609946
2754.0,0.1349552783069008
2753.0,0.13477754370982087
2752.0,0.13471831500438958
2751.0,0.13483678049391368
2750.0,0.1349552783069008
2749.0,0.13501453934020602
2748.0,0.1349552783069008
2747.0,0.13489602535887202
2746.0,0.13483678049391368
2745.0,0.13477754370982087
2744.0,0.13471831500438958
2743.0,0.1345998818206986
2742.0,0.13454067733803532
2741.0,0.13454067733803532
2740.0,0.1345998818206986
2739.0,0.13477754370982087
2738.0,0.1349552783069008
2737.0,0.13501453934020602
2736.0,0.1349552783069008
2735.0,0.13477754370982087
2734.0,0.13448148092522594
2733.0,0.13418561983203192
2732.0,0.13394907599072514
2731.0,0.13388996015562338
2730.0,0.1341264717921853
2729.0,0.13448148092522594
2728.0,0.13483678049391368
2727.0,0.13501453934020602
2726.0,0.13489602535887202
2725.0,0.13454067733803532
2724.0,0.13424477592854833
2723.0,0.1341264717921853
2722.0,0.13424477592854833
2721.0,0.13448148092522594
2720.0,0.13471831500438958
2719.0,0.13483678049391368
2718.0,0.13477754370982087
2717.0,0.13471831500438958
2716.0,0.13471831500438958
2715.0,0.13483678049391368
2714.0,0.13501453934020602
2713.0,0.13519237097385295
2712.0,0.1352516643703412
2711.0,0.13513308567147386
2710.0,0.13489602535887202
2709.0,0.13471831500438958
2708.0,0.1345998818206986
2707.0,0.13454067733803532
2706.0,0.13448148092522594
2705.0,0.13448148092522594
2704.0,0.13448148092522594
2703.0,0.13448148092522594
2702.0,0.13454067733803532
2701.0,0.1345998818206986
2700.0,0.134659094375416
2699.0,0.1345998818206986
2698.0,0.1345998818206986
2697.0,0.13448148092522594
2696.0,0.13436311230037123
2695.0,0.13430394008392943
2694.0,0.13418561983203192
2693.0,0.13406733180681396
2692.0,0.13394907599072514
2691.0,0.13394907599072514
2690.0,0.13406733180681396
2689.0,0.1341264717921853
2688.0,0.1341264717921853
2687.0,0.1341264717921853
2686.0,0.13418561983203192
2685.0,0.13430394008392943
2684.0,0.13442229258007088
2683.0,0.13448148092522594
2682.0,0.13442229258007088
2681.0,0.13436311230037123
2680.0,0.13430394008392943
2679.0,0.13430394008392943
2678.0,0.13442229258007088
2677.0,0.13454067733803532
2676.0,0.134659094375416
2675.0,0.134659094375416
2674.0,0.13454067733803532
2673.0,0.13442229258007088
2672.0,0.13430394008392943
2671.0,0.13430394008392943
2670.0,0.13436311230037123
2669.0,0.13454067733803532
2668.0,0.134659094375416
2667.0,0.13471831500438958
2666.0,0.13477754370982087
2665.0,0.13483678049391368
2664.0,0.13489602535887202
2663.0,0.1349552783069008
2662.0,0.1350738084609946
2661.0,0.13501453934020602
2660.0,0.13489602535887202
2659.0,0.13471831500438958
2658.0,0.13454067733803532
2657.0,0.13442229258007088
2656.0,0.13436311230037123
2655.0,0.13430394008392943
2654.0,0.13424477592854833
2653.0,0.13418561983203192
2652.0,0.13424477592854833
2651.0,0.13436311230037123
2650.0,0.13448148092522594
2649.0,0.1345998818206986
2648.0,0.134659094375416
2647.0,0.13471831500438958
2646.0,0.134659094375416
2645.0,0.13454067733803532
2644.0,0.13430394008392943
2643.0,0.13418561983203192
2642.0,0.13418561983203192
2641.0,0.13430394008392943
2640.0,0.13448148092522594
2639.0,0.13454067733803532
2638.0,0.13448148092522594
2637.0,0.13442229258007088
2636.0,0.13436311230037123
2635.0,0.13442229258007088
2634.0,0.134659094375416
2633.0,0.13489602535887202
2632.0,0.13513308567147386
2631.0,0.13519237097385295
2630.0,0.1350738084609946
2629.0,0.13483678049391368
2628.0,0.134659094375416
2627.0,0.1345998818206986
2626.0,0.13477754370982087
2625.0,0.1349552783069008
2624.0,0.13501453934020602
2623.0,0.1349552783069008
2622.0,0.13489602535887202
2621.0,0.13489602535887202
2620.0,0.13501453934020602
2619.0,0.1350738084609946
2618.0,0.13513308567147386
2617.0,0.13501453934020602
2616.0,0.13489602535887202
2615.0,0.13483678049391368
2614.0,0.13477754370982087
2613.0,0.13477754370982087
2612.0,0.13471831500438958
2611.0,0.134659094375416
2610.0,0.13471831500438958
2609.0,0.13489602535887202
2608.0,0.13519237097385295
2607.0,0.1354889189416082
2606.0,0.13572630319562085
2605.0,0.13590442657575252
2604.0,0.13596381727422502
2603.0,0.1360826230421397
2602.0,0.1360826230421397
2601.0,0.13596381727422502
2600.0,0.13578566953867033
2599.0,0.13566694496660703
2598.0,0.13572630319562085
2597.0,0.13572630319562085
2596.0,0.13572630319562085
2595.0,0.13566694496660703
2594.0,0.13566694496660703
2593.0,0.13566694496660703
2592.0,0.13578566953867033
2591.0,0.13596381727422502
2590.0,0.13626089265478303
2589.0,0.13655817138629134
2588.0,0.1367961409713705
2587.0,0.1367961409713705
2586.0,0.1366771398795441
2585.0,0.13649869935854997
2584.0,0.13632033212410222
2583.0,0.136142038116027
2582.0,0.13590442657575252
2581.0,0.13560759484941132
2580.0,0.13554825284181704
2579.0,0.13572630319562085
2578.0,0.136142038116027
2577.0,0.13649869935854997
2576.0,0.13661765155921235
2575.0,0.1366771398795441
2574.0,0.13673663634951905
2573.0,0.13673663634951905
2572.0,0.13673663634951905
2571.0,0.13685565374733244
2570.0,0.1369151746796402
2569.0,0.13685565374733244
2568.0,0.1366771398795441
2567.0,0.13649869935854997
2566.0,0.13649869935854997
2565.0,0.1366771398795441
2564.0,0.13685565374733244
2563.0,0.1369151746796402
2562.0,0.13685565374733244
2561.0,0.1366771398795441
2560.0,0.13655817138629134
2559.0,0.13649869935854997
2558.0,0.1366771398795441
2557.0,0.1369151746796402
2556.0,0.1370342410222376
2555.0,0.1370342410222376
2554.0,0.13697470377052956
2553.0,0.1369151746796402
2552.0,0.13697470377052956
2551.0,0.1370342410222376
2550.0,0.13709378643700187
2549.0,0.13715334001706125
2548.0,0.13727247168202528
2547.0,0.13739163603505822
2546.0,0.1374512304752069
2545.0,0.13739163603505822
2544.0,0.13715334001706125
2543.0,0.1369151746796402
2542.0,0.1367961409713705
2541.0,0.13697470377052956
2540.0,0.13739163603505822
2539.0,0.13780896894840278
2538.0,0.1381073096085541
2537.0,0.13822670328130693
2536.0,0.13816700234205515
2535.0,0.13798794874978348
2534.0,0.13786862068696282
2533.0,0.13786862068696282
2532.0,0.13786862068696282
2531.0,0.13798794874978348
2530.0,0.1381073096085541
2529.0,0.13822670328130693
2528.0,0.13828641242856565
2527.0,0.13822670328130693
2526.0,0.13822670328130693
2525.0,0.13816700234205515
2524.0,0.13816700234205515
2523.0,0.1381073096085541
2522.0,0.13798794874978348
2521.0,0.13792828062000573
2520.0,0.13798794874978348
2519.0,0.1380476250785483
2518.0,0.1380476250785483
2517.0,0.13792828062000573
2516.0,0.13774932540207496
2515.0,0.13763006287711765
2514.0,0.13774932540207496
2513.0,0.13798794874978348
2512.0,0.13822670328130693
2511.0,0.13834612978608907
2510.0,0.1384058553561347
2509.0,0.1384058553561347
2508.0,0.13828641242856565
2507.0,0.13816700234205515
2506.0,0.1380476250785483
2505.0,0.1380476250785483
2504.0,0.13816700234205515
2503.0,0.13834612978608907
2502.0,0.13846558914096208
2501.0,0.1385253311428314
2500.0,0.1384058553561347
2499.0,0.13834612978608907
2498.0,0.13834612978608907
2497.0,0.1384058553561347
2496.0,0.1384058553561347
2495.0,0.13834612978608907
2494.0,0.13828641242856565
2493.0,0.13822670328130693
2492.0,0.1380476250785483
2491.0,0.13786862068696282
2490.0,0.13774932540207496
2489.0,0.13780896894840278
2488.0,0.13792828062000573
2487.0,0.1380476250785483
2486.0,0.13798794874978348
2485.0,0.13786862068696282
2484.0,0.13780896894840278
2483.0,0.13780896894840278
2482.0,0.13798794874978348
2481.0,0.1381073096085541
2480.0,0.1380476250785483
2479.0,0.13792828062000573
2478.0,0.13768969004572962
2477.0,0.13751083309410284
2476.0,0.1373320497714121
2475.0,0.13727247168202528
2474.0,0.13739163603505822
2473.0,0.13763006287711765
2472.0,0.13792828062000573
2471.0,0.13798794874978348
2470.0,0.13786862068696282
2469.0,0.13768969004572962
2468.0,0.13774932540207496
2467.0,0.13792828062000573
2466.0,0.13816700234205515
2465.0,0.13822670328130693
2464.0,0.1381073096085541
2463.0,0.13798794874978348
2462.0,0.13786862068696282
2461.0,0.13780896894840278
2460.0,0.13768969004572962
2459.0,0.1375704438939911
2458.0,0.1375704438939911
2457.0,0.13763006287711765
2456.0,0.13763006287711765
2455.0,0.1375704438939911
2454.0,0.13751083309410284
2453.0,0.13739163603505822
2452.0,0.1374512304752069
2451.0,0.1375704438939911
2450.0,0.13768969004572962
2449.0,0.13780896894840278
2448.0,0.13786862068696282
2447.0,0.13774932540207496
2446.0,0.13763006287711765
2445.0,0.1374512304752069
2444.0,0.1373320497714121
2443.0,0.13721290176465573
2442.0,0.13709378643700187
2441.0,0.13709378643700187
2440.0,0.1373320497714121
2439.0,0.13768969004572962
2438.0,0.1380476250785483
2437.0,0.13822670328130693
2436.0,0.13816700234205515
2435.0,0.13798794874978348
2434.0,0.13768969004572962
2433.0,0.13739163603505822
2432.0,0.13709378643700187
2431.0,0.1370342410222376
2430.0,0.13721290176465573
2429.0,0.1374512304752069
2428.0,0.13774932540207496
2427.0,0.13786862068696282
2426.0,0.13786862068696282
2425.0,0.13780896894840278
2424.0,0.13774932540207496
2423.0,0.13780896894840278
2422.0,0.13792828062000573
2421.0,0.1381073096085541
2420.0,0.13822670328130693
2419.0,0.13816700234205515
2418.0,0.1381073096085541
2417.0,0.1380476250785483
2416.0,0.1380476250785483
2415.0,0.1381073096085541
2414.0,0.1381073096085541
2413.0,0.13822670328130693
2412.0,0.1384058553561347
2411.0,0.13870460647330418
2410.0,0.1388241644869712
2409.0,0.1387643813659596
2408.0,0.1385253311428314
2407.0,0.13822670328130693
2406.0,0.1380476250785483
2405.0,0.1380476250785483
2404.0,0.1381073096085541
2403.0,0.13828641242856565
2402.0,0.1385253311428314
2401.0,0.1388839558386048
2400.0,0.1390633792999063
2399.0,0.13912320359670227
2398.0,0.1390633792999063
2397.0,0.13894375542312654
2396.0,0.13894375542312654
2395.0,0.13894375542312654
2394.0,0.13894375542312654
2393.0,0.1388241644869712
2392.0,0.1388241644869712
2391.0,0.13894375542312654
2390.0,0.13918303613546223
2389.0,0.1394224487555844
2388.0,0.13948232253825377
2387.0,0.1394224487555844
2386.0,0.13918303613546223
2385.0,0.13894375542312654
2384.0,0.13864483980673992
2383.0,0.1385253311428314
2382.0,0.13846558914096208
2381.0,0.13846558914096208
2380.0,0.13834612978608907
2379.0,0.13816700234205515
2378.0,0.13792828062000573
2377.0,0.13780896894840278
2376.0,0.1380476250785483
2375.0,0.13858508136400327
2374.0,0.13900356324280416
2373.0,0.1388839558386048
2372.0,0.13780896894840278
2371.0,0.13626089265478303
2370.0,0.1350738084609946
2369.0,0.13501453934020602
2368.0,0.1360232160956132
2367.0,0.13768969004572962
2366.0,0.13924287691845794
2365.0,0.1394224487555844
2364.0,0.1374512304752069
2363.0,0.13424477592854833
2362.0,0.13212021654162043
2361.0,0.13282724882135022
2360.0,0.13590442657575252
2359.0,0.13978181533124334
2358.0,0.1423660148499919
2357.0,0.14224547794055775
2356.0,0.14032142337155173
2355.0,0.13828641242856565
2354.0,0.13763006287711765
2353.0,0.13786862068696282
2352.0,0.13780896894840278
2351.0,0.13721290176465573
2350.0,0.1375704438939911
2349.0,0.14062149557439896
2348.0,0.14466259553045968
2347.0,0.1463626180414057
2346.0,0.14375459920994582
2345.0,0.13798794874978348
2344.0,0.13300418688935212
2343.0,0.13153190097901324
2342.0,0.13383085236622927
2341.0,0.13673663634951905
2340.0,0.13774932540207496
2339.0,0.13763006287711765
2338.0,0.1375704438939911
2337.0,0.13792828062000573
2336.0,0.1375704438939911
2335.0,0.1363797797296844
2334.0,0.1349552783069008
2333.0,0.1340081998737246
2332.0,0.13371266091580503
2331.0,0.13448148092522594
2330.0,0.136142038116027
2329.0,0.13834612978608907
2328.0,0.1397219002477652
2327.0,0.13990167030148193
2326.0,0.13924287691845794
2325.0,0.13834612978608907
2324.0,0.13780896894840278
2323.0,0.13739163603505822
2322.0,0.1374512304752069
2321.0,0.1375704438939911
2320.0,0.13763006287711765
2319.0,0.13768969004572962
2318.0,0.13774932540207496
2317.0,0.1381073096085541
2316.0,0.13834612978608907
2315.0,0.13846558914096208
2314.0,0.13828641242856565
2313.0,0.1380476250785483
2312.0,0.13763006287711765
2311.0,0.1373320497714121
2310.0,0.1374512304752069
2309.0,0.13798794874978348
2308.0,0.13870460647330418
2307.0,0.13912320359670227
2306.0,0.13912320359670227
2305.0,0.13870460647330418
2304.0,0.13822670328130693
2303.0,0.13780896894840278
2302.0,0.13768969004572962
2301.0,0.13780896894840278
2300.0,0.13792828062000573
2299.0,0.1380476250785483
2298.0,0.13816700234205515
2297.0,0.1384058553561347
2296.0,0.1387643813659596
2295.0,0.13900356324280416
2294.0,0.13924287691845794
2293.0,0.13936258322624528
2292.0,0.13948232253825377
2291.0,0.1394224487555844
2290.0,0.13936258322624528
2289.0,0.13936258322624528
2288.0,0.1394224487555844
2287.0,0.13954220457652888
2286.0,0.1396619934290062
2285.0,0.1397219002477652
2284.0,0.13960209487268727
2283.0,0.1394224487555844
2282.0,0.13924287691845794
2281.0,0.13912320359670227
2280.0,0.13912320359670227
2279.0,0.13918303613546223
2278.0,0.13912320359670227
2277.0,0.1390633792999063
2276.0,0.13894375542312654
2275.0,0.13894375542312654
2274.0,0.13894375542312654
2273.0,0.13894375542312654
2272.0,0.1388839558386048
2271.0,0.1388241644869712
2270.0,0.1387643813659596
2269.0,0.1387643813659596
2268.0,0.1387643813659596
2267.0,0.1387643813659596
2266.0,0.1387643813659596
2265.0,0.1388241644869712
2264.0,0.1388241644869712
2263.0,0.1388839558386048
2262.0,0.1388839558386048
2261.0,0.13894375542312654
2260.0,0.1390633792999063
2259.0,0.1390633792999063
2258.0,0.13912320359670227
2257.0,0.13918303613546223
2256.0,0.13930272594796111
2255.0,0.1394224487555844
2254.0,0.13948232253825377
2253.0,0.13948232253825377
2252.0,0.1394224487555844
2251.0,0.13924287691845794
2250.0,0.13912320359670227
2249.0,0.1390633792999063
2248.0,0.1390633792999063
2247.0,0.13912320359670227
2246.0,0.13912320359670227
2245.0,0.13900356324280416
2244.0,0.1388839558386048
2243.0,0.1388241644869712
2242.0,0.1388839558386048
2241.0,0.1388839558386048
2240.0,0.1388241644869712
2239.0,0.13864483980673992
2238.0,0.13858508136400327
2237.0,0.13858508136400327
2236.0,0.13864483980673992
2235.0,0.13870460647330418
2234.0,0.1387643813659596
2233.0,0.1388839558386048
2232.0,0.13894375542312654
2231.0,0.13894375542312654
2230.0,0.1388839558386048
2229.0,0.13870460647330418
2228.0,0.13846558914096208
2227.0,0.13834612978608907
2226.0,0.13822670328130693
2225.0,0.13828641242856565
2224.0,0.13846558914096208
2223.0,0.13870460647330418
2222.0,0.13900356324280416
2221.0,0.13912320359670227
2220.0,0.13912320359670227
2219.0,0.13894375542312654
2218.0,0.1388241644869712
2217.0,0.13870460647330418
2216.0,0.1385253311428314
2215.0,0.13834612978608907
2214.0,0.13822670328130693
2213.0,0.13816700234205515
2212.0,0.13822670328130693
2211.0,0.13828641242856565
2210.0,0.13834612978608907
2209.0,0.1384058553561347
2208.0,0.1384058553561347
2207.0,0.13834612978608907
2206.0,0.13828641242856565
2205.0,0.13822670328130693
2204.0,0.13822670328130693
2203.0,0.13816700234205515
2202.0,0.1380476250785483
2201.0,0.13792828062000573
2200.0,0.13774932540207496
2199.0,0.13763006287711765
2198.0,0.1375704438939911
2197.0,0.1374512304752069
2196.0,0.1373320497714121
2195.0,0.13727247168202528
2194.0,0.1373320497714121
2193.0,0.13751083309410284
2192.0,0.13763006287711765
2191.0,0.13768969004572962
2190.0,0.13763006287711765
2189.0,0.1375704438939911
2188.0,0.1374512304752069
2187.0,0.1373320497714121
2186.0,0.13721290176465573
2185.0,0.13709378643700187
2184.0,0.1370342410222376
2183.0,0.13697470377052956
2182.0,0.1369151746796402
2181.0,0.1370342410222376
2180.0,0.13721290176465573
2179.0,0.13739163603505822
2178.0,0.1374512304752069
2177.0,0.13751083309410284
2176.0,0.13751083309410284
2175.0,0.13739163603505822
2174.0,0.13721290176465573
2173.0,0.1370342410222376
2172.0,0.13697470377052956
2171.0,0.1370342410222376
2170.0,0.13721290176465573
2169.0,0.1373320497714121
2168.0,0.1374512304752069
2167.0,0.1375704438939911
2166.0,0.13774932540207496
2165.0,0.13792828062000573
2164.0,0.13798794874978348
2163.0,0.13786862068696282
2162.0,0.1375704438939911
2161.0,0.1373320497714121
2160.0,0.13715334001706125
2159.0,0.13709378643700187
2158.0,0.13721290176465573
2157.0,0.13727247168202528
2156.0,0.13727247168202528
2155.0,0.13721290176465573
2154.0,0.13709378643700187
2153.0,0.1370342410222376
2152.0,0.1370342410222376
2151.0,0.13715334001706125
2150.0,0.13739163603505822
2149.0,0.1375704438939911
2148.0,0.13768969004572962
2147.0,0.13763006287711765
2146.0,0.1375704438939911
2145.0,0.13751083309410284
2144.0,0.1374512304752069
2143.0,0.13739163603505822
2142.0,0.13739163603505822
2141.0,0.13739163603505822
2140.0,0.13739163603505822
2139.0,0.1373320497714121
2138.0,0.1373320497714121
2137.0,0.13739163603505822
2136.0,0.1374512304752069
2135.0,0.13751083309410284
2134.0,0.13751083309410284
2133.0,0.1374512304752069
2132.0,0.13739163603505822
2131.0,0.1373320497714121
2130.0,0.1374512304752069
2129.0,0.13763006287711765
2128.0,0.13780896894840278
2127.0,0.13780896894840278
2126.0,0.13768969004572962
2125.0,0.1374512304752069
2124.0,0.13727247168202528
2123.0,0.13721290176465573
2122.0,0.13715334001706125
2121.0,0.13715334001706125
2120.0,0.13715334001706125
2119.0,0.13721290176465573
2118.0,0.13739163603505822
2117.0,0.1375704438939911
2116.0,0.13774932540207496
2115.0,0.13792828062000573
2114.0,0.13792828062000573
2113.0,0.13780896894840278
2112.0,0.13768969004572962
2111.0,0.13763006287711765
2110.0,0.13768969004572962
2109.0,0.13763006287711765
2108.0,0.13751083309410284
2107.0,0.13739163603505822
2106.0,0.1373320497714121
2105.0,0.1374512304752069
2104.0,0.13763006287711765
2103.0,0.13774932540207496
2102.0,0.13774932540207496
2101.0,0.13768969004572962
2100.0,0.13751083309410284
2099.0,0.13739163603505822
2098.0,0.13739163603505822
2097.0,0.1373320497714121
2096.0,0.13721290176465573
2095.0,0.13709378643700187
2094.0,0.1370342410222376
2093.0,0.13697470377052956
2092.0,0.13685565374733244
2091.0,0.13673663634951905
2090.0,0.1366771398795441
2089.0,0.1366771398795441
2088.0,0.1366771398795441
2087.0,0.1366771398795441
2086.0,0.13661765155921235
2085.0,0.13655817138629134
2084.0,0.13643923547375736
2083.0,0.1363797797296844
2082.0,0.13632033212410222
2081.0,0.1363797797296844
2080.0,0.13643923547375736
2079.0,0.13649869935854997
2078.0,0.13643923547375736
2077.0,0.13632033212410222
2076.0,0.1360826230421397
2075.0,0.13590442657575252
2074.0,0.13578566953867033
2073.0,0.13578566953867033
2072.0,0.13572630319562085
2071.0,0.13560759484941132
2070.0,0.1354889189416082
2069.0,0.13542959314656988
2068.0,0.13537027545448765
2067.0,0.13537027545448765
2066.0,0.13531096586314884
2065.0,0.13531096586314884
2064.0,0.13531096586314884
2063.0,0.13531096586314884
2062.0,0.13531096586314884
2061.0,0.13531096586314884
2060.0,0.13519237097385295
2059.0,0.13501453934020602
2058.0,0.1349552783069008
2057.0,0.13501453934020602
2056.0,0.13501453934020602
2055.0,0.13489602535887202
2054.0,0.13471831500438958
2053.0,0.13436311230037123
2052.0,0.13406733180681396
2051.0,0.13388996015562338
2050.0,0.13383085236622927
2049.0,0.13383085236622927
2048.0,0.13388996015562338
2047.0,0.1340081998737246
2046.0,0.1340081998737246
2045.0,0.13388996015562338
2044.0,0.13365357725039817
2043.0,0.13347637446715632
2042.0,0.13335827943396006
2041.0,0.13335827943396006
2040.0,0.13335827943396006
2039.0,0.13335827943396006
2038.0,0.13335827943396006
2037.0,0.13329924395750092
2036.0,0.1331221856625011
2035.0,0.13300418688935212
2034.0,0.13288622016802298
2033.0,0.13282724882135022
2032.0,0.13276828548110586
2031.0,0.13270933014511588
2030.0,0.13265038281120756
2029.0,0.13259144347720886
2028.0,0.13241467345296387
2027.0,0.1322379753497993
2026.0,0.1320613491092153
2025.0,0.13194363817695853
2024.0,0.13194363817695853
2023.0,0.13200248965504868
2022.0,0.1320613491092153
2021.0,0.1320613491092153
2020.0,0.13194363817695853
2019.0,0.13176713157753506
2018.0,0.1316495003520317
2017.0,0.13159069668503998
2016.0,0.13170831198214428
2015.0,0.1318847946727828
2014.0,0.13200248965504868
2013.0,0.1318847946727828
2012.0,0.13153190097901324
2011.0,0.1311792938024825
2010.0,0.13100309751286465
2009.0,0.13094438129809216
2008.0,0.13100309751286465
2007.0,0.1311205537629121
2006.0,0.13123804178794973
2005.0,0.13123804178794973
2004.0,0.1311205537629121
2003.0,0.13106182166708868
2002.0,0.13100309751286465
2001.0,0.13100309751286465
2000.0,0.13094438129809216
1999.0,0.1308856730206247
1998.0,0.1308269726783169
1997.0,0.13070959579060148
1996.0,0.1305922506177981
1995.0,0.1304749371427727
1994.0,0.13035765534840538
1993.0,0.1302990263261221
1992.0,0.1302990263261221
1991.0,0.13041629228657614
1990.0,0.1304749371427727
1989.0,0.1304749371427727
1988.0,0.13035765534840538
1987.0,0.13024040521758962
1986.0,0.13024040521758962
1985.0,0.13018179202067182
1984.0,0.13012318673323353
1983.0,0.13000599987825812
1982.0,0.13000599987825812
1981.0,0.13000599987825812
1980.0,0.13006458935314003
1979.0,0.13006458935314003
1978.0,0.13000599987825812
1977.0,0.12994741830645506
1976.0,0.13000599987825812
1975.0,0.13012318673323353
1974.0,0.13035765534840538
1973.0,0.13035765534840538
1972.0,0.13024040521758962
1971.0,0.13000599987825812
1970.0,0.12983027886355947
1969.0,0.12977172098820566
1968.0,0.12983027886355947
1967.0,0.13012318673323353
1966.0,0.1304749371427727
1965.0,0.1306509192409071
1964.0,0.1305922506177981
1963.0,0.1304749371427727
1962.0,0.13035765534840538
1961.0,0.13035765534840538
1960.0,0.13041629228657614
1959.0,0.13053358991913355
1958.0,0.1306509192409071
1957.0,0.1306509192409071
1956.0,0.13053358991913355
1955.0,0.1304749371427727
1954.0,0.13053358991913355
1953.0,0.13076828026902376
1952.0,0.13094438129809216
1951.0,0.1311205537629121
1950.0,0.13123804178794973
1949.0,0.1311792938024825
1948.0,0.1311205537629121
1947.0,0.13106182166708868
1946.0,0.13100309751286465
1945.0,0.1308856730206247
1944.0,0.1308269726783169
1943.0,0.13076828026902376
1942.0,0.1308856730206247
1941.0,0.1308856730206247
1940.0,0.1306509192409071
1939.0,0.1302990263261221
1938.0,0.13006458935314003
1937.0,0.12983027886355947
1936.0,0.12965462891904034
1935.0,0.12936203678919433
1934.0,0.1290696416513042
1933.0,0.12877744324029283
1932.0,0.12854382597704617
1931.0,0.1282519810081284
1930.0,0.1280186461566306
1929.0,0.1277271537757949
1928.0,0.12749410065407507
1927.0,0.12726117252733116
1926.0,0.12702836926155658
1925.0,0.12679569072295926
1924.0,0.12656313677796316
1923.0,0.12638880300353272
1922.0,0.12621453918179926
1921.0,0.12598229613781387
1920.0,0.1258081953209289
1919.0,0.12563416426995122
1918.0,0.12551818230053358
1917.0,0.12546020292898974
1916.0,0.1252863112422209
1915.0,0.125054563914468
1914.0,0.12482294018529605
1913.0,0.12441789567211425
1912.0,0.12395544975390482
1911.0,0.12343578601615435
1910.0,0.12314735239865637
1909.0,0.12297438413275108
1908.0,0.12285911021517903
1907.0,0.12274386688641381
1906.0,0.12262865413022594
1905.0,0.12251347193039863
1904.0,0.12228319913502328
1903.0,0.12193801870998744
1902.0,0.12159311241900439
1901.0,0.12124847982699793
1900.0,0.12090412049992727
1899.0,0.12061736282565727
1898.0,0.12050271275057156
1897.0,0.12050271275057156
1896.0,0.12044539906102569
1895.0,0.12027350336042275
1894.0,0.1199871616332282
1893.0,0.11964380058076385
1892.0,0.11935787359571504
1891.0,0.1190150095132465
1890.0,0.11867241589944855
1889.0,0.11833009232793867
1888.0,0.11798803837334138
1887.0,0.11764625361128611
1886.0,0.11730473761840288
1885.0,0.1169634899723202
1884.0,0.11667932161702477
1883.0,0.11633856484638239
1882.0,0.11611154211151953
1881.0,0.11588463798833115
1880.0,0.11560117444331386
1879.0,0.11526126223036814
1878.0,0.11492161585077598
1877.0,0.11458223488906394
1876.0,0.11429961987167014
1875.0,0.11401718864502697
1874.0,0.1137349409702435
1873.0,0.11350927482751816
1872.0,0.11317099532301778
1871.0,0.1128329791052256
1870.0,0.1125514997500463
1869.0,0.11232644754555254
1868.0,0.11198908775497118
1867.0,0.1114835389250548
1866.0,0.11103465569966264
1865.0,0.11069829749368965
1864.0,0.11041819785037621
1863.0,0.11008231656379408
1862.0,0.1098585399354226
1861.0,0.10957898119908571
1860.0,0.10929960230112479
1859.0,0.10890877353227624
1858.0,0.10846254232743546
1857.0,0.10801676914803293
1856.0,0.10757145305477
1855.0,0.10718217569042365
1854.0,0.10690433390377163
1853.0,0.10668218838388821
1852.0,0.10646015643533868
1851.0,0.1060718734573931
1850.0,0.10562854614376227
1849.0,0.10513034325474746
1848.0,0.1047432468551055
1847.0,0.10468797552421272
1846.0,0.10485381062400778
1845.0,0.10513034325474746
1844.0,0.10513034325474746
1843.0,0.10468797552421272
1842.0,0.10413564875270076
1841.0,0.10363915453068362
1840.0,0.10325338439259446
1839.0,0.10281292341984649
1838.0,0.10248287059947447
1837.0,0.10215306842042837
1836.0,0.1017686154869033
1835.0,0.1014393550602879
1834.0,0.10116516193172598
1833.0,0.10105553313349058
1832.0,0.10089114180660053
1831.0,0.10067205012234592
1830.0,0.10023419805561384
1829.0,0.09957824654226233
1828.0,0.09903237608087578
1827.0,0.09881421986284966
1826.0,0.09875969792669093
1825.0,0.09854167860388774
1824.0,0.09816040794877057
1823.0,0.09767069414168117
1822.0,0.0972358560759139
1821.0,0.09674718310604158
1820.0,0.096150661903319
1819.0,0.09560907998763835
1818.0,0.0950141189006366
1817.0,0.09447395156495153
1816.0,0.09388054245443844
1815.0,0.09328794305703592
1814.0,0.09264239186882706
1813.0,0.09205147838772776
1812.0,0.09135416109288674
1811.0,0.09060445403289452
1810.0,0.08985603893548699
1809.0,0.0892155652071629
1808.0,0.08868255767596933
1807.0,0.0880970039559672
1806.0,0.08745911720936239
1805.0,0.0867691288864394
1804.0,0.08602728844902896
1803.0,0.08523386307414738
1802.0,0.08444188458847957
1801.0,0.08359869639612438
1800.0,0.08270459905431071
1799.0,0.08175990977858505
1798.0,0.08081727095749947
1797.0,0.08003329851661278
1796.0,0.07935499859321249
1795.0,0.07878187880504961
1794.0,0.07826151631540124
1793.0,0.07743023101428781
1792.0,0.07628980560343712
1791.0,0.07494587968815725
1790.0,0.07376047895413773
1789.0,0.07283502570063005
1788.0,0.07191154033502922
1787.0,0.0709900145060387
1786.0,0.07007043991541217
1785.0,0.0691018855898955
1784.0,0.06793230779927839
1783.0,0.0666645899223488
1782.0,0.06550154875643233
1781.0,0.06424089625468832
1780.0,0.06283329628496737
1779.0,0.06148027482350815
1778.0,0.060430831344098435
1777.0,0.05933412752417122
1776.0,0.05814087347462649
1775.0,0.05709945885970602
1774.0,0.05620880107069848
1773.0,0.05482695382609992
1772.0,0.0525172634430815
1771.0,0.05012229596312534
1770.0,0.0486139051197072
1769.0,0.04774046340917959
1768.0,0.046481918555007384
1767.0,0.04464904263234004
1766.0,0.042967683653061695
1765.0,0.041914151478914974
1764.0,0.04129280891271536
1763.0,0.04043395336207234
1762.0,0.039006291057664066
1761.0,0.03701541568300293
1760.0,0.03545753392086315
1759.0,0.0349394793888016
1758.0,0.03498654972775217
1757.0,0.03489241415094413
1756.0,0.034469056377139484
1755.0,0.03456310022373987
1754.0,0.035646070707806565
1753.0,0.03720463014276687
1752.0,0.038816290187564384
1751.0,0.040529297924893015
1750.0,0.04253638427006878
1749.0,0.044793462458058375
1748.0,0.047595060422975566
1747.0,0.05134256785867963
1746.0,0.056159373598738904
1745.0,0.06193081377661436
1744.0,0.0688982543673613
1743.0,0.07711890879170658
1742.0,0.0861331881037608
1741.0,0.0957714836599215
1740.0,0.10690433390377163
1739.0,0.11987267778337518
1738.0,0.13294519952329842
1737.0,0.14448084433219988
1736.0,0.1550260618531123
1735.0,0.16717187046064663
1734.0,0.18442225167573278
1733.0,0.20425897913075608
1732.0,0.22047565667521019
1731.0,0.23425695857895557
1730.0,0.2487208960166578
1729.0,0.26472055193954325
1728.0,0.28158135817034435
1727.0,0.29808678878765615
1726.0,0.31425826139773627
1725.0,0.33068311943388773
1724.0,0.3483343960770644
1723.0,0.36713795989977016
1722.0,0.38541913300251385
1721.0,0.4017568083463774
1720.0,0.4161214015013741
1719.0,0.4301581005962385
1718.0,0.44660248987612006
1717.0,0.46546624399488445
1716.0,0.4817493486915001
1715.0,0.4932244633933567
1714.0,0.5015515968260003
1713.0,0.5070999888912966
1712.0,0.5094796906366512
1711.0,0.5089185865768129
1710.0,0.5062631977231602
1709.0,0.5019652763129732
1708.0,0.496209316942819
1707.0,0.4886514845097869
1706.0,0.47886191629596375
1705.0,0.46801044858744967
1704.0,0.45867042233330624
1703.0,0.45197930509446893
1702.0,0.4457531918338895
1701.0,0.43663759051339257
1700.0,0.42400437979673233
1699.0,0.4120646513636439
1698.0,0.4036228560024009
1697.0,0.39609816826832867
1696.0,0.38689848303308727
1695.0,0.3772680348352808
1694.0,0.36997914888659
1693.0,0.3652205418540484
1692.0,0.36111157529492455
1691.0,0.3560540872519333
1690.0,0.3500812812645808
1689.0,0.3442854503812902
1688.0,0.3397038397292702
1687.0,0.33611070137733856
1686.0,0.33245366048848357
1685.0,0.3279021420642825
1684.0,0.32339783041798165
1683.0,0.31984585826562695
1682.0,0.317223353685566
1681.0,0.31461659019851274
1680.0,0.31149119234347866
1679.0,0.3082114755973018
1678.0,0.30539480106643135
1677.0,0.30268345826761656
1676.0,0.2998156703778023
1675.0,0.29688065376392214
1674.0,0.2941362877160807
1673.0,0.291324207273463
1672.0,0.2886146209015483
1671.0,0.28592183501814405
1670.0,0.28341242232430774
1669.0,0.2809174260985141
1668.0,0.2781893847874535
1667.0,0.2755602766029255
1666.0,0.27310985925817843
1665.0,0.2706731903531392
1664.0,0.26808905788312765
1663.0,0.2656803191409931
1662.0,0.2635238179723034
1661.0,0.2613779720820575
1660.0,0.25900606841511387
1659.0,0.25649023527157033
1658.0,0.2539888922480742
1657.0,0.25173442733125917
1656.0,0.2498002721708179
1655.0,0.24779784682347894
1654.0,0.24580461181016156
1653.0,0.2450404122782901
1652.0,0.24351603555739065
1651.0,0.24078556876575608
1650.0,0.2389747482886273
1649.0,0.23754651763645307
1648.0,0.23567439437401605
1647.0,0.23418248469008174
1646.0,0.23351279376030587
1645.0,0.2327699018892817
1644.0,0.23143589048642665
1643.0,0.2299584456803314
1642.0,0.22848601002033342
1641.0,0.22701854965503632
1640.0,0.22555603107503486
1639.0,0.22424396215590203
1638.0,0.2230809971579535
1637.0,0.22199353857649173
1636.0,0.2214146721370378
1635.0,0.22119779598676126
1634.0,0.2206199885083442
1633.0,0.21975471613464737
1632.0,0.2186036948032093
1631.0,0.21724080737600282
1630.0,0.21566805197785177
1629.0,0.21431433171909875
1628.0,0.21317762050081246
1627.0,0.21232703531250707
1626.0,0.2115487929765445
1625.0,0.21077194273266486
1624.0,0.20978522975602076
1623.0,0.2088709992727138
1622.0,0.208028798979232
1621.0,0.20711825461460287
1620.0,0.20620961530918125
1619.0,0.20530287310800133
1618.0,0.2046066650687106
1617.0,0.2046066650687106
1616.0,0.20558166912585896
1615.0,0.20669864638688495
1614.0,0.2076083105017461
1613.0,0.20809891999042884
1612.0,0.20795868928791772
1611.0,0.2074682380986923
1610.0,0.2069083998234198
1609.0,0.206349282292827
1608.0,0.20551195334083028
1607.0,0.20446755728984556
1606.0,0.20342566678957041
1605.0,0.20224787134928923
1604.0,0.2010042655561186
1603.0,0.19990181982522426
1602.0,0.19893947015214453
1601.0,0.19784224681303852
1600.0,0.19654288435158618
1599.0,0.19524739784953948
1598.0,0.19409154492580294
1597.0,0.192938760082761
1596.0,0.19178902707577805
1595.0,0.19064232978889417
1594.0,0.18963304631837485
1593.0,0.1887602272467106
1592.0,0.1878891587969005
1591.0,0.18722029299103604
1590.0,0.1866191932661443
1589.0,0.1859522790044006
1588.0,0.1851533313955367
1587.0,0.18442225167573278
1586.0,0.18402399902801458
1585.0,0.18415670933673334
1584.0,0.18482086986058133
1583.0,0.18628560811885508
1582.0,0.18849202005467336
1581.0,0.19131649087103075
1580.0,0.19429529556613567
1579.0,0.19729467292564795
1578.0,0.19969542244380145
1577.0,0.20114226825251436
1576.0,0.20155653964981246
1575.0,0.200797343699475
1574.0,0.19955787866374353
1573.0,0.19845909380968174
1572.0,0.19715788726092565
1571.0,0.19551981089400727
1570.0,0.19395576425191186
1569.0,0.19239733008350535
1568.0,0.19084446825281964
1567.0,0.18936429972446267
1566.0,0.188023055663046
1565.0,0.18655245573517876
1564.0,0.1851533313955367
1563.0,0.1842894602110372
1562.0,0.18369240056806024
1561.0,0.18269912160667867
1560.0,0.1809828013109407
1559.0,0.18032448000570733
1558.0,0.1809828013109407
1557.0,0.18025870272698952
1556.0,0.17953580942231584
1555.0,0.17874856845405884
1554.0,0.1778973313530796
1553.0,0.17704775945251838
1552.0,0.17619984625012197
1551.0,0.1755487299633871
1550.0,0.17483362774345035
1549.0,0.1742494186519723
1548.0,0.17360121781238225
1547.0,0.17295398299526576
1546.0,0.17224313702138327
1545.0,0.1713401034646802
1544.0,0.1704389437006073
1543.0,0.16966800654803826
1542.0,0.16889843549864048
1541.0,0.16813022571949832
1540.0,0.16729952903943257
1539.0,0.16602462872009371
1538.0,0.16481693015095633
1537.0,0.16449967213268124
1536.0,0.16462654752999129
1535.0,0.16462654752999129
1534.0,0.16437283379010226
1533.0,0.16424603248061653
1532.0,0.16405589990615188
1531.0,0.16361258067358908
1530.0,0.16291684917681404
1529.0,0.16222223044626682
1528.0,0.16159172150581314
1527.0,0.16121385505340546
1526.0,0.16115090926274478
1525.0,0.16115090926274478
1524.0,0.16102504504453208
1523.0,0.1605219526258017
1522.0,0.15964294079664376
1521.0,0.15864052954514496
1520.0,0.157390760389438
1519.0,0.15639352807548912
1518.0,0.15564710368910672
1517.0,0.1548399223480541
1516.0,0.15391041964201602
1515.0,0.15310645668337486
1514.0,0.15255073750082726
1513.0,0.15218065270476067
1512.0,0.15181088300860135
1511.0,0.1515029819096334
1510.0,0.1515029819096334
1509.0,0.15193410459600853
1508.0,0.15391041964201602
1507.0,0.16146572948813143
1506.0,0.17373078060627378
1505.0,0.18164212204164532
1504.0,0.1840903491132253
1503.0,0.18375870000821704
1502.0,0.1818401136028147
1501.0,0.17874856845405884
1500.0,0.17483362774345035
1499.0,0.17056756638240134
1498.0,0.16634300310712757
1497.0,0.16228533171508874
1496.0,0.15864052954514496
1495.0,0.15539858037365328
1494.0,0.15298290206464582
1493.0,0.15125681810431635
1492.0,0.14978275820161047
1491.0,0.1480693213597324
1490.0,0.14618015414323682
1489.0,0.1446020033459312
1488.0,0.14345235514325205
1487.0,0.14248658522331015
1486.0,0.1414628024303608
1485.0,0.14062149557439896
1484.0,0.13984173868172167
1483.0,0.13924287691845794
1482.0,0.1385253311428314
1481.0,0.13792828062000573
1480.0,0.13751083309410284
1479.0,0.13715334001706125
1478.0,0.13685565374733244
1477.0,0.13655817138629134
1476.0,0.13632033212410222
1475.0,0.1360826230421397
1474.0,0.13590442657575252
1473.0,0.1360232160956132
1472.0,0.1363797797296844
1471.0,0.13643923547375736
1470.0,0.1363797797296844
1469.0,0.13643923547375736
1468.0,0.1367961409713705
1467.0,0.1373320497714121
1466.0,0.13816700234205515
1465.0,0.13960209487268727
1464.0,0.1414628024303608
1463.0,0.14339193156306385
1462.0,0.1450869776921444
1461.0,0.14691047014813452
1460.0,0.1490476002065071
1459.0,0.15162611615539823
1458.0,0.15508812608785938
1457.0,0.160145015398115
1456.0,0.16488040957545036
1455.0,0.16723569505946845
1454.0,0.1683221508085333
1453.0,0.16921892439363884
1452.0,0.1701175535565067
1451.0,0.17088928984470542
1450.0,0.1714045436282976
1449.0,0.17179138553205453
1448.0,0.17198493577602325
1447.0,0.17204947169736973
1446.0,0.17204947169736973
1445.0,0.17204947169736973
1444.0,0.1721140172101443
1443.0,0.1721140172101443
1442.0,0.1721140172101443
1441.0,0.1721785723171978
1440.0,0.1724368887452763
1439.0,0.1726953589102651
1438.0,0.1725014918665413
1437.0,0.17153345264732156
1436.0,0.16921892439363884
1435.0,0.16583371605737995
1434.0,0.16222223044626682
1433.0,0.15870311250971825
1432.0,0.15490195998574308
1431.0,0.15058058620310066
1430.0,0.14581545616639335
1429.0,0.1410419452819942
1428.0,0.13655817138629134
1427.0,0.13259144347720886
1426.0,0.12912810493225724
1425.0,0.12557616941349803
1424.0,0.12176553132495593
1423.0,0.11855827805860697
1422.0,0.1163953390777075
1421.0,0.1148084593931522
1420.0,0.11311464101399138
1419.0,0.11153968196461372
1418.0,0.11109074073646874
1417.0,0.11272036546997688
1416.0,0.1169634899723202
1415.0,0.12401322857151209
1414.0,0.13430394008392943
1413.0,0.14831368455757254
1412.0,0.1660882849286216
1411.0,0.18641901143180806
1410.0,0.20627944318647673
1409.0,0.2225731776106885
1408.0,0.23381030668984004
1407.0,0.2393513804186438
1406.0,0.23927602785804836
1405.0,0.23492779889720805
1404.0,0.22841251911874472
1403.0,0.22155931642876725
1402.0,0.21538270736712462
1401.0,0.20978522975602076
1400.0,0.2043980201058202
1399.0,0.19893947015214453
1398.0,0.19375217280420953
1397.0,0.18922998876563635
1396.0,0.1851533313955367
1395.0,0.18085105719286587
1394.0,0.17626501160126873
1393.0,0.1721140172101443
1392.0,0.16870625562299035
1391.0,0.16583371605737995
1390.0,0.16310648362356628
1389.0,0.16020781555467067
1388.0,0.15714123755470633
1387.0,0.1538485234711846
1386.0,0.1507034591652734
1385.0,0.14813039927023364
1384.0,0.14618015414323682
1383.0,0.14466259553045968
1382.0,0.14369413356670102
1381.0,0.14345235514325205
1380.0,0.14393604666690019
1379.0,0.14502632627358292
1378.0,0.1465451586319333
1377.0,0.14843591773651155
1376.0,0.15064201833870117
1375.0,0.1535391748706676
1374.0,0.15714123755470633
1373.0,0.16096212661169407
1372.0,0.16449967213268124
1371.0,0.1673633724032968
1370.0,0.16973219906635828
1369.0,0.17121125181504682
1368.0,0.17153345264732156
1367.0,0.17037464664195068
1366.0,0.16787445746599094
1365.0,0.16418264570652719
1364.0,0.15914144595812063
1363.0,0.1527358982292355
1362.0,0.1455724942121388
1361.0,0.1388241644869712
1360.0,0.13306318226836056
1359.0,0.1280186461566306
1358.0,0.12355121312165873
1357.0,0.11958660012208333
1356.0,0.11599807523121286
1355.0,0.11277666863747693
1354.0,0.1098585399354226
1353.0,0.10734896612269962
1352.0,0.10518567091669917
1351.0,0.1033635694704158
1350.0,0.10193333935836524
1349.0,0.10105553313349058
1348.0,0.10072681268239614
1347.0,0.10089114180660053
1346.0,0.10165883427249067
1345.0,0.10297804393963661
1344.0,0.10468797552421272
1343.0,0.10662666975397506
1342.0,0.10857405715200596
1341.0,0.11019424813191447
1340.0,0.11120293254331926
1339.0,0.11109074073646874
1338.0,0.10963487855187593
1337.0,0.10684878687013422
1336.0,0.10297804393963661
1335.0,0.09837823590664274
1334.0,0.09334178232840018
1333.0,0.08830984124613894
1332.0,0.08344078069888616
1331.0,0.07904229404455076
1330.0,0.07535895258283709
1329.0,0.07252697900472405
1328.0,0.07052998382251041
1327.0,0.0692037370166998
1326.0,0.0685421293109949
1325.0,0.06844043290919477
1324.0,0.06879647454924775
1323.0,0.06950943469373039
1322.0,0.07058107428570715
1321.0,0.0718090519612431
1320.0,0.07304051161972436
1319.0,0.07427547306393745
1318.0,0.07566901529132153
1317.0,0.07717078033335123
1316.0,0.07867775641617802
1315.0,0.08018997982980403
1314.0,0.08170748724464438
1313.0,0.08344078069888616
1312.0,0.0854453014823664
1311.0,0.08788427092114603
1310.0,0.09065796163869155
1309.0,0.0935572061829677
1308.0,0.09653017149282994
1307.0,0.09946901754724413
1306.0,0.10231793820358015
1305.0,0.10507502264045665
1304.0,0.10790539730951965
1303.0,0.11103465569966264
1302.0,0.11469533241103202
1301.0,0.11924355548978971
1300.0,0.1249387366082999
1299.0,0.1316495003520317
1298.0,0.13930272594796111
1297.0,0.14764201633217278
1296.0,0.15645578805436489
1295.0,0.16564288728159493
1294.0,0.17483362774345035
1293.0,0.1840903491132253
1292.0,0.19327749692381868
1291.0,0.20245548563827365
1290.0,0.21126614117229248
1289.0,0.2198267563574059
1288.0,0.22797183467514515
1287.0,0.23567439437401605
1286.0,0.2429077798810675
1285.0,0.24949160514865376
1284.0,0.2555505425532014
1283.0,0.26114019792779986
1282.0,0.26600071346161314
1281.0,0.2701874928390644
1280.0,0.27384353382724513
1279.0,0.2767906895948886
1278.0,0.27901425584626094
1277.0,0.2809174260985141
1276.0,0.282995592959453
1275.0,0.28550259135019407
1274.0,0.2884458317498304
1273.0,0.2923446764688131
1272.0,0.2976556416442313
1271.0,0.304781081094849
1270.0,0.3137213219327988
1269.0,0.3243132913005988
1268.0,0.3363932918754797
1267.0,0.3495953301319683
1266.0,0.36331155204671717
1265.0,0.3773715738706751
1264.0,0.39147396642280596
1263.0,0.405165644416682
1262.0,0.417709317281006
1261.0,0.42910696378160784
1260.0,0.4392566989452882
1259.0,0.44794046581211555
1258.0,0.4546928835341759
1257.0,0.45979570015794025
1256.0,0.4639468448407953
1255.0,0.4677553563734178
1254.0,0.4710832997223453
1253.0,0.47456644657117986
1252.0,0.478992747591396
1251.0,0.48425858333063476
1250.0,0.4903942953884439
1249.0,0.4972998246894371
1248.0,0.5054280157698015
1247.0,0.5144205230153214
1246.0,0.5234581909725711
1245.0,0.5322439487559671
1244.0,0.541211118289155
1243.0,0.5502131530142267
1242.0,0.5584619612978392
1241.0,0.5657505476035245
1240.0,0.5721894273240098
1239.0,0.5774101601485178
1238.0,0.5803746391122568
1237.0,0.5812017094096464
1236.0,0.5803746391122568
1235.0,0.5779028368682897
1234.0,0.5739769843101239
1233.0,0.5689580546641144
1232.0,0.5633603683073394
1231.0,0.5572067740602309
1230.0,0.5502131530142267
1229.0,0.5427238139386743
1228.0,0.5355104525660286
1227.0,0.5287082889410615
1226.0,0.5215778122599195
1225.0,0.5144205230153214
1224.0,0.5075189898711234
1223.0,0.5007254181077827
1222.0,0.49390104007155955
1221.0,0.4871822414351268
1220.0,0.4806971507645712
1219.0,0.4741780478433373
1218.0,0.4675004139053376
1217.0,0.46104943798563847
1216.0,0.45494041530599705
1215.0,0.4494047925106721
1214.0,0.44393884099046743
1213.0,0.43806423668621863
1212.0,0.432268037451931
1211.0,0.4265481779645146
1210.0,0.4209026734473562
1209.0,0.41544263947432514
1208.0,0.4104972037362362
1207.0,0.40604970473601254
1206.0,0.4016472901307162
1205.0,0.39718065756730025
1204.0,0.39265222323158655
1203.0,0.38817052050162637
1202.0,0.38373459471829174
1201.0,0.37923951000579437
1200.0,0.37509939779550994
1199.0,0.37099838071300817
1198.0,0.3667335888445755
1197.0,0.36221017063777095
1196.0,0.35773338109732644
1195.0,0.3532043112215306
1194.0,0.34852814780095764
1193.0,0.34380593782081426
1192.0,0.3390397082239165
1191.0,0.3344190089820469
1190.0,0.3298469548078198
1189.0,0.3255062827036499
1188.0,0.32139058344107396
1187.0,0.31731352175023186
1186.0,0.3133637307377066
1185.0,0.30962669308394086
1184.0,0.30618514611058334
1183.0,0.3032942190660828
1182.0,0.30076949711659084
1181.0,0.29886393390747346
1180.0,0.2975694635544748
1179.0,0.2967086218813386
1178.0,0.2960211749916142
1177.0,0.2955920726131591
1176.0,0.295249095709329
1175.0,0.29499204066666396
1174.0,0.2945639534147495
1173.0,0.2937944581180294
1172.0,0.2925149880325264
1171.0,0.2905604258675891
1170.0,0.2876870913186347
1169.0,0.283829652140146
1168.0,0.2791794182296561
1167.0,0.27384353382724513
1166.0,0.26800855098107057
1165.0,0.2620126736665691
1164.0,0.25641184984009624
1163.0,0.2509597312965428
1162.0,0.2454987706130829
1161.0,0.23987921473543228
1160.0,0.23418248469008174
1159.0,0.2287800980504664
1158.0,0.22366209037982476
1157.0,0.21889116427053357
1156.0,0.21445663004340698
1155.0,0.21041928783557462
1154.0,0.2069083998234198
1153.0,0.2040505010971967
1152.0,0.20190206793751408
1151.0,0.20059052038487324
1150.0,0.19990181982522426
1149.0,0.20003947259401644
1148.0,0.2009352806489919
1147.0,0.20266319922465015
1146.0,0.20523320205917894
1145.0,0.2087305190897315
1144.0,0.2130357405642671
1143.0,0.21788585252092885
1142.0,0.2229358452575705
1141.0,0.2280452510360509
1140.0,0.2330669061627162
1139.0,0.23784680769640532
1138.0,0.24222450898807435
1137.0,0.2461106685401666
1136.0,0.2498002721708179
1135.0,0.25328797748333964
1134.0,0.25656863485331627
1133.0,0.25955835505023406
1132.0,0.2624098337142784
1131.0,0.2652801583443203
1130.0,0.26841123481326123
1129.0,0.2720522904552032
1128.0,0.2766264329810155
1127.0,0.2822463067892844
1126.0,0.2888679276931583
1125.0,0.2965366581167068
1124.0,0.30521936398793836
1123.0,0.3148855309534606
1122.0,0.32495526404410735
1121.0,0.33498217458752744
1120.0,0.34457341225408133
1119.0,0.3532043112215306
1118.0,0.36021478701317977
1117.0,0.3652205418540484
1116.0,0.36804917374078294
1115.0,0.36845477216569056
1114.0,0.36653154442041336
1113.0,0.3629107264696696
1112.0,0.35862505480787443
1111.0,0.35447948509412597
1110.0,0.35144484433732925
1109.0,0.3503731131594705
1108.0,0.351835221425999
1107.0,0.35595550718525115
1106.0,0.3625102704874894
1105.0,0.3717132689104856
1104.0,0.3832095136702842
1103.0,0.3966390756516196
1102.0,0.4113921952573134
1101.0,0.4270122918017949
1100.0,0.4433357378774314
1099.0,0.4596705252091262
1098.0,0.4750848524601332
1097.0,0.4887852988636119
1096.0,0.5011383110071159
1095.0,0.5118725037525416
1094.0,0.5205686628022637
1093.0,0.5272435506827877
1092.0,0.5322439487559671
1091.0,0.5358086293590003
1090.0,0.5379016188648442
1089.0,0.5389519083293421
1088.0,0.5392524581558029
1087.0,0.5391021572434522
1086.0,0.5377517846450026
1085.0,0.5353614409049672
1084.0,0.5323918944163668
1083.0,0.5290018303391264
1082.0,0.525055664534612
1081.0,0.5207126835238298
1080.0,0.5161275457773264
1079.0,0.5113083016830593
1078.0,0.5061238891471771
1077.0,0.5007254181077827
1076.0,0.495257363728312
1075.0,0.4897231555826451
1074.0,0.4838614232829257
1073.0,0.4778166823813137
1072.0,0.4717262228329562
1071.0,0.465593100862123
1070.0,0.4592952166892377
1069.0,0.45345733652186904
1068.0,0.44781866116066427
1067.0,0.4421320384319778
1066.0,0.4361630813354551
1065.0,0.43050904565121684
1064.0,0.42550573171467243
1063.0,0.42101715729720945
1062.0,0.41634789145795614
1061.0,0.4115041989927899
1060.0,0.4064924106682348
1059.0,0.40153779952584956
1058.0,0.3966390756516196
1057.0,0.3919020536747204
1056.0,0.38806437495987733
1055.0,0.38489201255680605
1054.0,0.38226596463598206
1053.0,0.380072289708532
1052.0,0.37840832414078207
1051.0,0.37757872602432974
1050.0,0.3774751375964318
1049.0,0.37809703910876946
1048.0,0.3793435201803792
1047.0,0.3813244611148603
1046.0,0.3836295277087305
1045.0,0.3861581781239307
1044.0,0.38870163770357125
1043.0,0.39093945006991304
1042.0,0.39265222323158655
1041.0,0.39394125058968577
1040.0,0.3950183703925685
1039.0,0.3956659268970888
1038.0,0.3958819938079652
1037.0,0.3956659268970888
1036.0,0.3954499674287386
1035.0,0.39480273261162213
1034.0,0.3938336853923794
1033.0,0.3924377568164117
1032.0,0.39093945006991304
1031.0,0.3889142665851273
1030.0,0.3861581781239307
1029.0,0.3828947694976219
1028.0,0.37923951000579437
1027.0,0.3756147585797349
1026.0,0.3716110699496884
1025.0,0.3677452233152865
1024.0,0.36451625318508785
1023.0,0.3632113109656252
1022.0,0.3651198592334737
1021.0,0.3715088950328771
1020.0,0.383419469914114
1019.0,0.4002260608536117
1018.0,0.4199878874705756
1017.0,0.43949558480494333
1016.0,0.4556838582525726
1015.0,0.4662279416152819
1014.0,0.47005659834133073
1013.0,0.4682656907234497
1012.0,0.4625587165920524
1011.0,0.4550642341184974
1010.0,0.44721014980721807
1009.0,0.44009337496388756
1008.0,0.433916215832004
1007.0,0.42840761663869276
1006.0,0.423083044034793
1005.0,0.4178229623115912
1004.0,0.4133001983759508
1003.0,0.409381051793422
1002.0,0.40571797118819397
1001.0,0.4023048140744876
1000.0,0.3992448503603818
999.0,0.39653084026616114
998.0,0.3938336853923794
997.0,0.39136701050996314
996.0,0.389233405226729
995.0,0.38732208168349813
994.0,0.38541913300251385
993.0,0.383419469914114
992.0,0.38142897187987024
991.0,0.37965570024550677
990.0,0.37820077599733226
989.0,0.37706103078850983
988.0,0.37613073164969757
987.0,0.3753054687279187
986.0,0.3740705072837054
985.0,0.3726341434072673
984.0,0.3712025144332898
983.0,0.36997914888659
982.0,0.36886074974318883
981.0,0.3679478332941901
980.0,0.36713795989977016
979.0,0.36632959394855624
978.0,0.365724305374056
977.0,0.365421977146112
976.0,0.365421977146112
975.0,0.365421977146112
974.0,0.3653212478213177
973.0,0.3648179513437324
972.0,0.36411431471872735
971.0,0.36331155204671717
970.0,0.36241021416130015
969.0,0.3617104645857432
968.0,0.36151074304536257
967.0,0.36151074304536257
966.0,0.36121133284260165
965.0,0.3604139133265736
964.0,0.35931984672233486
963.0,0.35793137265849584
962.0,0.35644863143705496
961.0,0.3549709352788575
960.0,0.3535962737769305
959.0,0.35261702988538013
958.0,0.35163998901906846
957.0,0.35076252765039273
956.0,0.34978964533964096
955.0,0.3486250560869568
954.0,0.34746358140697464
953.0,0.3463052046849182
952.0,0.34543844525825684
951.0,0.344861565188618
950.0,0.3439976793170427
949.0,0.3428484980990334
948.0,0.341606973720876
947.0,0.3405592181296824
946.0,0.33979879861931805
945.0,0.3389449151466213
944.0,0.33818731446273875
943.0,0.3373365904259624
942.0,0.3363932918754797
941.0,0.3353580244438745
940.0,0.3342314492806202
939.0,0.3332948638801012
938.0,0.33236029394358924
937.0,0.331334584545508
936.0,0.33031129194379183
935.0,0.32929040477620286
934.0,0.328179439816751
933.0,0.32725580169340085
932.0,0.32651830292665274
931.0,0.3258740172572918
930.0,0.3250470519514348
929.0,0.32413004468104334
928.0,0.3230321857052414
927.0,0.32184596198956283
926.0,0.3208447587166461
925.0,0.3199365725180514
924.0,0.31921138849331765
923.0,0.3183970012691315
922.0,0.317223353685566
921.0,0.3156933539283684
920.0,0.31398970868471454
919.0,0.3123818704282302
918.0,0.31104653736258214
917.0,0.3099812192113047
916.0,0.3090069679001306
915.0,0.30794663496591923
914.0,0.3067128429943444
913.0,0.30539480106643135
912.0,0.30434324006380975
911.0,0.30346888003039285
910.0,0.3027706572402824
909.0,0.302160631781637
908.0,0.30189945437661003
907.0,0.30224772583224535
906.0,0.3031196283172377
905.0,0.30451832350980257
904.0,0.30636097383845184
903.0,0.3083881257855836
902.0,0.3104247842400618
901.0,0.3122927203751811
900.0,0.3140792078054646
899.0,0.3156035215809796
898.0,0.31686286851699297
897.0,0.3177646430974359
896.0,0.3184874133610378
895.0,0.31893975636818817
894.0,0.31903028153410284
893.0,0.31903028153410284
892.0,0.319120825573189
891.0,0.31939257100821217
890.0,0.31948319061874497
889.0,0.31921138849331765
888.0,0.3188492500675786
887.0,0.3186682940308343
886.0,0.3186682940308343
885.0,0.3188492500675786
884.0,0.31921138849331765
883.0,0.3199365725180514
882.0,0.32111758532926427
881.0,0.3229408226078385
880.0,0.3255981871547182
879.0,0.32901239698996587
878.0,0.33310778893346393
877.0,0.33799812061008283
876.0,0.34390179798716813
875.0,0.35076252765039273
874.0,0.3580304022979406
873.0,0.3652205418540484
872.0,0.3716110699496884
871.0,0.3765439519300662
870.0,0.37965570024550677
869.0,0.3805935891132226
868.0,0.3795516152882912
867.0,0.37675070960209944
866.0,0.37283904762522413
865.0,0.3683533370415806
864.0,0.364013888199167
863.0,0.36021478701317977
862.0,0.3568435343802938
861.0,0.35389047802115203
860.0,0.35115229162710637
859.0,0.3488189375553121
858.0,0.3466909870615211
857.0,0.344861565188618
856.0,0.3436142809413123
855.0,0.34275287011628364
854.0,0.34217954398430295
853.0,0.3418931644936072
852.0,0.341511618690983
851.0,0.341035157335565
850.0,0.3400837999301498
849.0,0.3391345219961308
848.0,0.33856594960608
847.0,0.33856594960608
846.0,0.33875539104066643
845.0,0.3389449151466213
844.0,0.3389449151466213
843.0,0.3388501427552135
842.0,0.33875539104066643
841.0,0.3388501427552135
840.0,0.3388501427552135
839.0,0.33875539104066643
838.0,0.3386606599939601
837.0,0.3388501427552135
836.0,0.33932421166147586
835.0,0.339608901597533
834.0,0.33932421166147586
833.0,0.3382819423053407
832.0,0.33714776673520386
831.0,0.3360165453917334
830.0,0.3347943715653994
829.0,0.3335756274812405
828.0,0.3327338806177258
827.0,0.33245366048848357
826.0,0.33236029394358924
825.0,0.33170728955177897
824.0,0.3305901327122174
823.0,0.32947584221792003
822.0,0.32873456705284165
821.0,0.328271911760442
820.0,0.3278097488117475
819.0,0.3270713095572775
818.0,0.32596599956874517
817.0,0.3250470519514348
816.0,0.3243132913005988
815.0,0.3239468753481285
814.0,0.32358076828164006
813.0,0.32321496958079465
812.0,0.32275815405334596
811.0,0.32230181852548934
810.0,0.32175484807295796
809.0,0.3212085656337562
808.0,0.32075385458614103
807.0,0.32029961912803584
806.0,0.3196644865854368
805.0,0.31875876262441283
804.0,0.3177646430974359
803.0,0.3163227011813081
802.0,0.31461659019851274
801.0,0.31291715539562936
800.0,0.31166918188773374
799.0,0.3107799627361645
798.0,0.3103360349842297
797.0,0.3109576609718283
796.0,0.3128278954052004
795.0,0.3159629625134803
794.0,0.31975516295739226
793.0,0.3236722661186797
792.0,0.32716354582860285
791.0,0.32938311359967454
790.0,0.3296613588725579
789.0,0.3279945549770482
788.0,0.325414397697086
787.0,0.32248429520124255
786.0,0.31948319061874497
785.0,0.31659270086790503
784.0,0.3139002280040841
783.0,0.31149119234347866
782.0,0.30909544594503346
781.0,0.30680085484628283
780.0,0.3046058917088901
779.0,0.30242196634888674
778.0,0.3001622741327543
777.0,0.2978280491422889
776.0,0.2955920726131591
775.0,0.2934528973596424
774.0,0.2911543619518211
773.0,0.28878347567891005
772.0,0.2864254622279303
771.0,0.28408018256642054
770.0,0.2818305946086932
769.0,0.2795099315499485
768.0,0.27728383251150523
767.0,0.2749872746588431
766.0,0.27262143054851107
765.0,0.2700257143004443
764.0,0.26736503246080434
763.0,0.26464066699828925
762.0,0.261774551857495
761.0,0.2587695889745292
760.0,0.25539412458576116
759.0,0.25150187338626306
758.0,0.24733705687902807
757.0,0.243439956993317
756.0,0.2401056259745007
755.0,0.23672178898102136
754.0,0.23284413391781955
753.0,0.22841251911874472
752.0,0.22380748525292793
751.0,0.2186036948032093
750.0,0.21246868387276563
749.0,0.20537255533549192
748.0,0.1977052886025361
747.0,0.18963304631837485
746.0,0.1811804924524636
745.0,0.1724368887452763
744.0,0.16380251922107458
743.0,0.15614457737683884
742.0,0.15076490868527737
741.0,0.1490476002065071
740.0,0.1519957285027318
739.0,0.15989390554324223
738.0,0.17230771132555445
737.0,0.18849202005467336
736.0,0.20739821883503362
735.0,0.2277516600281464
734.0,0.24879790541164692
733.0,0.2705922030369319
732.0,0.29362364416030995
731.0,0.31875876262441283
730.0,0.3470771124320582
729.0,0.37965570024550677
728.0,0.41714153777550056
727.0,0.45829597671571154
726.0,0.49990080808427706
725.0,0.5367043900379973
724.0,0.563837352959244
723.0,0.5780671867214915
722.0,0.5788898702065657
721.0,0.5696024086130331
720.0,0.5547072305740282
719.0,0.5385014732169813
718.0,0.5227340045751474
717.0,0.5077985486074603
716.0,0.4940364819818739
715.0,0.4820127969749217
714.0,0.47249898901887977
713.0,0.46521264137050844
712.0,0.4595453863285881
711.0,0.45481663178459386
710.0,0.45075144314594406
709.0,0.4473317838878068
708.0,0.4441803169388088
707.0,0.4409316659654632
706.0,0.43663759051339257
705.0,0.431798275933005
704.0,0.4270122918017949
703.0,0.422853015172475
702.0,0.41953121604899835
701.0,0.4170280708951941
700.0,0.41510365586255005
699.0,0.41307529185517966
698.0,0.41005039867429227
697.0,0.40660315769979327
696.0,0.4036228560024009
695.0,0.40131890109283663
694.0,0.3987006898056624
693.0,0.3949105381184195
692.0,0.3905123101467147
691.0,0.38658105496542694
690.0,0.38415511712529793
689.0,0.3827899054425661
688.0,0.38163806889012175
687.0,0.3801764995427219
686.0,0.37820077599733226
685.0,0.37613073164969757
684.0,0.3740705072837054
683.0,0.3717132689104856
682.0,0.3687592197644909
681.0,0.3660268442103265
680.0,0.36471736200178806
679.0,0.3652205418540484
678.0,0.36612773734166737
677.0,0.36612773734166737
676.0,0.36471736200178806
675.0,0.36221017063777095
674.0,0.3596179552904315
673.0,0.3565473235138126
672.0,0.3567447749752284
671.0,0.3576344191550267
670.0,0.3560540872519333
669.0,0.35447948509412597
668.0,0.35212823469376753
667.0,0.35124978730198064
666.0,0.35076252765039273
665.0,0.3502758140704776
664.0,0.3492069603480692
663.0,0.3470771124320582
662.0,0.3444774037465823
661.0,0.34246611244201386
660.0,0.3411304077980377
659.0,0.3407495312273392
658.0,0.34122567915564317
657.0,0.34179774661298534
656.0,0.34132097141755136
655.0,0.3395139842150323
654.0,0.3363932918754797
653.0,0.33282732752113153
652.0,0.329754146925876
651.0,0.32725580169340085
650.0,0.325414397697086
649.0,0.32440494361325367
648.0,0.32440494361325367
647.0,0.3250470519514348
646.0,0.325414397697086
645.0,0.3252306859845737
644.0,0.32513885926218844
643.0,0.3255981871547182
642.0,0.32670256024036415
641.0,0.328179439816751
640.0,0.33049716589565703
639.0,0.33395026151948404
638.0,0.33818731446273875
637.0,0.3423705686110481
636.0,0.3463052046849182
635.0,0.3494982051216331
634.0,0.35047043405218115
633.0,0.3481407307530511
632.0,0.3428484980990334
631.0,0.3362990746103518
630.0,0.33031129194379183
629.0,0.3257820544233001
628.0,0.3226668485800983
627.0,0.3203904282202441
626.0,0.3184874133610378
625.0,0.31686286851699297
624.0,0.31578320486111955
623.0,0.31551370781126575
622.0,0.31623273857468837
621.0,0.3174939140609889
620.0,0.3186682940308343
619.0,0.3185778442789915
618.0,0.31659270086790503
617.0,0.31354248953088826
616.0,0.31158017799728954
615.0,0.3118472444084337
614.0,0.3133637307377066
613.0,0.31425826139773627
612.0,0.3139002280040841
611.0,0.3131850454926832
610.0,0.31300643373532155
609.0,0.3128278954052004
608.0,0.3113132757158765
607.0,0.3075937651663696
606.0,0.30346888003039285
605.0,0.3018124301338776
604.0,0.3032069149182557
603.0,0.30530707366851595
602.0,0.30530707366851595
601.0,0.3032069149182557
600.0,0.3005959181846627
