cm-1,A
4000.0,0.0003910410285830057
3999.0,0.00030411258916074324
3998.0,0.00017375254558760211
3997.0,0.0001303078917322953
3996.0,0.0001303078917322953
3995.0,0.0001303078917322953
3994.0,0.00017375254558760211
3993.0,0.00017375254558760211
3992.0,0.00017375254558760211
3991.0,0.00017375254558760211
3990.0,0.00021720154586435392
3989.0,0.00026065489343207737
3988.0,0.00030411258916074324
3987.0,0.0003475746339209884
3986.0,0.0003910410285830057
3985.0,0.0003910410285830057
3984.0,0.0003910410285830057
3983.0,0.0003910410285830057
3982.0,0.0003910410285830057
3981.0,0.0003910410285830057
3980.0,0.0003910410285830057
3979.0,0.0003910410285830057
3978.0,0.0003910410285830057
3977.0,0.0003910410285830057
3976.0,0.00043451177401765406
3975.0,0.00043451177401765406
3974.0,0.0004779868710962365
3973.0,0.000521466320689834
3972.0,0.000521466320689834
3971.0,0.0004779868710962365
3970.0,0.00043451177401765406
3969.0,0.00043451177401765406
3968.0,0.0003910410285830057
3967.0,0.0003910410285830057
3966.0,0.0003910410285830057
3965.0,0.00043451177401765406
3964.0,0.00043451177401765406
3963.0,0.000521466320689834
3962.0,0.0005649501236701937
3961.0,0.000521466320689834
3960.0,0.0004779868710962365
3959.0,0.00043451177401765406
3958.0,0.0003910410285830057
3957.0,0.0003910410285830057
3956.0,0.0003910410285830057
3955.0,0.00043451177401765406
3954.0,0.00043451177401765406
3953.0,0.0004779868710962365
3952.0,0.000521466320689834
3951.0,0.000521466320689834
3950.0,0.000521466320689834
3949.0,0.0004779868710962365
3948.0,0.0003910410285830057
3947.0,0.00030411258916074324
3946.0,0.00021720154586435392
3945.0,0.00021720154586435392
3944.0,0.00021720154586435392
3943.0,0.00021720154586435392
3942.0,0.00021720154586435392
3941.0,0.00026065489343207737
3940.0,0.00030411258916074324
3939.0,0.0003475746339209884
3938.0,0.0003910410285830057
3937.0,0.0004779868710962365
3936.0,0.000521466320689834
3935.0,0.000521466320689834
3934.0,0.0005649501236701937
3933.0,0.0005649501236701937
3932.0,0.000521466320689834
3931.0,0.0004779868710962365
3930.0,0.0003910410285830057
3929.0,0.00030411258916074324
3928.0,0.00026065489343207737
3927.0,0.00030411258916074324
3926.0,0.0003910410285830057
3925.0,0.0004779868710962365
3924.0,0.0005649501236701937
3923.0,0.0005649501236701937
3922.0,0.000521466320689834
3921.0,0.0003910410285830057
3920.0,0.00026065489343207737
3919.0,0.00021720154586435392
3918.0,0.00021720154586435392
3917.0,0.00017375254558760211
3916.0,0.0001303078917322953
3915.0,4.343161980746579e-05
3914.0,0.0
3913.0,0.0
3912.0,4.343161980746579e-05
3911.0,0.0001303078917322953
3910.0,0.00026065489343207737
3909.0,0.00030411258916074324
3908.0,0.0003475746339209884
3907.0,0.0003475746339209884
3906.0,0.00030411258916074324
3905.0,0.00021720154586435392
3904.0,0.00017375254558760211
3903.0,8.686758342868472e-05
3902.0,8.686758342868472e-05
3901.0,0.0001303078917322953
3900.0,0.00026065489343207737
3899.0,0.0003475746339209884
3898.0,0.00043451177401765406
3897.0,0.000521466320689834
3896.0,0.000521466320689834
3895.0,0.000521466320689834
3894.0,0.000521466320689834
3893.0,0.0004779868710962365
3892.0,0.00043451177401765406
3891.0,0.00043451177401765406
3890.0,0.0003910410285830057
3889.0,0.0003475746339209884
3888.0,0.00026065489343207737
3887.0,0.00021720154586435392
3886.0,0.00017375254558760211
3885.0,0.00017375254558760211
3884.0,0.00021720154586435392
3883.0,0.00026065489343207737
3882.0,0.0003475746339209884
3881.0,0.00043451177401765406
3880.0,0.000521466320689834
3879.0,0.0005649501236701937
3878.0,0.000521466320689834
3877.0,0.000521466320689834
3876.0,0.0004779868710962365
3875.0,0.0003910410285830057
3874.0,0.00026065489343207737
3873.0,4.343161980746579e-05
3872.0,-0.00013026880522692963
3871.0,-0.00013026880522692963
3870.0,0.0
3869.0,0.0001303078917322953
3868.0,0.00017375254558760211
3867.0,8.686758342868472e-05
3866.0,8.686758342868472e-05
3865.0,0.00017375254558760211
3864.0,0.0003475746339209884
3863.0,0.00043451177401765406
3862.0,0.00043451177401765406
3861.0,0.00043451177401765406
3860.0,0.00043451177401765406
3859.0,0.0004779868710962365
3858.0,0.000521466320689834
3857.0,0.0005649501236701937
3856.0,0.0006084382809090627
3855.0,0.0007389288868995258
3854.0,0.000869458712629001
3853.0,0.0008259444115150671
3852.0,0.0006954276616513155
3851.0,0.0006084382809090627
3850.0,0.000521466320689834
3849.0,0.00043451177401765406
3848.0,0.0003910410285830057
3847.0,0.0003475746339209884
3846.0,0.00030411258916074324
3845.0,0.0003475746339209884
3844.0,0.00043451177401765406
3843.0,0.000521466320689834
3842.0,0.0006084382809090627
3841.0,0.0006084382809090627
3840.0,0.0006084382809090627
3839.0,0.0006519307932786322
3838.0,0.0007389288868995258
3837.0,0.0008259444115150671
3836.0,0.0008259444115150671
3835.0,0.0007824344698965646
3834.0,0.0006519307932786322
3833.0,0.0005649501236701937
3832.0,0.0004779868710962365
3831.0,0.0003910410285830057
3830.0,0.0003475746339209884
3829.0,0.00030411258916074324
3828.0,0.00026065489343207737
3827.0,0.00026065489343207737
3826.0,0.00030411258916074324
3825.0,0.0003475746339209884
3824.0,0.0003475746339209884
3823.0,0.0003475746339209884
3822.0,0.0003475746339209884
3821.0,0.0003475746339209884
3820.0,0.00030411258916074324
3819.0,0.00021720154586435392
3818.0,0.00017375254558760211
3817.0,0.00021720154586435392
3816.0,0.0003475746339209884
3815.0,0.00043451177401765406
3814.0,0.00043451177401765406
3813.0,0.00043451177401765406
3812.0,0.0003910410285830057
3811.0,0.0003475746339209884
3810.0,0.00026065489343207737
3809.0,0.0001303078917322953
3808.0,4.343161980746579e-05
3807.0,-4.3427276862573194e-05
3806.0,-4.3427276862573194e-05
3805.0,-4.3427276862573194e-05
3804.0,0.0
3803.0,8.686758342868472e-05
3802.0,0.00017375254558760211
3801.0,0.00017375254558760211
3800.0,0.0001303078917322953
3799.0,0.0001303078917322953
3798.0,0.0001303078917322953
3797.0,0.00021720154586435392
3796.0,0.00021720154586435392
3795.0,0.00021720154586435392
3794.0,0.0001303078917322953
3793.0,0.0001303078917322953
3792.0,0.0001303078917322953
3791.0,0.00017375254558760211
3790.0,0.00021720154586435392
3789.0,0.00030411258916074324
3788.0,0.0003910410285830057
3787.0,0.0003475746339209884
3786.0,0.0003475746339209884
3785.0,0.00026065489343207737
3784.0,0.00026065489343207737
3783.0,0.00021720154586435392
3782.0,0.00021720154586435392
3781.0,0.00021720154586435392
3780.0,0.00021720154586435392
3779.0,0.00026065489343207737
3778.0,0.00026065489343207737
3777.0,0.00030411258916074324
3776.0,0.0003475746339209884
3775.0,0.00043451177401765406
3774.0,0.00043451177401765406
3773.0,0.0004779868710962365
3772.0,0.00043451177401765406
3771.0,0.0003910410285830057
3770.0,0.00030411258916074324
3769.0,0.00021720154586435392
3768.0,0.0001303078917322953
3767.0,0.0001303078917322953
3766.0,0.00021720154586435392
3765.0,0.00030411258916074324
3764.0,0.00030411258916074324
3763.0,0.00026065489343207737
3762.0,0.00021720154586435392
3761.0,0.00017375254558760211
3760.0,0.0001303078917322953
3759.0,0.00017375254558760211
3758.0,0.00026065489343207737
3757.0,0.0003475746339209884
3756.0,0.0003475746339209884
3755.0,0.00030411258916074324
3754.0,0.0001303078917322953
3753.0,-4.3427276862573194e-05
3752.0,-0.00017368305846510168
3751.0,-0.00013026880522692963
3750.0,0.0
3749.0,0.00017375254558760211
3748.0,0.00030411258916074324
3747.0,0.0004779868710962365
3746.0,0.0005649501236701937
3745.0,0.0005649501236701937
3744.0,0.0004779868710962365
3743.0,0.0003475746339209884
3742.0,0.00026065489343207737
3741.0,0.00021720154586435392
3740.0,0.00021720154586435392
3739.0,0.00021720154586435392
3738.0,0.00021720154586435392
3737.0,0.00017375254558760211
3736.0,0.0001303078917322953
3735.0,8.686758342868472e-05
3734.0,8.686758342868472e-05
3733.0,0.0001303078917322953
3732.0,0.00017375254558760211
3731.0,0.00026065489343207737
3730.0,0.00030411258916074324
3729.0,0.0003475746339209884
3728.0,0.0003475746339209884
3727.0,0.0003910410285830057
3726.0,0.00043451177401765406
3725.0,0.0004779868710962365
3724.0,0.0004779868710962365
3723.0,0.00043451177401765406
3722.0,0.0003475746339209884
3721.0,0.00026065489343207737
3720.0,0.00026065489343207737
3719.0,0.00021720154586435392
3718.0,0.00026065489343207737
3717.0,0.00030411258916074324
3716.0,0.0003910410285830057
3715.0,0.0004779868710962365
3714.0,0.0006084382809090627
3713.0,0.0006954276616513155
3712.0,0.0007389288868995258
3711.0,0.0006954276616513155
3710.0,0.0006084382809090627
3709.0,0.000521466320689834
3708.0,0.00043451177401765406
3707.0,0.0003910410285830057
3706.0,0.0003910410285830057
3705.0,0.0003475746339209884
3704.0,0.0003475746339209884
3703.0,0.0003475746339209884
3702.0,0.00030411258916074324
3701.0,0.00021720154586435392
3700.0,0.0001303078917322953
3699.0,0.0001303078917322953
3698.0,0.00017375254558760211
3697.0,0.00026065489343207737
3696.0,0.00030411258916074324
3695.0,0.00030411258916074324
3694.0,0.00021720154586435392
3693.0,8.686758342868472e-05
3692.0,4.343161980746579e-05
3691.0,0.0001303078917322953
3690.0,0.00026065489343207737
3689.0,0.00030411258916074324
3688.0,0.00026065489343207737
3687.0,0.00021720154586435392
3686.0,0.00017375254558760211
3685.0,0.00021720154586435392
3684.0,0.00026065489343207737
3683.0,0.00030411258916074324
3682.0,0.00030411258916074324
3681.0,0.00030411258916074324
3680.0,0.00026065489343207737
3679.0,0.00017375254558760211
3678.0,4.343161980746579e-05
3677.0,0.0
3676.0,4.343161980746579e-05
3675.0,0.0001303078917322953
3674.0,0.00017375254558760211
3673.0,0.00021720154586435392
3672.0,0.00017375254558760211
3671.0,0.0001303078917322953
3670.0,4.343161980746579e-05
3669.0,-4.3427276862573194e-05
3668.0,-4.3427276862573194e-05
3667.0,0.0
3666.0,8.686758342868472e-05
3665.0,0.00017375254558760211
3664.0,0.00021720154586435392
3663.0,0.00026065489343207737
3662.0,0.00021720154586435392
3661.0,0.00017375254558760211
3660.0,0.00017375254558760211
3659.0,0.00017375254558760211
3658.0,0.00017375254558760211
3657.0,0.00021720154586435392
3656.0,0.00026065489343207737
3655.0,0.00021720154586435392
3654.0,0.00017375254558760211
3653.0,0.0001303078917322953
3652.0,0.0001303078917322953
3651.0,0.00017375254558760211
3650.0,0.00030411258916074324
3649.0,0.00043451177401765406
3648.0,0.00043451177401765406
3647.0,0.00043451177401765406
3646.0,0.0003910410285830057
3645.0,0.0003475746339209884
3644.0,0.0003475746339209884
3643.0,0.0003475746339209884
3642.0,0.0003475746339209884
3641.0,0.0003475746339209884
3640.0,0.00030411258916074324
3639.0,0.00026065489343207737
3638.0,0.00030411258916074324
3637.0,0.0003475746339209884
3636.0,0.0003910410285830057
3635.0,0.00043451177401765406
3634.0,0.00043451177401765406
3633.0,0.00043451177401765406
3632.0,0.0003910410285830057
3631.0,0.00043451177401765406
3630.0,0.0004779868710962365
3629.0,0.0004779868710962365
3628.0,0.0003910410285830057
3627.0,0.00030411258916074324
3626.0,0.00030411258916074324
3625.0,0.0003475746339209884
3624.0,0.0003910410285830057
3623.0,0.0003910410285830057
3622.0,0.0003475746339209884
3621.0,0.00030411258916074324
3620.0,0.00026065489343207737
3619.0,0.00026065489343207737
3618.0,0.0003475746339209884
3617.0,0.0003910410285830057
3616.0,0.00043451177401765406
3615.0,0.000521466320689834
3614.0,0.000521466320689834
3613.0,0.000521466320689834
3612.0,0.0004779868710962365
3611.0,0.00043451177401765406
3610.0,0.00043451177401765406
3609.0,0.0004779868710962365
3608.0,0.0004779868710962365
3607.0,0.00043451177401765406
3606.0,0.0003910410285830057
3605.0,0.0003910410285830057
3604.0,0.0003475746339209884
3603.0,0.0003475746339209884
3602.0,0.00030411258916074324
3601.0,0.0003475746339209884
3600.0,0.0003475746339209884
3599.0,0.00043451177401765406
3598.0,0.000521466320689834
3597.0,0.0005649501236701937
3596.0,0.0006084382809090627
3595.0,0.0006084382809090627
3594.0,0.0005649501236701937
3593.0,0.0005649501236701937
3592.0,0.0005649501236701937
3591.0,0.0006084382809090627
3590.0,0.0006084382809090627
3589.0,0.0006519307932786322
3588.0,0.0006519307932786322
3587.0,0.0006954276616513155
3586.0,0.0006519307932786322
3585.0,0.0005649501236701937
3584.0,0.000521466320689834
3583.0,0.000521466320689834
3582.0,0.0005649501236701937
3581.0,0.0006084382809090627
3580.0,0.0006084382809090627
3579.0,0.0005649501236701937
3578.0,0.0004779868710962365
3577.0,0.00043451177401765406
3576.0,0.0004779868710962365
3575.0,0.0005649501236701937
3574.0,0.0006084382809090627
3573.0,0.0005649501236701937
3572.0,0.000521466320689834
3571.0,0.00043451177401765406
3570.0,0.0004779868710962365
3569.0,0.0005649501236701937
3568.0,0.0006954276616513155
3567.0,0.0007824344698965646
3566.0,0.0007389288868995258
3565.0,0.0006519307932786322
3564.0,0.0005649501236701937
3563.0,0.0005649501236701937
3562.0,0.0006954276616513155
3561.0,0.0007824344698965646
3560.0,0.0007824344698965646
3559.0,0.0006954276616513155
3558.0,0.0005649501236701937
3557.0,0.0003910410285830057
3556.0,0.00026065489343207737
3555.0,0.00021720154586435392
3554.0,0.00026065489343207737
3553.0,0.0003475746339209884
3552.0,0.00043451177401765406
3551.0,0.000521466320689834
3550.0,0.0006084382809090627
3549.0,0.0006954276616513155
3548.0,0.0006954276616513155
3547.0,0.0007389288868995258
3546.0,0.0006954276616513155
3545.0,0.0006519307932786322
3544.0,0.0005649501236701937
3543.0,0.00043451177401765406
3542.0,0.00026065489343207737
3541.0,0.0001303078917322953
3540.0,8.686758342868472e-05
3539.0,0.00017375254558760211
3538.0,0.0003910410285830057
3537.0,0.0006954276616513155
3536.0,0.000869458712629001
3535.0,0.000869458712629001
3534.0,0.0007824344698965646
3533.0,0.0006954276616513155
3532.0,0.0006084382809090627
3531.0,0.0005649501236701937
3530.0,0.0004779868710962365
3529.0,0.00043451177401765406
3528.0,0.00043451177401765406
3527.0,0.000521466320689834
3526.0,0.0006084382809090627
3525.0,0.0006954276616513155
3524.0,0.0006954276616513155
3523.0,0.0005649501236701937
3522.0,0.00043451177401765406
3521.0,0.0003475746339209884
3520.0,0.00030411258916074324
3519.0,0.0003475746339209884
3518.0,0.00043451177401765406
3517.0,0.000521466320689834
3516.0,0.0006084382809090627
3515.0,0.0006519307932786322
3514.0,0.0006954276616513155
3513.0,0.0006954276616513155
3512.0,0.0006519307932786322
3511.0,0.0006519307932786322
3510.0,0.0006519307932786322
3509.0,0.0006084382809090627
3508.0,0.0005649501236701937
3507.0,0.0005649501236701937
3506.0,0.0005649501236701937
3505.0,0.0005649501236701937
3504.0,0.000521466320689834
3503.0,0.0004779868710962365
3502.0,0.0004779868710962365
3501.0,0.000521466320689834
3500.0,0.0005649501236701937
3499.0,0.0005649501236701937
3498.0,0.0004779868710962365
3497.0,0.0003475746339209884
3496.0,0.00026065489343207737
3495.0,0.00026065489343207737
3494.0,0.00030411258916074324
3493.0,0.00030411258916074324
3492.0,0.0003475746339209884
3491.0,0.00043451177401765406
3490.0,0.0005649501236701937
3489.0,0.0006954276616513155
3488.0,0.0007389288868995258
3487.0,0.0006954276616513155
3486.0,0.0006519307932786322
3485.0,0.0005649501236701937
3484.0,0.000521466320689834
3483.0,0.0004779868710962365
3482.0,0.0003910410285830057
3481.0,0.0003910410285830057
3480.0,0.0003910410285830057
3479.0,0.00043451177401765406
3478.0,0.00043451177401765406
3477.0,0.00043451177401765406
3476.0,0.0003910410285830057
3475.0,0.00030411258916074324
3474.0,0.00021720154586435392
3473.0,0.00017375254558760211
3472.0,0.00017375254558760211
3471.0,0.00026065489343207737
3470.0,0.0003910410285830057
3469.0,0.000521466320689834
3468.0,0.0006084382809090627
3467.0,0.0006519307932786322
3466.0,0.0006519307932786322
3465.0,0.0005649501236701937
3464.0,0.000521466320689834
3463.0,0.0004779868710962365
3462.0,0.0004779868710962365
3461.0,0.000521466320689834
3460.0,0.000521466320689834
3459.0,0.0005649501236701937
3458.0,0.0006084382809090627
3457.0,0.0006084382809090627
3456.0,0.0005649501236701937
3455.0,0.000521466320689834
3454.0,0.000521466320689834
3453.0,0.0005649501236701937
3452.0,0.0005649501236701937
3451.0,0.0005649501236701937
3450.0,0.000521466320689834
3449.0,0.0004779868710962365
3448.0,0.0004779868710962365
3447.0,0.0005649501236701937
3446.0,0.0006519307932786322
3445.0,0.0006519307932786322
3444.0,0.0006084382809090627
3443.0,0.0005649501236701937
3442.0,0.0004779868710962365
3441.0,0.00043451177401765406
3440.0,0.0004779868710962365
3439.0,0.000521466320689834
3438.0,0.0006084382809090627
3437.0,0.0006519307932786322
3436.0,0.0006519307932786322
3435.0,0.0006084382809090627
3434.0,0.0006084382809090627
3433.0,0.0006084382809090627
3432.0,0.0006519307932786322
3431.0,0.0006519307932786322
3430.0,0.0006519307932786322
3429.0,0.0006084382809090627
3428.0,0.000521466320689834
3427.0,0.00043451177401765406
3426.0,0.0003910410285830057
3425.0,0.00043451177401765406
3424.0,0.0004779868710962365
3423.0,0.0006084382809090627
3422.0,0.0006954276616513155
3421.0,0.0007389288868995258
3420.0,0.0007389288868995258
3419.0,0.0006519307932786322
3418.0,0.0005649501236701937
3417.0,0.00043451177401765406
3416.0,0.0003475746339209884
3415.0,0.0003475746339209884
3414.0,0.0003475746339209884
3413.0,0.00043451177401765406
3412.0,0.0004779868710962365
3411.0,0.000521466320689834
3410.0,0.000521466320689834
3409.0,0.000521466320689834
3408.0,0.000521466320689834
3407.0,0.000521466320689834
3406.0,0.0005649501236701937
3405.0,0.0006084382809090627
3404.0,0.0006084382809090627
3403.0,0.0006084382809090627
3402.0,0.0006084382809090627
3401.0,0.0005649501236701937
3400.0,0.0005649501236701937
3399.0,0.0006084382809090627
3398.0,0.0006954276616513155
3397.0,0.0008259444115150671
3396.0,0.0009129773741116676
3395.0,0.0009129773741116676
3394.0,0.0008259444115150671
3393.0,0.0007389288868995258
3392.0,0.0006084382809090627
3391.0,0.000521466320689834
3390.0,0.0004779868710962365
3389.0,0.000521466320689834
3388.0,0.0005649501236701937
3387.0,0.0006084382809090627
3386.0,0.0006519307932786322
3385.0,0.0006954276616513155
3384.0,0.0007389288868995258
3383.0,0.0007389288868995258
3382.0,0.0007389288868995258
3381.0,0.0006954276616513155
3380.0,0.0006519307932786322
3379.0,0.0006084382809090627
3378.0,0.0005649501236701937
3377.0,0.000521466320689834
3376.0,0.00043451177401765406
3375.0,0.0003475746339209884
3374.0,0.0003475746339209884
3373.0,0.00043451177401765406
3372.0,0.000521466320689834
3371.0,0.0006084382809090627
3370.0,0.0006084382809090627
3369.0,0.0004779868710962365
3368.0,0.0003475746339209884
3367.0,0.00026065489343207737
3366.0,0.00026065489343207737
3365.0,0.00030411258916074324
3364.0,0.0003910410285830057
3363.0,0.0004779868710962365
3362.0,0.000521466320689834
3361.0,0.0005649501236701937
3360.0,0.0006084382809090627
3359.0,0.0006519307932786322
3358.0,0.0006954276616513155
3357.0,0.0006519307932786322
3356.0,0.0006519307932786322
3355.0,0.0006519307932786322
3354.0,0.0006954276616513155
3353.0,0.0007389288868995258
3352.0,0.0007389288868995258
3351.0,0.0007824344698965646
3350.0,0.0007824344698965646
3349.0,0.0007824344698965646
3348.0,0.0006954276616513155
3347.0,0.0006084382809090627
3346.0,0.0005649501236701937
3345.0,0.0005649501236701937
3344.0,0.0005649501236701937
3343.0,0.0004779868710962365
3342.0,0.00043451177401765406
3341.0,0.0003910410285830057
3340.0,0.00043451177401765406
3339.0,0.000521466320689834
3338.0,0.0006519307932786322
3337.0,0.0006954276616513155
3336.0,0.0006954276616513155
3335.0,0.0006519307932786322
3334.0,0.0006084382809090627
3333.0,0.0006084382809090627
3332.0,0.0006519307932786322
3331.0,0.0006954276616513155
3330.0,0.0006954276616513155
3329.0,0.0007389288868995258
3328.0,0.0006954276616513155
3327.0,0.0006084382809090627
3326.0,0.0005649501236701937
3325.0,0.0005649501236701937
3324.0,0.0006084382809090627
3323.0,0.0006954276616513155
3322.0,0.0006954276616513155
3321.0,0.0006519307932786322
3320.0,0.0006084382809090627
3319.0,0.0005649501236701937
3318.0,0.0005649501236701937
3317.0,0.0006084382809090627
3316.0,0.0006519307932786322
3315.0,0.0006519307932786322
3314.0,0.0006519307932786322
3313.0,0.0006519307932786322
3312.0,0.0006954276616513155
3311.0,0.0007389288868995258
3310.0,0.0007389288868995258
3309.0,0.0007389288868995258
3308.0,0.0006954276616513155
3307.0,0.0007389288868995258
3306.0,0.0007389288868995258
3305.0,0.0007389288868995258
3304.0,0.0006954276616513155
3303.0,0.0006519307932786322
3302.0,0.0006084382809090627
3301.0,0.0006084382809090627
3300.0,0.0005649501236701937
3299.0,0.000521466320689834
3298.0,0.0004779868710962365
3297.0,0.0004779868710962365
3296.0,0.0004779868710962365
3295.0,0.000521466320689834
3294.0,0.0005649501236701937
3293.0,0.000521466320689834
3292.0,0.0004779868710962365
3291.0,0.0004779868710962365
3290.0,0.0004779868710962365
3289.0,0.000521466320689834
3288.0,0.0006084382809090627
3287.0,0.0006519307932786322
3286.0,0.0006519307932786322
3285.0,0.0006084382809090627
3284.0,0.0005649501236701937
3283.0,0.0005649501236701937
3282.0,0.000521466320689834
3281.0,0.0005649501236701937
3280.0,0.0005649501236701937
3279.0,0.0006084382809090627
3278.0,0.0006084382809090627
3277.0,0.0005649501236701937
3276.0,0.000521466320689834
3275.0,0.000521466320689834
3274.0,0.000521466320689834
3273.0,0.000521466320689834
3272.0,0.000521466320689834
3271.0,0.0004779868710962365
3270.0,0.00043451177401765406
3269.0,0.0003475746339209884
3268.0,0.00030411258916074324
3267.0,0.00026065489343207737
3266.0,0.00030411258916074324
3265.0,0.0003910410285830057
3264.0,0.0004779868710962365
3263.0,0.000521466320689834
3262.0,0.0004779868710962365
3261.0,0.0003910410285830057
3260.0,0.00030411258916074324
3259.0,0.00030411258916074324
3258.0,0.00043451177401765406
3257.0,0.0005649501236701937
3256.0,0.0005649501236701937
3255.0,0.000521466320689834
3254.0,0.0004779868710962365
3253.0,0.0003910410285830057
3252.0,0.0003910410285830057
3251.0,0.0003910410285830057
3250.0,0.0003475746339209884
3249.0,0.0003910410285830057
3248.0,0.00043451177401765406
3247.0,0.0004779868710962365
3246.0,0.0005649501236701937
3245.0,0.0006084382809090627
3244.0,0.0006084382809090627
3243.0,0.0005649501236701937
3242.0,0.0004779868710962365
3241.0,0.00043451177401765406
3240.0,0.0003910410285830057
3239.0,0.0003910410285830057
3238.0,0.00043451177401765406
3237.0,0.0005649501236701937
3236.0,0.0006519307932786322
3235.0,0.0006954276616513155
3234.0,0.0006519307932786322
3233.0,0.0006084382809090627
3232.0,0.0005649501236701937
3231.0,0.000521466320689834
3230.0,0.0004779868710962365
3229.0,0.0004779868710962365
3228.0,0.000521466320689834
3227.0,0.0005649501236701937
3226.0,0.0006519307932786322
3225.0,0.0006954276616513155
3224.0,0.0006954276616513155
3223.0,0.0006954276616513155
3222.0,0.0006954276616513155
3221.0,0.0007824344698965646
3220.0,0.0008259444115150671
3219.0,0.000869458712629001
3218.0,0.0008259444115150671
3217.0,0.0007389288868995258
3216.0,0.0006084382809090627
3215.0,0.000521466320689834
3214.0,0.000521466320689834
3213.0,0.000521466320689834
3212.0,0.0005649501236701937
3211.0,0.0005649501236701937
3210.0,0.0005649501236701937
3209.0,0.0006084382809090627
3208.0,0.0006084382809090627
3207.0,0.0006084382809090627
3206.0,0.0005649501236701937
3205.0,0.000521466320689834
3204.0,0.000521466320689834
3203.0,0.000521466320689834
3202.0,0.0006084382809090627
3201.0,0.0006519307932786322
3200.0,0.0007389288868995258
3199.0,0.0007389288868995258
3198.0,0.0007389288868995258
3197.0,0.0006519307932786322
3196.0,0.000521466320689834
3195.0,0.00043451177401765406
3194.0,0.0003475746339209884
3193.0,0.0003475746339209884
3192.0,0.0003910410285830057
3191.0,0.0004779868710962365
3190.0,0.0006084382809090627
3189.0,0.0007389288868995258
3188.0,0.0007824344698965646
3187.0,0.0007389288868995258
3186.0,0.0005649501236701937
3185.0,0.00043451177401765406
3184.0,0.0003910410285830057
3183.0,0.00043451177401765406
3182.0,0.0005649501236701937
3181.0,0.0007389288868995258
3180.0,0.0008259444115150671
3179.0,0.000869458712629001
3178.0,0.000869458712629001
3177.0,0.0007824344698965646
3176.0,0.0006954276616513155
3175.0,0.0006519307932786322
3174.0,0.0006084382809090627
3173.0,0.0006084382809090627
3172.0,0.0006519307932786322
3171.0,0.0006954276616513155
3170.0,0.0006954276616513155
3169.0,0.0007389288868995258
3168.0,0.0007389288868995258
3167.0,0.0007389288868995258
3166.0,0.0006519307932786322
3165.0,0.0005649501236701937
3164.0,0.0004779868710962365
3163.0,0.0004779868710962365
3162.0,0.0004779868710962365
3161.0,0.000521466320689834
3160.0,0.0005649501236701937
3159.0,0.0006084382809090627
3158.0,0.0006084382809090627
3157.0,0.0006084382809090627
3156.0,0.0006084382809090627
3155.0,0.0006519307932786322
3154.0,0.0006519307932786322
3153.0,0.0006519307932786322
3152.0,0.0006519307932786322
3151.0,0.0006084382809090627
3150.0,0.0006084382809090627
3149.0,0.0005649501236701937
3148.0,0.0005649501236701937
3147.0,0.0005649501236701937
3146.0,0.0005649501236701937
3145.0,0.0005649501236701937
3144.0,0.000521466320689834
3143.0,0.0004779868710962365
3142.0,0.00043451177401765406
3141.0,0.0003910410285830057
3140.0,0.00043451177401765406
3139.0,0.00043451177401765406
3138.0,0.0004779868710962365
3137.0,0.0004779868710962365
3136.0,0.00043451177401765406
3135.0,0.00043451177401765406
3134.0,0.00043451177401765406
3133.0,0.00043451177401765406
3132.0,0.00043451177401765406
3131.0,0.0003910410285830057
3130.0,0.00030411258916074324
3129.0,0.00026065489343207737
3128.0,0.00030411258916074324
3127.0,0.0003910410285830057
3126.0,0.0004779868710962365
3125.0,0.0005649501236701937
3124.0,0.0005649501236701937
3123.0,0.000521466320689834
3122.0,0.0004779868710962365
3121.0,0.0003910410285830057
3120.0,0.0003475746339209884
3119.0,0.0003910410285830057
3118.0,0.0004779868710962365
3117.0,0.0005649501236701937
3116.0,0.0006084382809090627
3115.0,0.0005649501236701937
3114.0,0.0005649501236701937
3113.0,0.000521466320689834
3112.0,0.0005649501236701937
3111.0,0.0006084382809090627
3110.0,0.0006084382809090627
3109.0,0.0006084382809090627
3108.0,0.0005649501236701937
3107.0,0.0005649501236701937
3106.0,0.0005649501236701937
3105.0,0.0005649501236701937
3104.0,0.0006084382809090627
3103.0,0.0006084382809090627
3102.0,0.0006084382809090627
3101.0,0.0005649501236701937
3100.0,0.0006084382809090627
3099.0,0.0006084382809090627
3098.0,0.0006084382809090627
3097.0,0.0006084382809090627
3096.0,0.0005649501236701937
3095.0,0.000521466320689834
3094.0,0.00043451177401765406
3093.0,0.0003910410285830057
3092.0,0.0003475746339209884
3091.0,0.0003475746339209884
3090.0,0.0003475746339209884
3089.0,0.00043451177401765406
3088.0,0.00043451177401765406
3087.0,0.00043451177401765406
3086.0,0.00043451177401765406
3085.0,0.00043451177401765406
3084.0,0.00043451177401765406
3083.0,0.0004779868710962365
3082.0,0.00043451177401765406
3081.0,0.00043451177401765406
3080.0,0.0003910410285830057
3079.0,0.0003910410285830057
3078.0,0.0003910410285830057
3077.0,0.00043451177401765406
3076.0,0.0004779868710962365
3075.0,0.000521466320689834
3074.0,0.0005649501236701937
3073.0,0.0006084382809090627
3072.0,0.0006084382809090627
3071.0,0.0005649501236701937
3070.0,0.00043451177401765406
3069.0,0.00030411258916074324
3068.0,0.00021720154586435392
3067.0,0.00021720154586435392
3066.0,0.00026065489343207737
3065.0,0.00030411258916074324
3064.0,0.0003475746339209884
3063.0,0.0003475746339209884
3062.0,0.0003910410285830057
3061.0,0.00043451177401765406
3060.0,0.0004779868710962365
3059.0,0.000521466320689834
3058.0,0.000521466320689834
3057.0,0.000521466320689834
3056.0,0.0005649501236701937
3055.0,0.0006084382809090627
3054.0,0.0006084382809090627
3053.0,0.0006084382809090627
3052.0,0.0006519307932786322
3051.0,0.0006519307932786322
3050.0,0.0006519307932786322
3049.0,0.0006519307932786322
3048.0,0.0005649501236701937
3047.0,0.000521466320689834
3046.0,0.0004779868710962365
3045.0,0.0004779868710962365
3044.0,0.0004779868710962365
3043.0,0.0004779868710962365
3042.0,0.0003910410285830057
3041.0,0.00030411258916074324
3040.0,0.00021720154586435392
3039.0,0.00021720154586435392
3038.0,0.00026065489343207737
3037.0,0.00026065489343207737
3036.0,0.00030411258916074324
3035.0,0.0003475746339209884
3034.0,0.00043451177401765406
3033.0,0.0004779868710962365
3032.0,0.000521466320689834
3031.0,0.000521466320689834
3030.0,0.0004779868710962365
3029.0,0.00043451177401765406
3028.0,0.0003475746339209884
3027.0,0.00030411258916074324
3026.0,0.00026065489343207737
3025.0,0.00030411258916074324
3024.0,0.00026065489343207737
3023.0,0.00021720154586435392
3022.0,0.0001303078917322953
3021.0,8.686758342868472e-05
3020.0,8.686758342868472e-05
3019.0,8.686758342868472e-05
3018.0,0.0001303078917322953
3017.0,0.00017375254558760211
3016.0,0.00017375254558760211
3015.0,0.00017375254558760211
3014.0,0.00017375254558760211
3013.0,0.00017375254558760211
3012.0,0.00017375254558760211
3011.0,0.00017375254558760211
3010.0,0.00017375254558760211
3009.0,0.00017375254558760211
3008.0,0.0001303078917322953
3007.0,8.686758342868472e-05
3006.0,0.0
3005.0,0.0
3004.0,-4.3427276862573194e-05
3003.0,-4.3427276862573194e-05
3002.0,-8.685021164911433e-05
3001.0,-8.685021164911433e-05
3000.0,-0.00013026880522692963
2999.0,-0.00017368305846510168
2998.0,-0.00017368305846510168
2997.0,-0.00017368305846510168
2996.0,-0.00013026880522692963
2995.0,-8.685021164911433e-05
2994.0,-4.3427276862573194e-05
2993.0,-8.685021164911433e-05
2992.0,-0.00017368305846510168
2991.0,-0.00030389978481260016
2990.0,-0.0004774613744551459
2989.0,-0.0005642161653756084
2988.0,-0.0006075870628903246
2987.0,-0.0005642161653756084
2986.0,-0.0004774613744551459
2985.0,-0.0004774613744551459
2984.0,-0.0004774613744551459
2983.0,-0.0005208409361854294
2982.0,-0.0005208409361854294
2981.0,-0.0005208409361854294
2980.0,-0.0004774613744551459
2979.0,-0.00043407747931878404
2978.0,-0.0003906892499099257
2977.0,-0.0003906892499099257
2976.0,-0.00043407747931878404
2975.0,-0.00043407747931878404
2974.0,-0.0004774613744551459
2973.0,-0.0004774613744551459
2972.0,-0.0004774613744551459
2971.0,-0.0004774613744551459
2970.0,-0.00043407747931878404
2969.0,-0.0003472966853634851
2968.0,-0.00030389978481260016
2967.0,-0.0002604985473904087
2966.0,-0.0002604985473904087
2965.0,-0.0002604985473904087
2964.0,-0.00021709297223004853
2963.0,-0.00017368305846510168
2962.0,-0.00017368305846510168
2961.0,-0.00017368305846510168
2960.0,-0.00021709297223004853
2959.0,-0.0002604985473904087
2958.0,-0.0002604985473904087
2957.0,-0.0002604985473904087
2956.0,-0.00030389978481260016
2955.0,-0.0003472966853634851
2954.0,-0.00030389978481260016
2953.0,-0.0002604985473904087
2952.0,-0.00013026880522692963
2951.0,-4.3427276862573194e-05
2950.0,0.0
2949.0,-4.3427276862573194e-05
2948.0,-0.00013026880522692963
2947.0,-0.00017368305846510168
2946.0,-0.00013026880522692963
2945.0,-4.3427276862573194e-05
2944.0,4.343161980746579e-05
2943.0,8.686758342868472e-05
2942.0,8.686758342868472e-05
2941.0,4.343161980746579e-05
2940.0,0.0
2939.0,-4.3427276862573194e-05
2938.0,-8.685021164911433e-05
2937.0,-0.00013026880522692963
2936.0,-8.685021164911433e-05
2935.0,-4.3427276862573194e-05
2934.0,-4.3427276862573194e-05
2933.0,-4.3427276862573194e-05
2932.0,0.0
2931.0,0.0
2930.0,0.0
2929.0,-4.3427276862573194e-05
2928.0,-8.685021164911433e-05
2927.0,-8.685021164911433e-05
2926.0,-8.685021164911433e-05
2925.0,-8.685021164911433e-05
2924.0,-8.685021164911433e-05
2923.0,-4.3427276862573194e-05
2922.0,0.0
2921.0,0.0
2920.0,-4.3427276862573194e-05
2919.0,-4.3427276862573194e-05
2918.0,-4.3427276862573194e-05
2917.0,-8.685021164911433e-05
2916.0,-8.685021164911433e-05
2915.0,-0.00013026880522692963
2914.0,-0.00021709297223004853
2913.0,-0.0002604985473904087
2912.0,-0.0003472966853634851
2911.0,-0.0003906892499099257
2910.0,-0.0003472966853634851
2909.0,-0.00030389978481260016
2908.0,-0.0002604985473904087
2907.0,-0.00017368305846510168
2906.0,-0.00017368305846510168
2905.0,-0.00017368305846510168
2904.0,-0.00021709297223004853
2903.0,-0.0002604985473904087
2902.0,-0.0002604985473904087
2901.0,-0.0002604985473904087
2900.0,-0.00021709297223004853
2899.0,-0.00017368305846510168
2898.0,-0.00013026880522692963
2897.0,-0.00013026880522692963
2896.0,-0.00013026880522692963
2895.0,-0.00013026880522692963
2894.0,-0.00017368305846510168
2893.0,-0.00017368305846510168
2892.0,-0.0002604985473904087
2891.0,-0.00030389978481260016
2890.0,-0.00030389978481260016
2889.0,-0.00030389978481260016
2888.0,-0.0002604985473904087
2887.0,-0.0002604985473904087
2886.0,-0.00021709297223004853
2885.0,-0.00017368305846510168
2884.0,-0.00013026880522692963
2883.0,-4.3427276862573194e-05
2882.0,0.0
2881.0,0.0
2880.0,-4.3427276862573194e-05
2879.0,-0.00013026880522692963
2878.0,-0.00013026880522692963
2877.0,-0.00013026880522692963
2876.0,-4.3427276862573194e-05
2875.0,0.0
2874.0,0.0
2873.0,0.0
2872.0,-4.3427276862573194e-05
2871.0,-8.685021164911433e-05
2870.0,-8.685021164911433e-05
2869.0,-4.3427276862573194e-05
2868.0,4.343161980746579e-05
2867.0,8.686758342868472e-05
2866.0,4.343161980746579e-05
2865.0,4.343161980746579e-05
2864.0,0.0
2863.0,0.0
2862.0,0.0
2861.0,-4.3427276862573194e-05
2860.0,-4.3427276862573194e-05
2859.0,-4.3427276862573194e-05
2858.0,0.0
2857.0,0.0001303078917322953
2856.0,0.00021720154586435392
2855.0,0.00021720154586435392
2854.0,0.00021720154586435392
2853.0,0.00017375254558760211
2852.0,0.00017375254558760211
2851.0,0.00017375254558760211
2850.0,0.00021720154586435392
2849.0,0.00026065489343207737
2848.0,0.00026065489343207737
2847.0,0.00030411258916074324
2846.0,0.0003475746339209884
2845.0,0.0003475746339209884
2844.0,0.0003475746339209884
2843.0,0.0003475746339209884
2842.0,0.0003475746339209884
2841.0,0.0003475746339209884
2840.0,0.00030411258916074324
2839.0,0.00030411258916074324
2838.0,0.00030411258916074324
2837.0,0.0003475746339209884
2836.0,0.0003475746339209884
2835.0,0.0003910410285830057
2834.0,0.0003910410285830057
2833.0,0.00043451177401765406
2832.0,0.000521466320689834
2831.0,0.000521466320689834
2830.0,0.000521466320689834
2829.0,0.00043451177401765406
2828.0,0.0003910410285830057
2827.0,0.0003910410285830057
2826.0,0.0003910410285830057
2825.0,0.0003910410285830057
2824.0,0.00030411258916074324
2823.0,0.00026065489343207737
2822.0,0.00021720154586435392
2821.0,0.00026065489343207737
2820.0,0.00030411258916074324
2819.0,0.0003475746339209884
2818.0,0.0003910410285830057
2817.0,0.0003910410285830057
2816.0,0.0003910410285830057
2815.0,0.0003910410285830057
2814.0,0.0003910410285830057
2813.0,0.00043451177401765406
2812.0,0.0004779868710962365
2811.0,0.0004779868710962365
2810.0,0.0004779868710962365
2809.0,0.0004779868710962365
2808.0,0.0004779868710962365
2807.0,0.00043451177401765406
2806.0,0.00043451177401765406
2805.0,0.00043451177401765406
2804.0,0.00043451177401765406
2803.0,0.00043451177401765406
2802.0,0.0003910410285830057
2801.0,0.0003475746339209884
2800.0,0.0003475746339209884
2799.0,0.00030411258916074324
2798.0,0.00026065489343207737
2797.0,0.00026065489343207737
2796.0,0.00021720154586435392
2795.0,0.00021720154586435392
2794.0,0.00021720154586435392
2793.0,0.00026065489343207737
2792.0,0.00030411258916074324
2791.0,0.0003910410285830057
2790.0,0.0004779868710962365
2789.0,0.0004779868710962365
2788.0,0.00043451177401765406
2787.0,0.0003475746339209884
2786.0,0.00030411258916074324
2785.0,0.00026065489343207737
2784.0,0.00026065489343207737
2783.0,0.00030411258916074324
2782.0,0.0003910410285830057
2781.0,0.0003910410285830057
2780.0,0.0003475746339209884
2779.0,0.00030411258916074324
2778.0,0.00030411258916074324
2777.0,0.00030411258916074324
2776.0,0.00030411258916074324
2775.0,0.0003475746339209884
2774.0,0.0003910410285830057
2773.0,0.0003910410285830057
2772.0,0.0003910410285830057
2771.0,0.0003910410285830057
2770.0,0.0003475746339209884
2769.0,0.0003475746339209884
2768.0,0.0003475746339209884
2767.0,0.0003910410285830057
2766.0,0.00043451177401765406
2765.0,0.0004779868710962365
2764.0,0.0004779868710962365
2763.0,0.00043451177401765406
2762.0,0.0003910410285830057
2761.0,0.00030411258916074324
2760.0,0.00030411258916074324
2759.0,0.00030411258916074324
2758.0,0.00030411258916074324
2757.0,0.0003475746339209884
2756.0,0.0003475746339209884
2755.0,0.0003475746339209884
2754.0,0.00030411258916074324
2753.0,0.00030411258916074324
2752.0,0.0003475746339209884
2751.0,0.0003910410285830057
2750.0,0.0003910410285830057
2749.0,0.00030411258916074324
2748.0,0.00021720154586435392
2747.0,0.00017375254558760211
2746.0,0.00021720154586435392
2745.0,0.00030411258916074324
2744.0,0.0003910410285830057
2743.0,0.00043451177401765406
2742.0,0.00043451177401765406
2741.0,0.00043451177401765406
2740.0,0.00043451177401765406
2739.0,0.00043451177401765406
2738.0,0.0003910410285830057
2737.0,0.0003475746339209884
2736.0,0.00030411258916074324
2735.0,0.00030411258916074324
2734.0,0.00030411258916074324
2733.0,0.0003475746339209884
2732.0,0.00030411258916074324
2731.0,0.00030411258916074324
2730.0,0.00030411258916074324
2729.0,0.0003475746339209884
2728.0,0.0003910410285830057
2727.0,0.00043451177401765406
2726.0,0.00043451177401765406
2725.0,0.0004779868710962365
2724.0,0.000521466320689834
2723.0,0.000521466320689834
2722.0,0.000521466320689834
2721.0,0.0004779868710962365
2720.0,0.0004779868710962365
2719.0,0.0004779868710962365
2718.0,0.000521466320689834
2717.0,0.000521466320689834
2716.0,0.000521466320689834
2715.0,0.0004779868710962365
2714.0,0.0004779868710962365
2713.0,0.00043451177401765406
2712.0,0.00043451177401765406
2711.0,0.0003910410285830057
2710.0,0.00030411258916074324
2709.0,0.00026065489343207737
2708.0,0.00030411258916074324
2707.0,0.0003910410285830057
2706.0,0.00043451177401765406
2705.0,0.0004779868710962365
2704.0,0.00043451177401765406
2703.0,0.0003475746339209884
2702.0,0.00026065489343207737
2701.0,0.00021720154586435392
2700.0,0.00026065489343207737
2699.0,0.00030411258916074324
2698.0,0.0003910410285830057
2697.0,0.00043451177401765406
2696.0,0.0004779868710962365
2695.0,0.0005649501236701937
2694.0,0.0006084382809090627
2693.0,0.0006084382809090627
2692.0,0.0005649501236701937
2691.0,0.0004779868710962365
2690.0,0.0003910410285830057
2689.0,0.0003475746339209884
2688.0,0.0003475746339209884
2687.0,0.00030411258916074324
2686.0,0.0003475746339209884
2685.0,0.0003475746339209884
2684.0,0.0003475746339209884
2683.0,0.0003475746339209884
2682.0,0.0003910410285830057
2681.0,0.0003910410285830057
2680.0,0.0003910410285830057
2679.0,0.0003475746339209884
2678.0,0.00030411258916074324
2677.0,0.00030411258916074324
2676.0,0.00026065489343207737
2675.0,0.00030411258916074324
2674.0,0.00030411258916074324
2673.0,0.00030411258916074324
2672.0,0.00030411258916074324
2671.0,0.00030411258916074324
2670.0,0.00026065489343207737
2669.0,0.00026065489343207737
2668.0,0.00026065489343207737
2667.0,0.00030411258916074324
2666.0,0.0003475746339209884
2665.0,0.0003910410285830057
2664.0,0.00043451177401765406
2663.0,0.0003910410285830057
2662.0,0.0003910410285830057
2661.0,0.0003910410285830057
2660.0,0.00043451177401765406
2659.0,0.0004779868710962365
2658.0,0.0005649501236701937
2657.0,0.0006084382809090627
2656.0,0.0006084382809090627
2655.0,0.0006084382809090627
2654.0,0.0005649501236701937
2653.0,0.0004779868710962365
2652.0,0.00043451177401765406
2651.0,0.0003910410285830057
2650.0,0.0003910410285830057
2649.0,0.0003910410285830057
2648.0,0.00043451177401765406
2647.0,0.00043451177401765406
2646.0,0.00043451177401765406
2645.0,0.0003910410285830057
2644.0,0.0003910410285830057
2643.0,0.0003910410285830057
2642.0,0.0003910410285830057
2641.0,0.0004779868710962365
2640.0,0.000521466320689834
2639.0,0.000521466320689834
2638.0,0.000521466320689834
2637.0,0.00043451177401765406
2636.0,0.0003475746339209884
2635.0,0.00026065489343207737
2634.0,0.00026065489343207737
2633.0,0.00030411258916074324
2632.0,0.0003475746339209884
2631.0,0.0003910410285830057
2630.0,0.0003910410285830057
2629.0,0.0003910410285830057
2628.0,0.0003475746339209884
2627.0,0.0003475746339209884
2626.0,0.00030411258916074324
2625.0,0.00026065489343207737
2624.0,0.00026065489343207737
2623.0,0.00030411258916074324
2622.0,0.0003910410285830057
2621.0,0.00043451177401765406
2620.0,0.00043451177401765406
2619.0,0.0003910410285830057
2618.0,0.0003910410285830057
2617.0,0.0003910410285830057
2616.0,0.00043451177401765406
2615.0,0.000521466320689834
2614.0,0.000521466320689834
2613.0,0.0004779868710962365
2612.0,0.0004779868710962365
2611.0,0.00043451177401765406
2610.0,0.0004779868710962365
2609.0,0.0004779868710962365
2608.0,0.000521466320689834
2607.0,0.000521466320689834
2606.0,0.0004779868710962365
2605.0,0.00043451177401765406
2604.0,0.0003910410285830057
2603.0,0.00043451177401765406
2602.0,0.00043451177401765406
2601.0,0.00043451177401765406
2600.0,0.0003910410285830057
2599.0,0.00030411258916074324
2598.0,0.00017375254558760211
2597.0,0.0001303078917322953
2596.0,0.0001303078917322953
2595.0,0.00017375254558760211
2594.0,0.00026065489343207737
2593.0,0.0003475746339209884
2592.0,0.0003910410285830057
2591.0,0.00043451177401765406
2590.0,0.0003910410285830057
2589.0,0.0003475746339209884
2588.0,0.00030411258916074324
2587.0,0.00026065489343207737
2586.0,0.00026065489343207737
2585.0,0.00021720154586435392
2584.0,0.00026065489343207737
2583.0,0.00026065489343207737
2582.0,0.00026065489343207737
2581.0,0.00021720154586435392
2580.0,0.00017375254558760211
2579.0,0.00017375254558760211
2578.0,0.00021720154586435392
2577.0,0.00026065489343207737
2576.0,0.00030411258916074324
2575.0,0.0003475746339209884
2574.0,0.0003475746339209884
2573.0,0.0003910410285830057
2572.0,0.00043451177401765406
2571.0,0.00043451177401765406
2570.0,0.00043451177401765406
2569.0,0.0003910410285830057
2568.0,0.0003475746339209884
2567.0,0.00030411258916074324
2566.0,0.00030411258916074324
2565.0,0.0003475746339209884
2564.0,0.00043451177401765406
2563.0,0.0004779868710962365
2562.0,0.0004779868710962365
2561.0,0.00043451177401765406
2560.0,0.0003910410285830057
2559.0,0.00030411258916074324
2558.0,0.00030411258916074324
2557.0,0.00030411258916074324
2556.0,0.0003475746339209884
2555.0,0.0003475746339209884
2554.0,0.0003475746339209884
2553.0,0.00030411258916074324
2552.0,0.00030411258916074324
2551.0,0.0003475746339209884
2550.0,0.00043451177401765406
2549.0,0.00043451177401765406
2548.0,0.00043451177401765406
2547.0,0.0003475746339209884
2546.0,0.00030411258916074324
2545.0,0.0003475746339209884
2544.0,0.0003475746339209884
2543.0,0.0003910410285830057
2542.0,0.00043451177401765406
2541.0,0.0004779868710962365
2540.0,0.0005649501236701937
2539.0,0.000521466320689834
2538.0,0.00043451177401765406
2537.0,0.0003475746339209884
2536.0,0.00026065489343207737
2535.0,0.00026065489343207737
2534.0,0.00030411258916074324
2533.0,0.00030411258916074324
2532.0,0.00030411258916074324
2531.0,0.00030411258916074324
2530.0,0.00030411258916074324
2529.0,0.00030411258916074324
2528.0,0.0003475746339209884
2527.0,0.0003475746339209884
2526.0,0.0003475746339209884
2525.0,0.0003475746339209884
2524.0,0.00030411258916074324
2523.0,0.00026065489343207737
2522.0,0.00021720154586435392
2521.0,0.00021720154586435392
2520.0,0.00021720154586435392
2519.0,0.00030411258916074324
2518.0,0.0003910410285830057
2517.0,0.0003910410285830057
2516.0,0.0003475746339209884
2515.0,0.00021720154586435392
2514.0,0.0001303078917322953
2513.0,0.0001303078917322953
2512.0,0.00021720154586435392
2511.0,0.00026065489343207737
2510.0,0.00030411258916074324
2509.0,0.00026065489343207737
2508.0,0.00021720154586435392
2507.0,0.00021720154586435392
2506.0,0.00021720154586435392
2505.0,0.00026065489343207737
2504.0,0.00030411258916074324
2503.0,0.0003475746339209884
2502.0,0.0003475746339209884
2501.0,0.0003475746339209884
2500.0,0.0003475746339209884
2499.0,0.0003475746339209884
2498.0,0.0003910410285830057
2497.0,0.00043451177401765406
2496.0,0.0004779868710962365
2495.0,0.0004779868710962365
2494.0,0.0004779868710962365
2493.0,0.0004779868710962365
2492.0,0.000521466320689834
2491.0,0.0005649501236701937
2490.0,0.0005649501236701937
2489.0,0.0005649501236701937
2488.0,0.000521466320689834
2487.0,0.000521466320689834
2486.0,0.0004779868710962365
2485.0,0.0003910410285830057
2484.0,0.0003475746339209884
2483.0,0.0003475746339209884
2482.0,0.00030411258916074324
2481.0,0.00030411258916074324
2480.0,0.00026065489343207737
2479.0,0.00021720154586435392
2478.0,0.00021720154586435392
2477.0,0.00026065489343207737
2476.0,0.0003475746339209884
2475.0,0.00043451177401765406
2474.0,0.0004779868710962365
2473.0,0.00043451177401765406
2472.0,0.0003910410285830057
2471.0,0.0003910410285830057
2470.0,0.0003910410285830057
2469.0,0.00043451177401765406
2468.0,0.00043451177401765406
2467.0,0.0003910410285830057
2466.0,0.00030411258916074324
2465.0,0.00026065489343207737
2464.0,0.00026065489343207737
2463.0,0.00030411258916074324
2462.0,0.0003475746339209884
2461.0,0.0003910410285830057
2460.0,0.0003910410285830057
2459.0,0.00043451177401765406
2458.0,0.0004779868710962365
2457.0,0.0004779868710962365
2456.0,0.0004779868710962365
2455.0,0.0004779868710962365
2454.0,0.00043451177401765406
2453.0,0.0003475746339209884
2452.0,0.00021720154586435392
2451.0,0.0001303078917322953
2450.0,8.686758342868472e-05
2449.0,0.0001303078917322953
2448.0,0.00021720154586435392
2447.0,0.00030411258916074324
2446.0,0.0003475746339209884
2445.0,0.00030411258916074324
2444.0,0.00026065489343207737
2443.0,0.00026065489343207737
2442.0,0.00026065489343207737
2441.0,0.0003475746339209884
2440.0,0.0003910410285830057
2439.0,0.00043451177401765406
2438.0,0.00043451177401765406
2437.0,0.00043451177401765406
2436.0,0.0004779868710962365
2435.0,0.0004779868710962365
2434.0,0.0004779868710962365
2433.0,0.0004779868710962365
2432.0,0.000521466320689834
2431.0,0.0004779868710962365
2430.0,0.0004779868710962365
2429.0,0.0003910410285830057
2428.0,0.0003475746339209884
2427.0,0.00026065489343207737
2426.0,0.00026065489343207737
2425.0,0.00030411258916074324
2424.0,0.0003475746339209884
2423.0,0.0003910410285830057
2422.0,0.0003910410285830057
2421.0,0.0003475746339209884
2420.0,0.00030411258916074324
2419.0,0.0003475746339209884
2418.0,0.0003910410285830057
2417.0,0.0003910410285830057
2416.0,0.0003910410285830057
2415.0,0.0003910410285830057
2414.0,0.0003910410285830057
2413.0,0.00043451177401765406
2412.0,0.00043451177401765406
2411.0,0.0003910410285830057
2410.0,0.00030411258916074324
2409.0,0.00026065489343207737
2408.0,0.00021720154586435392
2407.0,0.00021720154586435392
2406.0,0.00021720154586435392
2405.0,0.00026065489343207737
2404.0,0.00026065489343207737
2403.0,0.00026065489343207737
2402.0,0.00030411258916074324
2401.0,0.0003475746339209884
2400.0,0.0003910410285830057
2399.0,0.0003910410285830057
2398.0,0.0003910410285830057
2397.0,0.0003910410285830057
2396.0,0.0003910410285830057
2395.0,0.0003910410285830057
2394.0,0.00043451177401765406
2393.0,0.00043451177401765406
2392.0,0.00043451177401765406
2391.0,0.00043451177401765406
2390.0,0.0004779868710962365
2389.0,0.0004779868710962365
2388.0,0.00043451177401765406
2387.0,0.00043451177401765406
2386.0,0.0003910410285830057
2385.0,0.0003910410285830057
2384.0,0.00043451177401765406
2383.0,0.0004779868710962365
2382.0,0.0005649501236701937
2381.0,0.0005649501236701937
2380.0,0.0005649501236701937
2379.0,0.000521466320689834
2378.0,0.0004779868710962365
2377.0,0.000521466320689834
2376.0,0.0005649501236701937
2375.0,0.0004779868710962365
2374.0,0.0003910410285830057
2373.0,0.0003475746339209884
2372.0,0.00043451177401765406
2371.0,0.0006519307932786322
2370.0,0.0008259444115150671
2369.0,0.0009565003968372565
2368.0,0.0010870956412141197
2367.0,0.0012612837441823288
2366.0,0.0013919706849057079
2365.0,0.0013919706849057079
2364.0,0.0010435595295137379
2363.0,0.0003475746339209884
2362.0,-0.0002604985473904087
2361.0,-0.00043407747931878404
2360.0,-0.00013026880522692963
2359.0,0.00021720154586435392
2358.0,0.0004779868710962365
2357.0,0.0006954276616513155
2356.0,0.0009565003968372565
2355.0,0.0010435595295137379
2354.0,0.0007824344698965646
2353.0,0.00030411258916074324
2352.0,0.0
2351.0,4.343161980746579e-05
2350.0,0.00030411258916074324
2349.0,0.000521466320689834
2348.0,0.0006084382809090627
2347.0,0.000521466320689834
2346.0,0.0004779868710962365
2345.0,0.0005649501236701937
2344.0,0.0006084382809090627
2343.0,0.0005649501236701937
2342.0,0.0003475746339209884
2341.0,0.00017375254558760211
2340.0,4.343161980746579e-05
2339.0,0.0001303078917322953
2338.0,0.00030411258916074324
2337.0,0.000521466320689834
2336.0,0.0005649501236701937
2335.0,0.00043451177401765406
2334.0,0.00021720154586435392
2333.0,0.00021720154586435392
2332.0,0.0003475746339209884
2331.0,0.0005649501236701937
2330.0,0.0006954276616513155
2329.0,0.0006519307932786322
2328.0,0.0004779868710962365
2327.0,0.00026065489343207737
2326.0,-4.3427276862573194e-05
2325.0,-0.00030389978481260016
2324.0,-0.00043407747931878404
2323.0,-0.0004774613744551459
2322.0,-0.0003472966853634851
2321.0,-0.00021709297223004853
2320.0,-8.685021164911433e-05
2319.0,4.343161980746579e-05
2318.0,0.00017375254558760211
2317.0,0.00030411258916074324
2316.0,0.00043451177401765406
2315.0,0.000521466320689834
2314.0,0.0006519307932786322
2313.0,0.0007824344698965646
2312.0,0.000869458712629001
2311.0,0.0008259444115150671
2310.0,0.0006954276616513155
2309.0,0.0005649501236701937
2308.0,0.000521466320689834
2307.0,0.000521466320689834
2306.0,0.0005649501236701937
2305.0,0.0005649501236701937
2304.0,0.0005649501236701937
2303.0,0.0005649501236701937
2302.0,0.0005649501236701937
2301.0,0.0005649501236701937
2300.0,0.000521466320689834
2299.0,0.0004779868710962365
2298.0,0.00043451177401765406
2297.0,0.00043451177401765406
2296.0,0.0004779868710962365
2295.0,0.0004779868710962365
2294.0,0.0004779868710962365
2293.0,0.00043451177401765406
2292.0,0.0003475746339209884
2291.0,0.00030411258916074324
2290.0,0.00026065489343207737
2289.0,0.00026065489343207737
2288.0,0.0003475746339209884
2287.0,0.00043451177401765406
2286.0,0.00043451177401765406
2285.0,0.0003910410285830057
2284.0,0.0003910410285830057
2283.0,0.0003475746339209884
2282.0,0.0003475746339209884
2281.0,0.0003910410285830057
2280.0,0.0003475746339209884
2279.0,0.00030411258916074324
2278.0,0.00021720154586435392
2277.0,0.00017375254558760211
2276.0,0.00017375254558760211
2275.0,0.00026065489343207737
2274.0,0.0003475746339209884
2273.0,0.0003910410285830057
2272.0,0.0003910410285830057
2271.0,0.0003910410285830057
2270.0,0.0003475746339209884
2269.0,0.00030411258916074324
2268.0,0.00030411258916074324
2267.0,0.00030411258916074324
2266.0,0.00030411258916074324
2265.0,0.0003475746339209884
2264.0,0.0003910410285830057
2263.0,0.00043451177401765406
2262.0,0.0003910410285830057
2261.0,0.0003910410285830057
2260.0,0.0003910410285830057
2259.0,0.0003910410285830057
2258.0,0.0003475746339209884
2257.0,0.00030411258916074324
2256.0,0.00030411258916074324
2255.0,0.00030411258916074324
2254.0,0.00030411258916074324
2253.0,0.0003475746339209884
2252.0,0.0003910410285830057
2251.0,0.0003910410285830057
2250.0,0.0003475746339209884
2249.0,0.00030411258916074324
2248.0,0.00026065489343207737
2247.0,0.00021720154586435392
2246.0,0.00017375254558760211
2245.0,0.00017375254558760211
2244.0,0.00021720154586435392
2243.0,0.00030411258916074324
2242.0,0.0003910410285830057
2241.0,0.0003910410285830057
2240.0,0.0003910410285830057
2239.0,0.0003475746339209884
2238.0,0.0003475746339209884
2237.0,0.0003910410285830057
2236.0,0.0003475746339209884
2235.0,0.00026065489343207737
2234.0,0.00021720154586435392
2233.0,0.00021720154586435392
2232.0,0.00030411258916074324
2231.0,0.0003475746339209884
2230.0,0.0003910410285830057
2229.0,0.0003475746339209884
2228.0,0.00030411258916074324
2227.0,0.00021720154586435392
2226.0,0.00021720154586435392
2225.0,0.00021720154586435392
2224.0,0.00026065489343207737
2223.0,0.00030411258916074324
2222.0,0.0003475746339209884
2221.0,0.0003475746339209884
2220.0,0.0003475746339209884
2219.0,0.0003475746339209884
2218.0,0.00030411258916074324
2217.0,0.00026065489343207737
2216.0,0.00021720154586435392
2215.0,0.00017375254558760211
2214.0,0.00021720154586435392
2213.0,0.00030411258916074324
2212.0,0.0003910410285830057
2211.0,0.00043451177401765406
2210.0,0.00043451177401765406
2209.0,0.0003910410285830057
2208.0,0.0003910410285830057
2207.0,0.0003475746339209884
2206.0,0.0003475746339209884
2205.0,0.0003475746339209884
2204.0,0.0003475746339209884
2203.0,0.00030411258916074324
2202.0,0.00026065489343207737
2201.0,0.00026065489343207737
2200.0,0.00026065489343207737
2199.0,0.00026065489343207737
2198.0,0.00026065489343207737
2197.0,0.00026065489343207737
2196.0,0.00026065489343207737
2195.0,0.00026065489343207737
2194.0,0.00030411258916074324
2193.0,0.00030411258916074324
2192.0,0.00030411258916074324
2191.0,0.00030411258916074324
2190.0,0.00026065489343207737
2189.0,0.00026065489343207737
2188.0,0.00030411258916074324
2187.0,0.00030411258916074324
2186.0,0.00030411258916074324
2185.0,0.00030411258916074324
2184.0,0.0003475746339209884
2183.0,0.00043451177401765406
2182.0,0.0004779868710962365
2181.0,0.0004779868710962365
2180.0,0.00043451177401765406
2179.0,0.0003475746339209884
2178.0,0.00030411258916074324
2177.0,0.00030411258916074324
2176.0,0.00030411258916074324
2175.0,0.00030411258916074324
2174.0,0.00030411258916074324
2173.0,0.00030411258916074324
2172.0,0.00030411258916074324
2171.0,0.00026065489343207737
2170.0,0.00026065489343207737
2169.0,0.00030411258916074324
2168.0,0.0003475746339209884
2167.0,0.0003910410285830057
2166.0,0.0003910410285830057
2165.0,0.0003475746339209884
2164.0,0.0003475746339209884
2163.0,0.0003910410285830057
2162.0,0.0003910410285830057
2161.0,0.0003910410285830057
2160.0,0.0003475746339209884
2159.0,0.00030411258916074324
2158.0,0.00030411258916074324
2157.0,0.00030411258916074324
2156.0,0.00030411258916074324
2155.0,0.00030411258916074324
2154.0,0.00030411258916074324
2153.0,0.0003475746339209884
2152.0,0.0003910410285830057
2151.0,0.0003910410285830057
2150.0,0.0003910410285830057
2149.0,0.0003910410285830057
2148.0,0.0003475746339209884
2147.0,0.0003475746339209884
2146.0,0.00030411258916074324
2145.0,0.00026065489343207737
2144.0,0.00026065489343207737
2143.0,0.00030411258916074324
2142.0,0.0003475746339209884
2141.0,0.0003910410285830057
2140.0,0.0003475746339209884
2139.0,0.0003475746339209884
2138.0,0.00030411258916074324
2137.0,0.00026065489343207737
2136.0,0.00021720154586435392
2135.0,0.00017375254558760211
2134.0,0.00021720154586435392
2133.0,0.00026065489343207737
2132.0,0.0003475746339209884
2131.0,0.0003475746339209884
2130.0,0.00026065489343207737
2129.0,0.0001303078917322953
2128.0,8.686758342868472e-05
2127.0,0.0001303078917322953
2126.0,0.00017375254558760211
2125.0,0.00026065489343207737
2124.0,0.00030411258916074324
2123.0,0.00030411258916074324
2122.0,0.00030411258916074324
2121.0,0.00030411258916074324
2120.0,0.00030411258916074324
2119.0,0.00030411258916074324
2118.0,0.00030411258916074324
2117.0,0.00030411258916074324
2116.0,0.00030411258916074324
2115.0,0.00030411258916074324
2114.0,0.00030411258916074324
2113.0,0.00030411258916074324
2112.0,0.0003910410285830057
2111.0,0.0003910410285830057
2110.0,0.0003475746339209884
2109.0,0.00030411258916074324
2108.0,0.00030411258916074324
2107.0,0.00030411258916074324
2106.0,0.0003475746339209884
2105.0,0.0003910410285830057
2104.0,0.0003910410285830057
2103.0,0.0003910410285830057
2102.0,0.0003910410285830057
2101.0,0.0003475746339209884
2100.0,0.0003475746339209884
2099.0,0.00030411258916074324
2098.0,0.00030411258916074324
2097.0,0.00030411258916074324
2096.0,0.00030411258916074324
2095.0,0.0003475746339209884
2094.0,0.0003910410285830057
2093.0,0.0003910410285830057
2092.0,0.0003910410285830057
2091.0,0.0003475746339209884
2090.0,0.00030411258916074324
2089.0,0.0003475746339209884
2088.0,0.00043451177401765406
2087.0,0.0004779868710962365
2086.0,0.0004779868710962365
2085.0,0.0003910410285830057
2084.0,0.0003475746339209884
2083.0,0.00030411258916074324
2082.0,0.00030411258916074324
2081.0,0.00030411258916074324
2080.0,0.00026065489343207737
2079.0,0.00021720154586435392
2078.0,0.00026065489343207737
2077.0,0.00026065489343207737
2076.0,0.00030411258916074324
2075.0,0.0003475746339209884
2074.0,0.0003475746339209884
2073.0,0.0003475746339209884
2072.0,0.0003475746339209884
2071.0,0.00026065489343207737
2070.0,0.00021720154586435392
2069.0,0.00017375254558760211
2068.0,0.0001303078917322953
2067.0,0.00017375254558760211
2066.0,0.00017375254558760211
2065.0,0.00021720154586435392
2064.0,0.00026065489343207737
2063.0,0.00030411258916074324
2062.0,0.0003475746339209884
2061.0,0.0003910410285830057
2060.0,0.0003910410285830057
2059.0,0.0003910410285830057
2058.0,0.0003475746339209884
2057.0,0.0003475746339209884
2056.0,0.0003910410285830057
2055.0,0.00043451177401765406
2054.0,0.0004779868710962365
2053.0,0.00043451177401765406
2052.0,0.0003910410285830057
2051.0,0.0003475746339209884
2050.0,0.00030411258916074324
2049.0,0.00026065489343207737
2048.0,0.00026065489343207737
2047.0,0.00021720154586435392
2046.0,0.00026065489343207737
2045.0,0.00026065489343207737
2044.0,0.00030411258916074324
2043.0,0.00030411258916074324
2042.0,0.00030411258916074324
2041.0,0.00030411258916074324
2040.0,0.0003475746339209884
2039.0,0.0003910410285830057
2038.0,0.0003475746339209884
2037.0,0.00030411258916074324
2036.0,0.00026065489343207737
2035.0,0.00026065489343207737
2034.0,0.00030411258916074324
2033.0,0.00030411258916074324
2032.0,0.00030411258916074324
2031.0,0.0003475746339209884
2030.0,0.0003910410285830057
2029.0,0.00043451177401765406
2028.0,0.00043451177401765406
2027.0,0.0003910410285830057
2026.0,0.0003475746339209884
2025.0,0.00030411258916074324
2024.0,0.00030411258916074324
2023.0,0.00030411258916074324
2022.0,0.00030411258916074324
2021.0,0.00030411258916074324
2020.0,0.00030411258916074324
2019.0,0.0003475746339209884
2018.0,0.0003475746339209884
2017.0,0.0003475746339209884
2016.0,0.0003475746339209884
2015.0,0.0003475746339209884
2014.0,0.0003475746339209884
2013.0,0.0003910410285830057
2012.0,0.0003910410285830057
2011.0,0.0003910410285830057
2010.0,0.00043451177401765406
2009.0,0.00043451177401765406
2008.0,0.0003910410285830057
2007.0,0.0003910410285830057
2006.0,0.0003910410285830057
2005.0,0.0003910410285830057
2004.0,0.0003475746339209884
2003.0,0.0003475746339209884
2002.0,0.0003475746339209884
2001.0,0.0003475746339209884
2000.0,0.0003910410285830057
1999.0,0.00043451177401765406
1998.0,0.00043451177401765406
1997.0,0.00043451177401765406
1996.0,0.0003910410285830057
1995.0,0.0003475746339209884
1994.0,0.00030411258916074324
1993.0,0.00026065489343207737
1992.0,0.00026065489343207737
1991.0,0.00026065489343207737
1990.0,0.00026065489343207737
1989.0,0.00026065489343207737
1988.0,0.00026065489343207737
1987.0,0.00026065489343207737
1986.0,0.00030411258916074324
1985.0,0.0003475746339209884
1984.0,0.0003910410285830057
1983.0,0.0003475746339209884
1982.0,0.0003475746339209884
1981.0,0.00030411258916074324
1980.0,0.00030411258916074324
1979.0,0.00030411258916074324
1978.0,0.00030411258916074324
1977.0,0.00030411258916074324
1976.0,0.00026065489343207737
1975.0,0.00026065489343207737
1974.0,0.00030411258916074324
1973.0,0.0003475746339209884
1972.0,0.00043451177401765406
1971.0,0.0004779868710962365
1970.0,0.000521466320689834
1969.0,0.0004779868710962365
1968.0,0.00043451177401765406
1967.0,0.0003910410285830057
1966.0,0.0003475746339209884
1965.0,0.00030411258916074324
1964.0,0.00030411258916074324
1963.0,0.00030411258916074324
1962.0,0.00030411258916074324
1961.0,0.0003475746339209884
1960.0,0.0003910410285830057
1959.0,0.0003910410285830057
1958.0,0.0003910410285830057
1957.0,0.0003910410285830057
1956.0,0.0003910410285830057
1955.0,0.0003910410285830057
1954.0,0.0003475746339209884
1953.0,0.00030411258916074324
1952.0,0.00026065489343207737
1951.0,0.00026065489343207737
1950.0,0.00030411258916074324
1949.0,0.0003475746339209884
1948.0,0.0003910410285830057
1947.0,0.00043451177401765406
1946.0,0.00043451177401765406
1945.0,0.00043451177401765406
1944.0,0.0003910410285830057
1943.0,0.0003910410285830057
1942.0,0.00043451177401765406
1941.0,0.000521466320689834
1940.0,0.000521466320689834
1939.0,0.0004779868710962365
1938.0,0.00043451177401765406
1937.0,0.0003910410285830057
1936.0,0.0003475746339209884
1935.0,0.0003910410285830057
1934.0,0.00043451177401765406
1933.0,0.0003910410285830057
1932.0,0.0003475746339209884
1931.0,0.00026065489343207737
1930.0,0.00021720154586435392
1929.0,0.00021720154586435392
1928.0,0.00021720154586435392
1927.0,0.00021720154586435392
1926.0,0.00026065489343207737
1925.0,0.00026065489343207737
1924.0,0.00030411258916074324
1923.0,0.0003910410285830057
1922.0,0.00043451177401765406
1921.0,0.0004779868710962365
1920.0,0.000521466320689834
1919.0,0.0004779868710962365
1918.0,0.00043451177401765406
1917.0,0.0003910410285830057
1916.0,0.0003475746339209884
1915.0,0.0003475746339209884
1914.0,0.00030411258916074324
1913.0,0.00026065489343207737
1912.0,0.00021720154586435392
1911.0,0.00021720154586435392
1910.0,0.00026065489343207737
1909.0,0.00026065489343207737
1908.0,0.00030411258916074324
1907.0,0.0003475746339209884
1906.0,0.0003475746339209884
1905.0,0.0003475746339209884
1904.0,0.00030411258916074324
1903.0,0.00030411258916074324
1902.0,0.00030411258916074324
1901.0,0.0003475746339209884
1900.0,0.0003910410285830057
1899.0,0.0003910410285830057
1898.0,0.0003475746339209884
1897.0,0.0003910410285830057
1896.0,0.0003910410285830057
1895.0,0.0003910410285830057
1894.0,0.0003910410285830057
1893.0,0.0003910410285830057
1892.0,0.0003910410285830057
1891.0,0.00043451177401765406
1890.0,0.00043451177401765406
1889.0,0.0004779868710962365
1888.0,0.0004779868710962365
1887.0,0.0004779868710962365
1886.0,0.00043451177401765406
1885.0,0.00043451177401765406
1884.0,0.00043451177401765406
1883.0,0.00043451177401765406
1882.0,0.00043451177401765406
1881.0,0.0003910410285830057
1880.0,0.0003475746339209884
1879.0,0.00030411258916074324
1878.0,0.00026065489343207737
1877.0,0.00026065489343207737
1876.0,0.00026065489343207737
1875.0,0.00026065489343207737
1874.0,0.00030411258916074324
1873.0,0.00030411258916074324
1872.0,0.0003475746339209884
1871.0,0.0003910410285830057
1870.0,0.0003910410285830057
1869.0,0.0003910410285830057
1868.0,0.00043451177401765406
1867.0,0.00043451177401765406
1866.0,0.0004779868710962365
1865.0,0.0004779868710962365
1864.0,0.0004779868710962365
1863.0,0.0004779868710962365
1862.0,0.0004779868710962365
1861.0,0.0004779868710962365
1860.0,0.0004779868710962365
1859.0,0.00043451177401765406
1858.0,0.0003475746339209884
1857.0,0.00030411258916074324
1856.0,0.00030411258916074324
1855.0,0.0003475746339209884
1854.0,0.0003910410285830057
1853.0,0.0003910410285830057
1852.0,0.0003910410285830057
1851.0,0.0003910410285830057
1850.0,0.0003910410285830057
1849.0,0.0003910410285830057
1848.0,0.00043451177401765406
1847.0,0.00043451177401765406
1846.0,0.00043451177401765406
1845.0,0.0004779868710962365
1844.0,0.000521466320689834
1843.0,0.000521466320689834
1842.0,0.000521466320689834
1841.0,0.000521466320689834
1840.0,0.0004779868710962365
1839.0,0.00043451177401765406
1838.0,0.0003910410285830057
1837.0,0.0003910410285830057
1836.0,0.00043451177401765406
1835.0,0.0004779868710962365
1834.0,0.0004779868710962365
1833.0,0.0004779868710962365
1832.0,0.00043451177401765406
1831.0,0.0003910410285830057
1830.0,0.0003910410285830057
1829.0,0.00030411258916074324
1828.0,0.00026065489343207737
1827.0,0.00026065489343207737
1826.0,0.00026065489343207737
1825.0,0.0003910410285830057
1824.0,0.0004779868710962365
1823.0,0.000521466320689834
1822.0,0.0004779868710962365
1821.0,0.00043451177401765406
1820.0,0.00043451177401765406
1819.0,0.00043451177401765406
1818.0,0.000521466320689834
1817.0,0.0005649501236701937
1816.0,0.0005649501236701937
1815.0,0.000521466320689834
1814.0,0.0004779868710962365
1813.0,0.00043451177401765406
1812.0,0.00043451177401765406
1811.0,0.0003910410285830057
1810.0,0.0003910410285830057
1809.0,0.0003910410285830057
1808.0,0.0003910410285830057
1807.0,0.0003910410285830057
1806.0,0.0003910410285830057
1805.0,0.0003910410285830057
1804.0,0.00043451177401765406
1803.0,0.0004779868710962365
1802.0,0.0004779868710962365
1801.0,0.0004779868710962365
1800.0,0.00043451177401765406
1799.0,0.00043451177401765406
1798.0,0.00043451177401765406
1797.0,0.00043451177401765406
1796.0,0.0004779868710962365
1795.0,0.000521466320689834
1794.0,0.0005649501236701937
1793.0,0.0005649501236701937
1792.0,0.000521466320689834
1791.0,0.00043451177401765406
1790.0,0.0003910410285830057
1789.0,0.0003910410285830057
1788.0,0.0003475746339209884
1787.0,0.00030411258916074324
1786.0,0.00030411258916074324
1785.0,0.0003475746339209884
1784.0,0.0003475746339209884
1783.0,0.0003910410285830057
1782.0,0.0003910410285830057
1781.0,0.00043451177401765406
1780.0,0.00043451177401765406
1779.0,0.00043451177401765406
1778.0,0.00043451177401765406
1777.0,0.00043451177401765406
1776.0,0.0004779868710962365
1775.0,0.0004779868710962365
1774.0,0.000521466320689834
1773.0,0.0004779868710962365
1772.0,0.00043451177401765406
1771.0,0.0003910410285830057
1770.0,0.0003475746339209884
1769.0,0.00030411258916074324
1768.0,0.0003910410285830057
1767.0,0.0004779868710962365
1766.0,0.000521466320689834
1765.0,0.0005649501236701937
1764.0,0.0005649501236701937
1763.0,0.0005649501236701937
1762.0,0.0005649501236701937
1761.0,0.0005649501236701937
1760.0,0.000521466320689834
1759.0,0.0004779868710962365
1758.0,0.00043451177401765406
1757.0,0.0003910410285830057
1756.0,0.0003910410285830057
1755.0,0.00043451177401765406
1754.0,0.00043451177401765406
1753.0,0.0003475746339209884
1752.0,0.00026065489343207737
1751.0,0.00021720154586435392
1750.0,0.00021720154586435392
1749.0,0.00030411258916074324
1748.0,0.0003910410285830057
1747.0,0.00043451177401765406
1746.0,0.00043451177401765406
1745.0,0.00043451177401765406
1744.0,0.00043451177401765406
1743.0,0.0003910410285830057
1742.0,0.0003910410285830057
1741.0,0.0003910410285830057
1740.0,0.0003910410285830057
1739.0,0.0003910410285830057
1738.0,0.0003910410285830057
1737.0,0.0003475746339209884
1736.0,0.00030411258916074324
1735.0,0.00021720154586435392
1734.0,0.00026065489343207737
1733.0,0.0003475746339209884
1732.0,0.00043451177401765406
1731.0,0.00043451177401765406
1730.0,0.00043451177401765406
1729.0,0.00043451177401765406
1728.0,0.0004779868710962365
1727.0,0.0004779868710962365
1726.0,0.00043451177401765406
1725.0,0.00043451177401765406
1724.0,0.00043451177401765406
1723.0,0.0004779868710962365
1722.0,0.0004779868710962365
1721.0,0.0004779868710962365
1720.0,0.000521466320689834
1719.0,0.000521466320689834
1718.0,0.0004779868710962365
1717.0,0.0003910410285830057
1716.0,0.00026065489343207737
1715.0,0.00026065489343207737
1714.0,0.00030411258916074324
1713.0,0.0003910410285830057
1712.0,0.0004779868710962365
1711.0,0.000521466320689834
1710.0,0.0005649501236701937
1709.0,0.0005649501236701937
1708.0,0.0005649501236701937
1707.0,0.0005649501236701937
1706.0,0.0005649501236701937
1705.0,0.0006084382809090627
1704.0,0.0006519307932786322
1703.0,0.0006519307932786322
1702.0,0.0006519307932786322
1701.0,0.0006519307932786322
1700.0,0.0006519307932786322
1699.0,0.0006084382809090627
1698.0,0.0005649501236701937
1697.0,0.000521466320689834
1696.0,0.00043451177401765406
1695.0,0.00043451177401765406
1694.0,0.00043451177401765406
1693.0,0.00043451177401765406
1692.0,0.00043451177401765406
1691.0,0.00043451177401765406
1690.0,0.0004779868710962365
1689.0,0.000521466320689834
1688.0,0.000521466320689834
1687.0,0.000521466320689834
1686.0,0.000521466320689834
1685.0,0.0004779868710962365
1684.0,0.0004779868710962365
1683.0,0.0004779868710962365
1682.0,0.0004779868710962365
1681.0,0.0004779868710962365
1680.0,0.00043451177401765406
1679.0,0.00043451177401765406
1678.0,0.0003910410285830057
1677.0,0.00043451177401765406
1676.0,0.0004779868710962365
1675.0,0.0005649501236701937
1674.0,0.0006084382809090627
1673.0,0.0005649501236701937
1672.0,0.000521466320689834
1671.0,0.0004779868710962365
1670.0,0.0004779868710962365
1669.0,0.0004779868710962365
1668.0,0.00043451177401765406
1667.0,0.00043451177401765406
1666.0,0.00043451177401765406
1665.0,0.000521466320689834
1664.0,0.0005649501236701937
1663.0,0.0006084382809090627
1662.0,0.0006084382809090627
1661.0,0.0006084382809090627
1660.0,0.0005649501236701937
1659.0,0.000521466320689834
1658.0,0.000521466320689834
1657.0,0.0004779868710962365
1656.0,0.00043451177401765406
1655.0,0.0003475746339209884
1654.0,0.00026065489343207737
1653.0,0.00026065489343207737
1652.0,0.0003910410285830057
1651.0,0.0004779868710962365
1650.0,0.0005649501236701937
1649.0,0.0006519307932786322
1648.0,0.0007389288868995258
1647.0,0.0007824344698965646
1646.0,0.0007389288868995258
1645.0,0.0006954276616513155
1644.0,0.0006519307932786322
1643.0,0.0006084382809090627
1642.0,0.0006084382809090627
1641.0,0.0005649501236701937
1640.0,0.0005649501236701937
1639.0,0.0004779868710962365
1638.0,0.0003910410285830057
1637.0,0.0003475746339209884
1636.0,0.00043451177401765406
1635.0,0.000521466320689834
1634.0,0.0005649501236701937
1633.0,0.000521466320689834
1632.0,0.000521466320689834
1631.0,0.000521466320689834
1630.0,0.000521466320689834
1629.0,0.000521466320689834
1628.0,0.00043451177401765406
1627.0,0.0003910410285830057
1626.0,0.0003475746339209884
1625.0,0.0003910410285830057
1624.0,0.000521466320689834
1623.0,0.0006519307932786322
1622.0,0.0007389288868995258
1621.0,0.0007389288868995258
1620.0,0.0006519307932786322
1619.0,0.0005649501236701937
1618.0,0.0004779868710962365
1617.0,0.0004779868710962365
1616.0,0.000521466320689834
1615.0,0.0005649501236701937
1614.0,0.0005649501236701937
1613.0,0.0004779868710962365
1612.0,0.0003910410285830057
1611.0,0.0003475746339209884
1610.0,0.0003910410285830057
1609.0,0.00043451177401765406
1608.0,0.00043451177401765406
1607.0,0.0004779868710962365
1606.0,0.0005649501236701937
1605.0,0.0006519307932786322
1604.0,0.0006954276616513155
1603.0,0.0007389288868995258
1602.0,0.0006954276616513155
1601.0,0.0006954276616513155
1600.0,0.0006519307932786322
1599.0,0.0006084382809090627
1598.0,0.0006084382809090627
1597.0,0.0005649501236701937
1596.0,0.000521466320689834
1595.0,0.000521466320689834
1594.0,0.000521466320689834
1593.0,0.0005649501236701937
1592.0,0.0005649501236701937
1591.0,0.0006084382809090627
1590.0,0.0005649501236701937
1589.0,0.0005649501236701937
1588.0,0.0005649501236701937
1587.0,0.0005649501236701937
1586.0,0.0006084382809090627
1585.0,0.0006519307932786322
1584.0,0.0006519307932786322
1583.0,0.0006519307932786322
1582.0,0.0006084382809090627
1581.0,0.0005649501236701937
1580.0,0.000521466320689834
1579.0,0.000521466320689834
1578.0,0.0004779868710962365
1577.0,0.000521466320689834
1576.0,0.000521466320689834
1575.0,0.0005649501236701937
1574.0,0.000521466320689834
1573.0,0.000521466320689834
1572.0,0.000521466320689834
1571.0,0.0004779868710962365
1570.0,0.0004779868710962365
1569.0,0.0004779868710962365
1568.0,0.00043451177401765406
1567.0,0.00043451177401765406
1566.0,0.00043451177401765406
1565.0,0.0004779868710962365
1564.0,0.000521466320689834
1563.0,0.0005649501236701937
1562.0,0.0006084382809090627
1561.0,0.0006954276616513155
1560.0,0.0008259444115150671
1559.0,0.0009129773741116676
1558.0,0.0007389288868995258
1557.0,0.0006519307932786322
1556.0,0.0006519307932786322
1555.0,0.0006954276616513155
1554.0,0.0006954276616513155
1553.0,0.0006519307932786322
1552.0,0.0006084382809090627
1551.0,0.0006084382809090627
1550.0,0.0006084382809090627
1549.0,0.0006084382809090627
1548.0,0.0006084382809090627
1547.0,0.0006084382809090627
1546.0,0.0005649501236701937
1545.0,0.0005649501236701937
1544.0,0.000521466320689834
1543.0,0.000521466320689834
1542.0,0.0004779868710962365
1541.0,0.000521466320689834
1540.0,0.000521466320689834
1539.0,0.000521466320689834
1538.0,0.000521466320689834
1537.0,0.000521466320689834
1536.0,0.000521466320689834
1535.0,0.0004779868710962365
1534.0,0.00043451177401765406
1533.0,0.00043451177401765406
1532.0,0.00043451177401765406
1531.0,0.00043451177401765406
1530.0,0.0004779868710962365
1529.0,0.000521466320689834
1528.0,0.000521466320689834
1527.0,0.000521466320689834
1526.0,0.000521466320689834
1525.0,0.0005649501236701937
1524.0,0.0006519307932786322
1523.0,0.0007824344698965646
1522.0,0.0008259444115150671
1521.0,0.0006954276616513155
1520.0,0.000521466320689834
1519.0,0.0003910410285830057
1518.0,0.00030411258916074324
1517.0,0.0003475746339209884
1516.0,0.0004779868710962365
1515.0,0.000521466320689834
1514.0,0.000521466320689834
1513.0,0.000521466320689834
1512.0,0.000521466320689834
1511.0,0.000521466320689834
1510.0,0.000521466320689834
1509.0,0.000521466320689834
1508.0,0.0005649501236701937
1507.0,0.0006084382809090627
1506.0,0.0005649501236701937
1505.0,0.0005649501236701937
1504.0,0.0005649501236701937
1503.0,0.0005649501236701937
1502.0,0.0005649501236701937
1501.0,0.000521466320689834
1500.0,0.0004779868710962365
1499.0,0.00043451177401765406
1498.0,0.00043451177401765406
1497.0,0.00043451177401765406
1496.0,0.0005649501236701937
1495.0,0.0006519307932786322
1494.0,0.0006954276616513155
1493.0,0.0006954276616513155
1492.0,0.0006084382809090627
1491.0,0.0005649501236701937
1490.0,0.0004779868710962365
1489.0,0.0004779868710962365
1488.0,0.0004779868710962365
1487.0,0.00043451177401765406
1486.0,0.00043451177401765406
1485.0,0.00043451177401765406
1484.0,0.00043451177401765406
1483.0,0.0004779868710962365
1482.0,0.0005649501236701937
1481.0,0.0006084382809090627
1480.0,0.0006519307932786322
1479.0,0.0006519307932786322
1478.0,0.0006084382809090627
1477.0,0.0005649501236701937
1476.0,0.0005649501236701937
1475.0,0.0006084382809090627
1474.0,0.0006519307932786322
1473.0,0.0006519307932786322
1472.0,0.0006519307932786322
1471.0,0.0006519307932786322
1470.0,0.0006519307932786322
1469.0,0.0006519307932786322
1468.0,0.0006084382809090627
1467.0,0.0005649501236701937
1466.0,0.0005649501236701937
1465.0,0.000521466320689834
1464.0,0.000521466320689834
1463.0,0.000521466320689834
1462.0,0.0004779868710962365
1461.0,0.0003910410285830057
1460.0,0.0003475746339209884
1459.0,0.00026065489343207737
1458.0,0.00017375254558760211
1457.0,0.00021720154586435392
1456.0,0.0003475746339209884
1455.0,0.0004779868710962365
1454.0,0.000521466320689834
1453.0,0.0005649501236701937
1452.0,0.0005649501236701937
1451.0,0.0006084382809090627
1450.0,0.0006084382809090627
1449.0,0.0006084382809090627
1448.0,0.0006084382809090627
1447.0,0.0005649501236701937
1446.0,0.0005649501236701937
1445.0,0.0005649501236701937
1444.0,0.0005649501236701937
1443.0,0.0005649501236701937
1442.0,0.000521466320689834
1441.0,0.000521466320689834
1440.0,0.0004779868710962365
1439.0,0.0004779868710962365
1438.0,0.00043451177401765406
1437.0,0.00043451177401765406
1436.0,0.0004779868710962365
1435.0,0.0004779868710962365
1434.0,0.000521466320689834
1433.0,0.0005649501236701937
1432.0,0.0005649501236701937
1431.0,0.0005649501236701937
1430.0,0.000521466320689834
1429.0,0.000521466320689834
1428.0,0.0005649501236701937
1427.0,0.0006084382809090627
1426.0,0.0006084382809090627
1425.0,0.0006084382809090627
1424.0,0.0006084382809090627
1423.0,0.0005649501236701937
1422.0,0.000521466320689834
1421.0,0.0004779868710962365
1420.0,0.0004779868710962365
1419.0,0.0004779868710962365
1418.0,0.000521466320689834
1417.0,0.000521466320689834
1416.0,0.0004779868710962365
1415.0,0.00043451177401765406
1414.0,0.0003475746339209884
1413.0,0.00030411258916074324
1412.0,0.00030411258916074324
1411.0,0.00026065489343207737
1410.0,0.00026065489343207737
1409.0,0.00021720154586435392
1408.0,0.00021720154586435392
1407.0,0.00017375254558760211
1406.0,0.00021720154586435392
1405.0,0.00026065489343207737
1404.0,0.00030411258916074324
1403.0,0.00030411258916074324
1402.0,0.00026065489343207737
1401.0,0.00017375254558760211
1400.0,0.0001303078917322953
1399.0,8.686758342868472e-05
1398.0,8.686758342868472e-05
1397.0,8.686758342868472e-05
1396.0,0.0001303078917322953
1395.0,0.0001303078917322953
1394.0,0.00017375254558760211
1393.0,0.00021720154586435392
1392.0,0.00026065489343207737
1391.0,0.00030411258916074324
1390.0,0.00030411258916074324
1389.0,0.0003475746339209884
1388.0,0.00030411258916074324
1387.0,0.00030411258916074324
1386.0,0.00026065489343207737
1385.0,0.00021720154586435392
1384.0,0.00021720154586435392
1383.0,0.00021720154586435392
1382.0,0.00021720154586435392
1381.0,0.00021720154586435392
1380.0,0.00021720154586435392
1379.0,0.00021720154586435392
1378.0,0.00021720154586435392
1377.0,0.00026065489343207737
1376.0,0.00030411258916074324
1375.0,0.0003910410285830057
1374.0,0.00043451177401765406
1373.0,0.0004779868710962365
1372.0,0.00043451177401765406
1371.0,0.00043451177401765406
1370.0,0.0003910410285830057
1369.0,0.0003910410285830057
1368.0,0.00043451177401765406
1367.0,0.0004779868710962365
1366.0,0.000521466320689834
1365.0,0.0005649501236701937
1364.0,0.0006084382809090627
1363.0,0.0006519307932786322
1362.0,0.0006519307932786322
1361.0,0.0006519307932786322
1360.0,0.0006519307932786322
1359.0,0.0006519307932786322
1358.0,0.0006519307932786322
1357.0,0.0006519307932786322
1356.0,0.0006519307932786322
1355.0,0.0006084382809090627
1354.0,0.0006084382809090627
1353.0,0.0006084382809090627
1352.0,0.0006519307932786322
1351.0,0.0006954276616513155
1350.0,0.0006954276616513155
1349.0,0.0006954276616513155
1348.0,0.0006519307932786322
1347.0,0.0006084382809090627
1346.0,0.0006084382809090627
1345.0,0.0005649501236701937
1344.0,0.000521466320689834
1343.0,0.000521466320689834
1342.0,0.000521466320689834
1341.0,0.000521466320689834
1340.0,0.000521466320689834
1339.0,0.0005649501236701937
1338.0,0.0005649501236701937
1337.0,0.0005649501236701937
1336.0,0.0005649501236701937
1335.0,0.0006084382809090627
1334.0,0.0006084382809090627
1333.0,0.0006084382809090627
1332.0,0.000521466320689834
1331.0,0.0004779868710962365
1330.0,0.00043451177401765406
1329.0,0.0004779868710962365
1328.0,0.000521466320689834
1327.0,0.0006084382809090627
1326.0,0.0006084382809090627
1325.0,0.0006084382809090627
1324.0,0.0006084382809090627
1323.0,0.0005649501236701937
1322.0,0.000521466320689834
1321.0,0.000521466320689834
1320.0,0.0004779868710962365
1319.0,0.000521466320689834
1318.0,0.0005649501236701937
1317.0,0.0006084382809090627
1316.0,0.0006519307932786322
1315.0,0.0006519307932786322
1314.0,0.0006519307932786322
1313.0,0.0006954276616513155
1312.0,0.0006954276616513155
1311.0,0.0006519307932786322
1310.0,0.0006519307932786322
1309.0,0.0006519307932786322
1308.0,0.0006084382809090627
1307.0,0.0006519307932786322
1306.0,0.0006954276616513155
1305.0,0.0006954276616513155
1304.0,0.0007389288868995258
1303.0,0.0007389288868995258
1302.0,0.0007389288868995258
1301.0,0.0007389288868995258
1300.0,0.0007389288868995258
1299.0,0.0007389288868995258
1298.0,0.0007824344698965646
1297.0,0.0007824344698965646
1296.0,0.0007389288868995258
1295.0,0.0006954276616513155
1294.0,0.0006954276616513155
1293.0,0.0006519307932786322
1292.0,0.0006519307932786322
1291.0,0.0006519307932786322
1290.0,0.0006084382809090627
1289.0,0.0005649501236701937
1288.0,0.0005649501236701937
1287.0,0.0005649501236701937
1286.0,0.0006084382809090627
1285.0,0.0006519307932786322
1284.0,0.0006519307932786322
1283.0,0.0006519307932786322
1282.0,0.0006084382809090627
1281.0,0.0006084382809090627
1280.0,0.0006084382809090627
1279.0,0.0006084382809090627
1278.0,0.0006519307932786322
1277.0,0.0006519307932786322
1276.0,0.0006519307932786322
1275.0,0.0006084382809090627
1274.0,0.0005649501236701937
1273.0,0.0005649501236701937
1272.0,0.0006084382809090627
1271.0,0.0006084382809090627
1270.0,0.0006084382809090627
1269.0,0.000521466320689834
1268.0,0.0004779868710962365
1267.0,0.0004779868710962365
1266.0,0.000521466320689834
1265.0,0.000521466320689834
1264.0,0.000521466320689834
1263.0,0.00043451177401765406
1262.0,0.00043451177401765406
1261.0,0.0003910410285830057
1260.0,0.00043451177401765406
1259.0,0.00043451177401765406
1258.0,0.00043451177401765406
1257.0,0.00043451177401765406
1256.0,0.00043451177401765406
1255.0,0.00043451177401765406
1254.0,0.00043451177401765406
1253.0,0.00043451177401765406
1252.0,0.00043451177401765406
1251.0,0.00043451177401765406
1250.0,0.0004779868710962365
1249.0,0.0004779868710962365
1248.0,0.000521466320689834
1247.0,0.0005649501236701937
1246.0,0.0005649501236701937
1245.0,0.0005649501236701937
1244.0,0.000521466320689834
1243.0,0.0004779868710962365
1242.0,0.00043451177401765406
1241.0,0.0004779868710962365
1240.0,0.000521466320689834
1239.0,0.0005649501236701937
1238.0,0.0006084382809090627
1237.0,0.0006084382809090627
1236.0,0.0006084382809090627
1235.0,0.0006084382809090627
1234.0,0.0006084382809090627
1233.0,0.0005649501236701937
1232.0,0.0004779868710962365
1231.0,0.0003910410285830057
1230.0,0.0003475746339209884
1229.0,0.00030411258916074324
1228.0,0.0003475746339209884
1227.0,0.0003910410285830057
1226.0,0.00043451177401765406
1225.0,0.0004779868710962365
1224.0,0.000521466320689834
1223.0,0.000521466320689834
1222.0,0.000521466320689834
1221.0,0.000521466320689834
1220.0,0.000521466320689834
1219.0,0.000521466320689834
1218.0,0.0004779868710962365
1217.0,0.000521466320689834
1216.0,0.000521466320689834
1215.0,0.0006084382809090627
1214.0,0.0006084382809090627
1213.0,0.0006084382809090627
1212.0,0.0005649501236701937
1211.0,0.0005649501236701937
1210.0,0.0005649501236701937
1209.0,0.0005649501236701937
1208.0,0.0005649501236701937
1207.0,0.0005649501236701937
1206.0,0.0006084382809090627
1205.0,0.0006519307932786322
1204.0,0.0006954276616513155
1203.0,0.0006954276616513155
1202.0,0.0006954276616513155
1201.0,0.0006954276616513155
1200.0,0.0006519307932786322
1199.0,0.0006084382809090627
1198.0,0.0006084382809090627
1197.0,0.0006084382809090627
1196.0,0.0006519307932786322
1195.0,0.0006954276616513155
1194.0,0.0006954276616513155
1193.0,0.0006954276616513155
1192.0,0.0006519307932786322
1191.0,0.0006519307932786322
1190.0,0.0006519307932786322
1189.0,0.0006954276616513155
1188.0,0.0006954276616513155
1187.0,0.0007389288868995258
1186.0,0.0007389288868995258
1185.0,0.0006954276616513155
1184.0,0.0006954276616513155
1183.0,0.0006954276616513155
1182.0,0.0007389288868995258
1181.0,0.0007824344698965646
1180.0,0.0008259444115150671
1179.0,0.0008259444115150671
1178.0,0.000869458712629001
1177.0,0.000869458712629001
1176.0,0.0008259444115150671
1175.0,0.0008259444115150671
1174.0,0.0007824344698965646
1173.0,0.0007824344698965646
1172.0,0.0007389288868995258
1171.0,0.0007389288868995258
1170.0,0.0007389288868995258
1169.0,0.0007389288868995258
1168.0,0.0007389288868995258
1167.0,0.0007389288868995258
1166.0,0.0008259444115150671
1165.0,0.0009129773741116676
1164.0,0.0009565003968372565
1163.0,0.0009565003968372565
1162.0,0.0009129773741116676
1161.0,0.000869458712629001
1160.0,0.000869458712629001
1159.0,0.000869458712629001
1158.0,0.000869458712629001
1157.0,0.0008259444115150671
1156.0,0.0008259444115150671
1155.0,0.0007824344698965646
1154.0,0.0007824344698965646
1153.0,0.0007824344698965646
1152.0,0.0008259444115150671
1151.0,0.0008259444115150671
1150.0,0.0008259444115150671
1149.0,0.0007824344698965646
1148.0,0.0007824344698965646
1147.0,0.0007824344698965646
1146.0,0.0008259444115150671
1145.0,0.0008259444115150671
1144.0,0.0007824344698965646
1143.0,0.0007824344698965646
1142.0,0.0007389288868995258
1141.0,0.0007389288868995258
1140.0,0.0007389288868995258
1139.0,0.0007389288868995258
1138.0,0.0007389288868995258
1137.0,0.0007824344698965646
1136.0,0.0008259444115150671
1135.0,0.000869458712629001
1134.0,0.0008259444115150671
1133.0,0.0007824344698965646
1132.0,0.0006954276616513155
1131.0,0.0006519307932786322
1130.0,0.0006519307932786322
1129.0,0.0006954276616513155
1128.0,0.0007389288868995258
1127.0,0.0007389288868995258
1126.0,0.0006519307932786322
1125.0,0.0005649501236701937
1124.0,0.000521466320689834
1123.0,0.0005649501236701937
1122.0,0.0006519307932786322
1121.0,0.0006519307932786322
1120.0,0.0006519307932786322
1119.0,0.0006084382809090627
1118.0,0.0006084382809090627
1117.0,0.0006084382809090627
1116.0,0.0006084382809090627
1115.0,0.0005649501236701937
1114.0,0.0005649501236701937
1113.0,0.0005649501236701937
1112.0,0.0006084382809090627
1111.0,0.0005649501236701937
1110.0,0.0005649501236701937
1109.0,0.000521466320689834
1108.0,0.0004779868710962365
1107.0,0.0004779868710962365
1106.0,0.000521466320689834
1105.0,0.000521466320689834
1104.0,0.000521466320689834
1103.0,0.000521466320689834
1102.0,0.000521466320689834
1101.0,0.0005649501236701937
1100.0,0.0006084382809090627
1099.0,0.0006519307932786322
1098.0,0.0006954276616513155
1097.0,0.0006954276616513155
1096.0,0.0006954276616513155
1095.0,0.0006519307932786322
1094.0,0.0006084382809090627
1093.0,0.0005649501236701937
1092.0,0.0005649501236701937
1091.0,0.0004779868710962365
1090.0,0.0003910410285830057
1089.0,0.0003475746339209884
1088.0,0.00030411258916074324
1087.0,0.00021720154586435392
1086.0,0.00017375254558760211
1085.0,4.343161980746579e-05
1084.0,0.0
1083.0,-4.3427276862573194e-05
1082.0,-8.685021164911433e-05
1081.0,-0.00013026880522692963
1080.0,-0.00013026880522692963
1079.0,-8.685021164911433e-05
1078.0,-4.3427276862573194e-05
1077.0,-4.3427276862573194e-05
1076.0,-0.00013026880522692963
1075.0,-0.00030389978481260016
1074.0,-0.00043407747931878404
1073.0,-0.0005208409361854294
1072.0,-0.0004774613744551459
1071.0,-0.0003472966853634851
1070.0,-0.00021709297223004853
1069.0,-8.685021164911433e-05
1068.0,-4.3427276862573194e-05
1067.0,-4.3427276862573194e-05
1066.0,-8.685021164911433e-05
1065.0,-8.685021164911433e-05
1064.0,-4.3427276862573194e-05
1063.0,-4.3427276862573194e-05
1062.0,-8.685021164911433e-05
1061.0,-0.00017368305846510168
1060.0,-0.0002604985473904087
1059.0,-0.0003472966853634851
1058.0,-0.0003472966853634851
1057.0,-0.0002604985473904087
1056.0,-0.00013026880522692963
1055.0,-4.3427276862573194e-05
1054.0,-4.3427276862573194e-05
1053.0,-4.3427276862573194e-05
1052.0,-8.685021164911433e-05
1051.0,-0.00013026880522692963
1050.0,-0.00017368305846510168
1049.0,-0.00017368305846510168
1048.0,-0.00021709297223004853
1047.0,-0.00021709297223004853
1046.0,-0.00021709297223004853
1045.0,-0.00013026880522692963
1044.0,-8.685021164911433e-05
1043.0,-4.3427276862573194e-05
1042.0,0.0
1041.0,4.343161980746579e-05
1040.0,0.0001303078917322953
1039.0,0.00026065489343207737
1038.0,0.00030411258916074324
1037.0,0.0003475746339209884
1036.0,0.0003475746339209884
1035.0,0.0003910410285830057
1034.0,0.00043451177401765406
1033.0,0.0004779868710962365
1032.0,0.0005649501236701937
1031.0,0.0005649501236701937
1030.0,0.000521466320689834
1029.0,0.0004779868710962365
1028.0,0.000521466320689834
1027.0,0.0006084382809090627
1026.0,0.0006954276616513155
1025.0,0.0007389288868995258
1024.0,0.0007389288868995258
1023.0,0.0006954276616513155
1022.0,0.0006954276616513155
1021.0,0.0006954276616513155
1020.0,0.0007389288868995258
1019.0,0.0007824344698965646
1018.0,0.0008259444115150671
1017.0,0.0008259444115150671
1016.0,0.0007824344698965646
1015.0,0.0007824344698965646
1014.0,0.0007824344698965646
1013.0,0.0007389288868995258
1012.0,0.0007389288868995258
1011.0,0.0006954276616513155
1010.0,0.0006519307932786322
1009.0,0.0006954276616513155
1008.0,0.0007389288868995258
1007.0,0.0007824344698965646
1006.0,0.0007824344698965646
1005.0,0.0006954276616513155
1004.0,0.0006519307932786322
1003.0,0.0006519307932786322
1002.0,0.0007389288868995258
1001.0,0.0009129773741116676
1000.0,0.0010435595295137379
999.0,0.0010870956412141197
998.0,0.0010870956412141197
997.0,0.0010870956412141197
996.0,0.0010435595295137379
995.0,0.0010000277816797354
994.0,0.0009565003968372565
993.0,0.0009565003968372565
992.0,0.0010435595295137379
991.0,0.0010870956412141197
990.0,0.0010870956412141197
989.0,0.0010435595295137379
988.0,0.0010435595295137379
987.0,0.0010435595295137379
986.0,0.0010435595295137379
985.0,0.0010870956412141197
984.0,0.0010870956412141197
983.0,0.0011306361176557367
982.0,0.0011306361176557367
981.0,0.0011306361176557367
980.0,0.0011306361176557367
979.0,0.0011741809597138886
978.0,0.0012177301682640973
977.0,0.0012612837441823288
976.0,0.0012612837441823288
975.0,0.0012177301682640973
974.0,0.0011741809597138886
973.0,0.0011741809597138886
972.0,0.0011741809597138886
971.0,0.0011741809597138886
970.0,0.0011741809597138886
969.0,0.0011741809597138886
968.0,0.0012177301682640973
967.0,0.001304841688344327
966.0,0.0014355417390583547
965.0,0.0014791171649619628
964.0,0.0014791171649619628
963.0,0.0014355417390583547
962.0,0.001348404001626502
961.0,0.0012177301682640973
960.0,0.0011306361176557367
959.0,0.0010435595295137379
958.0,0.0010870956412141197
957.0,0.0011306361176557367
956.0,0.0012177301682640973
955.0,0.0012612837441823288
954.0,0.0012177301682640973
953.0,0.0011741809597138886
952.0,0.0011306361176557367
951.0,0.0011306361176557367
950.0,0.0011306361176557367
949.0,0.0011306361176557367
948.0,0.0011306361176557367
947.0,0.0011741809597138886
946.0,0.0011306361176557367
945.0,0.0010435595295137379
944.0,0.0010000277816797354
943.0,0.0010000277816797354
942.0,0.0010435595295137379
941.0,0.0010870956412141197
940.0,0.0011306361176557367
939.0,0.0011741809597138886
938.0,0.0011741809597138886
937.0,0.0011306361176557367
936.0,0.0010870956412141197
935.0,0.0010000277816797354
934.0,0.0009565003968372565
933.0,0.0009565003968372565
932.0,0.0010000277816797354
931.0,0.0010870956412141197
930.0,0.0011306361176557367
929.0,0.0012177301682640973
928.0,0.001304841688344327
927.0,0.001348404001626502
926.0,0.001304841688344327
925.0,0.0012177301682640973
924.0,0.0012177301682640973
923.0,0.001304841688344327
922.0,0.0013919706849057079
921.0,0.0014355417390583547
920.0,0.0014355417390583547
919.0,0.0015226969634936083
918.0,0.0015662811355310335
917.0,0.0015662811355310335
916.0,0.0014791171649619628
915.0,0.0014355417390583547
914.0,0.001348404001626502
913.0,0.001348404001626502
912.0,0.0013919706849057079
911.0,0.0015226969634936083
910.0,0.001609869681952425
909.0,0.001609869681952425
908.0,0.0015226969634936083
907.0,0.0013919706849057079
906.0,0.001348404001626502
905.0,0.0013919706849057079
904.0,0.0014791171649619628
903.0,0.0015226969634936083
902.0,0.0015662811355310335
901.0,0.001609869681952425
900.0,0.001609869681952425
899.0,0.0015226969634936083
898.0,0.0013919706849057079
897.0,0.0012612837441823288
896.0,0.0011306361176557367
895.0,0.0011306361176557367
894.0,0.0011741809597138886
893.0,0.001304841688344327
892.0,0.0014791171649619628
891.0,0.0015662811355310335
890.0,0.0015662811355310335
889.0,0.0015226969634936083
888.0,0.0014355417390583547
887.0,0.0014355417390583547
886.0,0.0014791171649619628
885.0,0.0014791171649619628
884.0,0.0014355417390583547
883.0,0.0014355417390583547
882.0,0.0014355417390583547
881.0,0.0014355417390583547
880.0,0.0014355417390583547
879.0,0.0014791171649619628
878.0,0.0014791171649619628
877.0,0.0013919706849057079
876.0,0.0012612837441823288
875.0,0.0011306361176557367
874.0,0.0010000277816797354
873.0,0.0010000277816797354
872.0,0.0010435595295137379
871.0,0.0012177301682640973
870.0,0.001348404001626502
869.0,0.0014355417390583547
868.0,0.0014355417390583547
867.0,0.001304841688344327
866.0,0.0012177301682640973
865.0,0.001304841688344327
864.0,0.0014791171649619628
863.0,0.0016534626036355249
862.0,0.0016970599014589638
861.0,0.0016534626036355249
860.0,0.001609869681952425
859.0,0.0016534626036355249
858.0,0.0017842676290416026
857.0,0.0018714928717336043
856.0,0.001915112063444413
855.0,0.0018714928717336043
854.0,0.0017842676290416026
853.0,0.0016970599014589638
852.0,0.001609869681952425
851.0,0.0015662811355310335
850.0,0.0015662811355310335
849.0,0.001609869681952425
848.0,0.0017406615763013722
847.0,0.0018714928717336043
846.0,0.0019587356365717845
845.0,0.0019587356365717845
844.0,0.0020023635919956817
843.0,0.0020023635919956817
842.0,0.002089632653256679
841.0,0.0022205691343961664
840.0,0.0022642234021015284
839.0,0.0022642234021015284
838.0,0.002089632653256679
837.0,0.0018714928717336043
836.0,0.001609869681952425
835.0,0.0014355417390583547
834.0,0.001348404001626502
833.0,0.0013919706849057079
832.0,0.0014791171649619628
831.0,0.0015662811355310335
830.0,0.0016534626036355249
829.0,0.0016970599014589638
828.0,0.0016534626036355249
827.0,0.0015662811355310335
826.0,0.0015226969634936083
825.0,0.0015662811355310335
824.0,0.0016970599014589638
823.0,0.0018714928717336043
822.0,0.0020023635919956817
821.0,0.0021332737608552588
820.0,0.0021332737608552588
819.0,0.0020459959305969555
818.0,0.0020023635919956817
817.0,0.0020459959305969555
816.0,0.0021769192542746563
815.0,0.0022642234021015284
814.0,0.0021332737608552588
813.0,0.001915112063444413
812.0,0.0017406615763013722
811.0,0.0016534626036355249
810.0,0.0016970599014589638
809.0,0.0018714928717336043
808.0,0.0020459959305969555
807.0,0.0022642234021015284
806.0,0.0023078820582733695
805.0,0.0021769192542746563
804.0,0.0018714928717336043
803.0,0.0015226969634936083
802.0,0.0012177301682640973
801.0,0.0011306361176557367
800.0,0.0012612837441823288
799.0,0.0014355417390583547
798.0,0.0016534626036355249
797.0,0.0017842676290416026
796.0,0.0018278780605593958
795.0,0.0018278780605593958
794.0,0.001915112063444413
793.0,0.0019587356365717845
792.0,0.0020023635919956817
791.0,0.0020023635919956817
790.0,0.0019587356365717845
789.0,0.0018714928717336043
788.0,0.0018278780605593958
787.0,0.001915112063444413
786.0,0.0020459959305969555
785.0,0.002089632653256679
784.0,0.0020459959305969555
783.0,0.0018714928717336043
782.0,0.0016970599014589638
781.0,0.001609869681952425
780.0,0.0015662811355310335
779.0,0.0015226969634936083
778.0,0.0015662811355310335
777.0,0.0017406615763013722
776.0,0.0020459959305969555
775.0,0.0022642234021015284
774.0,0.0023078820582733695
773.0,0.0023078820582733695
772.0,0.002351545103793873
771.0,0.002395212539545666
770.0,0.002351545103793873
769.0,0.0023078820582733695
768.0,0.0022205691343961664
767.0,0.0021769192542746563
766.0,0.0021769192542746563
765.0,0.0023078820582733695
764.0,0.0024388843664115978
763.0,0.0026573093983774942
762.0,0.0028758443407954637
761.0,0.0031382315093266833
760.0,0.003488327845821315
759.0,0.0037510854308679953
758.0,0.003794893821675638
757.0,0.0037510854308679953
756.0,0.0038387066319929275
755.0,0.00401400208620073
754.0,0.004277078004534696
753.0,0.004408675747646695
752.0,0.004452550524862486
751.0,0.004320939488377862
750.0,0.004145520125434121
749.0,0.003926345514724705
748.0,0.0038825238627120395
747.0,0.003926345514724705
746.0,0.003970171588923321
745.0,0.0038825238627120395
744.0,0.0037510854308679953
743.0,0.003619686766589858
742.0,0.003488327845821315
741.0,0.0034007772998332353
740.0,0.0033570086445275926
739.0,0.0034007772998332353
738.0,0.0035321097382827737
737.0,0.003707281458678491
736.0,0.0038825238627120395
735.0,0.004101676353562844
734.0,0.004233220950025984
733.0,0.004145520125434121
732.0,0.0038387066319929275
731.0,0.0033570086445275926
730.0,0.0028758443407954637
729.0,0.002701007590486082
728.0,0.0027447101798967477
727.0,0.0028758443407954637
726.0,0.0028758443407954637
725.0,0.0028321285541661467
724.0,0.0028321285541661467
723.0,0.0029632891174733444
722.0,0.0031382315093266833
721.0,0.0032694845648473247
720.0,0.0031819781204844855
719.0,0.0029195645282691363
718.0,0.0026573093983774942
717.0,0.0025262411970197185
716.0,0.002613615602686581
715.0,0.0026573093983774942
714.0,0.0024388843664115978
713.0,0.0019587356365717845
712.0,0.0015226969634936083
711.0,0.0013919706849057079
710.0,0.0017406615763013722
709.0,0.0024388843664115978
708.0,0.003488327845821315
707.0,0.004540313378935901
706.0,0.005155150446602086
705.0,0.0052870145684298375
704.0,0.005330978174470591
703.0,0.005946936412324799
702.0,0.007093181776687496
701.0,0.008375265465994541
700.0,0.009217308196862062
699.0,0.00939478857608056
698.0,0.009217308196862062
697.0,0.009128595198514056
696.0,0.009527946474380489
695.0,0.010327752376126709
694.0,0.011039929609661936
693.0,0.011129033935354915
692.0,0.01046119667949763
691.0,0.009306039320248427
690.0,0.008153946355103248
689.0,0.007402303897961815
688.0,0.007313960837872058
687.0,0.007755855953228474
686.0,0.008375265465994541
685.0,0.008862564879688284
684.0,0.009261671492462709
683.0,0.009616741093766423
682.0,0.009794384815193347
681.0,0.009616741093766423
680.0,0.008818242332126802
679.0,0.007667440952535687
678.0,0.006431517210272464
677.0,0.00537494623139545
676.0,0.004671990922590297
675.0,0.004408675747646695
674.0,0.004628093971837721
673.0,0.005155150446602086
672.0,0.005638848091999105
671.0,0.005814871797682919
670.0,0.005506877116487674
669.0,0.005067263269958211
668.0,0.00489154225525934
667.0,0.005199100705396198
666.0,0.005814871797682919
665.0,0.006343371384537999
664.0,0.00656376950238835
663.0,0.00656376950238835
662.0,0.006651960076740071
661.0,0.006784279525863024
660.0,0.006784279525863024
659.0,0.006475596832934416
658.0,0.006035001804881146
657.0,0.00577085918230158
656.0,0.005594853310833647
655.0,0.005155150446602086
654.0,0.004452550524862486
653.0,0.003926345514724705
652.0,0.003926345514724705
651.0,0.004320939488377862
650.0,0.00489154225525934
649.0,0.0052870145684298375
648.0,0.00541891874010525
647.0,0.005111204635089406
646.0,0.004671990922590297
645.0,0.0044964297349936455
644.0,0.004628093971837721
643.0,0.004671990922590297
642.0,0.004277078004534696
641.0,0.003707281458678491
640.0,0.003707281458678491
639.0,0.004540313378935901
638.0,0.005726851026829571
637.0,0.006828394969235152
636.0,0.007534852191956709
635.0,0.00762324020119709
634.0,0.007049039429553483
633.0,0.00621118618129457
632.0,0.005638848091999105
631.0,0.005682847330363394
630.0,0.005946936412324799
629.0,0.00621118618129457
628.0,0.006167133386013823
627.0,0.00577085918230158
626.0,0.005330978174470591
625.0,0.0052870145684298375
624.0,0.00590291041179003
623.0,0.006828394969235152
622.0,0.007402303897961815
621.0,0.0074464821678643656
620.0,0.007313960837872058
619.0,0.007313960837872058
618.0,0.007358130121602358
617.0,0.007049039429553483
616.0,0.006475596832934416
615.0,0.005858888873877532
614.0,0.005682847330363394
613.0,0.006079041198713275
612.0,0.007137328610972382
611.0,0.008330992620051436
610.0,0.009128595198514056
609.0,0.009172949432521227
608.0,0.008419542825660153
607.0,0.007225635744644521
606.0,0.00612308505878878
605.0,0.005990966876386672
604.0,0.007269796045857202
603.0,0.009039900317800775
602.0,0.009883233932095559
601.0,0.00908424549391551
600.0,0.007402303897961815
