cm-1,A
4000.0,0.013004460275618523
3999.0,0.013004460275618523
3998.0,0.012959713020733288
3997.0,0.012959713020733288
3996.0,0.012914970375878188
3995.0,0.012914970375878188
3994.0,0.012914970375878188
3993.0,0.012959713020733288
3992.0,0.012959713020733288
3991.0,0.012959713020733288
3990.0,0.013004460275618523
3989.0,0.013049212141483357
3988.0,0.013093968619278806
3987.0,0.013093968619278806
3986.0,0.013093968619278806
3985.0,0.013049212141483357
3984.0,0.012959713020733288
3983.0,0.012959713020733288
3982.0,0.012959713020733288
3981.0,0.012959713020733288
3980.0,0.012959713020733288
3979.0,0.013004460275618523
3978.0,0.013004460275618523
3977.0,0.013049212141483357
3976.0,0.013049212141483357
3975.0,0.013093968619278806
3974.0,0.01318349541446362
3973.0,0.01322826573375524
3972.0,0.013317820220494436
3971.0,0.013362604389846044
3970.0,0.013362604389846044
3969.0,0.013362604389846044
3968.0,0.013317820220494436
3967.0,0.013273040668781544
3966.0,0.01322826573375524
3965.0,0.01318349541446362
3964.0,0.01318349541446362
3963.0,0.01322826573375524
3962.0,0.013273040668781544
3961.0,0.013317820220494436
3960.0,0.013317820220494436
3959.0,0.013317820220494436
3958.0,0.013273040668781544
3957.0,0.013273040668781544
3956.0,0.013273040668781544
3955.0,0.013317820220494436
3954.0,0.013362604389846044
3953.0,0.013407393177789162
3952.0,0.013452186585275916
3951.0,0.013452186585275916
3950.0,0.013407393177789162
3949.0,0.013362604389846044
3948.0,0.013407393177789162
3947.0,0.013452186585275916
3946.0,0.013541787262693505
3945.0,0.013541787262693505
3944.0,0.013496984613259544
3943.0,0.013452186585275916
3942.0,0.013496984613259544
3941.0,0.013496984613259544
3940.0,0.013496984613259544
3939.0,0.013452186585275916
3938.0,0.013452186585275916
3937.0,0.013496984613259544
3936.0,0.013586594534531482
3935.0,0.013631406429727155
3934.0,0.013631406429727155
3933.0,0.013586594534531482
3932.0,0.013586594534531482
3931.0,0.013586594534531482
3930.0,0.013676222949234651
3929.0,0.01372104409400876
3928.0,0.01381070026317599
3927.0,0.013765869865004277
3926.0,0.013676222949234651
3925.0,0.013586594534531482
3924.0,0.013586594534531482
3923.0,0.013676222949234651
3922.0,0.013765869865004277
3921.0,0.01385553528947936
3920.0,0.013900374944870508
3919.0,0.013900374944870508
3918.0,0.01385553528947936
3917.0,0.013765869865004277
3916.0,0.01372104409400876
3915.0,0.01372104409400876
3914.0,0.013676222949234651
3913.0,0.013586594534531482
3912.0,0.013496984613259544
3911.0,0.013496984613259544
3910.0,0.013541787262693505
3909.0,0.013676222949234651
3908.0,0.01381070026317599
3907.0,0.013900374944870508
3906.0,0.01385553528947936
3905.0,0.01385553528947936
3904.0,0.013945219230304673
3903.0,0.014079779876432497
3902.0,0.014169510141607944
3901.0,0.014124642691606404
3900.0,0.013990068146738865
3899.0,0.01385553528947936
3898.0,0.013765869865004277
3897.0,0.013765869865004277
3896.0,0.01381070026317599
3895.0,0.013900374944870508
3894.0,0.013945219230304673
3893.0,0.013900374944870508
3892.0,0.01385553528947936
3891.0,0.01385553528947936
3890.0,0.013945219230304673
3889.0,0.014079779876432497
3888.0,0.013990068146738865
3887.0,0.01372104409400876
3886.0,0.013631406429727155
3885.0,0.01381070026317599
3884.0,0.014124642691606404
3883.0,0.014304140310157809
3882.0,0.014214382227394795
3881.0,0.014079779876432497
3880.0,0.01403492169512921
3879.0,0.014124642691606404
3878.0,0.014169510141607944
3877.0,0.014169510141607944
3876.0,0.013990068146738865
3875.0,0.013945219230304673
3874.0,0.014124642691606404
3873.0,0.014349026309051105
3872.0,0.014304140310157809
3871.0,0.014079779876432497
3870.0,0.013990068146738865
3869.0,0.014124642691606404
3868.0,0.014349026309051105
3867.0,0.014393916947563534
3866.0,0.014259258949925524
3865.0,0.014124642691606404
3864.0,0.014169510141607944
3863.0,0.014169510141607944
3862.0,0.014079779876432497
3861.0,0.013900374944870508
3860.0,0.01372104409400876
3859.0,0.013631406429727155
3858.0,0.01372104409400876
3857.0,0.013900374944870508
3856.0,0.013900374944870508
3855.0,0.013676222949234651
3854.0,0.013765869865004277
3853.0,0.014169510141607944
3852.0,0.014393916947563534
3851.0,0.014393916947563534
3850.0,0.014304140310157809
3849.0,0.014169510141607944
3848.0,0.014079779876432497
3847.0,0.014124642691606404
3846.0,0.014124642691606404
3845.0,0.014124642691606404
3844.0,0.014169510141607944
3843.0,0.014304140310157809
3842.0,0.014393916947563534
3841.0,0.014438812226654996
3840.0,0.014393916947563534
3839.0,0.014393916947563534
3838.0,0.0144837121472845
3837.0,0.014618439768003144
3836.0,0.014663358264387139
3835.0,0.014618439768003144
3834.0,0.014438812226654996
3833.0,0.014169510141607944
3832.0,0.013945219230304673
3831.0,0.013900374944870508
3830.0,0.01403492169512921
3829.0,0.014124642691606404
3828.0,0.014124642691606404
3827.0,0.014079779876432497
3826.0,0.014214382227394795
3825.0,0.014438812226654996
3824.0,0.014573525916998342
3823.0,0.014304140310157809
3822.0,0.013990068146738865
3821.0,0.013990068146738865
3820.0,0.014214382227394795
3819.0,0.014438812226654996
3818.0,0.014349026309051105
3817.0,0.014169510141607944
3816.0,0.014169510141607944
3815.0,0.014304140310157809
3814.0,0.014304140310157809
3813.0,0.014124642691606404
3812.0,0.013990068146738865
3811.0,0.01403492169512921
3810.0,0.014169510141607944
3809.0,0.014169510141607944
3808.0,0.014079779876432497
3807.0,0.014079779876432497
3806.0,0.014259258949925524
3805.0,0.014573525916998342
3804.0,0.014663358264387139
3803.0,0.01452861671041239
3802.0,0.0144837121472845
3801.0,0.014663358264387139
3800.0,0.014798141635428141
3799.0,0.014753209197138295
3798.0,0.01452861671041239
3797.0,0.014349026309051105
3796.0,0.014304140310157809
3795.0,0.014349026309051105
3794.0,0.014304140310157809
3793.0,0.014214382227394795
3792.0,0.014079779876432497
3791.0,0.01403492169512921
3790.0,0.01403492169512921
3789.0,0.014079779876432497
3788.0,0.014169510141607944
3787.0,0.014214382227394795
3786.0,0.014214382227394795
3785.0,0.014259258949925524
3784.0,0.014349026309051105
3783.0,0.014438812226654996
3782.0,0.0144837121472845
3781.0,0.014349026309051105
3780.0,0.014304140310157809
3779.0,0.014393916947563534
3778.0,0.01452861671041239
3777.0,0.014573525916998342
3776.0,0.0144837121472845
3775.0,0.014438812226654996
3774.0,0.014438812226654996
3773.0,0.014438812226654996
3772.0,0.014393916947563534
3771.0,0.014349026309051105
3770.0,0.014438812226654996
3769.0,0.014618439768003144
3768.0,0.014753209197138295
3767.0,0.014663358264387139
3766.0,0.01452861671041239
3765.0,0.01452861671041239
3764.0,0.014663358264387139
3763.0,0.014753209197138295
3762.0,0.014753209197138295
3761.0,0.014663358264387139
3760.0,0.014663358264387139
3759.0,0.014753209197138295
3758.0,0.014753209197138295
3757.0,0.014708281407112
3756.0,0.014708281407112
3755.0,0.014663358264387139
3754.0,0.014618439768003144
3753.0,0.01452861671041239
3752.0,0.01452861671041239
3751.0,0.014573525916998342
3750.0,0.01452861671041239
3749.0,0.014573525916998342
3748.0,0.014798141635428141
3747.0,0.014932966849499074
3746.0,0.014708281407112
3745.0,0.014573525916998342
3744.0,0.014708281407112
3743.0,0.014843078722943437
3742.0,0.014798141635428141
3741.0,0.014663358264387139
3740.0,0.01452861671041239
3739.0,0.014573525916998342
3738.0,0.014573525916998342
3737.0,0.01452861671041239
3736.0,0.014708281407112
3735.0,0.014843078722943437
3734.0,0.014753209197138295
3733.0,0.014393916947563534
3732.0,0.01403492169512921
3731.0,0.013900374944870508
3730.0,0.013900374944870508
3729.0,0.013945219230304673
3728.0,0.013900374944870508
3727.0,0.013900374944870508
3726.0,0.014079779876432497
3725.0,0.014259258949925524
3724.0,0.014393916947563534
3723.0,0.0144837121472845
3722.0,0.014573525916998342
3721.0,0.014618439768003144
3720.0,0.014618439768003144
3719.0,0.01452861671041239
3718.0,0.0144837121472845
3717.0,0.0144837121472845
3716.0,0.014573525916998342
3715.0,0.014573525916998342
3714.0,0.0144837121472845
3713.0,0.014393916947563534
3712.0,0.014393916947563534
3711.0,0.01452861671041239
3710.0,0.01452861671041239
3709.0,0.014349026309051105
3708.0,0.014124642691606404
3707.0,0.013990068146738865
3706.0,0.01403492169512921
3705.0,0.014169510141607944
3704.0,0.014304140310157809
3703.0,0.014393916947563534
3702.0,0.014438812226654996
3701.0,0.0144837121472845
3700.0,0.0144837121472845
3699.0,0.014438812226654996
3698.0,0.014349026309051105
3697.0,0.014349026309051105
3696.0,0.014438812226654996
3695.0,0.014573525916998342
3694.0,0.014708281407112
3693.0,0.014798141635428141
3692.0,0.014932966849499074
3691.0,0.015157768594724175
3690.0,0.015427684378367834
3689.0,0.015652742414136167
3688.0,0.015697768020096703
3687.0,0.015697768020096703
3686.0,0.015607721475734415
3685.0,0.015517693597737248
3684.0,0.015427684378367834
3683.0,0.01538268676325183
3682.0,0.015292705517326866
3681.0,0.015202742910707112
3680.0,0.015247721884586563
3679.0,0.015517693597737248
3678.0,0.015742798294583915
3677.0,0.015697768020096703
3676.0,0.015832872853011715
3675.0,0.016058141016111804
3674.0,0.01632861713980338
3673.0,0.01646391839700767
3672.0,0.016373712875465518
3671.0,0.016193358021584725
3670.0,0.01628352608625061
3669.0,0.016418813294209356
3668.0,0.016418813294209356
3667.0,0.01628352608625061
3666.0,0.016193358021584725
3665.0,0.016103208673694303
3664.0,0.016058141016111804
3663.0,0.016058141016111804
3662.0,0.016058141016111804
3661.0,0.016148281008528276
3660.0,0.01628352608625061
3659.0,0.016418813294209356
3658.0,0.016418813294209356
3657.0,0.016373712875465518
3656.0,0.01646391839700767
3655.0,0.016689514205884493
3654.0,0.016960383953898095
3653.0,0.017141057687924732
3652.0,0.017186237868137555
3651.0,0.017321806616515723
3650.0,0.01768353030793479
3649.0,0.01800028587012159
3648.0,0.017909760704207134
3647.0,0.017638298366853045
3646.0,0.017367005605150476
3645.0,0.017186237868137555
3644.0,0.017005545341335804
3643.0,0.016870075265299933
3642.0,0.016824927962187042
3641.0,0.016870075265299933
3640.0,0.016870075265299933
3639.0,0.016824927962187042
3638.0,0.016824927962187042
3637.0,0.01677978535189717
3636.0,0.016689514205884493
3635.0,0.016554142658660398
3634.0,0.016599261819461697
3633.0,0.016915227262211507
3632.0,0.01727661233145472
3631.0,0.017367005605150476
3630.0,0.017231422748988034
3629.0,0.01727661233145472
3628.0,0.017321806616515723
3627.0,0.017231422748988034
3626.0,0.017005545341335804
3625.0,0.016824927962187042
3624.0,0.016824927962187042
3623.0,0.016960383953898095
3622.0,0.017186237868137555
3621.0,0.017367005605150476
3620.0,0.017457417697056554
3619.0,0.017638298366853045
3618.0,0.017728766960431575
3617.0,0.01781925440359733
3616.0,0.017864505196230507
3615.0,0.017728766960431575
3614.0,0.017638298366853045
3613.0,0.017547848615010242
3612.0,0.017457417697056554
3611.0,0.017367005605150476
3610.0,0.017186237868137555
3609.0,0.017141057687924732
3608.0,0.017141057687924732
3607.0,0.017186237868137555
3606.0,0.017095882207371904
3605.0,0.017005545341335804
3604.0,0.016960383953898095
3603.0,0.016915227262211507
3602.0,0.016960383953898095
3601.0,0.017050711425501408
3600.0,0.017186237868137555
3599.0,0.01727661233145472
3598.0,0.017367005605150476
3597.0,0.017367005605150476
3596.0,0.017321806616515723
3595.0,0.017321806616515723
3594.0,0.017321806616515723
3593.0,0.017321806616515723
3592.0,0.017412209298337533
3591.0,0.017502630802287644
3590.0,0.017547848615010242
3589.0,0.017638298366853045
3588.0,0.01781925440359733
3587.0,0.01800028587012159
3586.0,0.01800028587012159
3585.0,0.017955020928509757
3584.0,0.017909760704207134
3583.0,0.017955020928509757
3582.0,0.01800028587012159
3581.0,0.018045555530026514
3580.0,0.01800028587012159
3579.0,0.01800028587012159
3578.0,0.01800028587012159
3577.0,0.018045555530026514
3576.0,0.018136109008649592
3575.0,0.018226681372252695
3574.0,0.01831727262871463
3573.0,0.01840788278591865
3572.0,0.018543833477873584
3571.0,0.018725167293411005
3570.0,0.018906576854070378
3569.0,0.019042683770379876
3568.0,0.0192242260373785
3567.0,0.01949668180660491
3566.0,0.019632973815224997
3565.0,0.019678413991243593
3564.0,0.01958753839310856
3563.0,0.019451260640229506
3562.0,0.019360432556262852
3561.0,0.019269623464054586
3560.0,0.019178833355664393
3559.0,0.019178833355664393
3558.0,0.019178833355664393
3557.0,0.0192242260373785
3556.0,0.019315025636685412
3555.0,0.01940584422377989
3554.0,0.019451260640229506
3553.0,0.01949668180660491
3552.0,0.01958753839310856
3551.0,0.019678413991243593
3550.0,0.019769308608968306
3549.0,0.019814763052665052
3548.0,0.019814763052665052
3547.0,0.01990568621470623
3546.0,0.01995115493504329
3545.0,0.019996628416253603
3544.0,0.019996628416253603
3543.0,0.01995115493504329
3542.0,0.019860222254245663
3541.0,0.019860222254245663
3540.0,0.019860222254245663
3539.0,0.019860222254245663
3538.0,0.01990568621470623
3537.0,0.01995115493504329
3536.0,0.01995115493504329
3535.0,0.01995115493504329
3534.0,0.019860222254245663
3533.0,0.019814763052665052
3532.0,0.019769308608968306
3531.0,0.019769308608968306
3530.0,0.019814763052665052
3529.0,0.01995115493504329
3528.0,0.02004210665933459
3527.0,0.02013307743509718
3526.0,0.020087589665283012
3525.0,0.019996628416253603
3524.0,0.019860222254245663
3523.0,0.019769308608968306
3522.0,0.019723858922159776
3521.0,0.019678413991243593
3520.0,0.019632973815224997
3519.0,0.019632973815224997
3518.0,0.019632973815224997
3517.0,0.019723858922159776
3516.0,0.019769308608968306
3515.0,0.019814763052665052
3514.0,0.01990568621470623
3513.0,0.01995115493504329
3512.0,0.019996628416253603
3511.0,0.02004210665933459
3510.0,0.02004210665933459
3509.0,0.02004210665933459
3508.0,0.02004210665933459
3507.0,0.02004210665933459
3506.0,0.02004210665933459
3505.0,0.02004210665933459
3504.0,0.02004210665933459
3503.0,0.019996628416253603
3502.0,0.019996628416253603
3501.0,0.019996628416253603
3500.0,0.02004210665933459
3499.0,0.020087589665283012
3498.0,0.020087589665283012
3497.0,0.020087589665283012
3496.0,0.02004210665933459
3495.0,0.01995115493504329
3494.0,0.01995115493504329
3493.0,0.01995115493504329
3492.0,0.02004210665933459
3491.0,0.020087589665283012
3490.0,0.02013307743509718
3489.0,0.020087589665283012
3488.0,0.020087589665283012
3487.0,0.020087589665283012
3486.0,0.020178569969774962
3485.0,0.02026956933771462
3484.0,0.020315076172974234
3483.0,0.02036058777709271
3482.0,0.020406104151069693
3481.0,0.02036058777709271
3480.0,0.02036058777709271
3479.0,0.020315076172974234
3478.0,0.020315076172974234
3477.0,0.020315076172974234
3476.0,0.020406104151069693
3475.0,0.020497151212598652
3474.0,0.02058821736556471
3473.0,0.02067930261797568
3472.0,0.020770406977844713
3471.0,0.02081596632558158
3470.0,0.020770406977844713
3469.0,0.02067930261797568
3468.0,0.02058821736556471
3467.0,0.02058821736556471
3466.0,0.02067930261797568
3465.0,0.02081596632558158
3464.0,0.020907099361673565
3463.0,0.020952673052035298
3462.0,0.0209982515252789
3461.0,0.0209982515252789
3460.0,0.021043834782408455
3459.0,0.021135015652343103
3458.0,0.02122621566987748
3457.0,0.021317434843055594
3456.0,0.02140867317992523
3455.0,0.021499930688540836
3454.0,0.02159120737696063
3453.0,0.021728158389364705
3452.0,0.021865152601710403
3451.0,0.02200219004126036
3450.0,0.022093572362881675
3449.0,0.022230681908425698
3448.0,0.022367834754000393
3447.0,0.02245929405346514
3446.0,0.02259651912656535
3445.0,0.022733787572707387
3444.0,0.02282532397981263
3443.0,0.022871099419317753
3442.0,0.02291687968414724
3441.0,0.02296266477531872
3440.0,0.02300845469384938
3439.0,0.023100049017062307
3438.0,0.02314585342378117
3437.0,0.023191662661933732
3436.0,0.023237476732539397
3435.0,0.023283295636617574
3434.0,0.023374947949272418
3433.0,0.023466619608062178
3432.0,0.02355831062115543
3431.0,0.02365002099672653
3430.0,0.023741750742954926
3429.0,0.023741750742954926
3428.0,0.023787622882622816
3427.0,0.023741750742954926
3426.0,0.023741750742954926
3425.0,0.023695883447997224
3424.0,0.023604163388120325
3423.0,0.023466619608062178
3422.0,0.02342078135989012
3421.0,0.023329119375188556
3420.0,0.023283295636617574
3419.0,0.02314585342378117
3418.0,0.02300845469384938
3417.0,0.022871099419317753
3416.0,0.02277955336461468
3415.0,0.022642270454698687
3414.0,0.02255077261765881
3413.0,0.022413561996148967
3412.0,0.022367834754000393
3411.0,0.022322112326006227
3410.0,0.022322112326006227
3409.0,0.02227639471115217
3408.0,0.022230681908425698
3407.0,0.022139270735302752
3406.0,0.02200219004126036
3405.0,0.021956506090037076
3404.0,0.021910826943857264
3403.0,0.021865152601710403
3402.0,0.021865152601710403
3401.0,0.021865152601710403
3400.0,0.021865152601710403
3399.0,0.021773818325474092
3398.0,0.021728158389364705
3397.0,0.02168250325324883
3396.0,0.021636852916117055
3395.0,0.02159120737696063
3394.0,0.02159120737696063
3393.0,0.02159120737696063
3392.0,0.021545566634771474
3391.0,0.021545566634771474
3390.0,0.021545566634771474
3389.0,0.021545566634771474
3388.0,0.021545566634771474
3387.0,0.02159120737696063
3386.0,0.02168250325324883
3385.0,0.021728158389364705
3384.0,0.021728158389364705
3383.0,0.021636852916117055
3382.0,0.021545566634771474
3381.0,0.0214542995372613
3380.0,0.021363051615525652
3379.0,0.021363051615525652
3378.0,0.021317434843055594
3377.0,0.021317434843055594
3376.0,0.021317434843055594
3375.0,0.021317434843055594
3374.0,0.021317434843055594
3373.0,0.021317434843055594
3372.0,0.021363051615525652
3371.0,0.0214542995372613
3370.0,0.021499930688540836
3369.0,0.02159120737696063
3368.0,0.021636852916117055
3367.0,0.021636852916117055
3366.0,0.02159120737696063
3365.0,0.021499930688540836
3364.0,0.0214542995372613
3363.0,0.0214542995372613
3362.0,0.021545566634771474
3361.0,0.021636852916117055
3360.0,0.02168250325324883
3359.0,0.02168250325324883
3358.0,0.02159120737696063
3357.0,0.021545566634771474
3356.0,0.021499930688540836
3355.0,0.021499930688540836
3354.0,0.021545566634771474
3353.0,0.02159120737696063
3352.0,0.02159120737696063
3351.0,0.021636852916117055
3350.0,0.02159120737696063
3349.0,0.02159120737696063
3348.0,0.021545566634771474
3347.0,0.021499930688540836
3346.0,0.0214542995372613
3345.0,0.0214542995372613
3344.0,0.021499930688540836
3343.0,0.02159120737696063
3342.0,0.02159120737696063
3341.0,0.02159120737696063
3340.0,0.021545566634771474
3339.0,0.021499930688540836
3338.0,0.021545566634771474
3337.0,0.02159120737696063
3336.0,0.021728158389364705
3335.0,0.021773818325474092
3334.0,0.021819483062586187
3333.0,0.021773818325474092
3332.0,0.021773818325474092
3331.0,0.021728158389364705
3330.0,0.021728158389364705
3329.0,0.021728158389364705
3328.0,0.021773818325474092
3327.0,0.021773818325474092
3326.0,0.021819483062586187
3325.0,0.021773818325474092
3324.0,0.021728158389364705
3323.0,0.02159120737696063
3322.0,0.021499930688540836
3321.0,0.0214542995372613
3320.0,0.02140867317992523
3319.0,0.02140867317992523
3318.0,0.02140867317992523
3317.0,0.02140867317992523
3316.0,0.02140867317992523
3315.0,0.0214542995372613
3314.0,0.0214542995372613
3313.0,0.02140867317992523
3312.0,0.02140867317992523
3311.0,0.021363051615525652
3310.0,0.021363051615525652
3309.0,0.021317434843055594
3308.0,0.021363051615525652
3307.0,0.02140867317992523
3306.0,0.0214542995372613
3305.0,0.0214542995372613
3304.0,0.0214542995372613
3303.0,0.02140867317992523
3302.0,0.021363051615525652
3301.0,0.021317434843055594
3300.0,0.021317434843055594
3299.0,0.021317434843055594
3298.0,0.021363051615525652
3297.0,0.021363051615525652
3296.0,0.021363051615525652
3295.0,0.02140867317992523
3294.0,0.02140867317992523
3293.0,0.02140867317992523
3292.0,0.02140867317992523
3291.0,0.02140867317992523
3290.0,0.021317434843055594
3289.0,0.02122621566987748
3288.0,0.0211806132671577
3287.0,0.021135015652343103
3286.0,0.021089422824428272
3285.0,0.021089422824428272
3284.0,0.021089422824428272
3283.0,0.021135015652343103
3282.0,0.02122621566987748
3281.0,0.02122621566987748
3280.0,0.02122621566987748
3279.0,0.02122621566987748
3278.0,0.0211806132671577
3277.0,0.021089422824428272
3276.0,0.021043834782408455
3275.0,0.020952673052035298
3274.0,0.020861530453190058
3273.0,0.02081596632558158
3272.0,0.02081596632558158
3271.0,0.02081596632558158
3270.0,0.020861530453190058
3269.0,0.020861530453190058
3268.0,0.02081596632558158
3267.0,0.020770406977844713
3266.0,0.020724852408976924
3265.0,0.02067930261797568
3264.0,0.020633757603838898
3263.0,0.02058821736556471
3262.0,0.02058821736556471
3261.0,0.02058821736556471
3260.0,0.02058821736556471
3259.0,0.020633757603838898
3258.0,0.02058821736556471
3257.0,0.020542681902151694
3256.0,0.020542681902151694
3255.0,0.020542681902151694
3254.0,0.02058821736556471
3253.0,0.02058821736556471
3252.0,0.02058821736556471
3251.0,0.020542681902151694
3250.0,0.02045162529590483
3249.0,0.020406104151069693
3248.0,0.020406104151069693
3247.0,0.020406104151069693
3246.0,0.020406104151069693
3245.0,0.02045162529590483
3244.0,0.020497151212598652
3243.0,0.020497151212598652
3242.0,0.02045162529590483
3241.0,0.020406104151069693
3240.0,0.02036058777709271
3239.0,0.02036058777709271
3238.0,0.02036058777709271
3237.0,0.02036058777709271
3236.0,0.020406104151069693
3235.0,0.020406104151069693
3234.0,0.02036058777709271
3233.0,0.02036058777709271
3232.0,0.020315076172974234
3231.0,0.02026956933771462
3230.0,0.02026956933771462
3229.0,0.02022406727031445
3228.0,0.020178569969774962
3227.0,0.02013307743509718
3226.0,0.020087589665283012
3225.0,0.020087589665283012
3224.0,0.02013307743509718
3223.0,0.02013307743509718
3222.0,0.02013307743509718
3221.0,0.020087589665283012
3220.0,0.02004210665933459
3219.0,0.019996628416253603
3218.0,0.01995115493504329
3217.0,0.01995115493504329
3216.0,0.01995115493504329
3215.0,0.019996628416253603
3214.0,0.01995115493504329
3213.0,0.019860222254245663
3212.0,0.019723858922159776
3211.0,0.019678413991243593
3210.0,0.019678413991243593
3209.0,0.019678413991243593
3208.0,0.019678413991243593
3207.0,0.019632973815224997
3206.0,0.01958753839310856
3205.0,0.01954210772389997
3204.0,0.01954210772389997
3203.0,0.01958753839310856
3202.0,0.01958753839310856
3201.0,0.01958753839310856
3200.0,0.01954210772389997
3199.0,0.01954210772389997
3198.0,0.01954210772389997
3197.0,0.01958753839310856
3196.0,0.019632973815224997
3195.0,0.019632973815224997
3194.0,0.019632973815224997
3193.0,0.01958753839310856
3192.0,0.01949668180660491
3191.0,0.01940584422377989
3190.0,0.019315025636685412
3189.0,0.019269623464054586
3188.0,0.019269623464054586
3187.0,0.019269623464054586
3186.0,0.019315025636685412
3185.0,0.019315025636685412
3184.0,0.019315025636685412
3183.0,0.019315025636685412
3182.0,0.019269623464054586
3181.0,0.0192242260373785
3180.0,0.019178833355664393
3179.0,0.019178833355664393
3178.0,0.019178833355664393
3177.0,0.019178833355664393
3176.0,0.019133445417920836
3175.0,0.019133445417920836
3174.0,0.019133445417920836
3173.0,0.019178833355664393
3172.0,0.019178833355664393
3171.0,0.019178833355664393
3170.0,0.019178833355664393
3169.0,0.019133445417920836
3168.0,0.019133445417920836
3167.0,0.0190880622231564
3166.0,0.0190880622231564
3165.0,0.019042683770379876
3164.0,0.01899731005860028
3163.0,0.018951941086827073
3162.0,0.018951941086827073
3161.0,0.018906576854070378
3160.0,0.018906576854070378
3159.0,0.018861217359339655
3158.0,0.018861217359339655
3157.0,0.018861217359339655
3156.0,0.018861217359339655
3155.0,0.018861217359339655
3154.0,0.018861217359339655
3153.0,0.018815862601645694
3152.0,0.018770512579999288
3151.0,0.018770512579999288
3150.0,0.018815862601645694
3149.0,0.018861217359339655
3148.0,0.018906576854070378
3147.0,0.018906576854070378
3146.0,0.018906576854070378
3145.0,0.018815862601645694
3144.0,0.018770512579999288
3143.0,0.018815862601645694
3142.0,0.018861217359339655
3141.0,0.018906576854070378
3140.0,0.018951941086827073
3139.0,0.018951941086827073
3138.0,0.018951941086827073
3137.0,0.018951941086827073
3136.0,0.01899731005860028
3135.0,0.019042683770379876
3134.0,0.0190880622231564
3133.0,0.019178833355664393
3132.0,0.019269623464054586
3131.0,0.019315025636685412
3130.0,0.019315025636685412
3129.0,0.019315025636685412
3128.0,0.019269623464054586
3127.0,0.019269623464054586
3126.0,0.0192242260373785
3125.0,0.019178833355664393
3124.0,0.019178833355664393
3123.0,0.019133445417920836
3122.0,0.019133445417920836
3121.0,0.019133445417920836
3120.0,0.019133445417920836
3119.0,0.019178833355664393
3118.0,0.0192242260373785
3117.0,0.019269623464054586
3116.0,0.01940584422377989
3115.0,0.01949668180660491
3114.0,0.01958753839310856
3113.0,0.019632973815224997
3112.0,0.019678413991243593
3111.0,0.019723858922159776
3110.0,0.019814763052665052
3109.0,0.019860222254245663
3108.0,0.01990568621470623
3107.0,0.019996628416253603
3106.0,0.02004210665933459
3105.0,0.020087589665283012
3104.0,0.020087589665283012
3103.0,0.02013307743509718
3102.0,0.020087589665283012
3101.0,0.020087589665283012
3100.0,0.02004210665933459
3099.0,0.02004210665933459
3098.0,0.019996628416253603
3097.0,0.01995115493504329
3096.0,0.01990568621470623
3095.0,0.01990568621470623
3094.0,0.019860222254245663
3093.0,0.019860222254245663
3092.0,0.019860222254245663
3091.0,0.019860222254245663
3090.0,0.01990568621470623
3089.0,0.019996628416253603
3088.0,0.020087589665283012
3087.0,0.020178569969774962
3086.0,0.020315076172974234
3085.0,0.02045162529590483
3084.0,0.02058821736556471
3083.0,0.02067930261797568
3082.0,0.020724852408976924
3081.0,0.020724852408976924
3080.0,0.020724852408976924
3079.0,0.020724852408976924
3078.0,0.020770406977844713
3077.0,0.020724852408976924
3076.0,0.020724852408976924
3075.0,0.02067930261797568
3074.0,0.02067930261797568
3073.0,0.020633757603838898
3072.0,0.020633757603838898
3071.0,0.02067930261797568
3070.0,0.02067930261797568
3069.0,0.020724852408976924
3068.0,0.020724852408976924
3067.0,0.020724852408976924
3066.0,0.02067930261797568
3065.0,0.020633757603838898
3064.0,0.02058821736556471
3063.0,0.02058821736556471
3062.0,0.020633757603838898
3061.0,0.02067930261797568
3060.0,0.020724852408976924
3059.0,0.020770406977844713
3058.0,0.02081596632558158
3057.0,0.020861530453190058
3056.0,0.020907099361673565
3055.0,0.020952673052035298
3054.0,0.020952673052035298
3053.0,0.020861530453190058
3052.0,0.020724852408976924
3051.0,0.020542681902151694
3050.0,0.020315076172974234
3049.0,0.020087589665283012
3048.0,0.019860222254245663
3047.0,0.019632973815224997
3046.0,0.019451260640229506
3045.0,0.019269623464054586
3044.0,0.019133445417920836
3043.0,0.01899731005860028
3042.0,0.018861217359339655
3041.0,0.018770512579999288
3040.0,0.018679826740892747
3039.0,0.018634490921455527
3038.0,0.01858915983411169
3037.0,0.01858915983411169
3036.0,0.018634490921455527
3035.0,0.018679826740892747
3034.0,0.018679826740892747
3033.0,0.018725167293411005
3032.0,0.018770512579999288
3031.0,0.018815862601645694
3030.0,0.018906576854070378
3029.0,0.018951941086827073
3028.0,0.01899731005860028
3027.0,0.0190880622231564
3026.0,0.019133445417920836
3025.0,0.019269623464054586
3024.0,0.01940584422377989
3023.0,0.01958753839310856
3022.0,0.019769308608968306
3021.0,0.019996628416253603
3020.0,0.02022406727031445
3019.0,0.020406104151069693
3018.0,0.020633757603838898
3017.0,0.02081596632558158
3016.0,0.021043834782408455
3015.0,0.021317434843055594
3014.0,0.021545566634771474
3013.0,0.021819483062586187
3012.0,0.022139270735302752
3011.0,0.022413561996148967
3010.0,0.022688026603074007
3009.0,0.02296266477531872
3008.0,0.023237476732539397
3007.0,0.02351246269481
3006.0,0.023787622882622816
3005.0,0.024017056287453542
3004.0,0.024292536462819925
3003.0,0.024522236834125355
3002.0,0.024706084643793647
3001.0,0.024890010313838973
3000.0,0.025074013910237447
2999.0,0.025304128090317013
2998.0,0.025488307262671706
2997.0,0.025672564576383117
2996.0,0.025810808881832736
2995.0,0.025902996205869
2994.0,0.026087429580295085
2993.0,0.026318081496016443
2992.0,0.026595025589939425
2991.0,0.02696455931306696
2990.0,0.02724191609646076
2989.0,0.02747318213414429
2988.0,0.0277045713888604
2987.0,0.027936083991977778
2986.0,0.02826040911222183
2985.0,0.028538594975413334
2984.0,0.02890978686288448
2983.0,0.029281296279810798
2982.0,0.02969962459782227
2981.0,0.030118356253500123
2980.0,0.03058408764601861
2979.0,0.03105031901865729
2978.0,0.03151705144606498
2977.0,0.031984286006358165
2976.0,0.03245202378113787
2975.0,0.032873418923587305
2974.0,0.0332483359486222
2973.0,0.03362357691107709
2972.0,0.03385826726096752
2971.0,0.03409308450480819
2970.0,0.03423403581731388
2969.0,0.03437503289075727
2968.0,0.03442204208947208
2967.0,0.034469056377139484
2966.0,0.03437503289075727
2965.0,0.03428102975577918
2964.0,0.03414006319292828
2963.0,0.033952178923546183
2962.0,0.03371743783253667
2961.0,0.033482823553208085
2960.0,0.0332483359486222
2959.0,0.0329671178412978
2958.0,0.03263926003405038
2957.0,0.03226486821611996
2956.0,0.03179733185715028
2955.0,0.03128362253321426
2954.0,0.03081714076773867
2953.0,0.030351159519274695
2952.0,0.029932203450862893
2951.0,0.029513651152349718
2950.0,0.02904906565457588
2949.0,0.02863136320857662
2948.0,0.028214062120885508
2947.0,0.027843464140506313
2946.0,0.027426919073445077
2945.0,0.02696455931306696
2944.0,0.026502691267936695
2943.0,0.02613355016462182
2942.0,0.025764722556973707
2941.0,0.02544225514642018
2940.0,0.02521206778644225
2939.0,0.025028005701930978
2938.0,0.024890010313838973
2937.0,0.024798037742147727
2936.0,0.024660115394541604
2935.0,0.024568191490736968
2934.0,0.024430342106337877
2933.0,0.02438440203310499
2932.0,0.024338466818941473
2931.0,0.02438440203310499
2930.0,0.02438440203310499
2929.0,0.02438440203310499
2928.0,0.02438440203310499
2927.0,0.02438440203310499
2926.0,0.024338466818941473
2925.0,0.024338466818941473
2924.0,0.02438440203310499
2923.0,0.024430342106337877
2922.0,0.024568191490736968
2921.0,0.024706084643793647
2920.0,0.024798037742147727
2919.0,0.02484402159331056
2918.0,0.024936003904763915
2917.0,0.025074013910237447
2916.0,0.025304128090317013
2915.0,0.02558042614771394
2914.0,0.025949097207122573
2913.0,0.026271941311972746
2912.0,0.026595025589939425
2911.0,0.02682594731702781
2910.0,0.02696455931306696
2909.0,0.027056991894431892
2908.0,0.027056991894431892
2907.0,0.027056991894431892
2906.0,0.02696455931306696
2905.0,0.02677975314776626
2904.0,0.026502691267936695
2903.0,0.026225806029419818
2902.0,0.025949097207122573
2901.0,0.025672564576383117
2900.0,0.02539620791296726
2899.0,0.02516604495145991
2898.0,0.024936003904763915
2897.0,0.024798037742147727
2896.0,0.024660115394541604
2895.0,0.024568191490736968
2894.0,0.024476287039668643
2893.0,0.024430342106337877
2892.0,0.024338466818941473
2891.0,0.024292536462819925
2890.0,0.024246610963712723
2889.0,0.024154774532432866
2888.0,0.024108863598207186
2887.0,0.024017056287453542
2886.0,0.023925268380126097
2885.0,0.023787622882622816
2884.0,0.02365002099672653
2883.0,0.02355831062115543
2882.0,0.023466619608062178
2881.0,0.023374947949272418
2880.0,0.023283295636617574
2879.0,0.023191662661933732
2878.0,0.023054249440757957
2877.0,0.02296266477531872
2876.0,0.02291687968414724
2875.0,0.02282532397981263
2874.0,0.02277955336461468
2873.0,0.022688026603074007
2872.0,0.02259651912656535
2871.0,0.022505030926963654
2870.0,0.022367834754000393
2869.0,0.02227639471115217
2868.0,0.0221849739168134
2867.0,0.0221849739168134
2866.0,0.0221849739168134
2865.0,0.022139270735302752
2864.0,0.022093572362881675
2863.0,0.02204787879853809
2862.0,0.021956506090037076
2861.0,0.021865152601710403
2860.0,0.021865152601710403
2859.0,0.021819483062586187
2858.0,0.021819483062586187
2857.0,0.021728158389364705
2856.0,0.021636852916117055
2855.0,0.021545566634771474
2854.0,0.02140867317992523
2853.0,0.021317434843055594
2852.0,0.0211806132671577
2851.0,0.021043834782408455
2850.0,0.020861530453190058
2849.0,0.020633757603838898
2848.0,0.02045162529590483
2847.0,0.02026956933771462
2846.0,0.02013307743509718
2845.0,0.019996628416253603
2844.0,0.01990568621470623
2843.0,0.019860222254245663
2842.0,0.019769308608968306
2841.0,0.019678413991243593
2840.0,0.01958753839310856
2839.0,0.019451260640229506
2838.0,0.019360432556262852
2837.0,0.0192242260373785
2836.0,0.019178833355664393
2835.0,0.019133445417920836
2834.0,0.019133445417920836
2833.0,0.0190880622231564
2832.0,0.019042683770379876
2831.0,0.018951941086827073
2830.0,0.018906576854070378
2829.0,0.018861217359339655
2828.0,0.018815862601645694
2827.0,0.018770512579999288
2826.0,0.018770512579999288
2825.0,0.018725167293411005
2824.0,0.018725167293411005
2823.0,0.018725167293411005
2822.0,0.018725167293411005
2821.0,0.018725167293411005
2820.0,0.018679826740892747
2819.0,0.018679826740892747
2818.0,0.018634490921455527
2817.0,0.018634490921455527
2816.0,0.018634490921455527
2815.0,0.018634490921455527
2814.0,0.01858915983411169
2813.0,0.01858915983411169
2812.0,0.01858915983411169
2811.0,0.018634490921455527
2810.0,0.018679826740892747
2809.0,0.018725167293411005
2808.0,0.018679826740892747
2807.0,0.018679826740892747
2806.0,0.018634490921455527
2805.0,0.018634490921455527
2804.0,0.018634490921455527
2803.0,0.018634490921455527
2802.0,0.018634490921455527
2801.0,0.01858915983411169
2800.0,0.018543833477873584
2799.0,0.01845319495476394
2798.0,0.01840788278591865
2797.0,0.01831727262871463
2796.0,0.018271974638383703
2795.0,0.018226681372252695
2794.0,0.018226681372252695
2793.0,0.018181392829336396
2792.0,0.018181392829336396
2791.0,0.018181392829336396
2790.0,0.018181392829336396
2789.0,0.018181392829336396
2788.0,0.018181392829336396
2787.0,0.018136109008649592
2786.0,0.018045555530026514
2785.0,0.017955020928509757
2784.0,0.017909760704207134
2783.0,0.017864505196230507
2782.0,0.017864505196230507
2781.0,0.017864505196230507
2780.0,0.017864505196230507
2779.0,0.01781925440359733
2778.0,0.017774008325325275
2777.0,0.017774008325325275
2776.0,0.017774008325325275
2775.0,0.017774008325325275
2774.0,0.017774008325325275
2773.0,0.017774008325325275
2772.0,0.017728766960431575
2771.0,0.017728766960431575
2770.0,0.017728766960431575
2769.0,0.017728766960431575
2768.0,0.01768353030793479
2767.0,0.017638298366853045
2766.0,0.01759307113620534
2765.0,0.017547848615010242
2764.0,0.017547848615010242
2763.0,0.01759307113620534
2762.0,0.01759307113620534
2761.0,0.01759307113620534
2760.0,0.01759307113620534
2759.0,0.017547848615010242
2758.0,0.017502630802287644
2757.0,0.017502630802287644
2756.0,0.017502630802287644
2755.0,0.017502630802287644
2754.0,0.017547848615010242
2753.0,0.017502630802287644
2752.0,0.017502630802287644
2751.0,0.017457417697056554
2750.0,0.017457417697056554
2749.0,0.017502630802287644
2748.0,0.017502630802287644
2747.0,0.017547848615010242
2746.0,0.017547848615010242
2745.0,0.01759307113620534
2744.0,0.01759307113620534
2743.0,0.01759307113620534
2742.0,0.017547848615010242
2741.0,0.017502630802287644
2740.0,0.017457417697056554
2739.0,0.017457417697056554
2738.0,0.017502630802287644
2737.0,0.017457417697056554
2736.0,0.017412209298337533
2735.0,0.017321806616515723
2734.0,0.01727661233145472
2733.0,0.017186237868137555
2732.0,0.017186237868137555
2731.0,0.017231422748988034
2730.0,0.017231422748988034
2729.0,0.017231422748988034
2728.0,0.017231422748988034
2727.0,0.017186237868137555
2726.0,0.017141057687924732
2725.0,0.017095882207371904
2724.0,0.017050711425501408
2723.0,0.017050711425501408
2722.0,0.017050711425501408
2721.0,0.017050711425501408
2720.0,0.017050711425501408
2719.0,0.017095882207371904
2718.0,0.017095882207371904
2717.0,0.017050711425501408
2716.0,0.017050711425501408
2715.0,0.017050711425501408
2714.0,0.017005545341335804
2713.0,0.016960383953898095
2712.0,0.016915227262211507
2711.0,0.016870075265299933
2710.0,0.016824927962187042
2709.0,0.016824927962187042
2708.0,0.016870075265299933
2707.0,0.016915227262211507
2706.0,0.016915227262211507
2705.0,0.016915227262211507
2704.0,0.016915227262211507
2703.0,0.016870075265299933
2702.0,0.016824927962187042
2701.0,0.016824927962187042
2700.0,0.016824927962187042
2699.0,0.016824927962187042
2698.0,0.016824927962187042
2697.0,0.016824927962187042
2696.0,0.016824927962187042
2695.0,0.016870075265299933
2694.0,0.016870075265299933
2693.0,0.016824927962187042
2692.0,0.016824927962187042
2691.0,0.016824927962187042
2690.0,0.01677978535189717
2689.0,0.01677978535189717
2688.0,0.01677978535189717
2687.0,0.016734647433454652
2686.0,0.016689514205884493
2685.0,0.016644385668211692
2684.0,0.016644385668211692
2683.0,0.016599261819461697
2682.0,0.016599261819461697
2681.0,0.016554142658660398
2680.0,0.016554142658660398
2679.0,0.016554142658660398
2678.0,0.016599261819461697
2677.0,0.016644385668211692
2676.0,0.016644385668211692
2675.0,0.016689514205884493
2674.0,0.016689514205884493
2673.0,0.016689514205884493
2672.0,0.016689514205884493
2671.0,0.016689514205884493
2670.0,0.016689514205884493
2669.0,0.016644385668211692
2668.0,0.016554142658660398
2667.0,0.01646391839700767
2666.0,0.016373712875465518
2665.0,0.016373712875465518
2664.0,0.016373712875465518
2663.0,0.016418813294209356
2662.0,0.016418813294209356
2661.0,0.016418813294209356
2660.0,0.01646391839700767
2659.0,0.01646391839700767
2658.0,0.01646391839700767
2657.0,0.01646391839700767
2656.0,0.016418813294209356
2655.0,0.016373712875465518
2654.0,0.016373712875465518
2653.0,0.01632861713980338
2652.0,0.01632861713980338
2651.0,0.01632861713980338
2650.0,0.01628352608625061
2649.0,0.01628352608625061
2648.0,0.01632861713980338
2647.0,0.01632861713980338
2646.0,0.01632861713980338
2645.0,0.01628352608625061
2644.0,0.016238439713835096
2643.0,0.016238439713835096
2642.0,0.016238439713835096
2641.0,0.01628352608625061
2640.0,0.016373712875465518
2639.0,0.016418813294209356
2638.0,0.01646391839700767
2637.0,0.01646391839700767
2636.0,0.01646391839700767
2635.0,0.016418813294209356
2634.0,0.016418813294209356
2633.0,0.016418813294209356
2632.0,0.01646391839700767
2631.0,0.016509028184833463
2630.0,0.016509028184833463
2629.0,0.016509028184833463
2628.0,0.016509028184833463
2627.0,0.016509028184833463
2626.0,0.016554142658660398
2625.0,0.016554142658660398
2624.0,0.016509028184833463
2623.0,0.016418813294209356
2622.0,0.01632861713980338
2621.0,0.016238439713835096
2620.0,0.016193358021584725
2619.0,0.016238439713835096
2618.0,0.01628352608625061
2617.0,0.016373712875465518
2616.0,0.016418813294209356
2615.0,0.01646391839700767
2614.0,0.01646391839700767
2613.0,0.016418813294209356
2612.0,0.016418813294209356
2611.0,0.016373712875465518
2610.0,0.016373712875465518
2609.0,0.016373712875465518
2608.0,0.016373712875465518
2607.0,0.01646391839700767
2606.0,0.016509028184833463
2605.0,0.016509028184833463
2604.0,0.016509028184833463
2603.0,0.016509028184833463
2602.0,0.016509028184833463
2601.0,0.016554142658660398
2600.0,0.016554142658660398
2599.0,0.016599261819461697
2598.0,0.016599261819461697
2597.0,0.016599261819461697
2596.0,0.016554142658660398
2595.0,0.016554142658660398
2594.0,0.016554142658660398
2593.0,0.016554142658660398
2592.0,0.016554142658660398
2591.0,0.016554142658660398
2590.0,0.016554142658660398
2589.0,0.016599261819461697
2588.0,0.016689514205884493
2587.0,0.016734647433454652
2586.0,0.01677978535189717
2585.0,0.016824927962187042
2584.0,0.01677978535189717
2583.0,0.01677978535189717
2582.0,0.016824927962187042
2581.0,0.016824927962187042
2580.0,0.016824927962187042
2579.0,0.01677978535189717
2578.0,0.016734647433454652
2577.0,0.016689514205884493
2576.0,0.016689514205884493
2575.0,0.016689514205884493
2574.0,0.016689514205884493
2573.0,0.016689514205884493
2572.0,0.016689514205884493
2571.0,0.016734647433454652
2570.0,0.016734647433454652
2569.0,0.016734647433454652
2568.0,0.016734647433454652
2567.0,0.016689514205884493
2566.0,0.016689514205884493
2565.0,0.016644385668211692
2564.0,0.016644385668211692
2563.0,0.016689514205884493
2562.0,0.016689514205884493
2561.0,0.016689514205884493
2560.0,0.016689514205884493
2559.0,0.016689514205884493
2558.0,0.016689514205884493
2557.0,0.016689514205884493
2556.0,0.016644385668211692
2555.0,0.016599261819461697
2554.0,0.016599261819461697
2553.0,0.016554142658660398
2552.0,0.016599261819461697
2551.0,0.016644385668211692
2550.0,0.016644385668211692
2549.0,0.016599261819461697
2548.0,0.016554142658660398
2547.0,0.016554142658660398
2546.0,0.016509028184833463
2545.0,0.016509028184833463
2544.0,0.016509028184833463
2543.0,0.016554142658660398
2542.0,0.016599261819461697
2541.0,0.016599261819461697
2540.0,0.016554142658660398
2539.0,0.016509028184833463
2538.0,0.01646391839700767
2537.0,0.016418813294209356
2536.0,0.016418813294209356
2535.0,0.01646391839700767
2534.0,0.016509028184833463
2533.0,0.016554142658660398
2532.0,0.016554142658660398
2531.0,0.016599261819461697
2530.0,0.016599261819461697
2529.0,0.016554142658660398
2528.0,0.016509028184833463
2527.0,0.016509028184833463
2526.0,0.016509028184833463
2525.0,0.01646391839700767
2524.0,0.016418813294209356
2523.0,0.016373712875465518
2522.0,0.016373712875465518
2521.0,0.016373712875465518
2520.0,0.016373712875465518
2519.0,0.016373712875465518
2518.0,0.01632861713980338
2517.0,0.01628352608625061
2516.0,0.016238439713835096
2515.0,0.016193358021584725
2514.0,0.016148281008528276
2513.0,0.016103208673694303
2512.0,0.016058141016111804
2511.0,0.016058141016111804
2510.0,0.016058141016111804
2509.0,0.016058141016111804
2508.0,0.016058141016111804
2507.0,0.016058141016111804
2506.0,0.016103208673694303
2505.0,0.016103208673694303
2504.0,0.016103208673694303
2503.0,0.016103208673694303
2502.0,0.016103208673694303
2501.0,0.016058141016111804
2500.0,0.016013078034810446
2499.0,0.016013078034810446
2498.0,0.016013078034810446
2497.0,0.016013078034810446
2496.0,0.01596801972881945
2495.0,0.015877917138889863
2494.0,0.015832872853011715
2493.0,0.01578783323856614
2492.0,0.015832872853011715
2491.0,0.015832872853011715
2490.0,0.015832872853011715
2489.0,0.01578783323856614
2488.0,0.015742798294583915
2487.0,0.015697768020096703
2486.0,0.015697768020096703
2485.0,0.015742798294583915
2484.0,0.015742798294583915
2483.0,0.015742798294583915
2482.0,0.015697768020096703
2481.0,0.015652742414136167
2480.0,0.015607721475734415
2479.0,0.015607721475734415
2478.0,0.015607721475734415
2477.0,0.015562705203923999
2476.0,0.015517693597737248
2475.0,0.01547268665620738
2474.0,0.015427684378367834
2473.0,0.01538268676325183
2472.0,0.015337693809893471
2471.0,0.01538268676325183
2470.0,0.01538268676325183
2469.0,0.01538268676325183
2468.0,0.01538268676325183
2467.0,0.015337693809893471
2466.0,0.015292705517326866
2465.0,0.015247721884586563
2464.0,0.015202742910707112
2463.0,0.015202742910707112
2462.0,0.015157768594724175
2461.0,0.015157768594724175
2460.0,0.015157768594724175
2459.0,0.015157768594724175
2458.0,0.015112798935672522
2457.0,0.015067833932588037
2456.0,0.015022873584506602
2455.0,0.015022873584506602
2454.0,0.015022873584506602
2453.0,0.015022873584506602
2452.0,0.015022873584506602
2451.0,0.015022873584506602
2450.0,0.015022873584506602
2449.0,0.015022873584506602
2448.0,0.015067833932588037
2447.0,0.015067833932588037
2446.0,0.015067833932588037
2445.0,0.015067833932588037
2444.0,0.015112798935672522
2443.0,0.015112798935672522
2442.0,0.015067833932588037
2441.0,0.015067833932588037
2440.0,0.015067833932588037
2439.0,0.015067833932588037
2438.0,0.015067833932588037
2437.0,0.015067833932588037
2436.0,0.015112798935672522
2435.0,0.015112798935672522
2434.0,0.015112798935672522
2433.0,0.015112798935672522
2432.0,0.015112798935672522
2431.0,0.015112798935672522
2430.0,0.015112798935672522
2429.0,0.015112798935672522
2428.0,0.015157768594724175
2427.0,0.015157768594724175
2426.0,0.015157768594724175
2425.0,0.015157768594724175
2424.0,0.015157768594724175
2423.0,0.015202742910707112
2422.0,0.015247721884586563
2421.0,0.015292705517326866
2420.0,0.01538268676325183
2419.0,0.015427684378367834
2418.0,0.015427684378367834
2417.0,0.01538268676325183
2416.0,0.015337693809893471
2415.0,0.015292705517326866
2414.0,0.015247721884586563
2413.0,0.015247721884586563
2412.0,0.015247721884586563
2411.0,0.015292705517326866
2410.0,0.015337693809893471
2409.0,0.01538268676325183
2408.0,0.015427684378367834
2407.0,0.015427684378367834
2406.0,0.01547268665620738
2405.0,0.01547268665620738
2404.0,0.01547268665620738
2403.0,0.01547268665620738
2402.0,0.015517693597737248
2401.0,0.015562705203923999
2400.0,0.015607721475734415
2399.0,0.015607721475734415
2398.0,0.015562705203923999
2397.0,0.015562705203923999
2396.0,0.015562705203923999
2395.0,0.015652742414136167
2394.0,0.015697768020096703
2393.0,0.015697768020096703
2392.0,0.015607721475734415
2391.0,0.015562705203923999
2390.0,0.01547268665620738
2389.0,0.01538268676325183
2388.0,0.015292705517326866
2387.0,0.015157768594724175
2386.0,0.015022873584506602
2385.0,0.014798141635428141
2384.0,0.014573525916998342
2383.0,0.014349026309051105
2382.0,0.014169510141607944
2381.0,0.01403492169512921
2380.0,0.013990068146738865
2379.0,0.013990068146738865
2378.0,0.013900374944870508
2377.0,0.013765869865004277
2376.0,0.013541787262693505
2375.0,0.013317820220494436
2374.0,0.012959713020733288
2373.0,0.012467797270160563
2372.0,0.012065734767841452
2371.0,0.0119764380713403
2370.0,0.012244383261476699
2369.0,0.012557195064198723
2368.0,0.012914970375878188
2367.0,0.013407393177789162
2366.0,0.013900374944870508
2365.0,0.014169510141607944
2364.0,0.014124642691606404
2363.0,0.013676222949234651
2362.0,0.01260190086298274
2361.0,0.011039929609661936
2360.0,0.009972101229705377
2359.0,0.010060986715464404
2358.0,0.010906307389674463
2357.0,0.011842527443247208
2356.0,0.01215504982870197
2355.0,0.011664044143949504
2354.0,0.010683695010048622
2353.0,0.010194349063173958
2352.0,0.010416710688994968
2351.0,0.010683695010048622
2350.0,0.010594681998483901
2349.0,0.010105436281226954
2348.0,0.009527946474380489
2347.0,0.009217308196862062
2346.0,0.00939478857608056
2345.0,0.009883233932095559
2344.0,0.01046119667949763
2343.0,0.010995384301463185
2342.0,0.011218156546359825
2341.0,0.011084479487313281
2340.0,0.01077272626946324
2339.0,0.010327752376126709
2338.0,0.009705553871561357
2337.0,0.00908424549391551
2336.0,0.008862564879688284
2335.0,0.009217308196862062
2334.0,0.009705553871561357
2333.0,0.010060986715464404
2332.0,0.010283280051895272
2331.0,0.010550182333308289
2330.0,0.01077272626946324
2329.0,0.01086177578421088
2328.0,0.011084479487313281
2327.0,0.011485634166333858
2326.0,0.0119764380713403
2325.0,0.012289056869694281
2324.0,0.012512493866907004
2323.0,0.012736045877764557
2322.0,0.012870232340102872
2321.0,0.012914970375878188
2320.0,0.012870232340102872
2319.0,0.012870232340102872
2318.0,0.012780770091995297
2317.0,0.01264661126420652
2316.0,0.012512493866907004
2315.0,0.012467797270160563
2314.0,0.012467797270160563
2313.0,0.012512493866907004
2312.0,0.012512493866907004
2311.0,0.012557195064198723
2310.0,0.01260190086298274
2309.0,0.01264661126420652
2308.0,0.012691326268817527
2307.0,0.012691326268817527
2306.0,0.012691326268817527
2305.0,0.012736045877764557
2304.0,0.012736045877764557
2303.0,0.012780770091995297
2302.0,0.012825498912458322
2301.0,0.012870232340102872
2300.0,0.012959713020733288
2299.0,0.013093968619278806
2298.0,0.01318349541446362
2297.0,0.013273040668781544
2296.0,0.013317820220494436
2295.0,0.013407393177789162
2294.0,0.013496984613259544
2293.0,0.013586594534531482
2292.0,0.013631406429727155
2291.0,0.01372104409400876
2290.0,0.013900374944870508
2289.0,0.014079779876432497
2288.0,0.014214382227394795
2287.0,0.014393916947563534
2286.0,0.0144837121472845
2285.0,0.0144837121472845
2284.0,0.0144837121472845
2283.0,0.014393916947563534
2282.0,0.014304140310157809
2281.0,0.014259258949925524
2280.0,0.014169510141607944
2279.0,0.014169510141607944
2278.0,0.014169510141607944
2277.0,0.014169510141607944
2276.0,0.014169510141607944
2275.0,0.014169510141607944
2274.0,0.014169510141607944
2273.0,0.014079779876432497
2272.0,0.01403492169512921
2271.0,0.013990068146738865
2270.0,0.013945219230304673
2269.0,0.013900374944870508
2268.0,0.013900374944870508
2267.0,0.013900374944870508
2266.0,0.01385553528947936
2265.0,0.013900374944870508
2264.0,0.013900374944870508
2263.0,0.013945219230304673
2262.0,0.013990068146738865
2261.0,0.013990068146738865
2260.0,0.01403492169512921
2259.0,0.014079779876432497
2258.0,0.014079779876432497
2257.0,0.014124642691606404
2256.0,0.014079779876432497
2255.0,0.014079779876432497
2254.0,0.01403492169512921
2253.0,0.01403492169512921
2252.0,0.013990068146738865
2251.0,0.01403492169512921
2250.0,0.01403492169512921
2249.0,0.01403492169512921
2248.0,0.014079779876432497
2247.0,0.014079779876432497
2246.0,0.014079779876432497
2245.0,0.01403492169512921
2244.0,0.013990068146738865
2243.0,0.013945219230304673
2242.0,0.013945219230304673
2241.0,0.013900374944870508
2240.0,0.013900374944870508
2239.0,0.01385553528947936
2238.0,0.01381070026317599
2237.0,0.013765869865004277
2236.0,0.013765869865004277
2235.0,0.01381070026317599
2234.0,0.01381070026317599
2233.0,0.013765869865004277
2232.0,0.01372104409400876
2231.0,0.013676222949234651
2230.0,0.013676222949234651
2229.0,0.013631406429727155
2228.0,0.013586594534531482
2227.0,0.013586594534531482
2226.0,0.013586594534531482
2225.0,0.013541787262693505
2224.0,0.013496984613259544
2223.0,0.013496984613259544
2222.0,0.013496984613259544
2221.0,0.013452186585275916
2220.0,0.013407393177789162
2219.0,0.013362604389846044
2218.0,0.013362604389846044
2217.0,0.013317820220494436
2216.0,0.013317820220494436
2215.0,0.013362604389846044
2214.0,0.013362604389846044
2213.0,0.013362604389846044
2212.0,0.013362604389846044
2211.0,0.013362604389846044
2210.0,0.013317820220494436
2209.0,0.013273040668781544
2208.0,0.01322826573375524
2207.0,0.01318349541446362
2206.0,0.013138729709955221
2205.0,0.013093968619278806
2204.0,0.013004460275618523
2203.0,0.012959713020733288
2202.0,0.012914970375878188
2201.0,0.012870232340102872
2200.0,0.012825498912458322
2199.0,0.012825498912458322
2198.0,0.012825498912458322
2197.0,0.012825498912458322
2196.0,0.012825498912458322
2195.0,0.012870232340102872
2194.0,0.012870232340102872
2193.0,0.012825498912458322
2192.0,0.012825498912458322
2191.0,0.012780770091995297
2190.0,0.012736045877764557
2189.0,0.01264661126420652
2188.0,0.01264661126420652
2187.0,0.01260190086298274
2186.0,0.01260190086298274
2185.0,0.01260190086298274
2184.0,0.012557195064198723
2183.0,0.012557195064198723
2182.0,0.01260190086298274
2181.0,0.01260190086298274
2180.0,0.01264661126420652
2179.0,0.012691326268817527
2178.0,0.012691326268817527
2177.0,0.01260190086298274
2176.0,0.012557195064198723
2175.0,0.012512493866907004
2174.0,0.012512493866907004
2173.0,0.012512493866907004
2172.0,0.012512493866907004
2171.0,0.012512493866907004
2170.0,0.012512493866907004
2169.0,0.012512493866907004
2168.0,0.012557195064198723
2167.0,0.01260190086298274
2166.0,0.01260190086298274
2165.0,0.01264661126420652
2164.0,0.01264661126420652
2163.0,0.012691326268817527
2162.0,0.012780770091995297
2161.0,0.012780770091995297
2160.0,0.012780770091995297
2159.0,0.012780770091995297
2158.0,0.012736045877764557
2157.0,0.012736045877764557
2156.0,0.012736045877764557
2155.0,0.012736045877764557
2154.0,0.012736045877764557
2153.0,0.012736045877764557
2152.0,0.012736045877764557
2151.0,0.012780770091995297
2150.0,0.012825498912458322
2149.0,0.012870232340102872
2148.0,0.012870232340102872
2147.0,0.012870232340102872
2146.0,0.012870232340102872
2145.0,0.012914970375878188
2144.0,0.012914970375878188
2143.0,0.012914970375878188
2142.0,0.012959713020733288
2141.0,0.012959713020733288
2140.0,0.012914970375878188
2139.0,0.012914970375878188
2138.0,0.012959713020733288
2137.0,0.012959713020733288
2136.0,0.012959713020733288
2135.0,0.013004460275618523
2134.0,0.013004460275618523
2133.0,0.013049212141483357
2132.0,0.013049212141483357
2131.0,0.013093968619278806
2130.0,0.013093968619278806
2129.0,0.013049212141483357
2128.0,0.013049212141483357
2127.0,0.013093968619278806
2126.0,0.01318349541446362
2125.0,0.01318349541446362
2124.0,0.01322826573375524
2123.0,0.01322826573375524
2122.0,0.013273040668781544
2121.0,0.01322826573375524
2120.0,0.01322826573375524
2119.0,0.01322826573375524
2118.0,0.01322826573375524
2117.0,0.01322826573375524
2116.0,0.01322826573375524
2115.0,0.01322826573375524
2114.0,0.01322826573375524
2113.0,0.01322826573375524
2112.0,0.01318349541446362
2111.0,0.01318349541446362
2110.0,0.01318349541446362
2109.0,0.01318349541446362
2108.0,0.013138729709955221
2107.0,0.013138729709955221
2106.0,0.013138729709955221
2105.0,0.013093968619278806
2104.0,0.013093968619278806
2103.0,0.013138729709955221
2102.0,0.01318349541446362
2101.0,0.013138729709955221
2100.0,0.013093968619278806
2099.0,0.013049212141483357
2098.0,0.013004460275618523
2097.0,0.012914970375878188
2096.0,0.012870232340102872
2095.0,0.012825498912458322
2094.0,0.012825498912458322
2093.0,0.012780770091995297
2092.0,0.012780770091995297
2091.0,0.012780770091995297
2090.0,0.012736045877764557
2089.0,0.012736045877764557
2088.0,0.012691326268817527
2087.0,0.012691326268817527
2086.0,0.01264661126420652
2085.0,0.01264661126420652
2084.0,0.01260190086298274
2083.0,0.012557195064198723
2082.0,0.012512493866907004
2081.0,0.012467797270160563
2080.0,0.012423105273012602
2079.0,0.012423105273012602
2078.0,0.012423105273012602
2077.0,0.012333735073725371
2076.0,0.012244383261476699
2075.0,0.01215504982870197
2074.0,0.012065734767841452
2073.0,0.012065734767841452
2072.0,0.012021084124518078
2071.0,0.012021084124518078
2070.0,0.0119764380713403
2069.0,0.011931796607364653
2068.0,0.011842527443247208
2067.0,0.011753276624621556
2066.0,0.011664044143949504
2065.0,0.011574829993696856
2064.0,0.011530229790124524
2063.0,0.011485634166333858
2062.0,0.011485634166333858
2061.0,0.011441043121384498
2060.0,0.011351874764248926
2059.0,0.011307297450183107
2058.0,0.011218156546359825
2057.0,0.011129033935354915
2056.0,0.011084479487313281
2055.0,0.011039929609661936
2054.0,0.010995384301463185
2053.0,0.010995384301463185
2052.0,0.010950843561779777
2051.0,0.010906307389674463
2050.0,0.01086177578421088
2049.0,0.010817248744452446
2048.0,0.010817248744452446
2047.0,0.010817248744452446
2046.0,0.010728208358306901
2045.0,0.010639186223752484
2044.0,0.010550182333308289
2043.0,0.010505687227290839
2042.0,0.010505687227290839
2041.0,0.01046119667949763
2040.0,0.01046119667949763
2039.0,0.01046119667949763
2038.0,0.010416710688994968
2037.0,0.01037222925484893
2036.0,0.010327752376126709
2035.0,0.010283280051895272
2034.0,0.010283280051895272
2033.0,0.01023881228122181
2032.0,0.01023881228122181
2031.0,0.01023881228122181
2030.0,0.01023881228122181
2029.0,0.01023881228122181
2028.0,0.010194349063173958
2027.0,0.010194349063173958
2026.0,0.010194349063173958
2025.0,0.010194349063173958
2024.0,0.010149890396819572
2023.0,0.010194349063173958
2022.0,0.010194349063173958
2021.0,0.010149890396819572
2020.0,0.010105436281226954
2019.0,0.010105436281226954
2018.0,0.010149890396819572
2017.0,0.010149890396819572
2016.0,0.010105436281226954
2015.0,0.010149890396819572
2014.0,0.010149890396819572
2013.0,0.010149890396819572
2012.0,0.010105436281226954
2011.0,0.010105436281226954
2010.0,0.010105436281226954
2009.0,0.010060986715464404
2008.0,0.010105436281226954
2007.0,0.010149890396819572
2006.0,0.010194349063173958
2005.0,0.010194349063173958
2004.0,0.010149890396819572
2003.0,0.010194349063173958
2002.0,0.010194349063173958
2001.0,0.010194349063173958
2000.0,0.01023881228122181
1999.0,0.010283280051895272
1998.0,0.010327752376126709
1997.0,0.01037222925484893
1996.0,0.010327752376126709
1995.0,0.010327752376126709
1994.0,0.010327752376126709
1993.0,0.01037222925484893
1992.0,0.010416710688994968
1991.0,0.010550182333308289
1990.0,0.010639186223752484
1989.0,0.010683695010048622
1988.0,0.010683695010048622
1987.0,0.010683695010048622
1986.0,0.010728208358306901
1985.0,0.010728208358306901
1984.0,0.010728208358306901
1983.0,0.010728208358306901
1982.0,0.010728208358306901
1981.0,0.010728208358306901
1980.0,0.01077272626946324
1979.0,0.01086177578421088
1978.0,0.010950843561779777
1977.0,0.010995384301463185
1976.0,0.010995384301463185
1975.0,0.011084479487313281
1974.0,0.01117359295472431
1973.0,0.011218156546359825
1972.0,0.011307297450183107
1971.0,0.011396456654336085
1970.0,0.011485634166333858
1969.0,0.011530229790124524
1968.0,0.011619434777991433
1967.0,0.011753276624621556
1966.0,0.011887159731648111
1965.0,0.0119764380713403
1964.0,0.012110390002254778
1963.0,0.012244383261476699
1962.0,0.012423105273012602
1961.0,0.012512493866907004
1960.0,0.01260190086298274
1959.0,0.012736045877764557
1958.0,0.012825498912458322
1957.0,0.012870232340102872
1956.0,0.012914970375878188
1955.0,0.012959713020733288
1954.0,0.013004460275618523
1953.0,0.012959713020733288
1952.0,0.012870232340102872
1951.0,0.012825498912458322
1950.0,0.012736045877764557
1949.0,0.01264661126420652
1948.0,0.012512493866907004
1947.0,0.012423105273012602
1946.0,0.012333735073725371
1945.0,0.01215504982870197
1944.0,0.011931796607364653
1943.0,0.011753276624621556
1942.0,0.011574829993696856
1941.0,0.011396456654336085
1940.0,0.011262724711199823
1939.0,0.011129033935354915
1938.0,0.010950843561779777
1937.0,0.01077272626946324
1936.0,0.010550182333308289
1935.0,0.010416710688994968
1934.0,0.010283280051895272
1933.0,0.010105436281226954
1932.0,0.009972101229705377
1931.0,0.009838807101520963
1930.0,0.00966114521239847
1929.0,0.009483555971770974
1928.0,0.009306039320248427
1927.0,0.009172949432521227
1926.0,0.009039900317800775
1925.0,0.008906891951112605
1924.0,0.008773924307505121
1923.0,0.0087296108049002
1922.0,0.0087296108049002
1921.0,0.008640997362049818
1920.0,0.008552401996197112
1919.0,0.008375265465994541
1918.0,0.008242460465651913
1917.0,0.008109696063975047
1916.0,0.008021209005416363
1915.0,0.007932739972333236
1914.0,0.007888512213050314
1913.0,0.007800070204414977
1912.0,0.007755855953228474
1911.0,0.007667440952535687
1910.0,0.00762324020119709
1909.0,0.007490664932224611
1908.0,0.007402303897961815
1907.0,0.007313960837872058
1906.0,0.007225635744644521
1905.0,0.007093181776687496
1904.0,0.007004901568658406
1903.0,0.00696076819309055
1902.0,0.006916639301937977
1901.0,0.006872514894289861
1900.0,0.006784279525863024
1899.0,0.006696062080525422
1898.0,0.006607862550997545
1897.0,0.006475596832934416
1896.0,0.006343371384537999
1895.0,0.00625524344553785
1894.0,0.00625524344553785
1893.0,0.00625524344553785
1892.0,0.00625524344553785
1891.0,0.00625524344553785
1890.0,0.00621118618129457
1889.0,0.006035001804881146
1888.0,0.00590291041179003
1887.0,0.005814871797682919
1886.0,0.00577085918230158
1885.0,0.005682847330363394
1884.0,0.005594853310833647
1883.0,0.005550862985963967
1882.0,0.005506877116487674
1881.0,0.00541891874010525
1880.0,0.00537494623139545
1879.0,0.005330978174470591
1878.0,0.0052870145684298375
1877.0,0.005199100705396198
1876.0,0.005111204635089406
1875.0,0.005067263269958211
1874.0,0.004979393875242044
1873.0,0.004935465843858511
1872.0,0.00489154225525934
1871.0,0.00489154225525934
1870.0,0.00489154225525934
1869.0,0.00484762310854614
1868.0,0.004759798137184523
1867.0,0.004715892310740433
1866.0,0.004715892310740433
1865.0,0.004628093971837721
1864.0,0.00458420145758498
1863.0,0.00458420145758498
1862.0,0.004628093971837721
1861.0,0.004628093971837721
1860.0,0.00458420145758498
1859.0,0.00458420145758498
1858.0,0.004540313378935901
1857.0,0.0044964297349936455
1856.0,0.004452550524862486
1855.0,0.004452550524862486
1854.0,0.0044964297349936455
1853.0,0.004540313378935901
1852.0,0.004540313378935901
1851.0,0.00458420145758498
1850.0,0.004628093971837721
1849.0,0.004628093971837721
1848.0,0.004715892310740433
1847.0,0.00484762310854614
1846.0,0.005023326350308999
1845.0,0.004979393875242044
1844.0,0.00489154225525934
1843.0,0.004979393875242044
1842.0,0.005155150446602086
1841.0,0.0052870145684298375
1840.0,0.00537494623139545
1839.0,0.00541891874010525
1838.0,0.005506877116487674
1837.0,0.005506877116487674
1836.0,0.005550862985963967
1835.0,0.005638848091999105
1834.0,0.005726851026829571
1833.0,0.005814871797682919
1832.0,0.005946936412324799
1831.0,0.006035001804881146
1830.0,0.00612308505878878
1829.0,0.006079041198713275
1828.0,0.006079041198713275
1827.0,0.00612308505878878
1826.0,0.006167133386013823
1825.0,0.00612308505878878
1824.0,0.006035001804881146
1823.0,0.006079041198713275
1822.0,0.00612308505878878
1821.0,0.006035001804881146
1820.0,0.005946936412324799
1819.0,0.005858888873877532
1818.0,0.005814871797682919
1817.0,0.00577085918230158
1816.0,0.005682847330363394
1815.0,0.005682847330363394
1814.0,0.005682847330363394
1813.0,0.005638848091999105
1812.0,0.005550862985963967
1811.0,0.005506877116487674
1810.0,0.00541891874010525
1809.0,0.005243055412371911
1808.0,0.005067263269958211
1807.0,0.004979393875242044
1806.0,0.00489154225525934
1805.0,0.004715892310740433
1804.0,0.004540313378935901
1803.0,0.004452550524862486
1802.0,0.004452550524862486
1801.0,0.0043648054024501
1800.0,0.004233220950025984
1799.0,0.004145520125434121
1798.0,0.00401400208620073
1797.0,0.0038825238627120395
1796.0,0.0037510854308679953
1795.0,0.0037510854308679953
1794.0,0.0037510854308679953
1793.0,0.003488327845821315
1792.0,0.0031382315093266833
1791.0,0.0030070181092942683
1790.0,0.0030070181092942683
1789.0,0.0029632891174733444
1788.0,0.0028758443407954637
1787.0,0.0028321285541661467
1786.0,0.0027447101798967477
1785.0,0.0025262411970197185
1784.0,0.002395212539545666
1783.0,0.0024388843664115978
1782.0,0.002482560585275184
1781.0,0.0023078820582733695
1780.0,0.0021332737608552588
1779.0,0.0021332737608552588
1778.0,0.0021769192542746563
1777.0,0.002089632653256679
1776.0,0.0020023635919956817
1775.0,0.0021332737608552588
1774.0,0.0022642234021015284
1773.0,0.0020459959305969555
1772.0,0.0017842676290416026
1771.0,0.0017842676290416026
1770.0,0.0018278780605593958
1769.0,0.0017406615763013722
1768.0,0.0016970599014589638
1767.0,0.001915112063444413
1766.0,0.0022642234021015284
1765.0,0.002482560585275184
1764.0,0.0026573093983774942
1763.0,0.0029632891174733444
1762.0,0.0033132443998284966
1761.0,0.0035758960449088217
1760.0,0.003926345514724705
1759.0,0.004671990922590297
1758.0,0.005594853310833647
1757.0,0.006431517210272464
1756.0,0.007358130121602358
1755.0,0.008640997362049818
1754.0,0.01001654169860089
1753.0,0.011485634166333858
1752.0,0.013541787262693505
1751.0,0.01677978535189717
1750.0,0.020907099361673565
1749.0,0.02539620791296726
1748.0,0.03030458888152676
1747.0,0.03597620715996652
1746.0,0.04224908912272074
1745.0,0.04939177521576932
1744.0,0.05784307153250956
1743.0,0.06737405597821788
1742.0,0.07727454200674
1741.0,0.08830984124613894
1740.0,0.1014393550602879
1739.0,0.11514801725400226
1738.0,0.12604034525664676
1737.0,0.13424477592854833
1736.0,0.14333151638846497
1735.0,0.15976840504189105
1734.0,0.18369240056806024
1733.0,0.2043980201058202
1732.0,0.2193946941610303
1731.0,0.23477863369501928
1730.0,0.2528990686350139
1729.0,0.272296116314646
1728.0,0.2912392763096834
1727.0,0.31006989598178203
1726.0,0.3302183847914635
1725.0,0.3527148549746333
1724.0,0.37788963963878053
1723.0,0.4041732229267767
1722.0,0.4279420100736955
1721.0,0.4470885497834911
1720.0,0.4644527208233322
1719.0,0.4889191544608815
1718.0,0.5256380239673693
1717.0,0.5595632338942262
1716.0,0.5747919488613435
1715.0,0.575935474582512
1714.0,0.5673513399868932
1713.0,0.5476001540885584
1712.0,0.5187007266671442
1711.0,0.4843910507655198
1710.0,0.4485500020271247
1709.0,0.4136377766921342
1708.0,0.3795516152882912
1707.0,0.34457341225408133
1706.0,0.3093609882840327
1705.0,0.2798406965940432
1704.0,0.25916379294268843
1703.0,0.24389662841489446
1702.0,0.22855951336008817
1701.0,0.2093630380682967
1700.0,0.19050762306265812
1699.0,0.17815907279954568
1698.0,0.17024608107502504
1697.0,0.16247469055039865
1696.0,0.15391041964201602
1695.0,0.14642345638035836
1694.0,0.1413425159091921
1693.0,0.13768969004572962
1692.0,0.1340081998737246
1691.0,0.12977172098820566
1690.0,0.12563416426995122
1689.0,0.12228319913502328
1688.0,0.11964380058076385
1687.0,0.11702034596270106
1686.0,0.11407366019856902
1685.0,0.11137127461477392
1684.0,0.10946720807225518
1683.0,0.10768273927751948
1682.0,0.10568393731556158
1681.0,0.10358402352687701
1680.0,0.10132965703447017
1679.0,0.09903237608087578
1678.0,0.09674718310604158
1677.0,0.09458193129745807
1676.0,0.09231997575758011
1675.0,0.08990945440593179
1674.0,0.08799062441302175
1673.0,0.08655704514060414
1672.0,0.08512818245994969
1671.0,0.0832303157168639
1670.0,0.08107890990866418
1669.0,0.079094395835976
1668.0,0.07748213975538865
1667.0,0.07592757008963713
1666.0,0.07437854520917098
1665.0,0.07293775650699996
1664.0,0.07124579782334672
1663.0,0.06935655895783555
1662.0,0.0675769736232612
1661.0,0.06625970050306473
1660.0,0.06509774167768612
1659.0,0.06383825908884244
1658.0,0.06258241852286206
1657.0,0.06133019897732073
1656.0,0.060131455540490375
1655.0,0.05858795962645047
1654.0,0.056950888991593285
1653.0,0.056159373598738904
1652.0,0.055961719945581745
1651.0,0.05581353871631256
1650.0,0.05561604235915585
1649.0,0.05507339001378431
1648.0,0.05428528594013993
1647.0,0.05340037498486727
1646.0,0.05261529831525902
1645.0,0.05207638016827354
1644.0,0.0515870342213991
1643.0,0.05100054597304693
1642.0,0.050414848673348
1641.0,0.04987865248862655
1640.0,0.04934311749548925
1639.0,0.04871106272232795
1638.0,0.04803141550708934
1637.0,0.04754660357696672
1636.0,0.04725597598510167
1635.0,0.04677202844014605
1634.0,0.046192002334692894
1633.0,0.04575749056067524
1632.0,0.04537162249272897
1631.0,0.04488976902944808
1630.0,0.044360346976747955
1629.0,0.0439276630048171
1628.0,0.043495409683302455
1627.0,0.04301563225723992
1626.0,0.04253638427006878
1625.0,0.04215336629184985
1624.0,0.0417706858116178
1623.0,0.041340572947066834
1622.0,0.041006334969674096
1621.0,0.04081545726880842
1620.0,0.040672354027829094
1619.0,0.040529297924893015
1618.0,0.04072004986906119
1617.0,0.04153168163305643
1616.0,0.04248848854552012
1615.0,0.04301563225723992
1614.0,0.043063586155803746
1613.0,0.04287180232318688
1612.0,0.042392712939904875
1611.0,0.04172287445230238
1610.0,0.04086316882962593
1609.0,0.0400527842915015
1608.0,0.03919637508823026
1607.0,0.03829421599749461
1606.0,0.03744126420403626
1605.0,0.03668448861388862
1604.0,0.03592902944204468
1603.0,0.03517488211661135
1602.0,0.034469056377139484
1601.0,0.03385826726096752
1600.0,0.0332483359486222
1599.0,0.032686081712916426
1598.0,0.032124554451966825
1597.0,0.03170388495374454
1596.0,0.03142366482450232
1595.0,0.031143625385307683
1594.0,0.030957032694186815
1593.0,0.030863766403287585
1592.0,0.03081714076773867
1591.0,0.03081714076773867
1590.0,0.03081714076773867
1589.0,0.030957032694186815
1588.0,0.031190286087141805
1587.0,0.03151705144606498
1586.0,0.032031037121307726
1585.0,0.032920265855503006
1584.0,0.03414006319292828
1583.0,0.035646070707806565
1582.0,0.037299268295658994
1581.0,0.03886378261277468
1580.0,0.04010041213405646
1579.0,0.04072004986906119
1578.0,0.04062466342415694
1577.0,0.03986232513620536
1576.0,0.03857890593355173
1575.0,0.037299268295658994
1574.0,0.03630659476198117
1573.0,0.03545753392086315
1572.0,0.03461012978487776
1571.0,0.03352973627071565
1570.0,0.032218091924200776
1569.0,0.03105031901865729
1568.0,0.03025802323714588
1567.0,0.02969962459782227
1566.0,0.029188389127482228
1565.0,0.028677754757187035
1564.0,0.028167720075074953
1563.0,0.027565723042634938
1562.0,0.02710321556345563
1561.0,0.026872146400301444
1560.0,0.026456531467510258
1559.0,0.026225806029419818
1558.0,0.026041313893296225
1557.0,0.025856900097785074
1556.0,0.025672564576383117
1555.0,0.02544225514642018
1554.0,0.02521206778644225
1553.0,0.025074013910237447
1552.0,0.02498200236711723
1551.0,0.024798037742147727
1550.0,0.02461415101053266
1549.0,0.024430342106337877
1548.0,0.024292536462819925
1547.0,0.02406295751688936
1546.0,0.023741750742954926
1545.0,0.02355831062115543
1544.0,0.02342078135989012
1543.0,0.023191662661933732
1542.0,0.02291687968414724
1541.0,0.02277955336461468
1540.0,0.022688026603074007
1539.0,0.022322112326006227
1538.0,0.0221849739168134
1537.0,0.022413561996148967
1536.0,0.02259651912656535
1535.0,0.022733787572707387
1534.0,0.022871099419317753
1533.0,0.023100049017062307
1532.0,0.023283295636617574
1531.0,0.023329119375188556
1530.0,0.023374947949272418
1529.0,0.023466619608062178
1528.0,0.023466619608062178
1527.0,0.023374947949272418
1526.0,0.023237476732539397
1525.0,0.023191662661933732
1524.0,0.02300845469384938
1523.0,0.022642270454698687
1522.0,0.022139270735302752
1521.0,0.021819483062586187
1520.0,0.021728158389364705
1519.0,0.02168250325324883
1518.0,0.021545566634771474
1517.0,0.02140867317992523
1516.0,0.021317434843055594
1515.0,0.021363051615525652
1514.0,0.021636852916117055
1513.0,0.022322112326006227
1512.0,0.023466619608062178
1511.0,0.02498200236711723
1510.0,0.02696455931306696
1509.0,0.03002526987828502
1508.0,0.03635381351515665
1507.0,0.04599883231842972
1506.0,0.05163594401163074
1505.0,0.05163594401163074
1504.0,0.04905128560059957
1503.0,0.04522701031028298
1502.0,0.040672354027829094
1501.0,0.036117771071222604
1500.0,0.03193753992355086
1499.0,0.02826040911222183
1498.0,0.02512002699306959
1497.0,0.02277955336461468
1496.0,0.021363051615525652
1495.0,0.020542681902151694
1494.0,0.020087589665283012
1493.0,0.01990568621470623
1492.0,0.019860222254245663
1491.0,0.019814763052665052
1490.0,0.01995115493504329
1489.0,0.02067930261797568
1488.0,0.02168250325324883
1487.0,0.02259651912656535
1486.0,0.02355831062115543
1485.0,0.02475205875931885
1484.0,0.026087429580295085
1483.0,0.027565723042634938
1482.0,0.029234840219232394
1481.0,0.03105031901865729
1480.0,0.032686081712916426
1479.0,0.03409308450480819
1478.0,0.035363296211498474
1477.0,0.03668448861388862
1476.0,0.03796231343498735
1475.0,0.038958783046687984
1474.0,0.03986232513620536
1473.0,0.04072004986906119
1472.0,0.041197296600497646
1471.0,0.041006334969674096
1470.0,0.04057697805689475
1469.0,0.04010041213405646
1468.0,0.039767126871487646
1467.0,0.03957679292217042
1466.0,0.039719535563357944
1465.0,0.04038628892895613
1464.0,0.04124505013091051
1463.0,0.042057664554595586
1462.0,0.04272802000705722
1461.0,0.04339941178682327
1460.0,0.0439276630048171
1459.0,0.044360346976747955
1458.0,0.044986096961949995
1457.0,0.046143701775014145
1456.0,0.0469171560879138
1455.0,0.04720755695590784
1454.0,0.04725597598510167
1453.0,0.04696554274964315
1452.0,0.046481918555007384
1451.0,0.04575749056067524
1450.0,0.044986096961949995
1449.0,0.044167989767578186
1448.0,0.0433514207947967
1447.0,0.04253638427006878
1446.0,0.04181850243505214
1445.0,0.04129280891271536
1444.0,0.04076775094900409
1443.0,0.040243327009005014
1442.0,0.039767126871487646
1441.0,0.03924390909822728
1440.0,0.038673844065289176
1439.0,0.03782014709123227
1438.0,0.03658998431977123
1437.0,0.03498654972775217
1436.0,0.033295223342125535
1435.0,0.03193753992355086
1434.0,0.0307239045110681
1433.0,0.029374223311705583
1432.0,0.027936083991977778
1431.0,0.02636422658259252
1430.0,0.02484402159331056
1429.0,0.023604163388120325
1428.0,0.022688026603074007
1427.0,0.022139270735302752
1426.0,0.021819483062586187
1425.0,0.021728158389364705
1424.0,0.02204787879853809
1423.0,0.02259651912656535
1422.0,0.023283295636617574
1421.0,0.024568191490736968
1420.0,0.02738066094037661
1419.0,0.03235843591698884
1418.0,0.038816290187564384
1417.0,0.046143701775014145
1416.0,0.054679159207724926
1415.0,0.06484555278383164
1414.0,0.07675598136972361
1413.0,0.09049745859458458
1412.0,0.10501970907203151
1411.0,0.11798803837334138
1410.0,0.1270865583796048
1409.0,0.1316495003520317
1408.0,0.13135556160517425
1407.0,0.12621453918179926
1406.0,0.1170772093974013
1405.0,0.10590557267730127
1404.0,0.09517630019905599
1403.0,0.0862920860195171
1402.0,0.079094395835976
1401.0,0.07278366940873537
1400.0,0.0666645899223488
1399.0,0.06098022355133348
1398.0,0.05650548409389744
1397.0,0.053203972728539606
1396.0,0.05056119896349576
1395.0,0.047982909952573705
1394.0,0.04575749056067524
1393.0,0.04411991377462465
1392.0,0.04291974034210022
1391.0,0.041914151478914974
1390.0,0.040958607678906356
1389.0,0.040243327009005014
1388.0,0.03986232513620536
1387.0,0.039719535563357944
1386.0,0.03981472339538916
1385.0,0.040005161671583744
1384.0,0.0402909757535701
1383.0,0.04057697805689475
1382.0,0.04081545726880842
1381.0,0.041197296600497646
1380.0,0.04167506835594681
1379.0,0.042201225070002124
1378.0,0.042775942156833
1377.0,0.04344740808260106
1376.0,0.044167989767578186
1375.0,0.044986096961949995
1374.0,0.04575749056067524
1373.0,0.04638525830935958
1372.0,0.04667530361081473
1371.0,0.04657860031896477
1370.0,0.04595055323640551
1369.0,0.04488976902944808
1368.0,0.0433514207947967
1367.0,0.04153168163305643
1366.0,0.03952922246570112
1365.0,0.03739392707587297
1364.0,0.03517488211661135
1363.0,0.032920265855503006
1362.0,0.03105031901865729
1361.0,0.029885677714903025
1360.0,0.029188389127482228
1359.0,0.028816959143838528
1358.0,0.02863136320857662
1357.0,0.028816959143838528
1356.0,0.02942069428514915
1355.0,0.030351159519274695
1354.0,0.03175060589208267
1353.0,0.03367050483612166
1352.0,0.03621217265444465
1351.0,0.03957679292217042
1350.0,0.04387961360698034
1349.0,0.04934311749548925
1348.0,0.05620880107069848
1347.0,0.06444235490698613
1346.0,0.07427547306393745
1345.0,0.08570974433405087
1344.0,0.09794268919153337
1343.0,0.11002636159600376
1342.0,0.12107626603243293
1341.0,0.1305922506177981
1340.0,0.13727247168202528
1339.0,0.13924287691845794
1338.0,0.13578566953867033
1337.0,0.12790202572577325
1336.0,0.11690664142431006
1335.0,0.10408045468998406
1334.0,0.0905509530187334
1333.0,0.07743023101428781
1332.0,0.06560255921901192
1331.0,0.055764156206519866
1330.0,0.04803141550708934
1329.0,0.042392712939904875
1328.0,0.03848398855105106
1327.0,0.03592902944204468
1326.0,0.034469056377139484
1325.0,0.03376437590141812
1324.0,0.03367050483612166
1323.0,0.033952178923546183
1322.0,0.03461012978487776
1321.0,0.03550466044490741
1320.0,0.03658998431977123
1319.0,0.03782014709123227
1318.0,0.03914884628031379
1317.0,0.04057697805689475
1316.0,0.04210551278710151
1315.0,0.0437835307566099
1314.0,0.04570923829887308
1313.0,0.047934409814949674
1312.0,0.05036607620073763
1311.0,0.05290953578037816
1310.0,0.05551732784983132
1309.0,0.05824018618530458
1308.0,0.06108018775522828
1307.0,0.06388856832514578
1306.0,0.06656333217371957
1305.0,0.06925467168888666
1304.0,0.07216786713341827
1303.0,0.07530729697981409
1302.0,0.07893810920972144
1301.0,0.08317771540408803
1300.0,0.0880970039559672
1299.0,0.0935033402006471
1298.0,0.09930522554760213
1297.0,0.10546241500425357
1296.0,0.11176432672943282
1295.0,0.11810202642698875
1294.0,0.12436006299583169
1293.0,0.13053358991913355
1292.0,0.13673663634951905
1291.0,0.1427278264359586
1290.0,0.14849704722945534
1289.0,0.1542200328881107
1288.0,0.159956669396506
1287.0,0.16545214231905137
1286.0,0.1706318920111798
1285.0,0.17574396237031764
1284.0,0.18091692425629735
1283.0,0.1859522790044006
1282.0,0.19091186865365373
1281.0,0.1960651501361581
1280.0,0.20155653964981246
1279.0,0.20732821085843267
1278.0,0.21339052735134012
1277.0,0.22025924882325953
1276.0,0.2280452510360509
1275.0,0.23672178898102136
1274.0,0.24641694110709333
1273.0,0.25758911941950746
1272.0,0.2704302736980302
1271.0,0.2846653162076871
1270.0,0.2999889376778877
1269.0,0.3163227011813081
1268.0,0.3337629041041956
1267.0,0.35144484433732925
1266.0,0.36916548217194944
1265.0,0.38668683854454056
1264.0,0.40373287360448473
1263.0,0.41930306028756337
1262.0,0.4328559548043429
1261.0,0.44502654166676026
1260.0,0.45555986268230764
1259.0,0.4640732586044307
1258.0,0.47095482923423093
1257.0,0.4776862048433326
1256.0,0.4851867050007146
1255.0,0.4934949675951279
1254.0,0.5030703519267852
1253.0,0.5147045612739112
1252.0,0.5285615926107008
1251.0,0.5434821421947373
1250.0,0.5587763257573874
1249.0,0.5746288335610588
1248.0,0.5904049806031844
1247.0,0.604324214730064
1246.0,0.6151092034694459
1245.0,0.6226937489318012
1244.0,0.6261688549261697
1243.0,0.6236055579627338
1242.0,0.6145724851948695
1241.0,0.6001532872870776
1240.0,0.5815329790533994
1239.0,0.558304864359283
1238.0,0.5320960534771997
1237.0,0.5045944368538067
1236.0,0.47716468633947007
1235.0,0.44989400065240726
1234.0,0.4234283159347092
1233.0,0.3987006898056624
1232.0,0.3759242688543174
1231.0,0.35487260074160876
1230.0,0.3353580244438745
1229.0,0.31767438133219295
1228.0,0.3015514619846711
1227.0,0.28667749501297246
1226.0,0.27278417909150754
1225.0,0.2599532759485059
1224.0,0.2482591261890994
1223.0,0.23717144681090963
1222.0,0.22665245801917688
1221.0,0.216739767127051
1220.0,0.20732821085843267
1219.0,0.19825338078053978
1218.0,0.18943147078358713
1217.0,0.18104868835982724
1216.0,0.1730833528150797
1215.0,0.16557929631846746
1214.0,0.15845283474344662
1213.0,0.15187248943212528
1212.0,0.14587621789883287
1211.0,0.14026143380285316
1210.0,0.13501453934020602
1209.0,0.13012318673323353
1208.0,0.12569216687196105
1207.0,0.12147820449879343
1206.0,0.1174754620451195
1205.0,0.11367851344052027
1204.0,0.11008231656379408
1203.0,0.10662666975397506
1202.0,0.10330847343711591
1201.0,0.10017949757290379
1200.0,0.0972358560759139
1199.0,0.09436599867304518
1198.0,0.09156860103399356
1197.0,0.08884239126002336
1196.0,0.0862920860195171
1195.0,0.0838620168928248
1194.0,0.08149786036382611
1193.0,0.07935499859321249
1192.0,0.07732643214144574
1191.0,0.07551395626608493
1190.0,0.07386342893255127
1189.0,0.07242434530888953
1188.0,0.07129697256940304
1187.0,0.07037674848475972
1186.0,0.06981534770138009
1185.0,0.06961138175567827
1184.0,0.06981534770138009
1183.0,0.07032568205141221
1182.0,0.07114346641808922
1181.0,0.07232173586200852
1180.0,0.07370901311513656
1179.0,0.07520400420208784
1178.0,0.07665234350217442
1177.0,0.07789763319239285
1176.0,0.07878187880504961
1175.0,0.07914650387874067
1174.0,0.07883394936226118
1173.0,0.07794959783282618
1172.0,0.0763933569825408
1171.0,0.07422394616325367
1170.0,0.07170658776779781
1169.0,0.06905096883247697
1168.0,0.06656333217371957
1167.0,0.06439198148213077
1166.0,0.06278310913729457
1165.0,0.06163040254819374
1164.0,0.06098022355133348
1163.0,0.06063052992534024
1162.0,0.06048074738138154
1161.0,0.060530669156469985
1160.0,0.060730413661268745
1159.0,0.06108018775522828
1158.0,0.06163040254819374
1157.0,0.062381820606176586
1156.0,0.06343599486473406
1155.0,0.06479513257341862
1154.0,0.06641148980334699
1153.0,0.06833876031551878
1152.0,0.07058107428570715
1151.0,0.07304051161972436
1150.0,0.07587584681417514
1149.0,0.07899019850296574
1148.0,0.08244197917456386
1147.0,0.086239113587677
1146.0,0.09039048950983108
1145.0,0.09496007192378841
1144.0,0.09996076451267522
1143.0,0.10529634739076998
1142.0,0.11103465569966264
1141.0,0.11724784438692004
1140.0,0.12395544975390482
1139.0,0.1311205537629121
1138.0,0.1388839558386048
1137.0,0.14745901423020125
1136.0,0.15682953548010214
1135.0,0.16704424939540163
1134.0,0.17796275192741495
1133.0,0.18970025895983111
1132.0,0.20217868863597643
1131.0,0.21516882187553077
1130.0,0.22826557461323072
1129.0,0.24169381827469305
1128.0,0.255237762934422
1127.0,0.2688949487840795
1126.0,0.2822463067892844
1125.0,0.2955920726131591
1124.0,0.3086532358651781
1123.0,0.32093568187868726
1122.0,0.33208031468263854
1121.0,0.3419886033428876
1120.0,0.35017853677543487
1119.0,0.35595550718525115
1118.0,0.35862505480787443
1117.0,0.35862505480787443
1116.0,0.3562513145404742
1115.0,0.35222594973116994
1114.0,0.34794715175189506
1113.0,0.3451499094386059
1112.0,0.34543844525825684
1111.0,0.3491099221436875
1110.0,0.3565473235138126
1109.0,0.3678465164893674
1108.0,0.3825802532628235
1107.0,0.3993537643376055
1106.0,0.4169146336523124
1105.0,0.4348608480302105
1104.0,0.45247142354021785
1103.0,0.46852108295774486
1102.0,0.4821445810699714
1101.0,0.49376564038787407
1100.0,0.5027938192960455
1099.0,0.5084982337626736
1098.0,0.5104633705179045
1097.0,0.5094796906366512
1096.0,0.5055671012736014
1095.0,0.4983930775811707
1094.0,0.4882502886550171
1093.0,0.47638358094562916
1092.0,0.4634415574284698
1091.0,0.4494047925106721
1090.0,0.4347426565797863
1089.0,0.4203307064452797
1088.0,0.40638169187046413
1087.0,0.39265222323158655
1086.0,0.37882371822496475
1085.0,0.365421977146112
1084.0,0.35222594973116994
1083.0,0.33856594960608
1082.0,0.32440494361325367
1081.0,0.3098925605436693
1080.0,0.29542055030370085
1079.0,0.2806687130162735
1078.0,0.2659205927194057
1077.0,0.25181197299379954
1076.0,0.23844801143581806
1075.0,0.22592119924748122
1074.0,0.21438547505317596
1073.0,0.20398103065285067
1072.0,0.19470308384201496
1071.0,0.18628560811885508
1070.0,0.17874856845405884
1069.0,0.1721140172101443
1068.0,0.16627930955536674
1067.0,0.16089921729284673
1066.0,0.1558335895497993
1065.0,0.15119529894819617
1064.0,0.14703230897118158
1063.0,0.14315032127482774
1062.0,0.1396619934290062
1061.0,0.1366771398795441
1060.0,0.13424477592854833
1059.0,0.1322379753497993
1058.0,0.13053358991913355
1057.0,0.12930354201075
1056.0,0.12842706445412122
1055.0,0.12790202572577325
1054.0,0.1276688787697493
1053.0,0.12778543660241448
1052.0,0.1282519810081284
1051.0,0.12889429901441463
1050.0,0.1295960947209729
1049.0,0.13035765534840538
1048.0,0.1311205537629121
1047.0,0.13176713157753506
1046.0,0.1322379753497993
1045.0,0.13247358880025661
1044.0,0.13247358880025661
1043.0,0.13200248965504868
1042.0,0.1311205537629121
1041.0,0.12994741830645506
1040.0,0.12854382597704617
1039.0,0.12691201440971422
1038.0,0.125054563914468
1037.0,0.12314735239865637
1036.0,0.12124847982699793
1035.0,0.11935787359571504
1034.0,0.11758931562603192
1033.0,0.11605480496572018
1032.0,0.114865033936566
1031.0,0.11424311893073247
1030.0,0.11458223488906394
1029.0,0.1165089098110701
1028.0,0.1207320431753871
1027.0,0.12790202572577325
1026.0,0.13858508136400327
1025.0,0.15298290206464582
1024.0,0.17082492608291244
1023.0,0.19151894343404896
1022.0,0.21431433171909875
1021.0,0.23829763245858726
1020.0,0.2612194415156308
1019.0,0.27926202298157476
1018.0,0.288192770958809
1017.0,0.2850837520064151
1016.0,0.27026840471296465
1015.0,0.24710684511540615
1014.0,0.22076436832413648
1013.0,0.19579239491795852
1012.0,0.17476867680009978
1011.0,0.15814019022493886
1010.0,0.14539036190420496
1009.0,0.13566694496660703
1008.0,0.1281352979118051
1007.0,0.12216810850710624
1006.0,0.11736163830396129
1005.0,0.11345287660889425
1004.0,0.11036219959333216
1003.0,0.10773839308446487
1002.0,0.10546241500425357
1001.0,0.10347378251044459
1000.0,0.1017686154869033
999.0,0.10017949757290379
998.0,0.09875969792669093
997.0,0.09750757884139638
996.0,0.09642170633694569
995.0,0.09550084460218011
994.0,0.09474395125154866
993.0,0.09425807260839858
992.0,0.09398837472858723
991.0,0.09382663635595145
990.0,0.0937727369476411
989.0,0.09388054245443844
988.0,0.09415017335768128
987.0,0.09458193129745807
986.0,0.09512223303659528
985.0,0.09593394808549704
984.0,0.09707290398273716
983.0,0.09854167860388774
982.0,0.10023419805561384
981.0,0.10226297465457268
980.0,0.10441172433373724
979.0,0.10662666975397506
978.0,0.10874138309586101
977.0,0.11081038795292675
976.0,0.11272036546997688
975.0,0.11418662533951118
974.0,0.11520463605101905
973.0,0.11565785235294102
972.0,0.11554450392951199
971.0,0.1148084593931522
970.0,0.11345287660889425
969.0,0.11165198982195101
968.0,0.10952309103982927
967.0,0.10718217569042365
966.0,0.10468797552421272
965.0,0.10215306842042837
964.0,0.09963287134352972
963.0,0.09718153191774648
962.0,0.09474395125154866
961.0,0.09248115389337075
960.0,0.09028354676565531
959.0,0.08825662214406838
958.0,0.08639805027084257
957.0,0.08470571697731355
956.0,0.08317771540408803
955.0,0.08175990977858505
954.0,0.08039897621588898
953.0,0.07914650387874067
952.0,0.07800156869172903
951.0,0.07696333132921396
950.0,0.0759792995259323
949.0,0.07510073598571654
948.0,0.07443009045662374
947.0,0.07376047895413773
946.0,0.07319468988839395
945.0,0.0725783049495814
944.0,0.0720140529005715
943.0,0.07145053299833615
942.0,0.07088774334533943
941.0,0.07032568205141221
940.0,0.06986635415888243
939.0,0.06945847013556561
938.0,0.06905096883247697
937.0,0.06874559358358656
936.0,0.068389593637038
935.0,0.06803388527182741
934.0,0.0676277178520861
933.0,0.06722192993944942
932.0,0.06676587128519196
931.0,0.0663102910421054
930.0,0.06575411897692884
929.0,0.06529959828457499
928.0,0.06489597884855036
927.0,0.06449273417528723
926.0,0.06414020196211956
925.0,0.06378795567975115
924.0,0.06353652599525317
923.0,0.06323500239005853
922.0,0.06278310913729457
921.0,0.062381820606176586
920.0,0.06198090252378963
919.0,0.06173051653708872
918.0,0.061580354206806964
917.0,0.06148027482350815
916.0,0.06143024377893891
915.0,0.06143024377893891
914.0,0.06148027482350815
913.0,0.061780582187257016
912.0,0.06223143295006417
911.0,0.06283329628496737
910.0,0.06348625752110681
909.0,0.06429125215733666
908.0,0.06529959828457499
907.0,0.06641148980334699
906.0,0.0675769736232612
905.0,0.06879647454924775
904.0,0.06996838504902692
903.0,0.0709900145060387
902.0,0.07196279359311708
901.0,0.07283502570063005
900.0,0.07355465218161061
899.0,0.07401789967289685
898.0,0.07427547306393745
897.0,0.07432700607875953
896.0,0.07417242537525759
895.0,0.07391491307485598
894.0,0.07355465218161061
893.0,0.07319468988839395
892.0,0.0729891310243489
891.0,0.07283502570063005
890.0,0.07288638806623937
889.0,0.07319468988839395
888.0,0.07396640332115534
887.0,0.07530729697981409
886.0,0.07737832847680104
885.0,0.0805035121369384
884.0,0.08475850269380558
883.0,0.09028354676565531
882.0,0.09696430321150284
881.0,0.1047432468551055
880.0,0.11356568037106163
879.0,0.12320502379929943
878.0,0.13359450162194508
877.0,0.14490504884137811
876.0,0.157390760389438
875.0,0.17018181256112253
874.0,0.18137827362411096
873.0,0.18782222584124608
872.0,0.1871534630329288
871.0,0.1791420105603001
870.0,0.16640670600154372
869.0,0.15267416921457633
868.0,0.14026143380285316
867.0,0.13024040521758962
866.0,0.12251347193039863
865.0,0.11690664142431006
864.0,0.11288929687511629
863.0,0.11002636159600376
862.0,0.10784972209863586
861.0,0.1063491830140364
860.0,0.10546241500425357
859.0,0.10496440254767725
858.0,0.10485381062400778
857.0,0.10496440254767725
856.0,0.10529634739076998
855.0,0.10579474085791629
854.0,0.10640466618011679
853.0,0.10740457717110186
852.0,0.10885296955122903
851.0,0.11053021603049262
850.0,0.11215773489264302
849.0,0.11350927482751816
848.0,0.11418662533951118
847.0,0.11396072443355765
846.0,0.1128329791052256
845.0,0.11120293254331926
844.0,0.10929960230112479
843.0,0.10718217569042365
842.0,0.10496440254767725
841.0,0.1028679566179056
840.0,0.10078158214862709
839.0,0.09870518283443275
838.0,0.09653017149282994
837.0,0.09447395156495153
836.0,0.09253489323414388
835.0,0.09060445403289452
834.0,0.08873582900163002
833.0,0.08698131625203986
832.0,0.08533956941077814
831.0,0.08365134772453975
830.0,0.08202211740709164
829.0,0.08060807322614072
828.0,0.0794071379151915
827.0,0.07831352451639795
826.0,0.0772226580712021
825.0,0.07634157820669385
824.0,0.0756173227980268
823.0,0.07494587968815725
822.0,0.07427547306393745
821.0,0.07370901311513656
820.0,0.0732460948102629
819.0,0.07278366940873537
818.0,0.07227044022834539
817.0,0.07196279359311708
816.0,0.07175781684269089
815.0,0.07150173187630915
814.0,0.07114346641808922
813.0,0.07073438174693436
812.0,0.07037674848475972
811.0,0.06996838504902692
810.0,0.06950943469373039
809.0,0.06915280831750303
808.0,0.06879647454924775
807.0,0.06844043290919477
806.0,0.06793230779927839
805.0,0.06742477650170953
804.0,0.06686717627326577
803.0,0.06625970050306473
802.0,0.0655520510510299
801.0,0.06499684854634524
800.0,0.06484555278383164
799.0,0.06545105233385295
798.0,0.06712054217620067
797.0,0.07001940948448526
796.0,0.07370901311513656
795.0,0.07717078033335123
794.0,0.0794592834975203
793.0,0.08013774644446192
792.0,0.07919861817434581
791.0,0.07696333132921396
790.0,0.07417242537525759
789.0,0.0713481533463054
788.0,0.06884736147670667
787.0,0.06656333217371957
786.0,0.06444235490698613
785.0,0.06248210798265341
784.0,0.06083032037482261
783.0,0.05933412752417122
782.0,0.05784307153250956
781.0,0.05650548409389744
780.0,0.055270639696704205
779.0,0.054088483180726676
778.0,0.05286048235717078
777.0,0.05173378011970464
776.0,0.05065879322950262
775.0,0.04953778109440221
774.0,0.04837110616336182
773.0,0.04725597598510167
772.0,0.04609540658654021
771.0,0.04484161307420642
770.0,0.04344740808260106
769.0,0.04210551278710151
768.0,0.04072004986906119
767.0,0.039338992729018196
766.0,0.03796231343498735
765.0,0.036731748473764814
764.0,0.03559892883726867
763.0,0.03442204208947208
762.0,0.033154576345083564
761.0,0.031984286006358165
760.0,0.030863766403287585
759.0,0.029792641193145286
758.0,0.02872415126189476
757.0,0.027750864037404455
756.0,0.02691835039863255
755.0,0.02617967564731627
754.0,0.025488307262671706
753.0,0.024936003904763915
752.0,0.024522236834125355
751.0,0.02406295751688936
750.0,0.02365002099672653
749.0,0.02351246269481
748.0,0.023741750742954926
747.0,0.024338466818941473
746.0,0.025350165561278004
745.0,0.027149444152769986
744.0,0.029932203450862893
743.0,0.03409308450480819
742.0,0.04010041213405646
741.0,0.04866248120408234
740.0,0.06033101647767336
739.0,0.07520400420208784
738.0,0.09312646527792956
737.0,0.11407366019856902
736.0,0.13763006287711765
735.0,0.16291684917681404
734.0,0.18943147078358713
733.0,0.21709759402535544
732.0,0.24634035271400134
731.0,0.2772016031290947
730.0,0.3101585908624953
729.0,0.34620881261218805
728.0,0.3847866651986416
727.0,0.4223933226374643
726.0,0.45432185020797444
725.0,0.4757337312330212
724.0,0.48399376961395224
723.0,0.47912361831165806
722.0,0.4649591867488394
721.0,0.4463596637686458
720.0,0.4262004177842593
719.0,0.4049449102406961
718.0,0.38237070224215786
717.0,0.3597173703033192
716.0,0.3375254962496905
715.0,0.3166827380781174
714.0,0.2979142785641751
713.0,0.2819968317329824
712.0,0.2688142923659995
711.0,0.2572748686953017
710.0,0.2467234298155816
709.0,0.23702150913225695
708.0,0.22819212100089437
707.0,0.21989880853208832
706.0,0.21204387671606817
705.0,0.20474581741911724
704.0,0.1980477651457182
703.0,0.19145144875959463
702.0,0.18468795647564096
701.0,0.17770112873763355
700.0,0.1705032502798176
699.0,0.16323295260579473
698.0,0.1562690348879079
697.0,0.1502121757623145
696.0,0.14520830594601453
695.0,0.14086170270546927
694.0,0.13697470377052956
693.0,0.13359450162194508
692.0,0.1305922506177981
691.0,0.1277271537757949
690.0,0.12482294018529605
689.0,0.12222565000860186
688.0,0.1201016756699902
687.0,0.11815903167507247
686.0,0.11628179803604044
685.0,0.11475189221861393
684.0,0.1138478180292033
683.0,0.11322735694556196
682.0,0.11272036546997688
681.0,0.11227020271196975
680.0,0.11182050608167504
679.0,0.11092250734993603
678.0,0.10941133229451272
677.0,0.1075158206353124
676.0,0.10546241500425357
675.0,0.1033635694704158
674.0,0.10116516193172598
673.0,0.09925064193892053
672.0,0.0978882765519955
671.0,0.09729018703012282
670.0,0.09712721455392082
669.0,0.09739886933346864
668.0,0.09799710864927058
667.0,0.09685572959046151
666.0,0.09398837472858723
665.0,0.09135416109288674
664.0,0.08980263003399913
663.0,0.08894897967187343
662.0,0.08820340956274775
661.0,0.08761850108119962
660.0,0.08719360733870762
659.0,0.08687520961044104
658.0,0.0867160982395816
657.0,0.0867691288864394
656.0,0.08682216600953208
655.0,0.086239113587677
654.0,0.08486409337798806
653.0,0.08317771540408803
652.0,0.08181233864107451
651.0,0.0809742354126397
650.0,0.08071265949561734
649.0,0.0809742354126397
648.0,0.08134070657817682
647.0,0.08134070657817682
646.0,0.08076496207674921
645.0,0.08003329851661278
644.0,0.0794071379151915
643.0,0.07872981449018734
642.0,0.07810552907089763
641.0,0.07779372256098371
640.0,0.07800156869172903
639.0,0.07852161962430992
638.0,0.07919861817434581
637.0,0.08029446545087904
636.0,0.08175990977858505
635.0,0.08344078069888616
634.0,0.08486409337798806
633.0,0.08581556657675371
632.0,0.08586848736910624
631.0,0.08470571697731355
630.0,0.08270459905431071
629.0,0.08086958613938555
628.0,0.07972010536705154
627.0,0.0788860261633193
626.0,0.07805354577058976
625.0,0.07727454200674
624.0,0.07680780957933253
623.0,0.07649693305789551
622.0,0.07618627890881036
621.0,0.07577241873988227
620.0,0.07515236702446293
619.0,0.07427547306393745
618.0,0.07334892291111106
617.0,0.07314329105030759
616.0,0.07370901311513656
615.0,0.07427547306393745
614.0,0.07448164182257
613.0,0.07443009045662374
612.0,0.07443009045662374
611.0,0.07422394616325367
610.0,0.07376047895413773
609.0,0.0732460948102629
608.0,0.07288638806623937
607.0,0.07252697900472405
606.0,0.07196279359311708
605.0,0.07139934015547578
604.0,0.07083661679493547
603.0,0.07022356719509815
602.0,0.06950943469373039
601.0,0.06925467168888666
600.0,0.06971335275448043
599.0,0.07022356719509815
598.0,0.07017251876930874
597.0,0.06976434723371505
596.0,0.06930561233546473
595.0,0.06864384953207203
594.0,0.0676277178520861
593.0,0.0666645899223488
592.0,0.06605739725873905
591.0,0.0654005617819271
590.0,0.06403953101083348
589.0,0.06218131530164395
588.0,0.05998184499233683
587.0,0.05729763111133224
586.0,0.05453141486818014
585.0,0.05232126006306337
584.0,0.05075640943173498
583.0,0.048808242065293994
582.0,0.04624030826677128
581.0,0.04397571771932274
580.0,0.042967683653061695
579.0,0.04210551278710151
578.0,0.039767126871487646
577.0,0.03578752703018084
576.0,0.03151705144606498
575.0,0.027750864037404455
574.0,0.023971159908874107
573.0,0.020087589665283012
572.0,0.017186237868137555
571.0,0.016734647433454652
570.0,0.01781925440359733
569.0,0.018271974638383703
568.0,0.01781925440359733
567.0,0.017050711425501408
566.0,0.015517693597737248
565.0,0.012825498912458322
564.0,0.01046119667949763
563.0,0.009883233932095559
562.0,0.009616741093766423
561.0,0.007313960837872058
560.0,0.0037510854308679953
559.0,0.0021769192542746563
558.0,0.0031819781204844855
557.0,0.004803708402820517
556.0,0.006828394969235152
555.0,0.011084479487313281
554.0,0.017095882207371904
553.0,0.021499930688540836
552.0,0.021363051615525652
551.0,0.016960383953898095
550.0,0.010817248744452446
549.0,0.005111204635089406
548.0,0.001304841688344327
547.0,0.0003910410285830057
546.0,0.0014355417390583547
545.0,0.0015226969634936083
544.0,-0.0005642161653756084
543.0,-0.0023820749327607693
542.0,-0.00043407747931878404
541.0,0.005726851026829571
540.0,0.013138729709955221
539.0,0.017955020928509757
538.0,0.018362575344230914
537.0,0.015742798294583915
536.0,0.013004460275618523
535.0,0.011931796607364653
534.0,0.0119764380713403
533.0,0.011708658092512314
532.0,0.011664044143949504
531.0,0.01318349541446362
530.0,0.016148281008528276
529.0,0.01831727262871463
528.0,0.018136109008649592
527.0,0.01547268665620738
526.0,0.010683695010048622
525.0,0.0043648054024501
524.0,-0.001257631312230778
523.0,-0.0032450548131470747
522.0,-0.0008243766056055257
521.0,0.0030944893043338695
520.0,0.005243055412371911
519.0,0.004759798137184523
518.0,0.0031819781204844855
517.0,0.002351545103793873
516.0,0.0033570086445275926
515.0,0.006079041198713275
514.0,0.00939478857608056
513.0,0.012021084124518078
512.0,0.014124642691606404
511.0,0.016148281008528276
510.0,0.01768353030793479
509.0,0.017909760704207134
508.0,0.016824927962187042
507.0,0.014663358264387139
506.0,0.010505687227290839
505.0,0.003794893821675638
504.0,-0.003503614742536687
503.0,-0.007278247334244092
502.0,-0.00552369267327979
501.0,-0.00030389978481260016
500.0,0.005199100705396198
499.0,0.009306039320248427
498.0,0.011441043121384498
497.0,0.011753276624621556
496.0,0.011931796607364653
495.0,0.01385553528947936
494.0,0.017231422748988034
493.0,0.01954210772389997
492.0,0.018906576854070378
491.0,0.016103208673694303
490.0,0.013138729709955221
489.0,0.011307297450183107
488.0,0.011129033935354915
487.0,0.012467797270160563
486.0,0.013990068146738865
485.0,0.014169510141607944
484.0,0.013362604389846044
483.0,0.013586594534531482
482.0,0.015742798294583915
481.0,0.018725167293411005
480.0,0.0211806132671577
479.0,0.022642270454698687
478.0,0.02255077261765881
477.0,0.02013307743509718
476.0,0.015922966097169144
475.0,0.012065734767841452
474.0,0.009927665307847056
473.0,0.008109696063975047
472.0,0.004671990922590297
471.0,-4.3427276862573194e-05
470.0,-0.003675902548784027
469.0,-0.0042353663594676405
468.0,-0.0010843812922201046
467.0,0.00484762310854614
466.0,0.010906307389674463
465.0,0.01403492169512921
464.0,0.01322826573375524
463.0,0.010283280051895272
462.0,0.007534852191956709
461.0,0.006343371384537999
460.0,0.007534852191956709
459.0,0.011753276624621556
458.0,0.01768353030793479
457.0,0.022413561996148967
456.0,0.024017056287453542
455.0,0.023283295636617574
454.0,0.0214542995372613
453.0,0.0190880622231564
452.0,0.016418813294209356
451.0,0.01547268665620738
450.0,0.01632861713980338
