cm-1,A
4000.0,0.0192
3999.0,0.0192
3998.0,0.0192
3997.0,0.0192
3996.0,0.0192
3995.0,0.0192
3994.0,0.0191
3993.0,0.0191
3992.0,0.0191
3991.0,0.0191
3990.0,0.0192
3989.0,0.0192
3988.0,0.0192
3987.0,0.0191
3986.0,0.0191
3985.0,0.0191
3984.0,0.0192
3983.0,0.0193
3982.0,0.0194
3981.0,0.0194
3980.0,0.0193
3979.0,0.0193
3978.0,0.0192
3977.0,0.0192
3976.0,0.0191
3975.0,0.0191
3974.0,0.0191
3973.0,0.0191
3972.0,0.0191
3971.0,0.019
3970.0,0.0191
3969.0,0.0192
3968.0,0.0193
3967.0,0.0194
3966.0,0.0194
3965.0,0.0194
3964.0,0.0193
3963.0,0.0193
3962.0,0.0194
3961.0,0.0194
3960.0,0.0195
3959.0,0.0195
3958.0,0.0194
3957.0,0.0193
3956.0,0.0192
3955.0,0.0192
3954.0,0.0191
3953.0,0.0191
3952.0,0.0191
3951.0,0.0191
3950.0,0.0191
3949.0,0.0192
3948.0,0.0192
3947.0,0.0192
3946.0,0.0192
3945.0,0.0192
3944.0,0.0192
3943.0,0.0191
3942.0,0.019
3941.0,0.0191
3940.0,0.0192
3939.0,0.0194
3938.0,0.0195
3937.0,0.0195
3936.0,0.0196
3935.0,0.0195
3934.0,0.0195
3933.0,0.0194
3932.0,0.0193
3931.0,0.0192
3930.0,0.0192
3929.0,0.0193
3928.0,0.0194
3927.0,0.0195
3926.0,0.0195
3925.0,0.0194
3924.0,0.0194
3923.0,0.0194
3922.0,0.0194
3921.0,0.0193
3920.0,0.0193
3919.0,0.0193
3918.0,0.0194
3917.0,0.0194
3916.0,0.0194
3915.0,0.0194
3914.0,0.0195
3913.0,0.0196
3912.0,0.0196
3911.0,0.0196
3910.0,0.0196
3909.0,0.0195
3908.0,0.0194
3907.0,0.0193
3906.0,0.0192
3905.0,0.0193
3904.0,0.0194
3903.0,0.0195
3902.0,0.0196
3901.0,0.0197
3900.0,0.0197
3899.0,0.0196
3898.0,0.0195
3897.0,0.0195
3896.0,0.0196
3895.0,0.0196
3894.0,0.0196
3893.0,0.0196
3892.0,0.0196
3891.0,0.0195
3890.0,0.0195
3889.0,0.0196
3888.0,0.0197
3887.0,0.0198
3886.0,0.0196
3885.0,0.0194
3884.0,0.0193
3883.0,0.0193
3882.0,0.0194
3881.0,0.0195
3880.0,0.0194
3879.0,0.0194
3878.0,0.0195
3877.0,0.0195
3876.0,0.0194
3875.0,0.0192
3874.0,0.0191
3873.0,0.019
3872.0,0.0191
3871.0,0.0193
3870.0,0.0193
3869.0,0.0194
3868.0,0.0195
3867.0,0.0197
3866.0,0.0197
3865.0,0.0196
3864.0,0.0195
3863.0,0.0195
3862.0,0.0196
3861.0,0.0197
3860.0,0.0198
3859.0,0.0198
3858.0,0.0197
3857.0,0.0196
3856.0,0.0195
3855.0,0.0197
3854.0,0.0199
3853.0,0.0196
3852.0,0.0193
3851.0,0.0195
3850.0,0.0198
3849.0,0.02
3848.0,0.02
3847.0,0.0201
3846.0,0.0201
3845.0,0.02
3844.0,0.0199
3843.0,0.0197
3842.0,0.0197
3841.0,0.0198
3840.0,0.0199
3839.0,0.0199
3838.0,0.0198
3837.0,0.0196
3836.0,0.0196
3835.0,0.0198
3834.0,0.0201
3833.0,0.0202
3832.0,0.0203
3831.0,0.0202
3830.0,0.0202
3829.0,0.0202
3828.0,0.0202
3827.0,0.02
3826.0,0.0199
3825.0,0.0198
3824.0,0.0198
3823.0,0.0199
3822.0,0.02
3821.0,0.0199
3820.0,0.0198
3819.0,0.02
3818.0,0.0202
3817.0,0.0203
3816.0,0.0203
3815.0,0.0202
3814.0,0.0202
3813.0,0.0203
3812.0,0.0203
3811.0,0.0201
3810.0,0.02
3809.0,0.0199
3808.0,0.02
3807.0,0.0199
3806.0,0.0199
3805.0,0.0201
3804.0,0.0203
3803.0,0.0204
3802.0,0.0203
3801.0,0.0201
3800.0,0.02
3799.0,0.0201
3798.0,0.0203
3797.0,0.0204
3796.0,0.0204
3795.0,0.0204
3794.0,0.0205
3793.0,0.0206
3792.0,0.0206
3791.0,0.0206
3790.0,0.0206
3789.0,0.0205
3788.0,0.0204
3787.0,0.0203
3786.0,0.0203
3785.0,0.0203
3784.0,0.0203
3783.0,0.0202
3782.0,0.0202
3781.0,0.0201
3780.0,0.0201
3779.0,0.0201
3778.0,0.0202
3777.0,0.0203
3776.0,0.0203
3775.0,0.0202
3774.0,0.0202
3773.0,0.0202
3772.0,0.0203
3771.0,0.0204
3770.0,0.0204
3769.0,0.0204
3768.0,0.0204
3767.0,0.0205
3766.0,0.0204
3765.0,0.0203
3764.0,0.0203
3763.0,0.0203
3762.0,0.0203
3761.0,0.0203
3760.0,0.0204
3759.0,0.0205
3758.0,0.0205
3757.0,0.0204
3756.0,0.0203
3755.0,0.0201
3754.0,0.02
3753.0,0.02
3752.0,0.0204
3751.0,0.0208
3750.0,0.0208
3749.0,0.0205
3748.0,0.0205
3747.0,0.0206
3746.0,0.0208
3745.0,0.0209
3744.0,0.0207
3743.0,0.0206
3742.0,0.0208
3741.0,0.0209
3740.0,0.0209
3739.0,0.0209
3738.0,0.0209
3737.0,0.021
3736.0,0.0212
3735.0,0.0212
3734.0,0.0211
3733.0,0.021
3732.0,0.0209
3731.0,0.0209
3730.0,0.0211
3729.0,0.0213
3728.0,0.0214
3727.0,0.0214
3726.0,0.0214
3725.0,0.0213
3724.0,0.0212
3723.0,0.0212
3722.0,0.0211
3721.0,0.0211
3720.0,0.021
3719.0,0.021
3718.0,0.0209
3717.0,0.0208
3716.0,0.0208
3715.0,0.0207
3714.0,0.0207
3713.0,0.021
3712.0,0.0214
3711.0,0.0216
3710.0,0.0216
3709.0,0.0215
3708.0,0.0213
3707.0,0.0212
3706.0,0.021
3705.0,0.0209
3704.0,0.0207
3703.0,0.0207
3702.0,0.0208
3701.0,0.0209
3700.0,0.021
3699.0,0.0212
3698.0,0.0213
3697.0,0.0213
3696.0,0.0213
3695.0,0.0213
3694.0,0.0214
3693.0,0.0214
3692.0,0.0214
3691.0,0.0214
3690.0,0.0215
3689.0,0.0215
3688.0,0.0215
3687.0,0.0216
3686.0,0.0218
3685.0,0.022
3684.0,0.022
3683.0,0.0219
3682.0,0.0219
3681.0,0.0218
3680.0,0.0217
3679.0,0.0216
3678.0,0.0216
3677.0,0.0216
3676.0,0.0216
3675.0,0.0214
3674.0,0.0214
3673.0,0.0217
3672.0,0.0219
3671.0,0.0221
3670.0,0.0221
3669.0,0.0222
3668.0,0.0223
3667.0,0.0225
3666.0,0.0226
3665.0,0.0226
3664.0,0.0226
3663.0,0.0226
3662.0,0.0226
3661.0,0.0226
3660.0,0.0227
3659.0,0.0228
3658.0,0.023
3657.0,0.0231
3656.0,0.0231
3655.0,0.0231
3654.0,0.0231
3653.0,0.0231
3652.0,0.023
3651.0,0.0231
3650.0,0.0233
3649.0,0.0232
3648.0,0.023
3647.0,0.023
3646.0,0.0233
3645.0,0.0236
3644.0,0.0239
3643.0,0.024
3642.0,0.0241
3641.0,0.0241
3640.0,0.0242
3639.0,0.0243
3638.0,0.0244
3637.0,0.0245
3636.0,0.0246
3635.0,0.0247
3634.0,0.0247
3633.0,0.0247
3632.0,0.0246
3631.0,0.0246
3630.0,0.0248
3629.0,0.025
3628.0,0.025
3627.0,0.025
3626.0,0.0252
3625.0,0.0253
3624.0,0.0252
3623.0,0.025
3622.0,0.0249
3621.0,0.0248
3620.0,0.0249
3619.0,0.0249
3618.0,0.0249
3617.0,0.025
3616.0,0.0251
3615.0,0.0253
3614.0,0.0254
3613.0,0.0254
3612.0,0.0254
3611.0,0.0255
3610.0,0.0256
3609.0,0.0257
3608.0,0.0258
3607.0,0.0258
3606.0,0.0258
3605.0,0.0258
3604.0,0.0257
3603.0,0.0256
3602.0,0.0256
3601.0,0.0257
3600.0,0.0257
3599.0,0.0258
3598.0,0.0259
3597.0,0.026
3596.0,0.0261
3595.0,0.0261
3594.0,0.0261
3593.0,0.0261
3592.0,0.0261
3591.0,0.0261
3590.0,0.026
3589.0,0.026
3588.0,0.0261
3587.0,0.0262
3586.0,0.0263
3585.0,0.0265
3584.0,0.0266
3583.0,0.0267
3582.0,0.0268
3581.0,0.0268
3580.0,0.0269
3579.0,0.0269
3578.0,0.027
3577.0,0.0271
3576.0,0.0271
3575.0,0.0272
3574.0,0.0273
3573.0,0.0273
3572.0,0.0273
3571.0,0.0272
3570.0,0.027
3569.0,0.0269
3568.0,0.0271
3567.0,0.0273
3566.0,0.0275
3565.0,0.0276
3564.0,0.0277
3563.0,0.0278
3562.0,0.0279
3561.0,0.028
3560.0,0.0282
3559.0,0.0283
3558.0,0.0285
3557.0,0.0286
3556.0,0.0287
3555.0,0.0286
3554.0,0.0286
3553.0,0.0286
3552.0,0.0287
3551.0,0.0288
3550.0,0.0289
3549.0,0.0289
3548.0,0.0288
3547.0,0.0289
3546.0,0.029
3545.0,0.0292
3544.0,0.0293
3543.0,0.0294
3542.0,0.0295
3541.0,0.0294
3540.0,0.0294
3539.0,0.0294
3538.0,0.0295
3537.0,0.0296
3536.0,0.0296
3535.0,0.0296
3534.0,0.0296
3533.0,0.0296
3532.0,0.0295
3531.0,0.0296
3530.0,0.0297
3529.0,0.0298
3528.0,0.0298
3527.0,0.0298
3526.0,0.0298
3525.0,0.0299
3524.0,0.0299
3523.0,0.03
3522.0,0.0299
3521.0,0.0299
3520.0,0.0298
3519.0,0.0298
3518.0,0.0298
3517.0,0.0299
3516.0,0.03
3515.0,0.0301
3514.0,0.0302
3513.0,0.0302
3512.0,0.0302
3511.0,0.0303
3510.0,0.0303
3509.0,0.0304
3508.0,0.0304
3507.0,0.0304
3506.0,0.0304
3505.0,0.0304
3504.0,0.0304
3503.0,0.0305
3502.0,0.0305
3501.0,0.0305
3500.0,0.0305
3499.0,0.0306
3498.0,0.0307
3497.0,0.0308
3496.0,0.0309
3495.0,0.031
3494.0,0.031
3493.0,0.031
3492.0,0.031
3491.0,0.031
3490.0,0.031
3489.0,0.0311
3488.0,0.0311
3487.0,0.0311
3486.0,0.0312
3485.0,0.0312
3484.0,0.0312
3483.0,0.0311
3482.0,0.031
3481.0,0.031
3480.0,0.0311
3479.0,0.0312
3478.0,0.0313
3477.0,0.0313
3476.0,0.0313
3475.0,0.0313
3474.0,0.0314
3473.0,0.0314
3472.0,0.0315
3471.0,0.0315
3470.0,0.0314
3469.0,0.0314
3468.0,0.0315
3467.0,0.0316
3466.0,0.0318
3465.0,0.032
3464.0,0.0322
3463.0,0.0323
3462.0,0.0323
3461.0,0.0323
3460.0,0.0324
3459.0,0.0324
3458.0,0.0325
3457.0,0.0326
3456.0,0.0327
3455.0,0.0327
3454.0,0.0328
3453.0,0.0329
3452.0,0.033
3451.0,0.0331
3450.0,0.0333
3449.0,0.0334
3448.0,0.0335
3447.0,0.0336
3446.0,0.0337
3445.0,0.0338
3444.0,0.0339
3443.0,0.0341
3442.0,0.0341
3441.0,0.0342
3440.0,0.0342
3439.0,0.0342
3438.0,0.0341
3437.0,0.0341
3436.0,0.0343
3435.0,0.0345
3434.0,0.0347
3433.0,0.0349
3432.0,0.035
3431.0,0.0349
3430.0,0.0347
3429.0,0.0346
3428.0,0.0346
3427.0,0.0346
3426.0,0.0347
3425.0,0.0348
3424.0,0.0349
3423.0,0.035
3422.0,0.035
3421.0,0.035
3420.0,0.035
3419.0,0.035
3418.0,0.035
3417.0,0.0349
3416.0,0.0347
3415.0,0.0346
3414.0,0.0344
3413.0,0.0343
3412.0,0.0343
3411.0,0.0343
3410.0,0.0342
3409.0,0.0342
3408.0,0.0342
3407.0,0.0341
3406.0,0.0341
3405.0,0.0339
3404.0,0.0338
3403.0,0.0337
3402.0,0.0336
3401.0,0.0336
3400.0,0.0336
3399.0,0.0335
3398.0,0.0334
3397.0,0.0334
3396.0,0.0335
3395.0,0.0336
3394.0,0.0336
3393.0,0.0335
3392.0,0.0334
3391.0,0.0334
3390.0,0.0335
3389.0,0.0335
3388.0,0.0334
3387.0,0.0334
3386.0,0.0333
3385.0,0.0333
3384.0,0.0334
3383.0,0.0334
3382.0,0.0334
3381.0,0.0334
3380.0,0.0333
3379.0,0.0332
3378.0,0.0332
3377.0,0.0331
3376.0,0.0331
3375.0,0.0332
3374.0,0.0332
3373.0,0.0332
3372.0,0.0333
3371.0,0.0332
3370.0,0.0332
3369.0,0.0332
3368.0,0.0331
3367.0,0.0331
3366.0,0.033
3365.0,0.033
3364.0,0.0329
3363.0,0.0329
3362.0,0.0329
3361.0,0.0329
3360.0,0.0329
3359.0,0.0328
3358.0,0.0328
3357.0,0.0328
3356.0,0.0328
3355.0,0.0329
3354.0,0.0329
3353.0,0.0329
3352.0,0.0328
3351.0,0.0327
3350.0,0.0327
3349.0,0.0328
3348.0,0.0329
3347.0,0.0329
3346.0,0.0329
3345.0,0.0328
3344.0,0.0327
3343.0,0.0326
3342.0,0.0326
3341.0,0.0325
3340.0,0.0325
3339.0,0.0326
3338.0,0.0325
3337.0,0.0325
3336.0,0.0324
3335.0,0.0323
3334.0,0.0323
3333.0,0.0323
3332.0,0.0323
3331.0,0.0324
3330.0,0.0325
3329.0,0.0324
3328.0,0.0323
3327.0,0.0322
3326.0,0.0321
3325.0,0.032
3324.0,0.032
3323.0,0.032
3322.0,0.0319
3321.0,0.0319
3320.0,0.0318
3319.0,0.0318
3318.0,0.0317
3317.0,0.0317
3316.0,0.0317
3315.0,0.0316
3314.0,0.0316
3313.0,0.0315
3312.0,0.0315
3311.0,0.0315
3310.0,0.0314
3309.0,0.0314
3308.0,0.0314
3307.0,0.0314
3306.0,0.0315
3305.0,0.0315
3304.0,0.0315
3303.0,0.0316
3302.0,0.0317
3301.0,0.0316
3300.0,0.0315
3299.0,0.0314
3298.0,0.0314
3297.0,0.0313
3296.0,0.0313
3295.0,0.0312
3294.0,0.0311
3293.0,0.0309
3292.0,0.0308
3291.0,0.0307
3290.0,0.0307
3289.0,0.0308
3288.0,0.0309
3287.0,0.031
3286.0,0.031
3285.0,0.031
3284.0,0.0309
3283.0,0.0308
3282.0,0.0307
3281.0,0.0307
3280.0,0.0307
3279.0,0.0307
3278.0,0.0307
3277.0,0.0307
3276.0,0.0307
3275.0,0.0306
3274.0,0.0305
3273.0,0.0305
3272.0,0.0305
3271.0,0.0305
3270.0,0.0304
3269.0,0.0304
3268.0,0.0303
3267.0,0.0303
3266.0,0.0303
3265.0,0.0303
3264.0,0.0301
3263.0,0.03
3262.0,0.0299
3261.0,0.0299
3260.0,0.0299
3259.0,0.0299
3258.0,0.0299
3257.0,0.0299
3256.0,0.0298
3255.0,0.0299
3254.0,0.0299
3253.0,0.0298
3252.0,0.0298
3251.0,0.0297
3250.0,0.0297
3249.0,0.0297
3248.0,0.0297
3247.0,0.0297
3246.0,0.0296
3245.0,0.0296
3244.0,0.0296
3243.0,0.0296
3242.0,0.0295
3241.0,0.0294
3240.0,0.0293
3239.0,0.0293
3238.0,0.0293
3237.0,0.0293
3236.0,0.0293
3235.0,0.0294
3234.0,0.0295
3233.0,0.0295
3232.0,0.0295
3231.0,0.0294
3230.0,0.0293
3229.0,0.0292
3228.0,0.0293
3227.0,0.0294
3226.0,0.0294
3225.0,0.0294
3224.0,0.0294
3223.0,0.0293
3222.0,0.0292
3221.0,0.0291
3220.0,0.0291
3219.0,0.0291
3218.0,0.029
3217.0,0.029
3216.0,0.029
3215.0,0.029
3214.0,0.029
3213.0,0.0288
3212.0,0.0287
3211.0,0.0286
3210.0,0.0285
3209.0,0.0285
3208.0,0.0284
3207.0,0.0284
3206.0,0.0283
3205.0,0.0283
3204.0,0.0283
3203.0,0.0283
3202.0,0.0283
3201.0,0.0283
3200.0,0.0282
3199.0,0.0282
3198.0,0.0282
3197.0,0.0281
3196.0,0.028
3195.0,0.0279
3194.0,0.0278
3193.0,0.0278
3192.0,0.0277
3191.0,0.0278
3190.0,0.0278
3189.0,0.0277
3188.0,0.0277
3187.0,0.0276
3186.0,0.0275
3185.0,0.0274
3184.0,0.0273
3183.0,0.0273
3182.0,0.0273
3181.0,0.0272
3180.0,0.0272
3179.0,0.0272
3178.0,0.0271
3177.0,0.0271
3176.0,0.0271
3175.0,0.027
3174.0,0.027
3173.0,0.027
3172.0,0.027
3171.0,0.0269
3170.0,0.0269
3169.0,0.0269
3168.0,0.0268
3167.0,0.0268
3166.0,0.0268
3165.0,0.0267
3164.0,0.0266
3163.0,0.0266
3162.0,0.0265
3161.0,0.0265
3160.0,0.0265
3159.0,0.0266
3158.0,0.0266
3157.0,0.0265
3156.0,0.0265
3155.0,0.0264
3154.0,0.0265
3153.0,0.0265
3152.0,0.0265
3151.0,0.0265
3150.0,0.0264
3149.0,0.0264
3148.0,0.0264
3147.0,0.0264
3146.0,0.0264
3145.0,0.0264
3144.0,0.0264
3143.0,0.0263
3142.0,0.0262
3141.0,0.0262
3140.0,0.0263
3139.0,0.0264
3138.0,0.0265
3137.0,0.0266
3136.0,0.0265
3135.0,0.0265
3134.0,0.0264
3133.0,0.0264
3132.0,0.0264
3131.0,0.0264
3130.0,0.0264
3129.0,0.0264
3128.0,0.0264
3127.0,0.0264
3126.0,0.0264
3125.0,0.0264
3124.0,0.0264
3123.0,0.0264
3122.0,0.0263
3121.0,0.0263
3120.0,0.0262
3119.0,0.0261
3118.0,0.0261
3117.0,0.0262
3116.0,0.0262
3115.0,0.0263
3114.0,0.0263
3113.0,0.0263
3112.0,0.0263
3111.0,0.0263
3110.0,0.0263
3109.0,0.0264
3108.0,0.0266
3107.0,0.0267
3106.0,0.0268
3105.0,0.0269
3104.0,0.0269
3103.0,0.0269
3102.0,0.0269
3101.0,0.0268
3100.0,0.0267
3099.0,0.0266
3098.0,0.0265
3097.0,0.0265
3096.0,0.0265
3095.0,0.0265
3094.0,0.0265
3093.0,0.0265
3092.0,0.0265
3091.0,0.0265
3090.0,0.0265
3089.0,0.0266
3088.0,0.0267
3087.0,0.0268
3086.0,0.0269
3085.0,0.0269
3084.0,0.0269
3083.0,0.0269
3082.0,0.0269
3081.0,0.027
3080.0,0.0271
3079.0,0.0272
3078.0,0.0273
3077.0,0.0273
3076.0,0.0272
3075.0,0.0272
3074.0,0.0272
3073.0,0.0272
3072.0,0.0272
3071.0,0.0271
3070.0,0.0271
3069.0,0.0271
3068.0,0.027
3067.0,0.027
3066.0,0.027
3065.0,0.0269
3064.0,0.0269
3063.0,0.0268
3062.0,0.0267
3061.0,0.0267
3060.0,0.0267
3059.0,0.0267
3058.0,0.0268
3057.0,0.0269
3056.0,0.027
3055.0,0.027
3054.0,0.0271
3053.0,0.0271
3052.0,0.027
3051.0,0.0269
3050.0,0.0268
3049.0,0.0265
3048.0,0.0262
3047.0,0.026
3046.0,0.0257
3045.0,0.0255
3044.0,0.0253
3043.0,0.0251
3042.0,0.025
3041.0,0.0248
3040.0,0.0247
3039.0,0.0246
3038.0,0.0245
3037.0,0.0245
3036.0,0.0245
3035.0,0.0245
3034.0,0.0245
3033.0,0.0246
3032.0,0.0246
3031.0,0.0246
3030.0,0.0246
3029.0,0.0246
3028.0,0.0246
3027.0,0.0246
3026.0,0.0247
3025.0,0.0247
3024.0,0.0247
3023.0,0.0247
3022.0,0.0248
3021.0,0.0248
3020.0,0.025
3019.0,0.0251
3018.0,0.0253
3017.0,0.0254
3016.0,0.0256
3015.0,0.0257
3014.0,0.0258
3013.0,0.0259
3012.0,0.026
3011.0,0.0261
3010.0,0.0262
3009.0,0.0263
3008.0,0.0264
3007.0,0.0265
3006.0,0.0267
3005.0,0.0268
3004.0,0.0269
3003.0,0.0269
3002.0,0.0269
3001.0,0.027
3000.0,0.0271
2999.0,0.0272
2998.0,0.0274
2997.0,0.0276
2996.0,0.0277
2995.0,0.0277
2994.0,0.0278
2993.0,0.0279
2992.0,0.028
2991.0,0.0282
2990.0,0.0283
2989.0,0.0285
2988.0,0.0287
2987.0,0.0289
2986.0,0.0291
2985.0,0.0293
2984.0,0.0295
2983.0,0.0298
2982.0,0.03
2981.0,0.0303
2980.0,0.0306
2979.0,0.0309
2978.0,0.0312
2977.0,0.0315
2976.0,0.0318
2975.0,0.0321
2974.0,0.0325
2973.0,0.0329
2972.0,0.0333
2971.0,0.0336
2970.0,0.0341
2969.0,0.0345
2968.0,0.035
2967.0,0.0355
2966.0,0.0359
2965.0,0.0363
2964.0,0.0367
2963.0,0.037
2962.0,0.0372
2961.0,0.0374
2960.0,0.0375
2959.0,0.0376
2958.0,0.0376
2957.0,0.0376
2956.0,0.0375
2955.0,0.0374
2954.0,0.0372
2953.0,0.0369
2952.0,0.0365
2951.0,0.0361
2950.0,0.0357
2949.0,0.0353
2948.0,0.0349
2947.0,0.0345
2946.0,0.034
2945.0,0.0335
2944.0,0.0329
2943.0,0.0324
2942.0,0.0319
2941.0,0.0315
2940.0,0.031
2939.0,0.0306
2938.0,0.0302
2937.0,0.0299
2936.0,0.0296
2935.0,0.0294
2934.0,0.0291
2933.0,0.0289
2932.0,0.0287
2931.0,0.0286
2930.0,0.0285
2929.0,0.0285
2928.0,0.0285
2927.0,0.0285
2926.0,0.0283
2925.0,0.0282
2924.0,0.028
2923.0,0.0279
2922.0,0.0278
2921.0,0.0278
2920.0,0.0278
2919.0,0.0278
2918.0,0.0277
2917.0,0.0277
2916.0,0.0276
2915.0,0.0276
2914.0,0.0276
2913.0,0.0277
2912.0,0.0278
2911.0,0.0279
2910.0,0.028
2909.0,0.028
2908.0,0.028
2907.0,0.028
2906.0,0.0281
2905.0,0.0281
2904.0,0.0281
2903.0,0.028
2902.0,0.028
2901.0,0.028
2900.0,0.0281
2899.0,0.0282
2898.0,0.0283
2897.0,0.0284
2896.0,0.0284
2895.0,0.0284
2894.0,0.0285
2893.0,0.0285
2892.0,0.0286
2891.0,0.0286
2890.0,0.0287
2889.0,0.0287
2888.0,0.0286
2887.0,0.0285
2886.0,0.0284
2885.0,0.0284
2884.0,0.0283
2883.0,0.0283
2882.0,0.0282
2881.0,0.028
2880.0,0.0278
2879.0,0.0277
2878.0,0.0276
2877.0,0.0276
2876.0,0.0275
2875.0,0.0275
2874.0,0.0275
2873.0,0.0275
2872.0,0.0275
2871.0,0.0274
2870.0,0.0273
2869.0,0.0273
2868.0,0.0272
2867.0,0.0271
2866.0,0.027
2865.0,0.027
2864.0,0.027
2863.0,0.0269
2862.0,0.0269
2861.0,0.027
2860.0,0.027
2859.0,0.0271
2858.0,0.0271
2857.0,0.027
2856.0,0.0269
2855.0,0.0267
2854.0,0.0266
2853.0,0.0265
2852.0,0.0264
2851.0,0.0262
2850.0,0.026
2849.0,0.0258
2848.0,0.0257
2847.0,0.0256
2846.0,0.0255
2845.0,0.0253
2844.0,0.0252
2843.0,0.025
2842.0,0.0249
2841.0,0.0248
2840.0,0.0248
2839.0,0.0248
2838.0,0.0248
2837.0,0.0247
2836.0,0.0247
2835.0,0.0246
2834.0,0.0245
2833.0,0.0245
2832.0,0.0244
2831.0,0.0244
2830.0,0.0244
2829.0,0.0244
2828.0,0.0244
2827.0,0.0243
2826.0,0.0243
2825.0,0.0242
2824.0,0.0241
2823.0,0.024
2822.0,0.0239
2821.0,0.0238
2820.0,0.0238
2819.0,0.0239
2818.0,0.0239
2817.0,0.0239
2816.0,0.0238
2815.0,0.0238
2814.0,0.0237
2813.0,0.0237
2812.0,0.0237
2811.0,0.0237
2810.0,0.0237
2809.0,0.0236
2808.0,0.0236
2807.0,0.0236
2806.0,0.0236
2805.0,0.0236
2804.0,0.0236
2803.0,0.0236
2802.0,0.0236
2801.0,0.0236
2800.0,0.0236
2799.0,0.0235
2798.0,0.0235
2797.0,0.0234
2796.0,0.0234
2795.0,0.0234
2794.0,0.0233
2793.0,0.0233
2792.0,0.0232
2791.0,0.0232
2790.0,0.0233
2789.0,0.0234
2788.0,0.0234
2787.0,0.0234
2786.0,0.0233
2785.0,0.0231
2784.0,0.023
2783.0,0.023
2782.0,0.023
2781.0,0.023
2780.0,0.0231
2779.0,0.023
2778.0,0.023
2777.0,0.023
2776.0,0.0229
2775.0,0.0229
2774.0,0.0228
2773.0,0.0228
2772.0,0.0229
2771.0,0.023
2770.0,0.023
2769.0,0.0231
2768.0,0.023
2767.0,0.023
2766.0,0.0229
2765.0,0.0229
2764.0,0.0229
2763.0,0.0228
2762.0,0.0228
2761.0,0.0228
2760.0,0.0229
2759.0,0.0229
2758.0,0.0229
2757.0,0.0228
2756.0,0.0228
2755.0,0.0227
2754.0,0.0227
2753.0,0.0227
2752.0,0.0227
2751.0,0.0226
2750.0,0.0226
2749.0,0.0226
2748.0,0.0226
2747.0,0.0226
2746.0,0.0226
2745.0,0.0226
2744.0,0.0226
2743.0,0.0226
2742.0,0.0226
2741.0,0.0225
2740.0,0.0224
2739.0,0.0223
2738.0,0.0223
2737.0,0.0223
2736.0,0.0223
2735.0,0.0223
2734.0,0.0222
2733.0,0.0222
2732.0,0.0222
2731.0,0.0222
2730.0,0.0222
2729.0,0.0221
2728.0,0.0221
2727.0,0.022
2726.0,0.0219
2725.0,0.0219
2724.0,0.0219
2723.0,0.0219
2722.0,0.0219
2721.0,0.022
2720.0,0.022
2719.0,0.0219
2718.0,0.0219
2717.0,0.0219
2716.0,0.0219
2715.0,0.0218
2714.0,0.0218
2713.0,0.0217
2712.0,0.0217
2711.0,0.0218
2710.0,0.0218
2709.0,0.0218
2708.0,0.0218
2707.0,0.0217
2706.0,0.0217
2705.0,0.0217
2704.0,0.0217
2703.0,0.0217
2702.0,0.0218
2701.0,0.0218
2700.0,0.0218
2699.0,0.0218
2698.0,0.0218
2697.0,0.0218
2696.0,0.0217
2695.0,0.0217
2694.0,0.0216
2693.0,0.0215
2692.0,0.0215
2691.0,0.0215
2690.0,0.0215
2689.0,0.0215
2688.0,0.0214
2687.0,0.0214
2686.0,0.0213
2685.0,0.0212
2684.0,0.0211
2683.0,0.0212
2682.0,0.0212
2681.0,0.0213
2680.0,0.0213
2679.0,0.0213
2678.0,0.0213
2677.0,0.0213
2676.0,0.0213
2675.0,0.0213
2674.0,0.0212
2673.0,0.0211
2672.0,0.0211
2671.0,0.0211
2670.0,0.0211
2669.0,0.0211
2668.0,0.0212
2667.0,0.0212
2666.0,0.0212
2665.0,0.0212
2664.0,0.0211
2663.0,0.0211
2662.0,0.021
2661.0,0.0209
2660.0,0.0209
2659.0,0.0209
2658.0,0.0209
2657.0,0.021
2656.0,0.0211
2655.0,0.0211
2654.0,0.021
2653.0,0.021
2652.0,0.021
2651.0,0.0211
2650.0,0.0211
2649.0,0.0211
2648.0,0.0211
2647.0,0.0211
2646.0,0.0211
2645.0,0.021
2644.0,0.021
2643.0,0.0209
2642.0,0.0209
2641.0,0.021
2640.0,0.021
2639.0,0.0211
2638.0,0.0211
2637.0,0.0211
2636.0,0.0211
2635.0,0.0211
2634.0,0.0211
2633.0,0.0212
2632.0,0.0211
2631.0,0.0211
2630.0,0.021
2629.0,0.0211
2628.0,0.0211
2627.0,0.0212
2626.0,0.0212
2625.0,0.0211
2624.0,0.0211
2623.0,0.021
2622.0,0.021
2621.0,0.021
2620.0,0.021
2619.0,0.021
2618.0,0.0211
2617.0,0.0211
2616.0,0.0211
2615.0,0.0211
2614.0,0.021
2613.0,0.0209
2612.0,0.0208
2611.0,0.0208
2610.0,0.0208
2609.0,0.0209
2608.0,0.0209
2607.0,0.021
2606.0,0.021
2605.0,0.021
2604.0,0.021
2603.0,0.021
2602.0,0.021
2601.0,0.021
2600.0,0.021
2599.0,0.021
2598.0,0.0209
2597.0,0.0209
2596.0,0.0208
2595.0,0.0209
2594.0,0.0209
2593.0,0.0209
2592.0,0.0209
2591.0,0.0209
2590.0,0.0208
2589.0,0.0208
2588.0,0.0208
2587.0,0.0208
2586.0,0.0208
2585.0,0.0208
2584.0,0.0208
2583.0,0.0208
2582.0,0.0208
2581.0,0.0209
2580.0,0.0209
2579.0,0.021
2578.0,0.021
2577.0,0.021
2576.0,0.021
2575.0,0.021
2574.0,0.021
2573.0,0.0209
2572.0,0.0209
2571.0,0.0208
2570.0,0.0208
2569.0,0.0207
2568.0,0.0208
2567.0,0.0208
2566.0,0.0209
2565.0,0.0209
2564.0,0.0209
2563.0,0.0209
2562.0,0.021
2561.0,0.0209
2560.0,0.0209
2559.0,0.0208
2558.0,0.0207
2557.0,0.0207
2556.0,0.0207
2555.0,0.0207
2554.0,0.0207
2553.0,0.0207
2552.0,0.0207
2551.0,0.0207
2550.0,0.0207
2549.0,0.0208
2548.0,0.0208
2547.0,0.0208
2546.0,0.0209
2545.0,0.0209
2544.0,0.0209
2543.0,0.0208
2542.0,0.0208
2541.0,0.0207
2540.0,0.0206
2539.0,0.0206
2538.0,0.0206
2537.0,0.0206
2536.0,0.0206
2535.0,0.0206
2534.0,0.0206
2533.0,0.0206
2532.0,0.0206
2531.0,0.0206
2530.0,0.0206
2529.0,0.0206
2528.0,0.0206
2527.0,0.0207
2526.0,0.0207
2525.0,0.0206
2524.0,0.0206
2523.0,0.0206
2522.0,0.0207
2521.0,0.0206
2520.0,0.0206
2519.0,0.0206
2518.0,0.0205
2517.0,0.0205
2516.0,0.0205
2515.0,0.0205
2514.0,0.0205
2513.0,0.0205
2512.0,0.0205
2511.0,0.0206
2510.0,0.0206
2509.0,0.0205
2508.0,0.0205
2507.0,0.0204
2506.0,0.0204
2505.0,0.0204
2504.0,0.0204
2503.0,0.0204
2502.0,0.0204
2501.0,0.0203
2500.0,0.0202
2499.0,0.0202
2498.0,0.0202
2497.0,0.0202
2496.0,0.0202
2495.0,0.0202
2494.0,0.0202
2493.0,0.0202
2492.0,0.0201
2491.0,0.0201
2490.0,0.02
2489.0,0.02
2488.0,0.0199
2487.0,0.02
2486.0,0.02
2485.0,0.02
2484.0,0.02
2483.0,0.02
2482.0,0.02
2481.0,0.02
2480.0,0.02
2479.0,0.02
2478.0,0.0199
2477.0,0.0199
2476.0,0.0199
2475.0,0.0198
2474.0,0.0197
2473.0,0.0196
2472.0,0.0196
2471.0,0.0195
2470.0,0.0195
2469.0,0.0194
2468.0,0.0194
2467.0,0.0193
2466.0,0.0193
2465.0,0.0192
2464.0,0.0192
2463.0,0.0193
2462.0,0.0193
2461.0,0.0193
2460.0,0.0193
2459.0,0.0194
2458.0,0.0194
2457.0,0.0194
2456.0,0.0194
2455.0,0.0194
2454.0,0.0193
2453.0,0.0193
2452.0,0.0193
2451.0,0.0192
2450.0,0.0192
2449.0,0.0192
2448.0,0.0192
2447.0,0.0192
2446.0,0.0193
2445.0,0.0194
2444.0,0.0194
2443.0,0.0193
2442.0,0.0193
2441.0,0.0192
2440.0,0.0192
2439.0,0.0193
2438.0,0.0194
2437.0,0.0194
2436.0,0.0194
2435.0,0.0193
2434.0,0.0192
2433.0,0.0191
2432.0,0.019
2431.0,0.0191
2430.0,0.0191
2429.0,0.0192
2428.0,0.0192
2427.0,0.0193
2426.0,0.0193
2425.0,0.0193
2424.0,0.0193
2423.0,0.0193
2422.0,0.0193
2421.0,0.0193
2420.0,0.0194
2419.0,0.0194
2418.0,0.0194
2417.0,0.0194
2416.0,0.0194
2415.0,0.0195
2414.0,0.0195
2413.0,0.0195
2412.0,0.0195
2411.0,0.0195
2410.0,0.0195
2409.0,0.0196
2408.0,0.0196
2407.0,0.0196
2406.0,0.0196
2405.0,0.0196
2404.0,0.0197
2403.0,0.0197
2402.0,0.0197
2401.0,0.0196
2400.0,0.0196
2399.0,0.0197
2398.0,0.0197
2397.0,0.0198
2396.0,0.0198
2395.0,0.0198
2394.0,0.0198
2393.0,0.0198
2392.0,0.0199
2391.0,0.02
2390.0,0.02
2389.0,0.0201
2388.0,0.0202
2387.0,0.0204
2386.0,0.0206
2385.0,0.0208
2384.0,0.0209
2383.0,0.0209
2382.0,0.0208
2381.0,0.0206
2380.0,0.0203
2379.0,0.0201
2378.0,0.0198
2377.0,0.0196
2376.0,0.0196
2375.0,0.0197
2374.0,0.02
2373.0,0.0202
2372.0,0.0204
2371.0,0.0205
2370.0,0.0204
2369.0,0.0201
2368.0,0.0198
2367.0,0.0196
2366.0,0.0194
2365.0,0.019
2364.0,0.019
2363.0,0.0197
2362.0,0.0205
2361.0,0.0208
2360.0,0.0206
2359.0,0.0205
2358.0,0.0203
2357.0,0.0199
2356.0,0.0193
2355.0,0.0189
2354.0,0.0184
2353.0,0.0178
2352.0,0.0177
2351.0,0.0182
2350.0,0.0191
2349.0,0.0195
2348.0,0.019
2347.0,0.0182
2346.0,0.0178
2345.0,0.0183
2344.0,0.0194
2343.0,0.0203
2342.0,0.0205
2341.0,0.0197
2340.0,0.0187
2339.0,0.018
2338.0,0.0179
2337.0,0.0181
2336.0,0.0183
2335.0,0.0185
2334.0,0.0185
2333.0,0.0182
2332.0,0.0179
2331.0,0.0177
2330.0,0.0178
2329.0,0.0183
2328.0,0.0188
2327.0,0.0191
2326.0,0.019
2325.0,0.0186
2324.0,0.0181
2323.0,0.0177
2322.0,0.0176
2321.0,0.0178
2320.0,0.0182
2319.0,0.0187
2318.0,0.019
2317.0,0.019
2316.0,0.0189
2315.0,0.0187
2314.0,0.0187
2313.0,0.0189
2312.0,0.0191
2311.0,0.0193
2310.0,0.0193
2309.0,0.0193
2308.0,0.0192
2307.0,0.0191
2306.0,0.019
2305.0,0.019
2304.0,0.0191
2303.0,0.0192
2302.0,0.0192
2301.0,0.0193
2300.0,0.0193
2299.0,0.0193
2298.0,0.0193
2297.0,0.0193
2296.0,0.0192
2295.0,0.0191
2294.0,0.0191
2293.0,0.019
2292.0,0.019
2291.0,0.0189
2290.0,0.0189
2289.0,0.0188
2288.0,0.0188
2287.0,0.0187
2286.0,0.0186
2285.0,0.0185
2284.0,0.0184
2283.0,0.0184
2282.0,0.0184
2281.0,0.0184
2280.0,0.0184
2279.0,0.0184
2278.0,0.0184
2277.0,0.0183
2276.0,0.0182
2275.0,0.0181
2274.0,0.018
2273.0,0.0179
2272.0,0.0178
2271.0,0.0178
2270.0,0.0178
2269.0,0.0178
2268.0,0.0178
2267.0,0.0179
2266.0,0.0179
2265.0,0.0179
2264.0,0.0179
2263.0,0.0178
2262.0,0.0177
2261.0,0.0177
2260.0,0.0178
2259.0,0.0178
2258.0,0.0178
2257.0,0.0178
2256.0,0.0177
2255.0,0.0177
2254.0,0.0176
2253.0,0.0175
2252.0,0.0175
2251.0,0.0175
2250.0,0.0174
2249.0,0.0174
2248.0,0.0174
2247.0,0.0174
2246.0,0.0173
2245.0,0.0173
2244.0,0.0173
2243.0,0.0173
2242.0,0.0173
2241.0,0.0173
2240.0,0.0173
2239.0,0.0173
2238.0,0.0173
2237.0,0.0173
2236.0,0.0173
2235.0,0.0173
2234.0,0.0173
2233.0,0.0172
2232.0,0.0171
2231.0,0.017
2230.0,0.017
2229.0,0.0169
2228.0,0.0169
2227.0,0.0169
2226.0,0.017
2225.0,0.017
2224.0,0.017
2223.0,0.017
2222.0,0.0169
2221.0,0.0169
2220.0,0.0168
2219.0,0.0168
2218.0,0.0168
2217.0,0.0168
2216.0,0.0168
2215.0,0.0167
2214.0,0.0167
2213.0,0.0166
2212.0,0.0166
2211.0,0.0166
2210.0,0.0166
2209.0,0.0167
2208.0,0.0167
2207.0,0.0167
2206.0,0.0166
2205.0,0.0166
2204.0,0.0165
2203.0,0.0164
2202.0,0.0164
2201.0,0.0163
2200.0,0.0163
2199.0,0.0163
2198.0,0.0162
2197.0,0.0162
2196.0,0.0162
2195.0,0.0162
2194.0,0.0162
2193.0,0.0162
2192.0,0.0161
2191.0,0.0161
2190.0,0.0161
2189.0,0.0161
2188.0,0.0161
2187.0,0.0161
2186.0,0.0161
2185.0,0.0162
2184.0,0.0162
2183.0,0.0162
2182.0,0.0162
2181.0,0.0162
2180.0,0.0162
2179.0,0.0161
2178.0,0.0161
2177.0,0.0161
2176.0,0.016
2175.0,0.016
2174.0,0.016
2173.0,0.016
2172.0,0.016
2171.0,0.016
2170.0,0.0159
2169.0,0.0159
2168.0,0.016
2167.0,0.016
2166.0,0.016
2165.0,0.016
2164.0,0.016
2163.0,0.0161
2162.0,0.0161
2161.0,0.0162
2160.0,0.0162
2159.0,0.0162
2158.0,0.0162
2157.0,0.0162
2156.0,0.0162
2155.0,0.0162
2154.0,0.0161
2153.0,0.0162
2152.0,0.0162
2151.0,0.0162
2150.0,0.0162
2149.0,0.0163
2148.0,0.0163
2147.0,0.0163
2146.0,0.0162
2145.0,0.0162
2144.0,0.0162
2143.0,0.0162
2142.0,0.0162
2141.0,0.0163
2140.0,0.0163
2139.0,0.0163
2138.0,0.0163
2137.0,0.0164
2136.0,0.0163
2135.0,0.0163
2134.0,0.0163
2133.0,0.0163
2132.0,0.0163
2131.0,0.0162
2130.0,0.0162
2129.0,0.0161
2128.0,0.0161
2127.0,0.0161
2126.0,0.0161
2125.0,0.016
2124.0,0.016
2123.0,0.016
2122.0,0.016
2121.0,0.016
2120.0,0.0161
2119.0,0.016
2118.0,0.016
2117.0,0.016
2116.0,0.016
2115.0,0.016
2114.0,0.016
2113.0,0.0159
2112.0,0.0159
2111.0,0.0159
2110.0,0.0159
2109.0,0.0159
2108.0,0.016
2107.0,0.0159
2106.0,0.0159
2105.0,0.0159
2104.0,0.0158
2103.0,0.0158
2102.0,0.0157
2101.0,0.0157
2100.0,0.0157
2099.0,0.0157
2098.0,0.0157
2097.0,0.0156
2096.0,0.0156
2095.0,0.0155
2094.0,0.0154
2093.0,0.0154
2092.0,0.0154
2091.0,0.0154
2090.0,0.0154
2089.0,0.0153
2088.0,0.0153
2087.0,0.0153
2086.0,0.0152
2085.0,0.0152
2084.0,0.0152
2083.0,0.0152
2082.0,0.0151
2081.0,0.0151
2080.0,0.015
2079.0,0.0149
2078.0,0.0149
2077.0,0.0149
2076.0,0.0149
2075.0,0.0148
2074.0,0.0148
2073.0,0.0147
2072.0,0.0147
2071.0,0.0146
2070.0,0.0145
2069.0,0.0145
2068.0,0.0145
2067.0,0.0144
2066.0,0.0144
2065.0,0.0144
2064.0,0.0143
2063.0,0.0142
2062.0,0.0141
2061.0,0.0141
2060.0,0.014
2059.0,0.014
2058.0,0.014
2057.0,0.014
2056.0,0.0139
2055.0,0.0139
2054.0,0.0138
2053.0,0.0137
2052.0,0.0137
2051.0,0.0136
2050.0,0.0135
2049.0,0.0135
2048.0,0.0135
2047.0,0.0134
2046.0,0.0133
2045.0,0.0133
2044.0,0.0133
2043.0,0.0133
2042.0,0.0132
2041.0,0.0132
2040.0,0.0132
2039.0,0.0131
2038.0,0.0131
2037.0,0.013
2036.0,0.013
2035.0,0.013
2034.0,0.0129
2033.0,0.0129
2032.0,0.013
2031.0,0.013
2030.0,0.013
2029.0,0.013
2028.0,0.0129
2027.0,0.0129
2026.0,0.0128
2025.0,0.0128
2024.0,0.0129
2023.0,0.0129
2022.0,0.0129
2021.0,0.0128
2020.0,0.0129
2019.0,0.0129
2018.0,0.0129
2017.0,0.0129
2016.0,0.0128
2015.0,0.0127
2014.0,0.0126
2013.0,0.0126
2012.0,0.0126
2011.0,0.0126
2010.0,0.0126
2009.0,0.0126
2008.0,0.0126
2007.0,0.0126
2006.0,0.0126
2005.0,0.0127
2004.0,0.0127
2003.0,0.0128
2002.0,0.0128
2001.0,0.0128
2000.0,0.0128
1999.0,0.0128
1998.0,0.0129
1997.0,0.0129
1996.0,0.0129
1995.0,0.0129
1994.0,0.0129
1993.0,0.013
1992.0,0.0131
1991.0,0.0132
1990.0,0.0132
1989.0,0.0132
1988.0,0.0131
1987.0,0.0131
1986.0,0.013
1985.0,0.013
1984.0,0.013
1983.0,0.013
1982.0,0.0131
1981.0,0.0131
1980.0,0.0131
1979.0,0.0131
1978.0,0.0132
1977.0,0.0132
1976.0,0.0132
1975.0,0.0132
1974.0,0.0132
1973.0,0.0132
1972.0,0.0133
1971.0,0.0133
1970.0,0.0133
1969.0,0.0133
1968.0,0.0134
1967.0,0.0135
1966.0,0.0135
1965.0,0.0136
1964.0,0.0137
1963.0,0.0138
1962.0,0.0139
1961.0,0.0139
1960.0,0.014
1959.0,0.014
1958.0,0.0141
1957.0,0.0141
1956.0,0.0142
1955.0,0.0143
1954.0,0.0145
1953.0,0.0145
1952.0,0.0146
1951.0,0.0146
1950.0,0.0146
1949.0,0.0146
1948.0,0.0145
1947.0,0.0144
1946.0,0.0143
1945.0,0.0142
1944.0,0.0141
1943.0,0.014
1942.0,0.0138
1941.0,0.0135
1940.0,0.0133
1939.0,0.0132
1938.0,0.0131
1937.0,0.013
1936.0,0.0129
1935.0,0.0128
1934.0,0.0126
1933.0,0.0125
1932.0,0.0123
1931.0,0.0121
1930.0,0.012
1929.0,0.0119
1928.0,0.0118
1927.0,0.0117
1926.0,0.0115
1925.0,0.0114
1924.0,0.0112
1923.0,0.0111
1922.0,0.0109
1921.0,0.0108
1920.0,0.0107
1919.0,0.0107
1918.0,0.0106
1917.0,0.0105
1916.0,0.0103
1915.0,0.0102
1914.0,0.0101
1913.0,0.01
1912.0,0.0099
1911.0,0.0098
1910.0,0.0097
1909.0,0.0096
1908.0,0.0095
1907.0,0.0093
1906.0,0.0092
1905.0,0.009
1904.0,0.0089
1903.0,0.0088
1902.0,0.0088
1901.0,0.0087
1900.0,0.0085
1899.0,0.0084
1898.0,0.0083
1897.0,0.0083
1896.0,0.0082
1895.0,0.008
1894.0,0.0079
1893.0,0.0078
1892.0,0.0077
1891.0,0.0076
1890.0,0.0075
1889.0,0.0074
1888.0,0.0072
1887.0,0.0071
1886.0,0.007
1885.0,0.0069
1884.0,0.0068
1883.0,0.0067
1882.0,0.0066
1881.0,0.0065
1880.0,0.0064
1879.0,0.0063
1878.0,0.0063
1877.0,0.0062
1876.0,0.0061
1875.0,0.006
1874.0,0.0059
1873.0,0.0058
1872.0,0.0057
1871.0,0.0057
1870.0,0.0058
1869.0,0.0057
1868.0,0.0056
1867.0,0.0055
1866.0,0.0054
1865.0,0.0053
1864.0,0.0052
1863.0,0.0051
1862.0,0.0051
1861.0,0.0051
1860.0,0.005
1859.0,0.0049
1858.0,0.0049
1857.0,0.0048
1856.0,0.0047
1855.0,0.0047
1854.0,0.0046
1853.0,0.0046
1852.0,0.0045
1851.0,0.0045
1850.0,0.0046
1849.0,0.0046
1848.0,0.0046
1847.0,0.0047
1846.0,0.0049
1845.0,0.0049
1844.0,0.0049
1843.0,0.0048
1842.0,0.0048
1841.0,0.0047
1840.0,0.0045
1839.0,0.0045
1838.0,0.0045
1837.0,0.0045
1836.0,0.0045
1835.0,0.0046
1834.0,0.0046
1833.0,0.0046
1832.0,0.0046
1831.0,0.0046
1830.0,0.0046
1829.0,0.0046
1828.0,0.0045
1827.0,0.0046
1826.0,0.0047
1825.0,0.0046
1824.0,0.0044
1823.0,0.0043
1822.0,0.0042
1821.0,0.0041
1820.0,0.0039
1819.0,0.0038
1818.0,0.0037
1817.0,0.0034
1816.0,0.0032
1815.0,0.003
1814.0,0.0029
1813.0,0.0028
1812.0,0.0026
1811.0,0.0024
1810.0,0.0022
1809.0,0.002
1808.0,0.0018
1807.0,0.0016
1806.0,0.0015
1805.0,0.0013
1804.0,0.0011
1803.0,0.001
1802.0,0.0009
1801.0,0.0007
1800.0,0.0003
1799.0,0.0001
1798.0,0.0
1797.0,-0.0001
1796.0,-0.0003
1795.0,-0.0003
1794.0,-0.0004
1793.0,-0.0007
1792.0,-0.0011
1791.0,-0.0014
1790.0,-0.0014
1789.0,-0.0015
1788.0,-0.0016
1787.0,-0.0016
1786.0,-0.0017
1785.0,-0.0019
1784.0,-0.0022
1783.0,-0.0024
1782.0,-0.0025
1781.0,-0.0027
1780.0,-0.003
1779.0,-0.003
1778.0,-0.003
1777.0,-0.0032
1776.0,-0.0033
1775.0,-0.0032
1774.0,-0.0031
1773.0,-0.0032
1772.0,-0.0036
1771.0,-0.0037
1770.0,-0.0035
1769.0,-0.0033
1768.0,-0.0032
1767.0,-0.003
1766.0,-0.0027
1765.0,-0.0025
1764.0,-0.0023
1763.0,-0.0017
1762.0,-0.001
1761.0,-0.0006
1760.0,-0.0001
1759.0,0.0007
1758.0,0.0017
1757.0,0.0028
1756.0,0.0038
1755.0,0.0051
1754.0,0.0065
1753.0,0.008
1752.0,0.01
1751.0,0.0129
1750.0,0.0164
1749.0,0.02
1748.0,0.024
1747.0,0.0288
1746.0,0.0342
1745.0,0.0404
1744.0,0.0477
1743.0,0.0559
1742.0,0.0646
1741.0,0.0746
1740.0,0.087
1739.0,0.1
1738.0,0.1102
1737.0,0.1179
1736.0,0.1268
1735.0,0.1428
1734.0,0.1656
1733.0,0.1842
1732.0,0.1966
1731.0,0.2088
1730.0,0.2231
1729.0,0.2384
1728.0,0.2529
1727.0,0.2666
1726.0,0.2806
1725.0,0.2959
1724.0,0.3125
1723.0,0.3285
1722.0,0.3417
1721.0,0.3513
1720.0,0.3589
1719.0,0.3689
1718.0,0.3841
1717.0,0.3978
1716.0,0.4031
1715.0,0.4025
1714.0,0.3985
1713.0,0.3907
1712.0,0.3789
1711.0,0.3641
1710.0,0.3478
1709.0,0.3306
1708.0,0.3122
1707.0,0.2916
1706.0,0.2695
1705.0,0.25
1704.0,0.2357
1703.0,0.2244
1702.0,0.2125
1701.0,0.1974
1700.0,0.1823
1699.0,0.1721
1698.0,0.1651
1697.0,0.1579
1696.0,0.1495
1695.0,0.1423
1694.0,0.1374
1693.0,0.1336
1692.0,0.1298
1691.0,0.1256
1690.0,0.1216
1689.0,0.1183
1688.0,0.1157
1687.0,0.1132
1686.0,0.1103
1685.0,0.1075
1684.0,0.1053
1683.0,0.1033
1682.0,0.1015
1681.0,0.0995
1680.0,0.0974
1679.0,0.0952
1678.0,0.0931
1677.0,0.091
1676.0,0.0889
1675.0,0.0867
1674.0,0.0848
1673.0,0.0832
1672.0,0.0816
1671.0,0.0797
1670.0,0.0779
1669.0,0.0764
1668.0,0.075
1667.0,0.0737
1666.0,0.0723
1665.0,0.0708
1664.0,0.0693
1663.0,0.0677
1662.0,0.0665
1661.0,0.0655
1660.0,0.0644
1659.0,0.0633
1658.0,0.0621
1657.0,0.0611
1656.0,0.06
1655.0,0.0589
1654.0,0.0583
1653.0,0.0582
1652.0,0.0577
1651.0,0.057
1650.0,0.0562
1649.0,0.0553
1648.0,0.0545
1647.0,0.0539
1646.0,0.0535
1645.0,0.0531
1644.0,0.0527
1643.0,0.0521
1642.0,0.0516
1641.0,0.051
1640.0,0.0505
1639.0,0.0498
1638.0,0.0491
1637.0,0.0486
1636.0,0.0483
1635.0,0.048
1634.0,0.0477
1633.0,0.0473
1632.0,0.0469
1631.0,0.0464
1630.0,0.0458
1629.0,0.0454
1628.0,0.045
1627.0,0.0446
1626.0,0.0442
1625.0,0.0438
1624.0,0.0437
1623.0,0.0436
1622.0,0.0435
1621.0,0.0434
1620.0,0.0434
1619.0,0.0435
1618.0,0.0441
1617.0,0.0453
1616.0,0.0464
1615.0,0.0468
1614.0,0.0468
1613.0,0.0464
1612.0,0.0458
1611.0,0.0451
1610.0,0.0442
1609.0,0.0433
1608.0,0.0423
1607.0,0.0414
1606.0,0.0405
1605.0,0.0397
1604.0,0.0388
1603.0,0.038
1602.0,0.0372
1601.0,0.0365
1600.0,0.0357
1599.0,0.035
1598.0,0.0344
1597.0,0.0339
1596.0,0.0334
1595.0,0.0331
1594.0,0.0328
1593.0,0.0326
1592.0,0.0324
1591.0,0.0323
1590.0,0.0323
1589.0,0.0324
1588.0,0.0326
1587.0,0.033
1586.0,0.0339
1585.0,0.0352
1584.0,0.0372
1583.0,0.0397
1582.0,0.0425
1581.0,0.0452
1580.0,0.0473
1579.0,0.0486
1578.0,0.0488
1577.0,0.0477
1576.0,0.0456
1575.0,0.0434
1574.0,0.0417
1573.0,0.0402
1572.0,0.0386
1571.0,0.037
1570.0,0.0352
1569.0,0.0337
1568.0,0.0326
1567.0,0.0319
1566.0,0.0312
1565.0,0.0304
1564.0,0.0297
1563.0,0.0292
1562.0,0.0289
1561.0,0.0283
1560.0,0.0279
1559.0,0.0278
1558.0,0.0274
1557.0,0.0271
1556.0,0.0268
1555.0,0.0265
1554.0,0.0262
1553.0,0.0259
1552.0,0.0255
1551.0,0.0253
1550.0,0.0251
1549.0,0.0248
1548.0,0.0244
1547.0,0.0241
1546.0,0.0239
1545.0,0.0237
1544.0,0.0235
1543.0,0.0233
1542.0,0.0232
1541.0,0.023
1540.0,0.0226
1539.0,0.0221
1538.0,0.0221
1537.0,0.0222
1536.0,0.0222
1535.0,0.0222
1534.0,0.0223
1533.0,0.0225
1532.0,0.0225
1531.0,0.0226
1530.0,0.0227
1529.0,0.0227
1528.0,0.0227
1527.0,0.0228
1526.0,0.0228
1525.0,0.0226
1524.0,0.0222
1523.0,0.0219
1522.0,0.0216
1521.0,0.0213
1520.0,0.0209
1519.0,0.0207
1518.0,0.0205
1517.0,0.0205
1516.0,0.0205
1515.0,0.0207
1514.0,0.021
1513.0,0.0215
1512.0,0.0224
1511.0,0.0235
1510.0,0.025
1509.0,0.0273
1508.0,0.0326
1507.0,0.0416
1506.0,0.0476
1505.0,0.0483
1504.0,0.0465
1503.0,0.0434
1502.0,0.0396
1501.0,0.0353
1500.0,0.0312
1499.0,0.0276
1498.0,0.0246
1497.0,0.0221
1496.0,0.0202
1495.0,0.0189
1494.0,0.018
1493.0,0.0173
1492.0,0.0168
1491.0,0.0164
1490.0,0.0161
1489.0,0.0159
1488.0,0.0158
1487.0,0.0158
1486.0,0.0159
1485.0,0.016
1484.0,0.0162
1483.0,0.0164
1482.0,0.0167
1481.0,0.0171
1480.0,0.0174
1479.0,0.0177
1478.0,0.018
1477.0,0.0184
1476.0,0.0188
1475.0,0.0192
1474.0,0.0195
1473.0,0.0201
1472.0,0.0206
1471.0,0.0211
1470.0,0.0215
1469.0,0.0221
1468.0,0.0229
1467.0,0.024
1466.0,0.0257
1465.0,0.0282
1464.0,0.0309
1463.0,0.0331
1462.0,0.0349
1461.0,0.0366
1460.0,0.0384
1459.0,0.0407
1458.0,0.0443
1457.0,0.0484
1456.0,0.0508
1455.0,0.0517
1454.0,0.0521
1453.0,0.0523
1452.0,0.0524
1451.0,0.0522
1450.0,0.0519
1449.0,0.0516
1448.0,0.0512
1447.0,0.0508
1446.0,0.0505
1445.0,0.0503
1444.0,0.0501
1443.0,0.0499
1442.0,0.0496
1441.0,0.0492
1440.0,0.0486
1439.0,0.0477
1438.0,0.0464
1437.0,0.0442
1436.0,0.0415
1435.0,0.0389
1434.0,0.0366
1433.0,0.0341
1432.0,0.0314
1431.0,0.0287
1430.0,0.026
1429.0,0.0235
1428.0,0.0216
1427.0,0.0202
1426.0,0.0191
1425.0,0.0182
1424.0,0.0176
1423.0,0.0174
1422.0,0.0176
1421.0,0.0184
1420.0,0.0204
1419.0,0.0244
1418.0,0.0296
1417.0,0.0356
1416.0,0.0429
1415.0,0.0522
1414.0,0.0637
1413.0,0.0776
1412.0,0.0927
1411.0,0.1066
1410.0,0.1167
1409.0,0.1218
1408.0,0.1219
1407.0,0.1175
1406.0,0.1095
1405.0,0.0999
1404.0,0.0911
1403.0,0.084
1402.0,0.0783
1401.0,0.0733
1400.0,0.0684
1399.0,0.0638
1398.0,0.0601
1397.0,0.0571
1396.0,0.0542
1395.0,0.0513
1394.0,0.0485
1393.0,0.0462
1392.0,0.0442
1391.0,0.0424
1390.0,0.0407
1389.0,0.0392
1388.0,0.0377
1387.0,0.0366
1386.0,0.0358
1385.0,0.0354
1384.0,0.0354
1383.0,0.0357
1382.0,0.0365
1381.0,0.0377
1380.0,0.0394
1379.0,0.0414
1378.0,0.0435
1377.0,0.0457
1376.0,0.0481
1375.0,0.051
1374.0,0.0539
1373.0,0.0562
1372.0,0.0577
1371.0,0.0584
1370.0,0.0582
1369.0,0.0569
1368.0,0.0546
1367.0,0.0514
1366.0,0.0476
1365.0,0.0433
1364.0,0.0385
1363.0,0.0335
1362.0,0.029
1361.0,0.0255
1360.0,0.0229
1359.0,0.0209
1358.0,0.0192
1357.0,0.0179
1356.0,0.017
1355.0,0.0164
1354.0,0.016
1353.0,0.016
1352.0,0.0164
1351.0,0.017
1350.0,0.0181
1349.0,0.0195
1348.0,0.0214
1347.0,0.0236
1346.0,0.0261
1345.0,0.0288
1344.0,0.0316
1343.0,0.0341
1342.0,0.0363
1341.0,0.0379
1340.0,0.0385
1339.0,0.0379
1338.0,0.036
1337.0,0.0332
1336.0,0.0299
1335.0,0.0266
1334.0,0.0235
1333.0,0.0209
1332.0,0.0189
1331.0,0.0176
1330.0,0.017
1329.0,0.017
1328.0,0.0175
1327.0,0.0185
1326.0,0.0198
1325.0,0.0214
1324.0,0.0232
1323.0,0.0251
1322.0,0.0271
1321.0,0.0291
1320.0,0.0312
1319.0,0.0333
1318.0,0.0355
1317.0,0.0375
1316.0,0.0396
1315.0,0.0418
1314.0,0.0442
1313.0,0.0468
1312.0,0.0497
1311.0,0.0526
1310.0,0.0557
1309.0,0.0589
1308.0,0.0622
1307.0,0.0655
1306.0,0.0687
1305.0,0.0719
1304.0,0.0752
1303.0,0.079
1302.0,0.0835
1301.0,0.0888
1300.0,0.095
1299.0,0.102
1298.0,0.1095
1297.0,0.1175
1296.0,0.1258
1295.0,0.1341
1294.0,0.1423
1293.0,0.1504
1292.0,0.1584
1291.0,0.1662
1290.0,0.1737
1289.0,0.1808
1288.0,0.1876
1287.0,0.1939
1286.0,0.1997
1285.0,0.2049
1284.0,0.2096
1283.0,0.2138
1282.0,0.2175
1281.0,0.2205
1280.0,0.2232
1279.0,0.2256
1278.0,0.2279
1277.0,0.2302
1276.0,0.233
1275.0,0.2366
1274.0,0.2414
1273.0,0.2475
1272.0,0.2554
1271.0,0.265
1270.0,0.276
1269.0,0.2881
1268.0,0.3011
1267.0,0.3147
1266.0,0.3283
1265.0,0.3416
1264.0,0.3542
1263.0,0.3658
1262.0,0.376
1261.0,0.3844
1260.0,0.391
1259.0,0.3957
1258.0,0.3988
1257.0,0.4006
1256.0,0.402
1255.0,0.4039
1254.0,0.4063
1253.0,0.4096
1252.0,0.4141
1251.0,0.4198
1250.0,0.4264
1249.0,0.4336
1248.0,0.4415
1247.0,0.4498
1246.0,0.4582
1245.0,0.4661
1244.0,0.4734
1243.0,0.4797
1242.0,0.4843
1241.0,0.4865
1240.0,0.4861
1239.0,0.4831
1238.0,0.4768
1237.0,0.4671
1236.0,0.4544
1235.0,0.4391
1234.0,0.4217
1233.0,0.4029
1232.0,0.3838
1231.0,0.365
1230.0,0.3467
1229.0,0.3292
1228.0,0.3126
1227.0,0.297
1226.0,0.2823
1225.0,0.2682
1224.0,0.255
1223.0,0.2427
1222.0,0.2312
1221.0,0.2205
1220.0,0.2105
1219.0,0.2013
1218.0,0.1928
1217.0,0.1849
1216.0,0.1776
1215.0,0.171
1214.0,0.1648
1213.0,0.1591
1212.0,0.1537
1211.0,0.1487
1210.0,0.144
1209.0,0.1395
1208.0,0.1354
1207.0,0.1314
1206.0,0.1277
1205.0,0.1242
1204.0,0.1208
1203.0,0.1176
1202.0,0.1145
1201.0,0.1115
1200.0,0.1085
1199.0,0.1056
1198.0,0.1028
1197.0,0.1
1196.0,0.0973
1195.0,0.0947
1194.0,0.0922
1193.0,0.0899
1192.0,0.0877
1191.0,0.0856
1190.0,0.0837
1189.0,0.0821
1188.0,0.0807
1187.0,0.0797
1186.0,0.079
1185.0,0.0787
1184.0,0.0789
1183.0,0.0796
1182.0,0.0807
1181.0,0.0821
1180.0,0.0838
1179.0,0.0857
1178.0,0.0875
1177.0,0.089
1176.0,0.09
1175.0,0.0905
1174.0,0.0903
1173.0,0.0893
1172.0,0.0875
1171.0,0.0848
1170.0,0.0815
1169.0,0.0779
1168.0,0.0743
1167.0,0.0709
1166.0,0.0679
1165.0,0.0653
1164.0,0.0631
1163.0,0.0614
1162.0,0.06
1161.0,0.059
1160.0,0.0582
1159.0,0.0578
1158.0,0.0576
1157.0,0.0579
1156.0,0.0585
1155.0,0.0597
1154.0,0.0614
1153.0,0.0636
1152.0,0.0664
1151.0,0.0697
1150.0,0.0736
1149.0,0.0779
1148.0,0.0828
1147.0,0.0882
1146.0,0.094
1145.0,0.1002
1144.0,0.1065
1143.0,0.1129
1142.0,0.1193
1141.0,0.1254
1140.0,0.1313
1139.0,0.1368
1138.0,0.142
1137.0,0.1468
1136.0,0.1514
1135.0,0.1557
1134.0,0.1599
1133.0,0.1641
1132.0,0.1684
1131.0,0.1731
1130.0,0.1782
1129.0,0.184
1128.0,0.1907
1127.0,0.1983
1126.0,0.207
1125.0,0.2163
1124.0,0.2262
1123.0,0.2362
1122.0,0.246
1121.0,0.2549
1120.0,0.2625
1119.0,0.2683
1118.0,0.272
1117.0,0.2733
1116.0,0.2725
1115.0,0.2698
1114.0,0.2658
1113.0,0.2615
1112.0,0.2582
1111.0,0.2571
1110.0,0.2588
1109.0,0.2636
1108.0,0.2715
1107.0,0.2821
1106.0,0.2948
1105.0,0.3092
1104.0,0.3249
1103.0,0.3414
1102.0,0.3584
1101.0,0.3753
1100.0,0.3916
1099.0,0.4067
1098.0,0.4199
1097.0,0.4309
1096.0,0.4393
1095.0,0.445
1094.0,0.4481
1093.0,0.4485
1092.0,0.4463
1091.0,0.4419
1090.0,0.4356
1089.0,0.4278
1088.0,0.419
1087.0,0.4094
1086.0,0.3992
1085.0,0.3883
1084.0,0.3768
1083.0,0.3646
1082.0,0.3517
1081.0,0.338
1080.0,0.3238
1079.0,0.3092
1078.0,0.2945
1077.0,0.2799
1076.0,0.2659
1075.0,0.2526
1074.0,0.2401
1073.0,0.2286
1072.0,0.218
1071.0,0.2082
1070.0,0.1993
1069.0,0.1913
1068.0,0.1841
1067.0,0.1777
1066.0,0.1718
1065.0,0.1665
1064.0,0.1617
1063.0,0.1573
1062.0,0.1536
1061.0,0.1505
1060.0,0.1481
1059.0,0.1463
1058.0,0.1453
1057.0,0.145
1056.0,0.1455
1055.0,0.1468
1054.0,0.1487
1053.0,0.1513
1052.0,0.1543
1051.0,0.1577
1050.0,0.1613
1049.0,0.165
1048.0,0.1686
1047.0,0.1721
1046.0,0.1752
1045.0,0.1779
1044.0,0.1801
1043.0,0.1815
1042.0,0.1821
1041.0,0.1821
1040.0,0.1814
1039.0,0.1801
1038.0,0.1784
1037.0,0.1765
1036.0,0.1744
1035.0,0.1722
1034.0,0.1701
1033.0,0.168
1032.0,0.166
1031.0,0.164
1030.0,0.1621
1029.0,0.1603
1028.0,0.1587
1027.0,0.1576
1026.0,0.1576
1025.0,0.1596
1024.0,0.1645
1023.0,0.1735
1022.0,0.1873
1021.0,0.206
1020.0,0.2286
1019.0,0.2521
1018.0,0.2724
1017.0,0.2847
1016.0,0.2855
1015.0,0.2745
1014.0,0.2553
1013.0,0.2328
1012.0,0.2114
1011.0,0.1933
1010.0,0.1788
1009.0,0.1672
1008.0,0.1577
1007.0,0.1499
1006.0,0.1435
1005.0,0.1383
1004.0,0.134
1003.0,0.1304
1002.0,0.1273
1001.0,0.1245
1000.0,0.1219
999.0,0.1196
998.0,0.1176
997.0,0.1157
996.0,0.114
995.0,0.1125
994.0,0.1112
993.0,0.11
992.0,0.109
991.0,0.1081
990.0,0.1072
989.0,0.1066
988.0,0.1061
987.0,0.1058
986.0,0.1055
985.0,0.1053
984.0,0.1052
983.0,0.1052
982.0,0.1052
981.0,0.1053
980.0,0.1054
979.0,0.1055
978.0,0.1056
977.0,0.1058
976.0,0.1059
975.0,0.1059
974.0,0.1057
973.0,0.1054
972.0,0.105
971.0,0.1043
970.0,0.1034
969.0,0.1024
968.0,0.1011
967.0,0.0997
966.0,0.0982
965.0,0.0967
964.0,0.0953
963.0,0.0938
962.0,0.0924
961.0,0.0911
960.0,0.09
959.0,0.0889
958.0,0.0879
957.0,0.087
956.0,0.0861
955.0,0.0853
954.0,0.0844
953.0,0.0837
952.0,0.083
951.0,0.0824
950.0,0.0819
949.0,0.0814
948.0,0.0809
947.0,0.0803
946.0,0.0798
945.0,0.0793
944.0,0.0789
943.0,0.0785
942.0,0.0782
941.0,0.078
940.0,0.0777
939.0,0.0774
938.0,0.0771
937.0,0.0768
936.0,0.0765
935.0,0.0761
934.0,0.0758
933.0,0.0756
932.0,0.0753
931.0,0.0749
930.0,0.0744
929.0,0.0739
928.0,0.0735
927.0,0.073
926.0,0.0726
925.0,0.0722
924.0,0.0717
923.0,0.0713
922.0,0.0709
921.0,0.0705
920.0,0.0702
919.0,0.07
918.0,0.07
917.0,0.0701
916.0,0.0704
915.0,0.0708
914.0,0.0714
913.0,0.0723
912.0,0.0734
911.0,0.075
910.0,0.0769
909.0,0.0792
908.0,0.0819
907.0,0.0848
906.0,0.0878
905.0,0.0909
904.0,0.094
903.0,0.0969
902.0,0.0996
901.0,0.1021
900.0,0.1041
899.0,0.1057
898.0,0.1068
897.0,0.1076
896.0,0.1081
895.0,0.1083
894.0,0.1084
893.0,0.1085
892.0,0.1086
891.0,0.1089
890.0,0.1093
889.0,0.1099
888.0,0.1108
887.0,0.1121
886.0,0.1138
885.0,0.1161
884.0,0.1189
883.0,0.1224
882.0,0.1265
881.0,0.1314
880.0,0.137
879.0,0.1434
878.0,0.1503
877.0,0.1576
876.0,0.1646
875.0,0.1706
874.0,0.1749
873.0,0.177
872.0,0.1763
871.0,0.173
870.0,0.1673
869.0,0.16
868.0,0.152
867.0,0.144
866.0,0.1367
865.0,0.1303
864.0,0.125
863.0,0.1206
862.0,0.117
861.0,0.1142
860.0,0.112
859.0,0.1103
858.0,0.1092
857.0,0.1086
856.0,0.1083
855.0,0.1081
854.0,0.108
853.0,0.1078
852.0,0.1076
851.0,0.1074
850.0,0.1073
849.0,0.1073
848.0,0.1074
847.0,0.1074
846.0,0.1074
845.0,0.1074
844.0,0.1075
843.0,0.1076
842.0,0.1077
841.0,0.1076
840.0,0.1074
839.0,0.1069
838.0,0.106
837.0,0.1049
836.0,0.1038
835.0,0.1027
834.0,0.1017
833.0,0.1006
832.0,0.0994
831.0,0.0981
830.0,0.0969
829.0,0.0959
828.0,0.0951
827.0,0.0944
826.0,0.0938
825.0,0.0932
824.0,0.0924
823.0,0.0917
822.0,0.0911
821.0,0.0906
820.0,0.0904
819.0,0.0903
818.0,0.0904
817.0,0.0905
816.0,0.0904
815.0,0.0903
814.0,0.0903
813.0,0.0903
812.0,0.0903
811.0,0.0902
810.0,0.0901
809.0,0.09
808.0,0.0898
807.0,0.0895
806.0,0.0893
805.0,0.089
804.0,0.0885
803.0,0.0879
802.0,0.0871
801.0,0.0864
800.0,0.0862
799.0,0.0871
798.0,0.0896
797.0,0.0936
796.0,0.0984
795.0,0.1028
794.0,0.1058
793.0,0.1068
792.0,0.1058
791.0,0.1032
790.0,0.0997
789.0,0.0958
788.0,0.0919
787.0,0.0882
786.0,0.0849
785.0,0.0819
784.0,0.0792
783.0,0.0769
782.0,0.0748
781.0,0.073
780.0,0.0713
779.0,0.0698
778.0,0.0683
777.0,0.0671
776.0,0.066
775.0,0.065
774.0,0.0639
773.0,0.0627
772.0,0.0614
771.0,0.0601
770.0,0.0587
769.0,0.0574
768.0,0.0562
767.0,0.055
766.0,0.054
765.0,0.053
764.0,0.052
763.0,0.0508
762.0,0.0495
761.0,0.0481
760.0,0.0467
759.0,0.0454
758.0,0.0441
757.0,0.0429
756.0,0.0418
755.0,0.0407
754.0,0.0396
753.0,0.0385
752.0,0.0374
751.0,0.0364
750.0,0.0353
749.0,0.0343
748.0,0.0335
747.0,0.0331
746.0,0.0337
745.0,0.0357
744.0,0.0395
743.0,0.0455
742.0,0.0542
741.0,0.0659
740.0,0.0807
739.0,0.0987
738.0,0.1192
737.0,0.1418
736.0,0.1657
735.0,0.1907
734.0,0.2169
733.0,0.2443
732.0,0.2733
731.0,0.3046
730.0,0.3394
729.0,0.3784
728.0,0.4212
727.0,0.4656
726.0,0.5064
725.0,0.5351
724.0,0.5437
723.0,0.5294
722.0,0.4955
721.0,0.449
720.0,0.3995
719.0,0.3549
718.0,0.3183
717.0,0.2886
716.0,0.2645
715.0,0.2453
714.0,0.2306
713.0,0.2196
712.0,0.2113
711.0,0.205
710.0,0.1996
709.0,0.1944
708.0,0.1892
707.0,0.1843
706.0,0.1796
705.0,0.1751
704.0,0.1704
703.0,0.1654
702.0,0.1598
701.0,0.154
700.0,0.1486
699.0,0.1443
698.0,0.1402
697.0,0.1359
696.0,0.1313
695.0,0.1275
694.0,0.1246
693.0,0.1222
692.0,0.1205
691.0,0.1196
690.0,0.1196
689.0,0.1194
688.0,0.1179
687.0,0.1153
686.0,0.1124
685.0,0.1105
684.0,0.1104
683.0,0.1118
682.0,0.1131
681.0,0.1128
680.0,0.1111
679.0,0.109
678.0,0.1077
677.0,0.1069
676.0,0.106
675.0,0.1047
674.0,0.1032
673.0,0.1018
672.0,0.1004
671.0,0.0986
670.0,0.0959
669.0,0.0921
668.0,0.089
667.0,0.0899
666.0,0.0924
665.0,0.0935
664.0,0.0931
663.0,0.0922
662.0,0.0914
661.0,0.0907
660.0,0.0902
659.0,0.0901
658.0,0.0901
657.0,0.0899
656.0,0.0894
655.0,0.0887
654.0,0.0877
653.0,0.0863
652.0,0.0854
651.0,0.0854
650.0,0.0859
649.0,0.086
648.0,0.0858
647.0,0.0856
646.0,0.0854
645.0,0.0849
644.0,0.0845
643.0,0.0846
642.0,0.085
641.0,0.0852
640.0,0.085
639.0,0.0853
638.0,0.0864
637.0,0.0884
636.0,0.0911
635.0,0.0941
634.0,0.0967
633.0,0.098
632.0,0.0976
631.0,0.0958
630.0,0.093
629.0,0.0898
628.0,0.0873
627.0,0.0863
626.0,0.0862
625.0,0.0864
624.0,0.0862
623.0,0.0856
622.0,0.0844
621.0,0.0826
620.0,0.0809
619.0,0.0802
618.0,0.08
617.0,0.0794
616.0,0.0787
615.0,0.0788
614.0,0.0801
613.0,0.0818
612.0,0.0829
611.0,0.083
610.0,0.0825
609.0,0.0819
608.0,0.0817
607.0,0.0822
606.0,0.0828
605.0,0.0827
604.0,0.0819
603.0,0.0811
602.0,0.0806
601.0,0.0795
600.0,0.0776
