cm-1,A
4000.0,-0.0025548081484823015
3999.0,-0.0027274726898296464
3998.0,-0.0028137792246734072
3997.0,-0.0028137792246734072
3996.0,-0.0027706281011936618
3995.0,-0.0027274726898296464
3994.0,-0.0026411490000399773
3993.0,-0.0026411490000399773
3992.0,-0.002684312989729598
3991.0,-0.0027274726898296464
3990.0,-0.0028137792246734072
3989.0,-0.0028137792246734072
3988.0,-0.0028137792246734072
3987.0,-0.0028137792246734072
3986.0,-0.0028137792246734072
3985.0,-0.002856926061120646
3984.0,-0.002856926061120646
3983.0,-0.002900068611387585
3982.0,-0.002900068611387585
3981.0,-0.002900068611387585
3980.0,-0.0029432068763250996
3979.0,-0.0029432068763250996
3978.0,-0.0029432068763250996
3977.0,-0.002900068611387585
3976.0,-0.0028137792246734072
3975.0,-0.0027274726898296464
3974.0,-0.0026411490000399773
3973.0,-0.0025548081484823015
3972.0,-0.0024684501283323
3971.0,-0.0023820749327607693
3970.0,-0.002338880892056583
3969.0,-0.002338880892056583
3968.0,-0.0023820749327607693
3967.0,-0.0024252646779014952
3966.0,-0.0024684501283323
3965.0,-0.0025116312849080558
3964.0,-0.0025548081484823015
3963.0,-0.002597980719908577
3962.0,-0.0026411490000399773
3961.0,-0.002597980719908577
3960.0,-0.002597980719908577
3959.0,-0.0025548081484823015
3958.0,-0.002597980719908577
3957.0,-0.0026411490000399773
3956.0,-0.0027274726898296464
3955.0,-0.0028137792246734072
3954.0,-0.002856926061120646
3953.0,-0.002856926061120646
3952.0,-0.0028137792246734072
3951.0,-0.0027706281011936618
3950.0,-0.0027274726898296464
3949.0,-0.0027706281011936618
3948.0,-0.0027706281011936618
3947.0,-0.0028137792246734072
3946.0,-0.002856926061120646
3945.0,-0.002900068611387585
3944.0,-0.0029432068763250996
3943.0,-0.002900068611387585
3942.0,-0.0028137792246734072
3941.0,-0.0027274726898296464
3940.0,-0.0027274726898296464
3939.0,-0.0027274726898296464
3938.0,-0.0027706281011936618
3937.0,-0.0027706281011936618
3936.0,-0.0028137792246734072
3935.0,-0.002856926061120646
3934.0,-0.0029432068763250996
3933.0,-0.0029432068763250996
3932.0,-0.002856926061120646
3931.0,-0.0027274726898296464
3930.0,-0.002597980719908577
3929.0,-0.0025116312849080558
3928.0,-0.0025548081484823015
3927.0,-0.0026411490000399773
3926.0,-0.0027274726898296464
3925.0,-0.002856926061120646
3924.0,-0.0029432068763250996
3923.0,-0.0029432068763250996
3922.0,-0.002900068611387585
3921.0,-0.002856926061120646
3920.0,-0.0027706281011936618
3919.0,-0.0027706281011936618
3918.0,-0.0027706281011936618
3917.0,-0.0027706281011936618
3916.0,-0.0027706281011936618
3915.0,-0.0027274726898296464
3914.0,-0.002684312989729598
3913.0,-0.002597980719908577
3912.0,-0.002597980719908577
3911.0,-0.0025548081484823015
3910.0,-0.0025548081484823015
3909.0,-0.0025548081484823015
3908.0,-0.0025116312849080558
3907.0,-0.0025548081484823015
3906.0,-0.002597980719908577
3905.0,-0.002684312989729598
3904.0,-0.0027706281011936618
3903.0,-0.0028137792246734072
3902.0,-0.002900068611387585
3901.0,-0.002900068611387585
3900.0,-0.002856926061120646
3899.0,-0.002684312989729598
3898.0,-0.0024684501283323
3897.0,-0.0022524799205383417
3896.0,-0.0021660617565077978
3895.0,-0.0021660617565077978
3894.0,-0.0022956825549340643
3893.0,-0.0024684501283323
3892.0,-0.0026411490000399773
3891.0,-0.0027706281011936618
3890.0,-0.0028137792246734072
3889.0,-0.002856926061120646
3888.0,-0.002856926061120646
3887.0,-0.0028137792246734072
3886.0,-0.0028137792246734072
3885.0,-0.0027706281011936618
3884.0,-0.0027706281011936618
3883.0,-0.0027706281011936618
3882.0,-0.0027706281011936618
3881.0,-0.0027274726898296464
3880.0,-0.0026411490000399773
3879.0,-0.0025548081484823015
3878.0,-0.0025548081484823015
3877.0,-0.0025116312849080558
3876.0,-0.0023820749327607693
3875.0,-0.0022524799205383417
3874.0,-0.0021228462251614566
3873.0,-0.0020796263931210923
3872.0,-0.0022524799205383417
3871.0,-0.0024684501283323
3870.0,-0.0025548081484823015
3869.0,-0.0024684501283323
3868.0,-0.002338880892056583
3867.0,-0.0022524799205383417
3866.0,-0.002338880892056583
3865.0,-0.002597980719908577
3864.0,-0.002900068611387585
3863.0,-0.003029470553618019
3862.0,-0.003029470553618019
3861.0,-0.0029432068763250996
3860.0,-0.0027706281011936618
3859.0,-0.0025548081484823015
3858.0,-0.0022524799205383417
3857.0,-0.0019499410842680476
3856.0,-0.001776967077439462
3855.0,-0.0018202170383281313
3854.0,-0.0021660617565077978
3853.0,-0.0024252646779014952
3852.0,-0.0025116312849080558
3851.0,-0.0025548081484823015
3850.0,-0.002597980719908577
3849.0,-0.002684312989729598
3848.0,-0.0027706281011936618
3847.0,-0.0027274726898296464
3846.0,-0.0026411490000399773
3845.0,-0.0024684501283323
3844.0,-0.0023820749327607693
3843.0,-0.0022956825549340643
3842.0,-0.0022524799205383417
3841.0,-0.0022092729880145434
3840.0,-0.0021660617565077978
3839.0,-0.0020796263931210923
3838.0,-0.0020796263931210923
3837.0,-0.0020796263931210923
3836.0,-0.0021228462251614566
3835.0,-0.0022092729880145434
3834.0,-0.0022956825549340643
3833.0,-0.0023820749327607693
3832.0,-0.0024252646779014952
3831.0,-0.0024252646779014952
3830.0,-0.0023820749327607693
3829.0,-0.002338880892056583
3828.0,-0.0023820749327607693
3827.0,-0.0023820749327607693
3826.0,-0.0022956825549340643
3825.0,-0.0021660617565077978
3824.0,-0.0019499410842680476
3823.0,-0.0018202170383281313
3822.0,-0.0018634626925240205
3821.0,-0.0019067040408846658
3820.0,-0.0019067040408846658
3819.0,-0.0019499410842680476
3818.0,-0.0019931738235303698
3817.0,-0.0021228462251614566
3816.0,-0.0022956825549340643
3815.0,-0.0024252646779014952
3814.0,-0.0025116312849080558
3813.0,-0.0025548081484823015
3812.0,-0.0024684501283323
3811.0,-0.0023820749327607693
3810.0,-0.002338880892056583
3809.0,-0.002338880892056583
3808.0,-0.0024252646779014952
3807.0,-0.0024684501283323
3806.0,-0.0024252646779014952
3805.0,-0.002338880892056583
3804.0,-0.0023820749327607693
3803.0,-0.0025548081484823015
3802.0,-0.002684312989729598
3801.0,-0.002597980719908577
3800.0,-0.0025116312849080558
3799.0,-0.0025116312849080558
3798.0,-0.002597980719908577
3797.0,-0.002597980719908577
3796.0,-0.0025116312849080558
3795.0,-0.0024252646779014952
3794.0,-0.0023820749327607693
3793.0,-0.0024252646779014952
3792.0,-0.0024684501283323
3791.0,-0.0025116312849080558
3790.0,-0.0024684501283323
3789.0,-0.0023820749327607693
3788.0,-0.002338880892056583
3787.0,-0.002338880892056583
3786.0,-0.0023820749327607693
3785.0,-0.0024252646779014952
3784.0,-0.0024684501283323
3783.0,-0.0024684501283323
3782.0,-0.0024684501283323
3781.0,-0.0024684501283323
3780.0,-0.0024684501283323
3779.0,-0.0024252646779014952
3778.0,-0.0024252646779014952
3777.0,-0.0024252646779014952
3776.0,-0.0023820749327607693
3775.0,-0.0023820749327607693
3774.0,-0.0023820749327607693
3773.0,-0.0023820749327607693
3772.0,-0.0024684501283323
3771.0,-0.0025548081484823015
3770.0,-0.002597980719908577
3769.0,-0.0025548081484823015
3768.0,-0.0025116312849080558
3767.0,-0.0024252646779014952
3766.0,-0.0023820749327607693
3765.0,-0.002338880892056583
3764.0,-0.0022956825549340643
3763.0,-0.0022956825549340643
3762.0,-0.0022956825549340643
3761.0,-0.0022956825549340643
3760.0,-0.0022092729880145434
3759.0,-0.0021228462251614566
3758.0,-0.0020796263931210923
3757.0,-0.0020796263931210923
3756.0,-0.0020796263931210923
3755.0,-0.0020796263931210923
3754.0,-0.0020796263931210923
3753.0,-0.0021660617565077978
3752.0,-0.0022092729880145434
3751.0,-0.0022524799205383417
3750.0,-0.0022092729880145434
3749.0,-0.0022524799205383417
3748.0,-0.0022956825549340643
3747.0,-0.002338880892056583
3746.0,-0.002338880892056583
3745.0,-0.0022956825549340643
3744.0,-0.0022092729880145434
3743.0,-0.0022956825549340643
3742.0,-0.0024684501283323
3741.0,-0.002684312989729598
3740.0,-0.002856926061120646
3739.0,-0.0029432068763250996
3738.0,-0.002900068611387585
3737.0,-0.0027274726898296464
3736.0,-0.002597980719908577
3735.0,-0.0025548081484823015
3734.0,-0.0026411490000399773
3733.0,-0.0027274726898296464
3732.0,-0.0027706281011936618
3731.0,-0.0027274726898296464
3730.0,-0.002684312989729598
3729.0,-0.0026411490000399773
3728.0,-0.0026411490000399773
3727.0,-0.002597980719908577
3726.0,-0.0025548081484823015
3725.0,-0.002597980719908577
3724.0,-0.0027274726898296464
3723.0,-0.0027706281011936618
3722.0,-0.0027706281011936618
3721.0,-0.002684312989729598
3720.0,-0.0026411490000399773
3719.0,-0.002597980719908577
3718.0,-0.0025548081484823015
3717.0,-0.0025116312849080558
3716.0,-0.0024252646779014952
3715.0,-0.002338880892056583
3714.0,-0.0022956825549340643
3713.0,-0.0022956825549340643
3712.0,-0.002338880892056583
3711.0,-0.0023820749327607693
3710.0,-0.0024252646779014952
3709.0,-0.0024684501283323
3708.0,-0.0025116312849080558
3707.0,-0.0025548081484823015
3706.0,-0.0026411490000399773
3705.0,-0.0027274726898296464
3704.0,-0.0027706281011936618
3703.0,-0.0027706281011936618
3702.0,-0.0027274726898296464
3701.0,-0.0026411490000399773
3700.0,-0.002597980719908577
3699.0,-0.002597980719908577
3698.0,-0.002684312989729598
3697.0,-0.0027706281011936618
3696.0,-0.002856926061120646
3695.0,-0.002856926061120646
3694.0,-0.0028137792246734072
3693.0,-0.0027706281011936618
3692.0,-0.0027706281011936618
3691.0,-0.0027706281011936618
3690.0,-0.0027706281011936618
3689.0,-0.0026411490000399773
3688.0,-0.0024684501283323
3687.0,-0.0023820749327607693
3686.0,-0.002338880892056583
3685.0,-0.0023820749327607693
3684.0,-0.0024252646779014952
3683.0,-0.0024252646779014952
3682.0,-0.0024252646779014952
3681.0,-0.0023820749327607693
3680.0,-0.0022956825549340643
3679.0,-0.0022092729880145434
3678.0,-0.0020364022595291686
3677.0,-0.0018634626925240205
3676.0,-0.0016904542321527494
3675.0,-0.0015173768235041685
3674.0,-0.0015173768235041685
3673.0,-0.0015606526425728795
3672.0,-0.0016039241497978196
3671.0,-0.0016471913460383014
3670.0,-0.0016039241497978196
3669.0,-0.0016039241497978196
3668.0,-0.001733712809000476
3667.0,-0.0018634626925240205
3666.0,-0.0019499410842680476
3665.0,-0.0019931738235303698
3664.0,-0.0019499410842680476
3663.0,-0.0018634626925240205
3662.0,-0.001733712809000476
3661.0,-0.0016471913460383014
3660.0,-0.0016039241497978196
3659.0,-0.0016471913460383014
3658.0,-0.001776967077439462
3657.0,-0.0018202170383281313
3656.0,-0.001776967077439462
3655.0,-0.0016904542321527494
3654.0,-0.0016039241497978196
3653.0,-0.0015606526425728795
3652.0,-0.0015173768235041685
3651.0,-0.0015173768235041685
3650.0,-0.001474096691732818
3649.0,-0.0014308122463981832
3648.0,-0.0013875234866409514
3647.0,-0.001474096691732818
3646.0,-0.0016039241497978196
3645.0,-0.001733712809000476
3644.0,-0.0018634626925240205
3643.0,-0.0019067040408846658
3642.0,-0.0018634626925240205
3641.0,-0.0018634626925240205
3640.0,-0.0018634626925240205
3639.0,-0.0019067040408846658
3638.0,-0.0019499410842680476
3637.0,-0.0019499410842680476
3636.0,-0.0019067040408846658
3635.0,-0.0019067040408846658
3634.0,-0.0019499410842680476
3633.0,-0.0020364022595291686
3632.0,-0.0021660617565077978
3631.0,-0.0022956825549340643
3630.0,-0.0023820749327607693
3629.0,-0.0022956825549340643
3628.0,-0.0022092729880145434
3627.0,-0.0022092729880145434
3626.0,-0.0022524799205383417
3625.0,-0.002338880892056583
3624.0,-0.002338880892056583
3623.0,-0.0022524799205383417
3622.0,-0.0022092729880145434
3621.0,-0.0022092729880145434
3620.0,-0.0022524799205383417
3619.0,-0.0022092729880145434
3618.0,-0.0021660617565077978
3617.0,-0.0020796263931210923
3616.0,-0.0019931738235303698
3615.0,-0.0019499410842680476
3614.0,-0.0019931738235303698
3613.0,-0.0020364022595291686
3612.0,-0.0021660617565077978
3611.0,-0.0022524799205383417
3610.0,-0.002338880892056583
3609.0,-0.002338880892056583
3608.0,-0.0022092729880145434
3607.0,-0.0020364022595291686
3606.0,-0.0019067040408846658
3605.0,-0.0018202170383281313
3604.0,-0.0018202170383281313
3603.0,-0.0019499410842680476
3602.0,-0.0020796263931210923
3601.0,-0.0021228462251614566
3600.0,-0.0020796263931210923
3599.0,-0.0019499410842680476
3598.0,-0.0019067040408846658
3597.0,-0.0019067040408846658
3596.0,-0.0019499410842680476
3595.0,-0.0019499410842680476
3594.0,-0.0019499410842680476
3593.0,-0.0019499410842680476
3592.0,-0.0019499410842680476
3591.0,-0.0019931738235303698
3590.0,-0.0019931738235303698
3589.0,-0.0019931738235303698
3588.0,-0.0020364022595291686
3587.0,-0.0019931738235303698
3586.0,-0.0019067040408846658
3585.0,-0.0018202170383281313
3584.0,-0.0016471913460383014
3583.0,-0.0015173768235041685
3582.0,-0.0013875234866409514
3581.0,-0.001344230411601366
3580.0,-0.0013875234866409514
3579.0,-0.001474096691732818
3578.0,-0.0016039241497978196
3577.0,-0.0016471913460383014
3576.0,-0.0016039241497978196
3575.0,-0.001474096691732818
3574.0,-0.001344230411601366
3573.0,-0.001257631312230778
3572.0,-0.001257631312230778
3571.0,-0.0013009330204178937
3570.0,-0.0014308122463981832
3569.0,-0.0015173768235041685
3568.0,-0.0015173768235041685
3567.0,-0.0014308122463981832
3566.0,-0.001257631312230778
3565.0,-0.00121432528617893
3564.0,-0.00121432528617893
3563.0,-0.0013009330204178937
3562.0,-0.0013009330204178937
3561.0,-0.0013009330204178937
3560.0,-0.0013009330204178937
3559.0,-0.0013875234866409514
3558.0,-0.001474096691732818
3557.0,-0.001474096691732818
3556.0,-0.0013875234866409514
3555.0,-0.001257631312230778
3554.0,-0.0011277002770349043
3553.0,-0.0011277002770349043
3552.0,-0.0011710149414008164
3551.0,-0.0011710149414008164
3550.0,-0.0011710149414008164
3549.0,-0.0011710149414008164
3548.0,-0.0011710149414008164
3547.0,-0.00121432528617893
3546.0,-0.0013009330204178937
3545.0,-0.001344230411601366
3544.0,-0.001344230411601366
3543.0,-0.0013009330204178937
3542.0,-0.0011710149414008164
3541.0,-0.001041057986093552
3540.0,-0.0009110621312231615
3539.0,-0.0008243766056055257
3538.0,-0.0007376737740329986
3537.0,-0.0006943158663546001
3536.0,-0.0006075870628903246
3535.0,-0.0005642161653756084
3534.0,-0.0005642161653756084
3533.0,-0.0006075870628903246
3532.0,-0.0006075870628903246
3531.0,-0.0005642161653756084
3530.0,-0.0005208409361854294
3529.0,-0.0005208409361854294
3528.0,-0.0005208409361854294
3527.0,-0.0005642161653756084
3526.0,-0.0006075870628903246
3525.0,-0.0005208409361854294
3524.0,-0.0003906892499099257
3523.0,-0.00021709297223004853
3522.0,-0.00013026880522692963
3521.0,-0.00013026880522692963
3520.0,-0.00013026880522692963
3519.0,-0.00013026880522692963
3518.0,0.0
3517.0,0.0001303078917322953
3516.0,0.00030411258916074324
3515.0,0.00043451177401765406
3514.0,0.0005649501236701937
3513.0,0.0006519307932786322
3512.0,0.0007389288868995258
3511.0,0.0008259444115150671
3510.0,0.000869458712629001
3509.0,0.000869458712629001
3508.0,0.0007824344698965646
3507.0,0.0006084382809090627
3506.0,0.00043451177401765406
3505.0,0.0003475746339209884
3504.0,0.00043451177401765406
3503.0,0.0006519307932786322
3502.0,0.000869458712629001
3501.0,0.0010000277816797354
3500.0,0.0009129773741116676
3499.0,0.0007389288868995258
3498.0,0.0005649501236701937
3497.0,0.0003475746339209884
3496.0,0.00021720154586435392
3495.0,8.686758342868472e-05
3494.0,-4.3427276862573194e-05
3493.0,-0.00013026880522692963
3492.0,-0.00017368305846510168
3491.0,-0.00013026880522692963
3490.0,-8.685021164911433e-05
3489.0,0.0
3488.0,0.0
3487.0,-4.3427276862573194e-05
3486.0,-0.00013026880522692963
3485.0,-0.00021709297223004853
3484.0,-0.00030389978481260016
3483.0,-0.00030389978481260016
3482.0,-0.00030389978481260016
3481.0,-0.0002604985473904087
3480.0,-0.0002604985473904087
3479.0,-0.00030389978481260016
3478.0,-0.00043407747931878404
3477.0,-0.0006075870628903246
3476.0,-0.0007376737740329986
3475.0,-0.0007810273534953893
3474.0,-0.0007376737740329986
3473.0,-0.0006943158663546001
3472.0,-0.0007376737740329986
3471.0,-0.0008243766056055257
3470.0,-0.0009977303577937136
3469.0,-0.0011710149414008164
3468.0,-0.001257631312230778
3467.0,-0.00121432528617893
3466.0,-0.0011277002770349043
3465.0,-0.001041057986093552
3464.0,-0.0009977303577937136
3463.0,-0.001041057986093552
3462.0,-0.00121432528617893
3461.0,-0.0013875234866409514
3460.0,-0.0015606526425728795
3459.0,-0.0016039241497978196
3458.0,-0.0015606526425728795
3457.0,-0.0014308122463981832
3456.0,-0.0013009330204178937
3455.0,-0.00121432528617893
3454.0,-0.00121432528617893
3453.0,-0.001344230411601366
3452.0,-0.001474096691732818
3451.0,-0.0016471913460383014
3450.0,-0.0016904542321527494
3449.0,-0.0016471913460383014
3448.0,-0.0015606526425728795
3447.0,-0.001474096691732818
3446.0,-0.001474096691732818
3445.0,-0.0016471913460383014
3444.0,-0.0018634626925240205
3443.0,-0.0019931738235303698
3442.0,-0.0020364022595291686
3441.0,-0.0019067040408846658
3440.0,-0.001733712809000476
3439.0,-0.0016039241497978196
3438.0,-0.0015173768235041685
3437.0,-0.0015606526425728795
3436.0,-0.0016039241497978196
3435.0,-0.0016471913460383014
3434.0,-0.0016471913460383014
3433.0,-0.0016039241497978196
3432.0,-0.0016039241497978196
3431.0,-0.0016471913460383014
3430.0,-0.001733712809000476
3429.0,-0.001776967077439462
3428.0,-0.001733712809000476
3427.0,-0.0016471913460383014
3426.0,-0.0015606526425728795
3425.0,-0.0014308122463981832
3424.0,-0.001344230411601366
3423.0,-0.001257631312230778
3422.0,-0.0013009330204178937
3421.0,-0.0014308122463981832
3420.0,-0.0016039241497978196
3419.0,-0.0016471913460383014
3418.0,-0.0016039241497978196
3417.0,-0.001474096691732818
3416.0,-0.0013875234866409514
3415.0,-0.001344230411601366
3414.0,-0.001344230411601366
3413.0,-0.0014308122463981832
3412.0,-0.0015606526425728795
3411.0,-0.0016039241497978196
3410.0,-0.0016471913460383014
3409.0,-0.0016039241497978196
3408.0,-0.0016039241497978196
3407.0,-0.0016471913460383014
3406.0,-0.0016904542321527494
3405.0,-0.0016904542321527494
3404.0,-0.0015606526425728795
3403.0,-0.0014308122463981832
3402.0,-0.0013009330204178937
3401.0,-0.001344230411601366
3400.0,-0.0014308122463981832
3399.0,-0.0015606526425728795
3398.0,-0.0016904542321527494
3397.0,-0.0016904542321527494
3396.0,-0.0016904542321527494
3395.0,-0.0016039241497978196
3394.0,-0.0015606526425728795
3393.0,-0.0015173768235041685
3392.0,-0.0015173768235041685
3391.0,-0.0015606526425728795
3390.0,-0.0016471913460383014
3389.0,-0.001733712809000476
3388.0,-0.0018202170383281313
3387.0,-0.0018634626925240205
3386.0,-0.0019067040408846658
3385.0,-0.0018202170383281313
3384.0,-0.001733712809000476
3383.0,-0.0016904542321527494
3382.0,-0.0016471913460383014
3381.0,-0.0016471913460383014
3380.0,-0.0015606526425728795
3379.0,-0.0015606526425728795
3378.0,-0.0016039241497978196
3377.0,-0.0016904542321527494
3376.0,-0.001776967077439462
3375.0,-0.001776967077439462
3374.0,-0.0016904542321527494
3373.0,-0.0016039241497978196
3372.0,-0.0015606526425728795
3371.0,-0.0016039241497978196
3370.0,-0.0016471913460383014
3369.0,-0.0016039241497978196
3368.0,-0.0015606526425728795
3367.0,-0.0015606526425728795
3366.0,-0.0015173768235041685
3365.0,-0.001474096691732818
3364.0,-0.0014308122463981832
3363.0,-0.001474096691732818
3362.0,-0.0016039241497978196
3361.0,-0.0016904542321527494
3360.0,-0.0016471913460383014
3359.0,-0.0015173768235041685
3358.0,-0.0013875234866409514
3357.0,-0.001344230411601366
3356.0,-0.001344230411601366
3355.0,-0.0013875234866409514
3354.0,-0.0014308122463981832
3353.0,-0.0014308122463981832
3352.0,-0.0014308122463981832
3351.0,-0.0013875234866409514
3350.0,-0.0013875234866409514
3349.0,-0.0014308122463981832
3348.0,-0.0015173768235041685
3347.0,-0.0015606526425728795
3346.0,-0.0016039241497978196
3345.0,-0.0015173768235041685
3344.0,-0.001474096691732818
3343.0,-0.001474096691732818
3342.0,-0.0015606526425728795
3341.0,-0.0016471913460383014
3340.0,-0.0016904542321527494
3339.0,-0.0016471913460383014
3338.0,-0.0015606526425728795
3337.0,-0.001474096691732818
3336.0,-0.0013875234866409514
3335.0,-0.0013875234866409514
3334.0,-0.0014308122463981832
3333.0,-0.0014308122463981832
3332.0,-0.0013875234866409514
3331.0,-0.001344230411601366
3330.0,-0.001257631312230778
3329.0,-0.00121432528617893
3328.0,-0.0011277002770349043
3327.0,-0.0010843812922201046
3326.0,-0.0010843812922201046
3325.0,-0.0011710149414008164
3324.0,-0.0013009330204178937
3323.0,-0.0015173768235041685
3322.0,-0.001733712809000476
3321.0,-0.001776967077439462
3320.0,-0.0016904542321527494
3319.0,-0.001474096691732818
3318.0,-0.001257631312230778
3317.0,-0.0010843812922201046
3316.0,-0.001041057986093552
3315.0,-0.0011277002770349043
3314.0,-0.0013009330204178937
3313.0,-0.0014308122463981832
3312.0,-0.0015173768235041685
3311.0,-0.0015606526425728795
3310.0,-0.0015173768235041685
3309.0,-0.0014308122463981832
3308.0,-0.001344230411601366
3307.0,-0.0013009330204178937
3306.0,-0.0013009330204178937
3305.0,-0.001344230411601366
3304.0,-0.001474096691732818
3303.0,-0.0015606526425728795
3302.0,-0.0015606526425728795
3301.0,-0.0015173768235041685
3300.0,-0.0014308122463981832
3299.0,-0.0013875234866409514
3298.0,-0.001474096691732818
3297.0,-0.0015606526425728795
3296.0,-0.0016039241497978196
3295.0,-0.0016904542321527494
3294.0,-0.001733712809000476
3293.0,-0.001733712809000476
3292.0,-0.0016471913460383014
3291.0,-0.0015606526425728795
3290.0,-0.0015606526425728795
3289.0,-0.0016039241497978196
3288.0,-0.0016471913460383014
3287.0,-0.0016471913460383014
3286.0,-0.0016039241497978196
3285.0,-0.0015606526425728795
3284.0,-0.0015606526425728795
3283.0,-0.0015606526425728795
3282.0,-0.0015173768235041685
3281.0,-0.0015173768235041685
3280.0,-0.0015173768235041685
3279.0,-0.0015606526425728795
3278.0,-0.0016471913460383014
3277.0,-0.001776967077439462
3276.0,-0.0018202170383281313
3275.0,-0.0018634626925240205
3274.0,-0.001776967077439462
3273.0,-0.0016471913460383014
3272.0,-0.0015173768235041685
3271.0,-0.0014308122463981832
3270.0,-0.001474096691732818
3269.0,-0.0015606526425728795
3268.0,-0.0016039241497978196
3267.0,-0.0016904542321527494
3266.0,-0.001733712809000476
3265.0,-0.001776967077439462
3264.0,-0.0018634626925240205
3263.0,-0.0018634626925240205
3262.0,-0.001776967077439462
3261.0,-0.0016471913460383014
3260.0,-0.0016039241497978196
3259.0,-0.0016039241497978196
3258.0,-0.0016471913460383014
3257.0,-0.0016471913460383014
3256.0,-0.0016039241497978196
3255.0,-0.0015606526425728795
3254.0,-0.0015173768235041685
3253.0,-0.0015606526425728795
3252.0,-0.0015606526425728795
3251.0,-0.0015606526425728795
3250.0,-0.0015173768235041685
3249.0,-0.0014308122463981832
3248.0,-0.001344230411601366
3247.0,-0.0013009330204178937
3246.0,-0.0013009330204178937
3245.0,-0.0013009330204178937
3244.0,-0.0013009330204178937
3243.0,-0.001344230411601366
3242.0,-0.0013875234866409514
3241.0,-0.0014308122463981832
3240.0,-0.001474096691732818
3239.0,-0.0015173768235041685
3238.0,-0.0016471913460383014
3237.0,-0.001733712809000476
3236.0,-0.001776967077439462
3235.0,-0.001733712809000476
3234.0,-0.0016471913460383014
3233.0,-0.0015173768235041685
3232.0,-0.001344230411601366
3231.0,-0.00121432528617893
3230.0,-0.0011710149414008164
3229.0,-0.00121432528617893
3228.0,-0.0013009330204178937
3227.0,-0.001474096691732818
3226.0,-0.0016039241497978196
3225.0,-0.0016471913460383014
3224.0,-0.0015606526425728795
3223.0,-0.001474096691732818
3222.0,-0.0014308122463981832
3221.0,-0.0015173768235041685
3220.0,-0.0016471913460383014
3219.0,-0.001733712809000476
3218.0,-0.0016904542321527494
3217.0,-0.0015606526425728795
3216.0,-0.0013875234866409514
3215.0,-0.00121432528617893
3214.0,-0.0011277002770349043
3213.0,-0.0010843812922201046
3212.0,-0.001041057986093552
3211.0,-0.0010843812922201046
3210.0,-0.0011710149414008164
3209.0,-0.001257631312230778
3208.0,-0.0013875234866409514
3207.0,-0.0014308122463981832
3206.0,-0.0015173768235041685
3205.0,-0.0015606526425728795
3204.0,-0.0015606526425728795
3203.0,-0.001474096691732818
3202.0,-0.0014308122463981832
3201.0,-0.001344230411601366
3200.0,-0.001344230411601366
3199.0,-0.0014308122463981832
3198.0,-0.0015173768235041685
3197.0,-0.0015606526425728795
3196.0,-0.0015606526425728795
3195.0,-0.0015173768235041685
3194.0,-0.001474096691732818
3193.0,-0.0014308122463981832
3192.0,-0.0014308122463981832
3191.0,-0.001474096691732818
3190.0,-0.0016039241497978196
3189.0,-0.001733712809000476
3188.0,-0.0018202170383281313
3187.0,-0.0018202170383281313
3186.0,-0.0018202170383281313
3185.0,-0.001733712809000476
3184.0,-0.0016904542321527494
3183.0,-0.0016904542321527494
3182.0,-0.001733712809000476
3181.0,-0.001776967077439462
3180.0,-0.0018202170383281313
3179.0,-0.001733712809000476
3178.0,-0.0016039241497978196
3177.0,-0.001474096691732818
3176.0,-0.0013875234866409514
3175.0,-0.0013875234866409514
3174.0,-0.0015173768235041685
3173.0,-0.0016471913460383014
3172.0,-0.0016904542321527494
3171.0,-0.0016904542321527494
3170.0,-0.0016471913460383014
3169.0,-0.0015606526425728795
3168.0,-0.001474096691732818
3167.0,-0.001474096691732818
3166.0,-0.001474096691732818
3165.0,-0.001474096691732818
3164.0,-0.001474096691732818
3163.0,-0.001474096691732818
3162.0,-0.0015173768235041685
3161.0,-0.0015606526425728795
3160.0,-0.0016039241497978196
3159.0,-0.0016039241497978196
3158.0,-0.001474096691732818
3157.0,-0.001344230411601366
3156.0,-0.0013009330204178937
3155.0,-0.001344230411601366
3154.0,-0.0014308122463981832
3153.0,-0.001474096691732818
3152.0,-0.0015606526425728795
3151.0,-0.0016039241497978196
3150.0,-0.0016471913460383014
3149.0,-0.0016904542321527494
3148.0,-0.0016904542321527494
3147.0,-0.0016471913460383014
3146.0,-0.0016039241497978196
3145.0,-0.0015173768235041685
3144.0,-0.0014308122463981832
3143.0,-0.001344230411601366
3142.0,-0.001344230411601366
3141.0,-0.0013009330204178937
3140.0,-0.001344230411601366
3139.0,-0.001344230411601366
3138.0,-0.0013875234866409514
3137.0,-0.0014308122463981832
3136.0,-0.0014308122463981832
3135.0,-0.0014308122463981832
3134.0,-0.0015173768235041685
3133.0,-0.0016039241497978196
3132.0,-0.0016904542321527494
3131.0,-0.001776967077439462
3130.0,-0.001776967077439462
3129.0,-0.001776967077439462
3128.0,-0.0016904542321527494
3127.0,-0.0015606526425728795
3126.0,-0.0014308122463981832
3125.0,-0.001344230411601366
3124.0,-0.0013009330204178937
3123.0,-0.001344230411601366
3122.0,-0.0014308122463981832
3121.0,-0.0015606526425728795
3120.0,-0.0016471913460383014
3119.0,-0.0016904542321527494
3118.0,-0.0016904542321527494
3117.0,-0.0016904542321527494
3116.0,-0.0016904542321527494
3115.0,-0.001733712809000476
3114.0,-0.001733712809000476
3113.0,-0.0016904542321527494
3112.0,-0.0016471913460383014
3111.0,-0.0015606526425728795
3110.0,-0.001474096691732818
3109.0,-0.001474096691732818
3108.0,-0.0014308122463981832
3107.0,-0.001474096691732818
3106.0,-0.001474096691732818
3105.0,-0.001474096691732818
3104.0,-0.0013875234866409514
3103.0,-0.001344230411601366
3102.0,-0.001344230411601366
3101.0,-0.0014308122463981832
3100.0,-0.0015173768235041685
3099.0,-0.0016039241497978196
3098.0,-0.0016471913460383014
3097.0,-0.0016471913460383014
3096.0,-0.0016039241497978196
3095.0,-0.0015606526425728795
3094.0,-0.0015606526425728795
3093.0,-0.0015606526425728795
3092.0,-0.0015606526425728795
3091.0,-0.0016039241497978196
3090.0,-0.0016471913460383014
3089.0,-0.0016904542321527494
3088.0,-0.0016904542321527494
3087.0,-0.0016904542321527494
3086.0,-0.0016471913460383014
3085.0,-0.0016039241497978196
3084.0,-0.0015173768235041685
3083.0,-0.0014308122463981832
3082.0,-0.0013875234866409514
3081.0,-0.001344230411601366
3080.0,-0.0013009330204178937
3079.0,-0.001344230411601366
3078.0,-0.0014308122463981832
3077.0,-0.0015173768235041685
3076.0,-0.0015606526425728795
3075.0,-0.0015606526425728795
3074.0,-0.0014308122463981832
3073.0,-0.0013009330204178937
3072.0,-0.00121432528617893
3071.0,-0.0011710149414008164
3070.0,-0.001257631312230778
3069.0,-0.0013009330204178937
3068.0,-0.0013009330204178937
3067.0,-0.001257631312230778
3066.0,-0.0011710149414008164
3065.0,-0.0011277002770349043
3064.0,-0.0011710149414008164
3063.0,-0.001257631312230778
3062.0,-0.0013009330204178937
3061.0,-0.001344230411601366
3060.0,-0.001344230411601366
3059.0,-0.001344230411601366
3058.0,-0.001344230411601366
3057.0,-0.001344230411601366
3056.0,-0.001344230411601366
3055.0,-0.001344230411601366
3054.0,-0.0013009330204178937
3053.0,-0.00121432528617893
3052.0,-0.0011277002770349043
3051.0,-0.001041057986093552
3050.0,-0.001041057986093552
3049.0,-0.001041057986093552
3048.0,-0.001041057986093552
3047.0,-0.001041057986093552
3046.0,-0.0010843812922201046
3045.0,-0.0011277002770349043
3044.0,-0.0011277002770349043
3043.0,-0.0011277002770349043
3042.0,-0.0010843812922201046
3041.0,-0.001041057986093552
3040.0,-0.0009977303577937136
3039.0,-0.0009977303577937136
3038.0,-0.0009543984064577238
3037.0,-0.0009110621312231615
3036.0,-0.0008243766056055257
3035.0,-0.0007810273534953893
3034.0,-0.0007376737740329986
3033.0,-0.0006943158663546001
3032.0,-0.0006943158663546001
3031.0,-0.0006509536295951079
3030.0,-0.0005642161653756084
3029.0,-0.00043407747931878404
3028.0,-0.00030389978481260016
3027.0,-8.685021164911433e-05
3026.0,0.0001303078917322953
3025.0,0.0003910410285830057
3024.0,0.0006084382809090627
3023.0,0.0007824344698965646
3022.0,0.0009565003968372565
3021.0,0.0012177301682640973
3020.0,0.0015662811355310335
3019.0,0.0020023635919956817
3018.0,0.002482560585275184
3017.0,0.003050751504618754
3016.0,0.0035758960449088217
3015.0,0.0040578370074493275
3014.0,0.004671990922590297
3013.0,0.00537494623139545
3012.0,0.00621118618129457
3011.0,0.007093181776687496
3010.0,0.007932739972333236
3009.0,0.008818242332126802
3008.0,0.00966114521239847
3007.0,0.010550182333308289
3006.0,0.011441043121384498
3005.0,0.012333735073725371
3004.0,0.01322826573375524
3003.0,0.014124642691606404
3002.0,0.015022873584506602
3001.0,0.015922966097169144
3000.0,0.016870075265299933
2999.0,0.017728766960431575
2998.0,0.01845319495476394
2997.0,0.018951941086827073
2996.0,0.019133445417920836
2995.0,0.01899731005860028
2994.0,0.01858915983411169
2993.0,0.017909760704207134
2992.0,0.016960383953898095
2991.0,0.015832872853011715
2990.0,0.01452861671041239
2989.0,0.01318349541446362
2988.0,0.011887159731648111
2987.0,0.010683695010048622
2986.0,0.009616741093766423
2985.0,0.008685301823389224
2984.0,0.007844288957383316
2983.0,0.007137328610972382
2982.0,0.006519680930003435
2981.0,0.006035001804881146
2980.0,0.005638848091999105
2979.0,0.0052870145684298375
2978.0,0.004979393875242044
2977.0,0.004715892310740433
2976.0,0.004540313378935901
2975.0,0.004408675747646695
2974.0,0.004320939488377862
2973.0,0.004233220950025984
2972.0,0.004189368323957332
2971.0,0.004145520125434121
2970.0,0.004233220950025984
2969.0,0.0043648054024501
2968.0,0.004628093971837721
2967.0,0.00489154225525934
2966.0,0.005111204635089406
2965.0,0.0052870145684298375
2964.0,0.00537494623139545
2963.0,0.005462895701502157
2962.0,0.005682847330363394
2961.0,0.005990966876386672
2960.0,0.006387442061109638
2959.0,0.006784279525863024
2958.0,0.007225635744644521
2957.0,0.007755855953228474
2956.0,0.008330992620051436
2955.0,0.008995559669244813
2954.0,0.00974996707218323
2953.0,0.010550182333308289
2952.0,0.011396456654336085
2951.0,0.012244383261476699
2950.0,0.013093968619278806
2949.0,0.013945219230304673
2948.0,0.014708281407112
2947.0,0.015337693809893471
2946.0,0.015742798294583915
2945.0,0.01578783323856614
2944.0,0.01547268665620738
2943.0,0.014753209197138295
2942.0,0.013765869865004277
2941.0,0.01264661126420652
2940.0,0.011530229790124524
2939.0,0.010416710688994968
2938.0,0.009306039320248427
2937.0,0.008242460465651913
2936.0,0.007269796045857202
2935.0,0.006475596832934416
2934.0,0.005858888873877532
2933.0,0.00537494623139545
2932.0,0.004979393875242044
2931.0,0.00458420145758498
2930.0,0.004189368323957332
2929.0,0.003794893821675638
2928.0,0.0034445503666347133
2927.0,0.0030944893043338695
2926.0,0.0028321285541661467
2925.0,0.0026573093983774942
2924.0,0.0025262411970197185
2923.0,0.0023078820582733695
2922.0,0.0020459959305969555
2921.0,0.0017406615763013722
2920.0,0.0014791171649619628
2919.0,0.0012612837441823288
2918.0,0.0011306361176557367
2917.0,0.0010435595295137379
2916.0,0.0010000277816797354
2915.0,0.0009129773741116676
2914.0,0.0007824344698965646
2913.0,0.0006084382809090627
2912.0,0.000521466320689834
2911.0,0.00043451177401765406
2910.0,0.0004779868710962365
2909.0,0.0004779868710962365
2908.0,0.0004779868710962365
2907.0,0.00043451177401765406
2906.0,0.0003475746339209884
2905.0,0.00026065489343207737
2904.0,0.00017375254558760211
2903.0,8.686758342868472e-05
2902.0,0.0
2901.0,0.0
2900.0,4.343161980746579e-05
2899.0,0.0001303078917322953
2898.0,0.00017375254558760211
2897.0,0.00026065489343207737
2896.0,0.00030411258916074324
2895.0,0.00030411258916074324
2894.0,0.00030411258916074324
2893.0,0.00026065489343207737
2892.0,0.00030411258916074324
2891.0,0.0003910410285830057
2890.0,0.0004779868710962365
2889.0,0.0006084382809090627
2888.0,0.0008259444115150671
2887.0,0.0010435595295137379
2886.0,0.0012612837441823288
2885.0,0.0014791171649619628
2884.0,0.0016970599014589638
2883.0,0.001915112063444413
2882.0,0.002089632653256679
2881.0,0.0022642234021015284
2880.0,0.0023078820582733695
2879.0,0.0022642234021015284
2878.0,0.0020459959305969555
2877.0,0.0017842676290416026
2876.0,0.0015226969634936083
2875.0,0.0012177301682640973
2874.0,0.0008259444115150671
2873.0,0.0003910410285830057
2872.0,0.0
2871.0,-0.00030389978481260016
2870.0,-0.0005208409361854294
2869.0,-0.0006509536295951079
2868.0,-0.0007376737740329986
2867.0,-0.0008677215312267172
2866.0,-0.0009977303577937136
2865.0,-0.0010843812922201046
2864.0,-0.0011710149414008164
2863.0,-0.00121432528617893
2862.0,-0.00121432528617893
2861.0,-0.001257631312230778
2860.0,-0.00121432528617893
2859.0,-0.00121432528617893
2858.0,-0.0011710149414008164
2857.0,-0.0011277002770349043
2856.0,-0.0010843812922201046
2855.0,-0.0010843812922201046
2854.0,-0.0011277002770349043
2853.0,-0.0011710149414008164
2852.0,-0.0011710149414008164
2851.0,-0.0011277002770349043
2850.0,-0.0011710149414008164
2849.0,-0.00121432528617893
2848.0,-0.001257631312230778
2847.0,-0.0013009330204178937
2846.0,-0.001257631312230778
2845.0,-0.0011710149414008164
2844.0,-0.0011277002770349043
2843.0,-0.0010843812922201046
2842.0,-0.0010843812922201046
2841.0,-0.0010843812922201046
2840.0,-0.001041057986093552
2839.0,-0.0009977303577937136
2838.0,-0.0009543984064577238
2837.0,-0.0009543984064577238
2836.0,-0.0009543984064577238
2835.0,-0.0009543984064577238
2834.0,-0.0009977303577937136
2833.0,-0.0009977303577937136
2832.0,-0.0009977303577937136
2831.0,-0.0009543984064577238
2830.0,-0.0009110621312231615
2829.0,-0.0009110621312231615
2828.0,-0.0009110621312231615
2827.0,-0.0009110621312231615
2826.0,-0.0009110621312231615
2825.0,-0.0009543984064577238
2824.0,-0.0009977303577937136
2823.0,-0.001041057986093552
2822.0,-0.0011277002770349043
2821.0,-0.0011710149414008164
2820.0,-0.001257631312230778
2819.0,-0.0013009330204178937
2818.0,-0.0013009330204178937
2817.0,-0.0013009330204178937
2816.0,-0.001257631312230778
2815.0,-0.00121432528617893
2814.0,-0.00121432528617893
2813.0,-0.001257631312230778
2812.0,-0.0013009330204178937
2811.0,-0.0013875234866409514
2810.0,-0.001474096691732818
2809.0,-0.0015606526425728795
2808.0,-0.0016039241497978196
2807.0,-0.0016039241497978196
2806.0,-0.0016039241497978196
2805.0,-0.0016039241497978196
2804.0,-0.0016039241497978196
2803.0,-0.0016471913460383014
2802.0,-0.0016471913460383014
2801.0,-0.0016039241497978196
2800.0,-0.0016039241497978196
2799.0,-0.0016471913460383014
2798.0,-0.0016904542321527494
2797.0,-0.001776967077439462
2796.0,-0.0018634626925240205
2795.0,-0.0019067040408846658
2794.0,-0.0019499410842680476
2793.0,-0.0019067040408846658
2792.0,-0.0018634626925240205
2791.0,-0.0018202170383281313
2790.0,-0.0018202170383281313
2789.0,-0.0018202170383281313
2788.0,-0.0018634626925240205
2787.0,-0.0019499410842680476
2786.0,-0.0020364022595291686
2785.0,-0.0020364022595291686
2784.0,-0.0019931738235303698
2783.0,-0.0019499410842680476
2782.0,-0.0019067040408846658
2781.0,-0.0019067040408846658
2780.0,-0.0019067040408846658
2779.0,-0.0019499410842680476
2778.0,-0.0019931738235303698
2777.0,-0.0020796263931210923
2776.0,-0.0021228462251614566
2775.0,-0.0021228462251614566
2774.0,-0.0020796263931210923
2773.0,-0.0020364022595291686
2772.0,-0.0020364022595291686
2771.0,-0.0019931738235303698
2770.0,-0.0019931738235303698
2769.0,-0.0019499410842680476
2768.0,-0.0019067040408846658
2767.0,-0.0019499410842680476
2766.0,-0.0019931738235303698
2765.0,-0.0020364022595291686
2764.0,-0.0019931738235303698
2763.0,-0.0019931738235303698
2762.0,-0.0020364022595291686
2761.0,-0.0021228462251614566
2760.0,-0.0022092729880145434
2759.0,-0.0022956825549340643
2758.0,-0.0022956825549340643
2757.0,-0.0022956825549340643
2756.0,-0.0022092729880145434
2755.0,-0.0021228462251614566
2754.0,-0.0020364022595291686
2753.0,-0.0019499410842680476
2752.0,-0.0019067040408846658
2751.0,-0.0019067040408846658
2750.0,-0.0018634626925240205
2749.0,-0.0018634626925240205
2748.0,-0.0018634626925240205
2747.0,-0.0019067040408846658
2746.0,-0.0019067040408846658
2745.0,-0.0019499410842680476
2744.0,-0.0019931738235303698
2743.0,-0.0020364022595291686
2742.0,-0.0020796263931210923
2741.0,-0.0021228462251614566
2740.0,-0.0021228462251614566
2739.0,-0.0021228462251614566
2738.0,-0.0021228462251614566
2737.0,-0.0020364022595291686
2736.0,-0.0019499410842680476
2735.0,-0.0018634626925240205
2734.0,-0.0019067040408846658
2733.0,-0.0019931738235303698
2732.0,-0.0020796263931210923
2731.0,-0.0021228462251614566
2730.0,-0.0020796263931210923
2729.0,-0.0019931738235303698
2728.0,-0.0018634626925240205
2727.0,-0.0018202170383281313
2726.0,-0.0018634626925240205
2725.0,-0.0019067040408846658
2724.0,-0.0019499410842680476
2723.0,-0.0019931738235303698
2722.0,-0.0020364022595291686
2721.0,-0.0020796263931210923
2720.0,-0.0020796263931210923
2719.0,-0.0020364022595291686
2718.0,-0.0019499410842680476
2717.0,-0.0018634626925240205
2716.0,-0.0018202170383281313
2715.0,-0.0018634626925240205
2714.0,-0.0019931738235303698
2713.0,-0.0020796263931210923
2712.0,-0.0021228462251614566
2711.0,-0.0021228462251614566
2710.0,-0.0020796263931210923
2709.0,-0.0020364022595291686
2708.0,-0.0019499410842680476
2707.0,-0.0019067040408846658
2706.0,-0.0019067040408846658
2705.0,-0.0019499410842680476
2704.0,-0.0019067040408846658
2703.0,-0.0018634626925240205
2702.0,-0.001776967077439462
2701.0,-0.001733712809000476
2700.0,-0.001733712809000476
2699.0,-0.001776967077439462
2698.0,-0.0018202170383281313
2697.0,-0.0018634626925240205
2696.0,-0.0018634626925240205
2695.0,-0.0019067040408846658
2694.0,-0.0019067040408846658
2693.0,-0.0018634626925240205
2692.0,-0.001776967077439462
2691.0,-0.001733712809000476
2690.0,-0.001733712809000476
2689.0,-0.001776967077439462
2688.0,-0.0018202170383281313
2687.0,-0.0018202170383281313
2686.0,-0.001776967077439462
2685.0,-0.0016904542321527494
2684.0,-0.0016039241497978196
2683.0,-0.0015606526425728795
2682.0,-0.0016039241497978196
2681.0,-0.0016471913460383014
2680.0,-0.0016904542321527494
2679.0,-0.001733712809000476
2678.0,-0.001776967077439462
2677.0,-0.0018202170383281313
2676.0,-0.0018634626925240205
2675.0,-0.0018634626925240205
2674.0,-0.0018202170383281313
2673.0,-0.0016904542321527494
2672.0,-0.0016039241497978196
2671.0,-0.0015606526425728795
2670.0,-0.0016039241497978196
2669.0,-0.0016904542321527494
2668.0,-0.0018202170383281313
2667.0,-0.0018634626925240205
2666.0,-0.0018634626925240205
2665.0,-0.001776967077439462
2664.0,-0.0016904542321527494
2663.0,-0.0016039241497978196
2662.0,-0.0015606526425728795
2661.0,-0.0016039241497978196
2660.0,-0.0016471913460383014
2659.0,-0.0016904542321527494
2658.0,-0.0016904542321527494
2657.0,-0.0016471913460383014
2656.0,-0.0016471913460383014
2655.0,-0.0016471913460383014
2654.0,-0.0016471913460383014
2653.0,-0.0016471913460383014
2652.0,-0.0016904542321527494
2651.0,-0.001733712809000476
2650.0,-0.001776967077439462
2649.0,-0.001733712809000476
2648.0,-0.001733712809000476
2647.0,-0.001776967077439462
2646.0,-0.0018202170383281313
2645.0,-0.0018634626925240205
2644.0,-0.0018634626925240205
2643.0,-0.0018202170383281313
2642.0,-0.001776967077439462
2641.0,-0.001733712809000476
2640.0,-0.001733712809000476
2639.0,-0.0016904542321527494
2638.0,-0.0016471913460383014
2637.0,-0.0015606526425728795
2636.0,-0.0015173768235041685
2635.0,-0.0015173768235041685
2634.0,-0.0015606526425728795
2633.0,-0.0016471913460383014
2632.0,-0.001776967077439462
2631.0,-0.0019067040408846658
2630.0,-0.0019499410842680476
2629.0,-0.0019499410842680476
2628.0,-0.0019067040408846658
2627.0,-0.0018202170383281313
2626.0,-0.0018202170383281313
2625.0,-0.001776967077439462
2624.0,-0.001733712809000476
2623.0,-0.001733712809000476
2622.0,-0.001776967077439462
2621.0,-0.001776967077439462
2620.0,-0.001776967077439462
2619.0,-0.0018202170383281313
2618.0,-0.0018634626925240205
2617.0,-0.0019067040408846658
2616.0,-0.0019499410842680476
2615.0,-0.0019931738235303698
2614.0,-0.0019931738235303698
2613.0,-0.0020364022595291686
2612.0,-0.0020796263931210923
2611.0,-0.0021228462251614566
2610.0,-0.0021660617565077978
2609.0,-0.0022092729880145434
2608.0,-0.0022092729880145434
2607.0,-0.0022092729880145434
2606.0,-0.0021660617565077978
2605.0,-0.0021228462251614566
2604.0,-0.0020796263931210923
2603.0,-0.0020796263931210923
2602.0,-0.0020796263931210923
2601.0,-0.0020796263931210923
2600.0,-0.0020796263931210923
2599.0,-0.0021228462251614566
2598.0,-0.0021228462251614566
2597.0,-0.0020796263931210923
2596.0,-0.0019499410842680476
2595.0,-0.0018202170383281313
2594.0,-0.001733712809000476
2593.0,-0.0016904542321527494
2592.0,-0.001733712809000476
2591.0,-0.001776967077439462
2590.0,-0.0018634626925240205
2589.0,-0.0018634626925240205
2588.0,-0.0018634626925240205
2587.0,-0.0018634626925240205
2586.0,-0.0019067040408846658
2585.0,-0.0019499410842680476
2584.0,-0.0019931738235303698
2583.0,-0.0020364022595291686
2582.0,-0.0020364022595291686
2581.0,-0.0020364022595291686
2580.0,-0.0020364022595291686
2579.0,-0.0019931738235303698
2578.0,-0.0019931738235303698
2577.0,-0.0019499410842680476
2576.0,-0.0018634626925240205
2575.0,-0.0018202170383281313
2574.0,-0.0018202170383281313
2573.0,-0.0018634626925240205
2572.0,-0.0019067040408846658
2571.0,-0.0019499410842680476
2570.0,-0.0020364022595291686
2569.0,-0.0020796263931210923
2568.0,-0.0020796263931210923
2567.0,-0.0020364022595291686
2566.0,-0.0020364022595291686
2565.0,-0.0020364022595291686
2564.0,-0.0020364022595291686
2563.0,-0.0020364022595291686
2562.0,-0.0021228462251614566
2561.0,-0.0022092729880145434
2560.0,-0.0023820749327607693
2559.0,-0.0024684501283323
2558.0,-0.0024684501283323
2557.0,-0.002338880892056583
2556.0,-0.0021660617565077978
2555.0,-0.0020364022595291686
2554.0,-0.0020364022595291686
2553.0,-0.0020796263931210923
2552.0,-0.0021228462251614566
2551.0,-0.0021228462251614566
2550.0,-0.0021228462251614566
2549.0,-0.0020796263931210923
2548.0,-0.0020796263931210923
2547.0,-0.0020364022595291686
2546.0,-0.0020364022595291686
2545.0,-0.0019931738235303698
2544.0,-0.0019499410842680476
2543.0,-0.0019499410842680476
2542.0,-0.0019499410842680476
2541.0,-0.0019931738235303698
2540.0,-0.0020796263931210923
2539.0,-0.0021228462251614566
2538.0,-0.0021228462251614566
2537.0,-0.0021228462251614566
2536.0,-0.0020796263931210923
2535.0,-0.0020796263931210923
2534.0,-0.0020796263931210923
2533.0,-0.0021660617565077978
2532.0,-0.0022092729880145434
2531.0,-0.0022524799205383417
2530.0,-0.0022524799205383417
2529.0,-0.0022524799205383417
2528.0,-0.0022524799205383417
2527.0,-0.0022524799205383417
2526.0,-0.0022956825549340643
2525.0,-0.0023820749327607693
2524.0,-0.0023820749327607693
2523.0,-0.002338880892056583
2522.0,-0.0022956825549340643
2521.0,-0.0022092729880145434
2520.0,-0.0020796263931210923
2519.0,-0.0019931738235303698
2518.0,-0.0019931738235303698
2517.0,-0.0019931738235303698
2516.0,-0.0019931738235303698
2515.0,-0.0020364022595291686
2514.0,-0.0020796263931210923
2513.0,-0.0021228462251614566
2512.0,-0.0021228462251614566
2511.0,-0.0020796263931210923
2510.0,-0.0020364022595291686
2509.0,-0.0019499410842680476
2508.0,-0.0019499410842680476
2507.0,-0.0019499410842680476
2506.0,-0.0020364022595291686
2505.0,-0.0020796263931210923
2504.0,-0.0021228462251614566
2503.0,-0.0021660617565077978
2502.0,-0.0022092729880145434
2501.0,-0.0022524799205383417
2500.0,-0.0022524799205383417
2499.0,-0.0022092729880145434
2498.0,-0.0021660617565077978
2497.0,-0.0020796263931210923
2496.0,-0.0020364022595291686
2495.0,-0.0020364022595291686
2494.0,-0.0020364022595291686
2493.0,-0.0020796263931210923
2492.0,-0.0021228462251614566
2491.0,-0.0021228462251614566
2490.0,-0.0021660617565077978
2489.0,-0.0022092729880145434
2488.0,-0.0022524799205383417
2487.0,-0.002338880892056583
2486.0,-0.0024252646779014952
2485.0,-0.0024252646779014952
2484.0,-0.002338880892056583
2483.0,-0.0022092729880145434
2482.0,-0.0021660617565077978
2481.0,-0.0022524799205383417
2480.0,-0.002338880892056583
2479.0,-0.0024684501283323
2478.0,-0.0025548081484823015
2477.0,-0.0025548081484823015
2476.0,-0.0025116312849080558
2475.0,-0.0024684501283323
2474.0,-0.0024684501283323
2473.0,-0.0025116312849080558
2472.0,-0.0025116312849080558
2471.0,-0.0025548081484823015
2470.0,-0.002597980719908577
2469.0,-0.002597980719908577
2468.0,-0.002597980719908577
2467.0,-0.0025116312849080558
2466.0,-0.0024684501283323
2465.0,-0.0024252646779014952
2464.0,-0.0024252646779014952
2463.0,-0.0023820749327607693
2462.0,-0.0023820749327607693
2461.0,-0.0023820749327607693
2460.0,-0.002338880892056583
2459.0,-0.002338880892056583
2458.0,-0.002338880892056583
2457.0,-0.0023820749327607693
2456.0,-0.0024684501283323
2455.0,-0.0025548081484823015
2454.0,-0.0025548081484823015
2453.0,-0.0025548081484823015
2452.0,-0.0025116312849080558
2451.0,-0.0025116312849080558
2450.0,-0.0024684501283323
2449.0,-0.0024252646779014952
2448.0,-0.0022956825549340643
2447.0,-0.0022092729880145434
2446.0,-0.0021228462251614566
2445.0,-0.0020796263931210923
2444.0,-0.0020364022595291686
2443.0,-0.0019931738235303698
2442.0,-0.0019931738235303698
2441.0,-0.0019931738235303698
2440.0,-0.0019931738235303698
2439.0,-0.0019499410842680476
2438.0,-0.0019499410842680476
2437.0,-0.0019067040408846658
2436.0,-0.0018634626925240205
2435.0,-0.0019499410842680476
2434.0,-0.0020364022595291686
2433.0,-0.0021228462251614566
2432.0,-0.0021660617565077978
2431.0,-0.0021228462251614566
2430.0,-0.0020364022595291686
2429.0,-0.0019931738235303698
2428.0,-0.0019931738235303698
2427.0,-0.0019931738235303698
2426.0,-0.0020364022595291686
2425.0,-0.0019931738235303698
2424.0,-0.0019067040408846658
2423.0,-0.0018634626925240205
2422.0,-0.0018202170383281313
2421.0,-0.001776967077439462
2420.0,-0.001733712809000476
2419.0,-0.001733712809000476
2418.0,-0.001776967077439462
2417.0,-0.001733712809000476
2416.0,-0.0016471913460383014
2415.0,-0.0016039241497978196
2414.0,-0.0016471913460383014
2413.0,-0.0016471913460383014
2412.0,-0.0016471913460383014
2411.0,-0.0016471913460383014
2410.0,-0.0016904542321527494
2409.0,-0.0016471913460383014
2408.0,-0.0016039241497978196
2407.0,-0.001474096691732818
2406.0,-0.0014308122463981832
2405.0,-0.0014308122463981832
2404.0,-0.001474096691732818
2403.0,-0.0015606526425728795
2402.0,-0.0016471913460383014
2401.0,-0.0016904542321527494
2400.0,-0.001733712809000476
2399.0,-0.001733712809000476
2398.0,-0.0016904542321527494
2397.0,-0.0016471913460383014
2396.0,-0.0015606526425728795
2395.0,-0.0015606526425728795
2394.0,-0.0016039241497978196
2393.0,-0.0016904542321527494
2392.0,-0.001733712809000476
2391.0,-0.0016904542321527494
2390.0,-0.0016471913460383014
2389.0,-0.0016471913460383014
2388.0,-0.001776967077439462
2387.0,-0.0019067040408846658
2386.0,-0.0020796263931210923
2385.0,-0.0022524799205383417
2384.0,-0.002338880892056583
2383.0,-0.0023820749327607693
2382.0,-0.0023820749327607693
2381.0,-0.0022956825549340643
2380.0,-0.0021660617565077978
2379.0,-0.0020796263931210923
2378.0,-0.0021228462251614566
2377.0,-0.0021228462251614566
2376.0,-0.0021228462251614566
2375.0,-0.0020364022595291686
2374.0,-0.0020364022595291686
2373.0,-0.0021228462251614566
2372.0,-0.0022956825549340643
2371.0,-0.002597980719908577
2370.0,-0.002856926061120646
2369.0,-0.0027274726898296464
2368.0,-0.0020364022595291686
2367.0,-0.0011710149414008164
2366.0,-0.0006943158663546001
2365.0,-0.0009110621312231615
2364.0,-0.0016471913460383014
2363.0,-0.0024684501283323
2362.0,-0.0029863408567849525
2361.0,-0.0030725959676747294
2360.0,-0.0029863408567849525
2359.0,-0.003029470553618019
2358.0,-0.0027274726898296464
2357.0,-0.0018634626925240205
2356.0,-0.0009977303577937136
2355.0,-0.0009977303577937136
2354.0,-0.0018202170383281313
2353.0,-0.0025548081484823015
2352.0,-0.0027706281011936618
2351.0,-0.002684312989729598
2350.0,-0.0024684501283323
2349.0,-0.0022524799205383417
2348.0,-0.0020796263931210923
2347.0,-0.0021660617565077978
2346.0,-0.0025548081484823015
2345.0,-0.0029863408567849525
2344.0,-0.0033743540197499478
2343.0,-0.003675902548784027
2342.0,-0.003891166236910326
2341.0,-0.003762020828246282
2340.0,-0.0034605321095062536
2339.0,-0.003201946521692367
2338.0,-0.0030725959676747294
2337.0,-0.0028137792246734072
2336.0,-0.002597980719908577
2335.0,-0.0024252646779014952
2334.0,-0.002338880892056583
2333.0,-0.0021660617565077978
2332.0,-0.0020796263931210923
2331.0,-0.002338880892056583
2330.0,-0.0027274726898296464
2329.0,-0.002900068611387585
2328.0,-0.002856926061120646
2327.0,-0.002900068611387585
2326.0,-0.0030725959676747294
2325.0,-0.0032450548131470747
2324.0,-0.0032450548131470747
2323.0,-0.003201946521692367
2322.0,-0.0032881588260753603
2321.0,-0.0034174452021935586
2320.0,-0.003503614742536687
2319.0,-0.003546693102131737
2318.0,-0.003503614742536687
2317.0,-0.0034605321095062536
2316.0,-0.0033743540197499478
2315.0,-0.0033312585613267665
2314.0,-0.0034174452021935586
2313.0,-0.0034605321095062536
2312.0,-0.0034174452021935586
2311.0,-0.0033743540197499478
2310.0,-0.0032881588260753603
2309.0,-0.0032450548131470747
2308.0,-0.003158833950862139
2307.0,-0.0030725959676747294
2306.0,-0.003029470553618019
2305.0,-0.0029863408567849525
2304.0,-0.0029863408567849525
2303.0,-0.0029863408567849525
2302.0,-0.0030725959676747294
2301.0,-0.003158833950862139
2300.0,-0.003201946521692367
2299.0,-0.003158833950862139
2298.0,-0.0030725959676747294
2297.0,-0.0029432068763250996
2296.0,-0.002856926061120646
2295.0,-0.002856926061120646
2294.0,-0.0028137792246734072
2293.0,-0.0028137792246734072
2292.0,-0.0027706281011936618
2291.0,-0.0027274726898296464
2290.0,-0.0027274726898296464
2289.0,-0.0027706281011936618
2288.0,-0.0028137792246734072
2287.0,-0.0028137792246734072
2286.0,-0.0028137792246734072
2285.0,-0.0027706281011936618
2284.0,-0.0028137792246734072
2283.0,-0.002856926061120646
2282.0,-0.002900068611387585
2281.0,-0.002900068611387585
2280.0,-0.002900068611387585
2279.0,-0.002900068611387585
2278.0,-0.002900068611387585
2277.0,-0.002900068611387585
2276.0,-0.002856926061120646
2275.0,-0.0028137792246734072
2274.0,-0.0027706281011936618
2273.0,-0.0027706281011936618
2272.0,-0.0027706281011936618
2271.0,-0.0028137792246734072
2270.0,-0.0028137792246734072
2269.0,-0.0027706281011936618
2268.0,-0.0027274726898296464
2267.0,-0.0027274726898296464
2266.0,-0.0027706281011936618
2265.0,-0.0028137792246734072
2264.0,-0.002856926061120646
2263.0,-0.002856926061120646
2262.0,-0.002856926061120646
2261.0,-0.0028137792246734072
2260.0,-0.0027706281011936618
2259.0,-0.0027706281011936618
2258.0,-0.0028137792246734072
2257.0,-0.002856926061120646
2256.0,-0.0028137792246734072
2255.0,-0.0028137792246734072
2254.0,-0.0028137792246734072
2253.0,-0.0028137792246734072
2252.0,-0.0028137792246734072
2251.0,-0.002856926061120646
2250.0,-0.002900068611387585
2249.0,-0.0029432068763250996
2248.0,-0.002900068611387585
2247.0,-0.002900068611387585
2246.0,-0.002900068611387585
2245.0,-0.002856926061120646
2244.0,-0.002856926061120646
2243.0,-0.002856926061120646
2242.0,-0.002856926061120646
2241.0,-0.002900068611387585
2240.0,-0.0029863408567849525
2239.0,-0.0030725959676747294
2238.0,-0.003115717099805959
2237.0,-0.003115717099805959
2236.0,-0.003029470553618019
2235.0,-0.0029432068763250996
2234.0,-0.002856926061120646
2233.0,-0.0028137792246734072
2232.0,-0.0028137792246734072
2231.0,-0.0027706281011936618
2230.0,-0.0028137792246734072
2229.0,-0.002900068611387585
2228.0,-0.0029863408567849525
2227.0,-0.0030725959676747294
2226.0,-0.003115717099805959
2225.0,-0.0030725959676747294
2224.0,-0.003029470553618019
2223.0,-0.003029470553618019
2222.0,-0.0030725959676747294
2221.0,-0.003115717099805959
2220.0,-0.003158833950862139
2219.0,-0.003158833950862139
2218.0,-0.003201946521692367
2217.0,-0.003201946521692367
2216.0,-0.003201946521692367
2215.0,-0.003201946521692367
2214.0,-0.0032450548131470747
2213.0,-0.0032450548131470747
2212.0,-0.0032450548131470747
2211.0,-0.0032450548131470747
2210.0,-0.0032881588260753603
2209.0,-0.0033312585613267665
2208.0,-0.0033312585613267665
2207.0,-0.0032881588260753603
2206.0,-0.0032450548131470747
2205.0,-0.0032450548131470747
2204.0,-0.0032881588260753603
2203.0,-0.0032881588260753603
2202.0,-0.0033743540197499478
2201.0,-0.0033743540197499478
2200.0,-0.0033743540197499478
2199.0,-0.0033743540197499478
2198.0,-0.0033743540197499478
2197.0,-0.0034174452021935586
2196.0,-0.0034174452021935586
2195.0,-0.0033743540197499478
2194.0,-0.0033312585613267665
2193.0,-0.0032450548131470747
2192.0,-0.003201946521692367
2191.0,-0.0032450548131470747
2190.0,-0.0032881588260753603
2189.0,-0.0032881588260753603
2188.0,-0.0032450548131470747
2187.0,-0.003158833950862139
2186.0,-0.003158833950862139
2185.0,-0.003201946521692367
2184.0,-0.0032450548131470747
2183.0,-0.0032881588260753603
2182.0,-0.0033312585613267665
2181.0,-0.0034174452021935586
2180.0,-0.0034605321095062536
2179.0,-0.0034605321095062536
2178.0,-0.0034174452021935586
2177.0,-0.0033743540197499478
2176.0,-0.0033312585613267665
2175.0,-0.0032881588260753603
2174.0,-0.0032881588260753603
2173.0,-0.0032450548131470747
2172.0,-0.003201946521692367
2171.0,-0.003158833950862139
2170.0,-0.003115717099805959
2169.0,-0.003158833950862139
2168.0,-0.003201946521692367
2167.0,-0.0032450548131470747
2166.0,-0.0032881588260753603
2165.0,-0.0032881588260753603
2164.0,-0.0032881588260753603
2163.0,-0.0033312585613267665
2162.0,-0.0033743540197499478
2161.0,-0.0033312585613267665
2160.0,-0.0032450548131470747
2159.0,-0.003201946521692367
2158.0,-0.003158833950862139
2157.0,-0.003158833950862139
2156.0,-0.003158833950862139
2155.0,-0.003158833950862139
2154.0,-0.003158833950862139
2153.0,-0.003115717099805959
2152.0,-0.0030725959676747294
2151.0,-0.0029863408567849525
2150.0,-0.0029863408567849525
2149.0,-0.003029470553618019
2148.0,-0.0030725959676747294
2147.0,-0.0030725959676747294
2146.0,-0.0030725959676747294
2145.0,-0.003029470553618019
2144.0,-0.0029863408567849525
2143.0,-0.0029432068763250996
2142.0,-0.0029432068763250996
2141.0,-0.0029432068763250996
2140.0,-0.002900068611387585
2139.0,-0.002900068611387585
2138.0,-0.002900068611387585
2137.0,-0.002900068611387585
2136.0,-0.0028137792246734072
2135.0,-0.0027706281011936618
2134.0,-0.0027706281011936618
2133.0,-0.0027706281011936618
2132.0,-0.0027274726898296464
2131.0,-0.002684312989729598
2130.0,-0.0026411490000399773
2129.0,-0.0026411490000399773
2128.0,-0.002597980719908577
2127.0,-0.0026411490000399773
2126.0,-0.002684312989729598
2125.0,-0.002684312989729598
2124.0,-0.002684312989729598
2123.0,-0.002684312989729598
2122.0,-0.002684312989729598
2121.0,-0.002684312989729598
2120.0,-0.0026411490000399773
2119.0,-0.002597980719908577
2118.0,-0.0025548081484823015
2117.0,-0.0025548081484823015
2116.0,-0.002597980719908577
2115.0,-0.0026411490000399773
2114.0,-0.0026411490000399773
2113.0,-0.0026411490000399773
2112.0,-0.002597980719908577
2111.0,-0.0025548081484823015
2110.0,-0.0025548081484823015
2109.0,-0.0025116312849080558
2108.0,-0.0024684501283323
2107.0,-0.0025116312849080558
2106.0,-0.0025548081484823015
2105.0,-0.0026411490000399773
2104.0,-0.002684312989729598
2103.0,-0.0026411490000399773
2102.0,-0.002597980719908577
2101.0,-0.0025116312849080558
2100.0,-0.0023820749327607693
2099.0,-0.0022956825549340643
2098.0,-0.0022956825549340643
2097.0,-0.002338880892056583
2096.0,-0.002338880892056583
2095.0,-0.002338880892056583
2094.0,-0.002338880892056583
2093.0,-0.002338880892056583
2092.0,-0.0022956825549340643
2091.0,-0.0022956825549340643
2090.0,-0.002338880892056583
2089.0,-0.002338880892056583
2088.0,-0.002338880892056583
2087.0,-0.002338880892056583
2086.0,-0.002338880892056583
2085.0,-0.002338880892056583
2084.0,-0.0022524799205383417
2083.0,-0.0022092729880145434
2082.0,-0.0022092729880145434
2081.0,-0.0022524799205383417
2080.0,-0.0022524799205383417
2079.0,-0.0022524799205383417
2078.0,-0.002338880892056583
2077.0,-0.0024252646779014952
2076.0,-0.0025116312849080558
2075.0,-0.002597980719908577
2074.0,-0.0026411490000399773
2073.0,-0.002597980719908577
2072.0,-0.0025116312849080558
2071.0,-0.0025116312849080558
2070.0,-0.0025116312849080558
2069.0,-0.0025116312849080558
2068.0,-0.0025548081484823015
2067.0,-0.0026411490000399773
2066.0,-0.0027274726898296464
2065.0,-0.0028137792246734072
2064.0,-0.0027706281011936618
2063.0,-0.0027274726898296464
2062.0,-0.0027274726898296464
2061.0,-0.0027274726898296464
2060.0,-0.0027274726898296464
2059.0,-0.0027706281011936618
2058.0,-0.002856926061120646
2057.0,-0.0029432068763250996
2056.0,-0.0029863408567849525
2055.0,-0.0029863408567849525
2054.0,-0.003029470553618019
2053.0,-0.003029470553618019
2052.0,-0.003029470553618019
2051.0,-0.003029470553618019
2050.0,-0.003115717099805959
2049.0,-0.003158833950862139
2048.0,-0.003158833950862139
2047.0,-0.003201946521692367
2046.0,-0.0032881588260753603
2045.0,-0.0034174452021935586
2044.0,-0.003503614742536687
2043.0,-0.003546693102131737
2042.0,-0.003632837004408529
2041.0,-0.003675902548784027
2040.0,-0.003675902548784027
2039.0,-0.003762020828246282
2038.0,-0.003805073565025019
2037.0,-0.0038481220342978517
2036.0,-0.003805073565025019
2035.0,-0.003762020828246282
2034.0,-0.003762020828246282
2033.0,-0.003805073565025019
2032.0,-0.003805073565025019
2031.0,-0.0038481220342978517
2030.0,-0.0038481220342978517
2029.0,-0.0038481220342978517
2028.0,-0.0038481220342978517
2027.0,-0.0038481220342978517
2026.0,-0.0038481220342978517
2025.0,-0.003805073565025019
2024.0,-0.003805073565025019
2023.0,-0.003805073565025019
2022.0,-0.003891166236910326
2021.0,-0.0039772418455368275
2020.0,-0.003934206173708432
2019.0,-0.0038481220342978517
2018.0,-0.0037189638231147626
2017.0,-0.003632837004408529
2016.0,-0.003503614742536687
2015.0,-0.003503614742536687
2014.0,-0.003546693102131737
2013.0,-0.0035897671891400584
2012.0,-0.0035897671891400584
2011.0,-0.003546693102131737
2010.0,-0.0034605321095062536
2009.0,-0.0033743540197499478
2008.0,-0.0032881588260753603
2007.0,-0.0032881588260753603
2006.0,-0.0033312585613267665
2005.0,-0.0033743540197499478
2004.0,-0.0033743540197499478
2003.0,-0.0033312585613267665
2002.0,-0.0032881588260753603
2001.0,-0.0032450548131470747
2000.0,-0.003201946521692367
1999.0,-0.003201946521692367
1998.0,-0.0032450548131470747
1997.0,-0.0032881588260753603
1996.0,-0.0032450548131470747
1995.0,-0.0032450548131470747
1994.0,-0.0033312585613267665
1993.0,-0.0033743540197499478
1992.0,-0.0033743540197499478
1991.0,-0.0033312585613267665
1990.0,-0.0032881588260753603
1989.0,-0.0032450548131470747
1988.0,-0.003201946521692367
1987.0,-0.003201946521692367
1986.0,-0.003201946521692367
1985.0,-0.003158833950862139
1984.0,-0.003115717099805959
1983.0,-0.003115717099805959
1982.0,-0.003115717099805959
1981.0,-0.003115717099805959
1980.0,-0.0030725959676747294
1979.0,-0.0029863408567849525
1978.0,-0.0029432068763250996
1977.0,-0.002900068611387585
1976.0,-0.002900068611387585
1975.0,-0.002900068611387585
1974.0,-0.0029432068763250996
1973.0,-0.0029432068763250996
1972.0,-0.002856926061120646
1971.0,-0.0028137792246734072
1970.0,-0.0028137792246734072
1969.0,-0.0028137792246734072
1968.0,-0.0028137792246734072
1967.0,-0.0028137792246734072
1966.0,-0.002856926061120646
1965.0,-0.0029432068763250996
1964.0,-0.0029863408567849525
1963.0,-0.003029470553618019
1962.0,-0.003115717099805959
1961.0,-0.003158833950862139
1960.0,-0.003158833950862139
1959.0,-0.003115717099805959
1958.0,-0.003115717099805959
1957.0,-0.0030725959676747294
1956.0,-0.0030725959676747294
1955.0,-0.003115717099805959
1954.0,-0.003201946521692367
1953.0,-0.0032450548131470747
1952.0,-0.0032881588260753603
1951.0,-0.0032881588260753603
1950.0,-0.0033312585613267665
1949.0,-0.0033312585613267665
1948.0,-0.0033312585613267665
1947.0,-0.0033743540197499478
1946.0,-0.0034174452021935586
1945.0,-0.0034174452021935586
1944.0,-0.0034605321095062536
1943.0,-0.003546693102131737
1942.0,-0.003675902548784027
1941.0,-0.0037189638231147626
1940.0,-0.0037189638231147626
1939.0,-0.0037189638231147626
1938.0,-0.0037189638231147626
1937.0,-0.0037189638231147626
1936.0,-0.003675902548784027
1935.0,-0.0035897671891400584
1934.0,-0.0035897671891400584
1933.0,-0.003546693102131737
1932.0,-0.003546693102131737
1931.0,-0.0035897671891400584
1930.0,-0.003632837004408529
1929.0,-0.003675902548784027
1928.0,-0.003675902548784027
1927.0,-0.003632837004408529
1926.0,-0.003632837004408529
1925.0,-0.003632837004408529
1924.0,-0.003675902548784027
1923.0,-0.003675902548784027
1922.0,-0.003675902548784027
1921.0,-0.003632837004408529
1920.0,-0.003546693102131737
1919.0,-0.003546693102131737
1918.0,-0.003632837004408529
1917.0,-0.003675902548784027
1916.0,-0.0035897671891400584
1915.0,-0.003546693102131737
1914.0,-0.003546693102131737
1913.0,-0.003546693102131737
1912.0,-0.0034605321095062536
1911.0,-0.0034605321095062536
1910.0,-0.003503614742536687
1909.0,-0.003546693102131737
1908.0,-0.003503614742536687
1907.0,-0.0034605321095062536
1906.0,-0.0034605321095062536
1905.0,-0.003503614742536687
1904.0,-0.003503614742536687
1903.0,-0.003546693102131737
1902.0,-0.0035897671891400584
1901.0,-0.003632837004408529
1900.0,-0.0035897671891400584
1899.0,-0.003546693102131737
1898.0,-0.0035897671891400584
1897.0,-0.0035897671891400584
1896.0,-0.0035897671891400584
1895.0,-0.0035897671891400584
1894.0,-0.003632837004408529
1893.0,-0.003632837004408529
1892.0,-0.003546693102131737
1891.0,-0.003546693102131737
1890.0,-0.0035897671891400584
1889.0,-0.0035897671891400584
1888.0,-0.003546693102131737
1887.0,-0.003503614742536687
1886.0,-0.0034605321095062536
1885.0,-0.0033743540197499478
1884.0,-0.0033312585613267665
1883.0,-0.0033312585613267665
1882.0,-0.0033312585613267665
1881.0,-0.0033312585613267665
1880.0,-0.0032450548131470747
1879.0,-0.003201946521692367
1878.0,-0.003158833950862139
1877.0,-0.003115717099805959
1876.0,-0.0030725959676747294
1875.0,-0.003115717099805959
1874.0,-0.003201946521692367
1873.0,-0.003158833950862139
1872.0,-0.0030725959676747294
1871.0,-0.0029432068763250996
1870.0,-0.0029432068763250996
1869.0,-0.002900068611387585
1868.0,-0.0028137792246734072
1867.0,-0.0028137792246734072
1866.0,-0.002856926061120646
1865.0,-0.002900068611387585
1864.0,-0.002900068611387585
1863.0,-0.002856926061120646
1862.0,-0.002856926061120646
1861.0,-0.002856926061120646
1860.0,-0.002856926061120646
1859.0,-0.002856926061120646
1858.0,-0.002856926061120646
1857.0,-0.0028137792246734072
1856.0,-0.002684312989729598
1855.0,-0.0025548081484823015
1854.0,-0.0024684501283323
1853.0,-0.0023820749327607693
1852.0,-0.0022524799205383417
1851.0,-0.0021660617565077978
1850.0,-0.0021228462251614566
1849.0,-0.0019931738235303698
1848.0,-0.0018634626925240205
1847.0,-0.001733712809000476
1846.0,-0.001733712809000476
1845.0,-0.0016471913460383014
1844.0,-0.0015173768235041685
1843.0,-0.0013875234866409514
1842.0,-0.0013009330204178937
1841.0,-0.0011710149414008164
1840.0,-0.0009543984064577238
1839.0,-0.0007810273534953893
1838.0,-0.0006075870628903246
1837.0,-0.0003906892499099257
1836.0,-0.00013026880522692963
1835.0,4.343161980746579e-05
1834.0,0.0001303078917322953
1833.0,0.0003475746339209884
1832.0,0.0006084382809090627
1831.0,0.000869458712629001
1830.0,0.0010000277816797354
1829.0,0.0011741809597138886
1828.0,0.0014355417390583547
1827.0,0.0016534626036355249
1826.0,0.0018278780605593958
1825.0,0.002089632653256679
1824.0,0.0024388843664115978
1823.0,0.0026573093983774942
1822.0,0.0028321285541661467
1821.0,0.003050751504618754
1820.0,0.0032694845648473247
1819.0,0.0034445503666347133
1818.0,0.0035321097382827737
1817.0,0.003707281458678491
1816.0,0.003970171588923321
1815.0,0.004233220950025984
1814.0,0.0043648054024501
1813.0,0.004628093971837721
1812.0,0.004979393875242044
1811.0,0.005243055412371911
1810.0,0.00541891874010525
1809.0,0.005682847330363394
1808.0,0.006079041198713275
1807.0,0.006387442061109638
1806.0,0.006651960076740071
1805.0,0.00696076819309055
1804.0,0.007402303897961815
1803.0,0.007800070204414977
1802.0,0.008153946355103248
1801.0,0.008685301823389224
1800.0,0.009439170005980158
1799.0,0.010105436281226954
1798.0,0.010728208358306901
1797.0,0.011530229790124524
1796.0,0.012512493866907004
1795.0,0.013317820220494436
1794.0,0.014169510141607944
1793.0,0.015742798294583915
1792.0,0.018136109008649592
1791.0,0.020542681902151694
1790.0,0.022642270454698687
1789.0,0.02484402159331056
1788.0,0.02738066094037661
1787.0,0.030397735151460825
1786.0,0.034046110897937076
1785.0,0.03848398855105106
1784.0,0.0431115453499229
1783.0,0.04754660357696672
1782.0,0.05212534510230182
1781.0,0.05764465029232335
1780.0,0.06358680028852026
1779.0,0.06869471857832687
1778.0,0.0729891310243489
1777.0,0.07711890879170658
1776.0,0.0812883346176787
1775.0,0.08518101955252688
1774.0,0.08958906008531176
1773.0,0.09631326826349751
1772.0,0.10501970907203151
1771.0,0.11227020271196975
1770.0,0.11770319906234805
1769.0,0.12395544975390482
1768.0,0.132179091954427
1767.0,0.1409818561111058
1766.0,0.14874165128092476
1765.0,0.15602015552184012
1764.0,0.16488040957545036
1763.0,0.17776651976115598
1762.0,0.19497515557019485
1761.0,0.2122562283535332
1760.0,0.22562904015008334
1759.0,0.23597339230796277
1758.0,0.24764419584649922
1757.0,0.2624098337142784
1756.0,0.27580608048567035
1755.0,0.282995592959453
1754.0,0.2852512392749402
1753.0,0.2870978749527773
1752.0,0.2915790998652872
1751.0,0.2983456826742519
1750.0,0.30434324006380975
1749.0,0.3083881257855836
1748.0,0.3094495384896414
1747.0,0.3066248489748147
1746.0,0.30085631260551615
1745.0,0.2934528973596424
1744.0,0.2849163293050727
1743.0,0.27482369858086275
1742.0,0.2629664686661224
1741.0,0.24949160514865376
1740.0,0.23455498190985002
1739.0,0.2195386671382824
1738.0,0.20558166912585896
1737.0,0.19226207798589923
1736.0,0.17802818235795725
1735.0,0.1624115617644888
1734.0,0.1482525808667361
1733.0,0.13774932540207496
1732.0,0.12912810493225724
1731.0,0.12096149476276286
1730.0,0.11350927482751816
1729.0,0.10679324694015202
1728.0,0.10078158214862709
1727.0,0.09560907998763835
1726.0,0.09113982698272349
1725.0,0.0872466963286771
1724.0,0.08354605145007499
1723.0,0.08024221949810584
1722.0,0.07732643214144574
1721.0,0.07437854520917098
1720.0,0.07109230975604719
1719.0,0.06772922410050963
1718.0,0.06524912533642091
1717.0,0.06323500239005853
1716.0,0.06078036414518184
1715.0,0.05809122563440061
1714.0,0.05566540802921782
1713.0,0.05325306496641513
1712.0,0.05065879322950262
1711.0,0.04803141550708934
1710.0,0.04580574818413763
1709.0,0.04383156952463674
1708.0,0.0417706858116178
1707.0,0.039767126871487646
1706.0,0.038057116858612794
1705.0,0.03658998431977123
1704.0,0.03498654972775217
1703.0,0.033201453616638954
1702.0,0.03151705144606498
1701.0,0.030164906924202484
1700.0,0.029095501846216454
1699.0,0.02812138297373412
1698.0,0.027288159452933503
1697.0,0.026456531467510258
1696.0,0.02558042614771394
1695.0,0.024798037742147727
1694.0,0.02406295751688936
1693.0,0.023283295636617574
1692.0,0.022413561996148967
1691.0,0.021636852916117055
1690.0,0.021043834782408455
1689.0,0.02058821736556471
1688.0,0.019996628416253603
1687.0,0.0192242260373785
1686.0,0.018543833477873584
1685.0,0.018136109008649592
1684.0,0.018045555530026514
1683.0,0.01781925440359733
1682.0,0.017367005605150476
1681.0,0.016915227262211507
1680.0,0.016373712875465518
1679.0,0.015877917138889863
1678.0,0.015427684378367834
1677.0,0.014977917890464765
1676.0,0.014618439768003144
1675.0,0.014349026309051105
1674.0,0.014124642691606404
1673.0,0.01381070026317599
1672.0,0.013362604389846044
1671.0,0.013093968619278806
1670.0,0.013004460275618523
1669.0,0.012959713020733288
1668.0,0.012691326268817527
1667.0,0.012289056869694281
1666.0,0.011931796607364653
1665.0,0.011619434777991433
1664.0,0.011307297450183107
1663.0,0.01117359295472431
1662.0,0.011129033935354915
1661.0,0.011039929609661936
1660.0,0.010817248744452446
1659.0,0.010505687227290839
1658.0,0.010283280051895272
1657.0,0.009972101229705377
1656.0,0.009527946474380489
1655.0,0.008862564879688284
1654.0,0.00850811108984062
1653.0,0.008773924307505121
1652.0,0.008951223547323472
1651.0,0.008862564879688284
1650.0,0.008773924307505121
1649.0,0.008596697419959609
1648.0,0.008286724286910463
1647.0,0.008153946355103248
1646.0,0.008198201155356077
1645.0,0.008153946355103248
1644.0,0.008021209005416363
1643.0,0.007888512213050314
1642.0,0.007844288957383316
1641.0,0.007844288957383316
1640.0,0.007844288957383316
1639.0,0.007755855953228474
1638.0,0.007711646202907652
1637.0,0.007667440952535687
1636.0,0.007711646202907652
1635.0,0.007755855953228474
1634.0,0.007667440952535687
1633.0,0.007490664932224611
1632.0,0.007313960837872058
1631.0,0.007137328610972382
1630.0,0.007093181776687496
1629.0,0.007049039429553483
1628.0,0.007004901568658406
1627.0,0.006916639301937977
1626.0,0.006828394969235152
1625.0,0.006696062080525422
1624.0,0.006519680930003435
1623.0,0.006475596832934416
1622.0,0.006431517210272464
1621.0,0.006387442061109638
1620.0,0.006167133386013823
1619.0,0.005858888873877532
1618.0,0.005594853310833647
1617.0,0.00537494623139545
1616.0,0.0052870145684298375
1615.0,0.0052870145684298375
1614.0,0.005243055412371911
1613.0,0.005243055412371911
1612.0,0.005155150446602086
1611.0,0.005023326350308999
1610.0,0.004935465843858511
1609.0,0.004803708402820517
1608.0,0.004671990922590297
1607.0,0.004540313378935901
1606.0,0.0044964297349936455
1605.0,0.004452550524862486
1604.0,0.004320939488377862
1603.0,0.004145520125434121
1602.0,0.003970171588923321
1601.0,0.003794893821675638
1600.0,0.003619686766589858
1599.0,0.0034445503666347133
1598.0,0.0033132443998284966
1597.0,0.0032257291386954545
1596.0,0.0031819781204844855
1595.0,0.0031382315093266833
1594.0,0.0031382315093266833
1593.0,0.0031382315093266833
1592.0,0.003050751504618754
1591.0,0.0029632891174733444
1590.0,0.0028758443407954637
1589.0,0.0028321285541661467
1588.0,0.002701007590486082
1587.0,0.0026573093983774942
1586.0,0.002613615602686581
1585.0,0.002613615602686581
1584.0,0.002569926202528716
1583.0,0.0025262411970197185
1582.0,0.0025262411970197185
1581.0,0.0024388843664115978
1580.0,0.002351545103793873
1579.0,0.0021769192542746563
1578.0,0.0020459959305969555
1577.0,0.0020023635919956817
1576.0,0.0020459959305969555
1575.0,0.0021332737608552588
1574.0,0.0021769192542746563
1573.0,0.0022205691343961664
1572.0,0.0021769192542746563
1571.0,0.0020459959305969555
1570.0,0.0019587356365717845
1569.0,0.001915112063444413
1568.0,0.001915112063444413
1567.0,0.001915112063444413
1566.0,0.0019587356365717845
1565.0,0.0019587356365717845
1564.0,0.0019587356365717845
1563.0,0.001915112063444413
1562.0,0.001915112063444413
1561.0,0.001915112063444413
1560.0,0.0017406615763013722
1559.0,0.0014355417390583547
1558.0,0.001348404001626502
1557.0,0.001348404001626502
1556.0,0.001348404001626502
1555.0,0.0013919706849057079
1554.0,0.0014355417390583547
1553.0,0.0014355417390583547
1552.0,0.0014355417390583547
1551.0,0.0014791171649619628
1550.0,0.0015226969634936083
1549.0,0.0015226969634936083
1548.0,0.0014791171649619628
1547.0,0.0013919706849057079
1546.0,0.001348404001626502
1545.0,0.001348404001626502
1544.0,0.001304841688344327
1543.0,0.0012612837441823288
1542.0,0.001348404001626502
1541.0,0.001609869681952425
1540.0,0.0017842676290416026
1539.0,0.0016534626036355249
1538.0,0.0014355417390583547
1537.0,0.0014355417390583547
1536.0,0.0014791171649619628
1535.0,0.0014355417390583547
1534.0,0.0013919706849057079
1533.0,0.0014355417390583547
1532.0,0.0015662811355310335
1531.0,0.0015662811355310335
1530.0,0.001609869681952425
1529.0,0.001609869681952425
1528.0,0.0016534626036355249
1527.0,0.0017406615763013722
1526.0,0.0018714928717336043
1525.0,0.0019587356365717845
1524.0,0.002089632653256679
1523.0,0.002089632653256679
1522.0,0.0020459959305969555
1521.0,0.0020459959305969555
1520.0,0.002089632653256679
1519.0,0.0021332737608552588
1518.0,0.0021769192542746563
1517.0,0.0022642234021015284
1516.0,0.0022642234021015284
1515.0,0.0021769192542746563
1514.0,0.0021332737608552588
1513.0,0.0021332737608552588
1512.0,0.0021332737608552588
1511.0,0.002089632653256679
1510.0,0.0020459959305969555
1509.0,0.0020459959305969555
1508.0,0.002089632653256679
1507.0,0.002089632653256679
1506.0,0.0020023635919956817
1505.0,0.0018714928717336043
1504.0,0.001915112063444413
1503.0,0.0019587356365717845
1502.0,0.0020023635919956817
1501.0,0.0020023635919956817
1500.0,0.0019587356365717845
1499.0,0.0018278780605593958
1498.0,0.0017406615763013722
1497.0,0.0017406615763013722
1496.0,0.0018278780605593958
1495.0,0.001915112063444413
1494.0,0.0019587356365717845
1493.0,0.0020459959305969555
1492.0,0.002089632653256679
1491.0,0.0021332737608552588
1490.0,0.0021769192542746563
1489.0,0.002351545103793873
1488.0,0.0024388843664115978
1487.0,0.0024388843664115978
1486.0,0.002395212539545666
1485.0,0.002482560585275184
1484.0,0.0026573093983774942
1483.0,0.0028321285541661467
1482.0,0.0030944893043338695
1481.0,0.0034445503666347133
1480.0,0.003794893821675638
1479.0,0.0040578370074493275
1478.0,0.004408675747646695
1477.0,0.004935465843858511
1476.0,0.005638848091999105
1475.0,0.006343371384537999
1474.0,0.007402303897961815
1473.0,0.009350411681145587
1472.0,0.011931796607364653
1471.0,0.014169510141607944
1470.0,0.01628352608625061
1469.0,0.01858915983411169
1468.0,0.021317434843055594
1467.0,0.024706084643793647
1466.0,0.029513651152349718
1465.0,0.03602339000339416
1464.0,0.04272802000705722
1463.0,0.04807992647970649
1462.0,0.05222329153526162
1461.0,0.055912320584565744
1460.0,0.0595831353183347
1459.0,0.06388856832514578
1458.0,0.07083661679493547
1457.0,0.07966792846041071
1456.0,0.08533956941077814
1455.0,0.08708744882390307
1454.0,0.08761850108119962
1453.0,0.08793744441149753
1452.0,0.08799062441302175
1451.0,0.08745911720936239
1450.0,0.08639805027084257
1449.0,0.08470571697731355
1448.0,0.08212704480115218
1447.0,0.07857365898473456
1446.0,0.07417242537525759
1445.0,0.0690000580438479
1444.0,0.06298389253518577
1443.0,0.05650548409389744
1442.0,0.04997609347667353
1441.0,0.04383156952463674
1440.0,0.03838909190871931
1439.0,0.03357665405630694
1438.0,0.028956208163971375
1437.0,0.024338466818941473
1436.0,0.02045162529590483
1435.0,0.017955020928509757
1434.0,0.01628352608625061
1433.0,0.014798141635428141
1432.0,0.013317820220494436
1431.0,0.012021084124518078
1430.0,0.010995384301463185
1429.0,0.010060986715464404
1428.0,0.009261671492462709
1427.0,0.0087296108049002
1426.0,0.008242460465651913
1425.0,0.007667440952535687
1424.0,0.007137328610972382
1423.0,0.006784279525863024
1422.0,0.00656376950238835
1421.0,0.00621118618129457
1420.0,0.005858888873877532
1419.0,0.005682847330363394
1418.0,0.005550862985963967
1417.0,0.00537494623139545
1416.0,0.005199100705396198
1415.0,0.005155150446602086
1414.0,0.005155150446602086
1413.0,0.005067263269958211
1412.0,0.005067263269958211
1411.0,0.005199100705396198
1410.0,0.005330978174470591
1409.0,0.00537494623139545
1408.0,0.00541891874010525
1407.0,0.005638848091999105
1406.0,0.005990966876386672
1405.0,0.006343371384537999
1404.0,0.006872514894289861
1403.0,0.0075790439479759275
1402.0,0.008330992620051436
1401.0,0.009217308196862062
1400.0,0.01046119667949763
1399.0,0.012244383261476699
1398.0,0.014259258949925524
1397.0,0.016373712875465518
1396.0,0.0192242260373785
1395.0,0.023329119375188556
1394.0,0.02798240132598462
1393.0,0.03245202378113787
1392.0,0.03668448861388862
1391.0,0.04091088563260792
1390.0,0.04527520902093718
1389.0,0.05012229596312534
1388.0,0.055912320584565744
1387.0,0.06203099704854709
1386.0,0.06706985716921054
1385.0,0.07052998382251041
1384.0,0.07283502570063005
1383.0,0.07412091069849924
1382.0,0.07432700607875953
1381.0,0.07334892291111106
1380.0,0.07114346641808922
1379.0,0.06803388527182741
1378.0,0.06439198148213077
1377.0,0.06078036414518184
1376.0,0.05789269101064454
1375.0,0.05625823416868636
1374.0,0.056456022846545606
1373.0,0.05794231615860479
1372.0,0.05993198626064755
1371.0,0.062131203436140536
1370.0,0.06444235490698613
1369.0,0.06676587128519196
1368.0,0.06874559358358656
1367.0,0.07012147634321675
1366.0,0.0709900145060387
1365.0,0.0716553647351379
1364.0,0.07262963696097646
1363.0,0.07412091069849924
1362.0,0.07566901529132153
1361.0,0.07675598136972361
1360.0,0.07727454200674
1359.0,0.07727454200674
1358.0,0.07696333132921396
1357.0,0.07628980560343712
1356.0,0.07515236702446293
1355.0,0.07355465218161061
1354.0,0.07155293679081787
1353.0,0.06930561233546473
1352.0,0.06681652082538614
1351.0,0.06424089625468832
1350.0,0.06163040254819374
1349.0,0.059035506507200575
1348.0,0.05660442349104544
1347.0,0.05423607688882637
1346.0,0.05197846685889629
1345.0,0.04987865248862655
1344.0,0.047934409814949674
1343.0,0.04624030826677128
1342.0,0.04464904263234004
1341.0,0.04320747962950522
1340.0,0.04196198390166317
1339.0,0.04081545726880842
1338.0,0.03981472339538916
1337.0,0.038911280232103884
1336.0,0.03800971255993524
1335.0,0.03720463014276687
1334.0,0.036401037402758574
1333.0,0.035740369803151095
1332.0,0.03512779136222477
1331.0,0.03461012978487776
1330.0,0.03414006319292828
1329.0,0.03371743783253667
1328.0,0.03338901331806565
1327.0,0.03310770413286357
1326.0,0.03301397488206215
1325.0,0.03301397488206215
1324.0,0.033060836978886954
1323.0,0.033060836978886954
1322.0,0.03301397488206215
1321.0,0.0329671178412978
1320.0,0.032920265855503006
1319.0,0.032920265855503006
1318.0,0.03301397488206215
1317.0,0.03310770413286357
1316.0,0.03310770413286357
1315.0,0.033154576345083564
1314.0,0.0332483359486222
1313.0,0.03343591590268957
1312.0,0.03357665405630694
1311.0,0.03371743783253667
1310.0,0.0338113190438627
1309.0,0.033952178923546183
1308.0,0.03409308450480819
1307.0,0.03414006319292828
1306.0,0.034187046963396917
1305.0,0.034187046963396917
1304.0,0.03414006319292828
1303.0,0.034046110897937076
1302.0,0.033905220553829274
1301.0,0.03371743783253667
1300.0,0.03338901331806565
1299.0,0.032920265855503006
1298.0,0.03235843591698884
1297.0,0.03161045815293173
1296.0,0.0307239045110681
1295.0,0.029746130405213123
1294.0,0.028816959143838528
1293.0,0.027936083991977778
1292.0,0.027288159452933503
1291.0,0.02691835039863255
1290.0,0.02691835039863255
1289.0,0.02738066094037661
1288.0,0.028353117935693284
1287.0,0.029746130405213123
1286.0,0.031563752288295444
1285.0,0.03371743783253667
1284.0,0.03616496929785207
1283.0,0.03886378261277468
1282.0,0.0417706858116178
1281.0,0.044793462458058375
1280.0,0.0478374257855374
1279.0,0.050902874887084115
1278.0,0.05389176956309405
1277.0,0.0567528748621382
1276.0,0.05938391766259232
1275.0,0.061780582187257016
1274.0,0.06388856832514578
1273.0,0.06575411897692884
1272.0,0.06747550294945781
1271.0,0.06884736147670667
1270.0,0.06986635415888243
1269.0,0.07058107428570715
1268.0,0.0710411591191702
1267.0,0.07119462910671581
1266.0,0.07114346641808922
1265.0,0.07078549626260622
1264.0,0.07022356719509815
1263.0,0.06930561233546473
1262.0,0.0681862960408608
1261.0,0.06696850489759454
1260.0,0.06565307326174441
1259.0,0.06429125215733666
1258.0,0.06288348923294618
1257.0,0.061580354206806964
1256.0,0.06038092104330195
1255.0,0.05928434309333741
1254.0,0.0582898510583536
1253.0,0.057396751157843484
1252.0,0.05655495097496965
1251.0,0.05581353871631256
1250.0,0.05522131887649295
1249.0,0.054876229877880656
1248.0,0.05462990550969615
1247.0,0.05448217792216048
1246.0,0.05448217792216048
1245.0,0.05458065739693696
1244.0,0.054728418492290265
1243.0,0.05502409158795207
1242.0,0.05541863577307371
1241.0,0.05601112492622806
1240.0,0.0567528748621382
1239.0,0.05754547365752294
1238.0,0.05843887976392925
1237.0,0.05943371350990989
1236.0,0.06063052992534024
1235.0,0.06198090252378963
1234.0,0.06348625752110681
1233.0,0.06514819703433927
1232.0,0.06706985716921054
1231.0,0.06925467168888666
1230.0,0.07175781684269089
1229.0,0.07463633264589853
1228.0,0.0777417765670334
1227.0,0.08107890990866418
1226.0,0.08460016478773014
1225.0,0.08830984124613894
1224.0,0.09226626300234453
1223.0,0.09636748391576244
1222.0,0.10072681268239614
1221.0,0.10535169620648288
1220.0,0.11019424813191447
1219.0,0.11514801725400226
1218.0,0.1201016756699902
1217.0,0.124996646399959
1216.0,0.12977172098820566
1215.0,0.13424477592854833
1214.0,0.13834612978608907
1213.0,0.14212497447643746
1212.0,0.14545106418704923
1211.0,0.14813039927023364
1210.0,0.1502121757623145
1209.0,0.15181088300860135
1208.0,0.15304467498017615
1207.0,0.15397232463562127
1206.0,0.15471587365200845
1205.0,0.15546069787099204
1204.0,0.1562068016740874
1203.0,0.15695418946543072
1202.0,0.15782777061438424
1201.0,0.15901616267962204
1200.0,0.16064767110457878
1199.0,0.1626009756579776
1198.0,0.16500739626697003
1197.0,0.16793838540927308
1196.0,0.17153345264732156
1195.0,0.17561379768122598
1194.0,0.18025870272698952
1193.0,0.18568579979254052
1192.0,0.1920592787845008
1191.0,0.19928292171761486
1190.0,0.20739821883503362
1189.0,0.21652521241775347
1188.0,0.22657927670938993
1187.0,0.23724643506662613
1186.0,0.2482591261890994
1185.0,0.25924267669222956
1184.0,0.26970233790285025
1183.0,0.2786016244784948
1182.0,0.2850837520064151
1181.0,0.288192770958809
1180.0,0.28718199979214987
1179.0,0.28133226468378925
1178.0,0.27075419277469326
1177.0,0.25633347855378696
1176.0,0.23927602785804836
1175.0,0.2204035087421754
1174.0,0.20107326142279858
1173.0,0.18223636771963214
1172.0,0.16449967213268124
1171.0,0.14819148577176255
1170.0,0.13365357725039817
1169.0,0.12084675381575383
1168.0,0.10980261378997125
1167.0,0.10007011727213588
1166.0,0.0916222275676053
1165.0,0.08428366205400617
1164.0,0.07800156869172903
1163.0,0.0725783049495814
1162.0,0.06798309356579857
1161.0,0.06403953101083348
1160.0,0.06063052992534024
1159.0,0.05769424710410598
1158.0,0.05531996611868961
1157.0,0.053449489430144714
1156.0,0.05212534510230182
1155.0,0.05119595406718891
1154.0,0.050707598587974356
1153.0,0.05065879322950262
1152.0,0.051244819831730126
1151.0,0.052468254304406825
1150.0,0.05443294655761144
1149.0,0.057198533682059516
1148.0,0.06083032037482261
1147.0,0.0654005617819271
1146.0,0.0709900145060387
1145.0,0.07758597585436577
1144.0,0.08523386307414738
1143.0,0.0937727369476411
1142.0,0.10297804393963661
1141.0,0.11277666863747693
1140.0,0.12285911021517903
1139.0,0.13288622016802298
1138.0,0.1427278264359586
1137.0,0.15211900255462485
1136.0,0.16083631708534996
1135.0,0.1686422145579325
1134.0,0.1755487299633871
1133.0,0.18170810920000413
1132.0,0.1871534630329288
1131.0,0.19178902707577805
1130.0,0.19545169161194398
1129.0,0.1979107421182673
1128.0,0.1990081387398286
1127.0,0.1983905119726812
1126.0,0.19613336571501572
1125.0,0.19253262431572216
1124.0,0.188023055663046
1123.0,0.182963773949971
1122.0,0.17763574755845046
1121.0,0.1726953589102651
1120.0,0.16825816635436186
1119.0,0.1644362483309032
1118.0,0.16133977401105848
1117.0,0.15901616267962204
1116.0,0.15751557558842988
1115.0,0.15676722190199066
1114.0,0.15682953548010214
1113.0,0.15789023655938994
1112.0,0.1600194423216572
1111.0,0.16316971351112097
1110.0,0.16717187046064663
1109.0,0.1721785723171978
1108.0,0.17796275192741495
1107.0,0.18442225167573278
1106.0,0.19145144875959463
1105.0,0.1990081387398286
1104.0,0.20697834015401684
1103.0,0.21502629004559926
1102.0,0.2230809971579535
1101.0,0.23128791962233652
1100.0,0.2395021247734732
1099.0,0.24756739073852607
1098.0,0.25547232652743346
1097.0,0.2634441528373641
1096.0,0.2715650490257453
1095.0,0.27975798171294297
1094.0,0.28777133038046476
1093.0,0.29593532059143257
1092.0,0.3040807471686
1091.0,0.31202537996544444
1090.0,0.3195738291418546
1089.0,0.3268868957617663
1088.0,0.33395026151948404
1087.0,0.34017884194429504
1086.0,0.3452460667470698
1085.0,0.3493040202393891
1084.0,0.35222594973116994
1083.0,0.35369431971524135
1082.0,0.3535962737769305
1081.0,0.3525192268263242
1080.0,0.3502758140704776
1079.0,0.34649805303706716
1078.0,0.34141628459293716
1077.0,0.33545203775345334
1076.0,0.32882715728491685
1075.0,0.32111758532926427
1074.0,0.31220358861870556
1073.0,0.3025091128289432
1072.0,0.292089334286894
1071.0,0.2809174260985141
1070.0,0.26913700795350604
1069.0,0.2573534100612638
1068.0,0.2458811057745871
1067.0,0.23477863369501928
1066.0,0.2243167509739561
1065.0,0.21495504166845603
1064.0,0.20697834015401684
1063.0,0.20038379551850105
1062.0,0.19545169161194398
1061.0,0.1921268679966679
1060.0,0.19037295810595034
1059.0,0.18983471545685027
1058.0,0.19030564128307614
1057.0,0.1917214904172322
1056.0,0.19375217280420953
1055.0,0.19599694527038736
1054.0,0.1983905119726812
1053.0,0.20107326142279858
1052.0,0.2041199826559248
1051.0,0.20732821085843267
1050.0,0.21063084640851826
1049.0,0.21395878975744576
1048.0,0.21724080737600282
1047.0,0.22018713682941948
1046.0,0.22264568691579112
1045.0,0.224608028303388
1044.0,0.2258481410452895
1043.0,0.2259942697417905
1042.0,0.22489950112097512
1041.0,0.22279074185431513
1040.0,0.21961067152904712
1039.0,0.21531140049857878
1038.0,0.2100669190682496
1037.0,0.20432849405397824
1036.0,0.19832194096410682
1035.0,0.1921268679966679
1034.0,0.1859522790044006
1033.0,0.18006143064460467
1032.0,0.17457388223217696
1031.0,0.16947548590274142
1030.0,0.16494389827988365
1029.0,0.16102504504453208
1028.0,0.15757799664235028
1027.0,0.15434394001645568
1026.0,0.15101079374883275
1025.0,0.14764201633217278
1024.0,0.14405705376768396
1023.0,0.14002155835797914
1022.0,0.13560759484941132
1021.0,0.13100309751286465
1020.0,0.12621453918179926
1019.0,0.12142076193778073
1018.0,0.1165657063169907
1017.0,0.11182050608167504
1016.0,0.10723776538418317
1015.0,0.10281292341984649
1014.0,0.09859617317474823
1013.0,0.09458193129745807
1012.0,0.0908185240221473
1011.0,0.08735289378168276
1010.0,0.08412549714230844
1009.0,0.08118360963962057
1008.0,0.07862570458152551
1007.0,0.0763933569825408
1006.0,0.07437854520917098
1005.0,0.07252697900472405
1004.0,0.07078549626260622
1003.0,0.0692037370166998
1002.0,0.06772922410050963
1001.0,0.06636088747507496
1000.0,0.06499684854634524
999.0,0.06373765809652254
998.0,0.06253226035662252
997.0,0.06148027482350815
996.0,0.06058059667068294
995.0,0.05968277842578207
994.0,0.058737090681050264
993.0,0.05779345772290467
992.0,0.05680236993107379
991.0,0.055912320584565744
990.0,0.055122694036304765
989.0,0.05443294655761144
988.0,0.05369514500652506
987.0,0.05286048235717078
986.0,0.05192951848105887
985.0,0.05100054597304693
984.0,0.05012229596312534
983.0,0.049294465226138895
982.0,0.048565334467987054
981.0,0.04778894189133087
980.0,0.047062332249019345
979.0,0.04628861957244457
978.0,0.045516282844447975
977.0,0.044793462458058375
976.0,0.04411991377462465
975.0,0.0435434165901003
974.0,0.042967683653061695
973.0,0.042392712939904875
972.0,0.04181850243505214
971.0,0.04129280891271536
970.0,0.04081545726880842
969.0,0.040481623027001756
968.0,0.040243327009005014
967.0,0.04014804520039483
966.0,0.0402909757535701
965.0,0.040672354027829094
964.0,0.041340572947066834
963.0,0.04244059810252043
962.0,0.0439276630048171
961.0,0.04570923829887308
960.0,0.047595060422975566
959.0,0.049245818406496555
958.0,0.050463626623857394
957.0,0.051244819831730126
956.0,0.05153812993871654
955.0,0.05139145012356372
954.0,0.05100054597304693
953.0,0.050317309204795935
952.0,0.04939177521576932
951.0,0.04841965509660828
950.0,0.04740126547022694
949.0,0.046481918555007384
948.0,0.045612749855485024
947.0,0.044793462458058375
946.0,0.04402377775167454
945.0,0.04339941178682327
944.0,0.04287180232318688
943.0,0.042344833056508824
942.0,0.04181850243505214
941.0,0.041340572947066834
940.0,0.041006334969674096
939.0,0.04076775094900409
938.0,0.040529297924893015
937.0,0.040338629726504704
936.0,0.04010041213405646
935.0,0.03995754427315856
934.0,0.039909932095080425
933.0,0.03995754427315856
932.0,0.0400527842915015
931.0,0.04019568349166214
930.0,0.04038628892895613
929.0,0.040529297924893015
928.0,0.04062466342415694
927.0,0.04076775094900409
926.0,0.040958607678906356
925.0,0.041149548320321694
924.0,0.041340572947066834
923.0,0.041483896576958834
922.0,0.04153168163305643
921.0,0.04153168163305643
920.0,0.04153168163305643
919.0,0.04138834223512067
918.0,0.04124505013091051
917.0,0.04105406750606355
916.0,0.04086316882962593
915.0,0.04062466342415694
914.0,0.040338629726504704
913.0,0.03995754427315856
912.0,0.03962436858984186
911.0,0.039338992729018196
910.0,0.03914884628031379
909.0,0.038958783046687984
908.0,0.03876880295533702
907.0,0.03857890593355173
906.0,0.038341651362284734
905.0,0.03810452633214956
904.0,0.03782014709123227
903.0,0.03753595394209874
902.0,0.03739392707587297
901.0,0.03744126420403626
900.0,0.03753595394209874
899.0,0.037583306554248797
898.0,0.037583306554248797
897.0,0.03763066432997886
896.0,0.03777276864991497
895.0,0.03786753070176463
894.0,0.03772539537668518
893.0,0.037346595106788616
892.0,0.036779013477011624
891.0,0.03621217265444465
890.0,0.035740369803151095
889.0,0.035363296211498474
888.0,0.03498654972775217
887.0,0.03461012978487776
886.0,0.034516075754861264
885.0,0.03489241415094413
884.0,0.03588185684851508
883.0,0.03744126420403626
882.0,0.03952922246570112
881.0,0.042201225070002124
880.0,0.04541983725624266
879.0,0.04919717703534143
878.0,0.05340037498486727
877.0,0.05784307153250956
876.0,0.062281556382736136
875.0,0.0665127121512945
874.0,0.07037674848475972
873.0,0.07376047895413773
872.0,0.07654873036034848
871.0,0.07878187880504961
870.0,0.08029446545087904
869.0,0.08107890990866418
868.0,0.0812883346176787
867.0,0.0809742354126397
866.0,0.08024221949810584
865.0,0.07919861817434581
864.0,0.0777417765670334
863.0,0.07587584681417514
862.0,0.07360609973031784
861.0,0.07088774334533943
860.0,0.06767846801070698
859.0,0.06398920428479049
858.0,0.060081579630943294
857.0,0.05610995175152733
856.0,0.05222329153526162
855.0,0.04871106272232795
854.0,0.04580574818413763
853.0,0.04363944632667782
852.0,0.04196198390166317
851.0,0.04076775094900409
850.0,0.03995754427315856
849.0,0.03938654235209116
848.0,0.03886378261277468
847.0,0.03810452633214956
846.0,0.0371100126082089
845.0,0.03583468937826462
844.0,0.03437503289075727
843.0,0.03282657704446046
842.0,0.03133029827960798
841.0,0.03002526987828502
840.0,0.02890978686288448
839.0,0.02798240132598462
838.0,0.027195677663422346
837.0,0.026410376572743033
836.0,0.02558042614771394
835.0,0.02484402159331056
834.0,0.024246610963712723
833.0,0.023879381700184332
832.0,0.023604163388120325
831.0,0.023237476732539397
830.0,0.022871099419317753
829.0,0.02245929405346514
828.0,0.02204787879853809
827.0,0.021728158389364705
826.0,0.021545566634771474
825.0,0.02140867317992523
824.0,0.02140867317992523
823.0,0.02140867317992523
822.0,0.0214542995372613
821.0,0.0214542995372613
820.0,0.021363051615525652
819.0,0.021271822861508305
818.0,0.0211806132671577
817.0,0.021089422824428272
816.0,0.020952673052035298
815.0,0.020724852408976924
814.0,0.02045162529590483
813.0,0.02026956933771462
812.0,0.020087589665283012
811.0,0.019814763052665052
810.0,0.01958753839310856
809.0,0.019451260640229506
808.0,0.019451260640229506
807.0,0.019632973815224997
806.0,0.019814763052665052
805.0,0.019860222254245663
804.0,0.019678413991243593
803.0,0.01940584422377989
802.0,0.019269623464054586
801.0,0.0192242260373785
800.0,0.019315025636685412
799.0,0.01940584422377989
798.0,0.019451260640229506
797.0,0.01949668180660491
796.0,0.01949668180660491
795.0,0.019632973815224997
794.0,0.019860222254245663
793.0,0.020178569969774962
792.0,0.020406104151069693
791.0,0.020633757603838898
790.0,0.020907099361673565
789.0,0.021363051615525652
788.0,0.02204787879853809
787.0,0.02291687968414724
786.0,0.023833499868024743
785.0,0.02475205875931885
784.0,0.025672564576383117
783.0,0.02677975314776626
782.0,0.027889771597169544
781.0,0.028956208163971375
780.0,0.029792641193145286
779.0,0.03058408764601861
778.0,0.031563752288295444
777.0,0.03273290844021437
776.0,0.033952178923546183
775.0,0.03517488211661135
774.0,0.036542739883292485
773.0,0.038151940981675736
772.0,0.04014804520039483
771.0,0.042344833056508824
770.0,0.04450467081587295
769.0,0.04638525830935958
768.0,0.04817696468408794
767.0,0.050171041064686284
766.0,0.05266432405126009
765.0,0.055566682299785564
764.0,0.058836539841526925
763.0,0.062131203436140536
762.0,0.06545105233385295
761.0,0.06874559358358656
760.0,0.07191154033502922
759.0,0.0748426728241014
758.0,0.07732643214144574
757.0,0.07919861817434581
756.0,0.0805035121369384
755.0,0.08107890990866418
754.0,0.08081727095749947
753.0,0.07982447798997727
752.0,0.07831352451639795
751.0,0.07654873036034848
750.0,0.07489427319033615
749.0,0.07350321072677968
748.0,0.07227044022834539
747.0,0.07109230975604719
746.0,0.07001940948448526
745.0,0.06905096883247697
744.0,0.0680846829187538
743.0,0.06696850489759454
742.0,0.06560255921901192
741.0,0.06393888339001164
740.0,0.062131203436140536
739.0,0.0601813371786204
738.0,0.05799194697768684
737.0,0.05541863577307371
736.0,0.052468254304406825
735.0,0.049148541111453614
734.0,0.04575749056067524
733.0,0.042344833056508824
732.0,0.03924390909822728
731.0,0.03663723389626394
730.0,0.03479829897408804
729.0,0.03357665405630694
728.0,0.032920265855503006
727.0,0.03282657704446046
726.0,0.033295223342125535
725.0,0.03414006319292828
724.0,0.03498654972775217
723.0,0.03578752703018084
722.0,0.036873558918095295
721.0,0.03838909190871931
720.0,0.040529297924893015
719.0,0.04301563225723992
718.0,0.045564513671517703
717.0,0.047934409814949674
716.0,0.04978123335813667
715.0,0.05119595406718891
714.0,0.05232126006306337
713.0,0.05330216275425803
712.0,0.05423607688882637
711.0,0.05507339001378431
710.0,0.055912320584565744
709.0,0.0567528748621382
708.0,0.05744631966579017
707.0,0.05789269101064454
706.0,0.05814087347462649
705.0,0.0583891978463662
704.0,0.058538260652670315
703.0,0.058538260652670315
702.0,0.05843887976392925
701.0,0.0583395216116076
700.0,0.0583395216116076
699.0,0.05843887976392925
698.0,0.05863766428823891
697.0,0.058836539841526925
696.0,0.0588862729628985
695.0,0.0588862729628985
694.0,0.05898575629443026
693.0,0.05923456436878238
692.0,0.05938391766259232
691.0,0.059135024033278416
690.0,0.05868737463933793
689.0,0.0583395216116076
688.0,0.058190526991161784
687.0,0.05789269101064454
686.0,0.05734718830678798
685.0,0.05650548409389744
684.0,0.05561604235915585
683.0,0.05477768336465916
682.0,0.054186873412661596
681.0,0.05379344615721715
680.0,0.05325306496641513
679.0,0.05261529831525902
678.0,0.05207638016827354
677.0,0.05192951848105887
676.0,0.05192951848105887
675.0,0.051684859310652254
674.0,0.051098239029786274
673.0,0.05036607620073763
672.0,0.04963514562387683
671.0,0.049148541111453614
670.0,0.04900266601119507
669.0,0.04948910701400333
668.0,0.04982994019179987
667.0,0.04900266601119507
666.0,0.04774046340917959
665.0,0.04667530361081473
664.0,0.04580574818413763
663.0,0.0451788169482068
662.0,0.044937930324967956
661.0,0.04503426894157925
660.0,0.04508244626504121
659.0,0.04460091336073302
658.0,0.04368746915880539
657.0,0.04263219156847242
656.0,0.0417706858116178
655.0,0.041197296600497646
654.0,0.04091088563260792
653.0,0.04105406750606355
652.0,0.04172287445230238
651.0,0.04268010314465909
650.0,0.0433514207947967
649.0,0.0435434165901003
648.0,0.04325545471730896
647.0,0.04282386959515394
646.0,0.042584285277331047
645.0,0.04268010314465909
644.0,0.04287180232318688
643.0,0.042775942156833
642.0,0.04215336629184985
641.0,0.041197296600497646
640.0,0.04062466342415694
639.0,0.041101805289228244
638.0,0.04263219156847242
637.0,0.044456557540257124
636.0,0.045516282844447975
635.0,0.0454680573730859
634.0,0.04474531717982
633.0,0.0439276630048171
632.0,0.04301563225723992
631.0,0.04167506835594681
630.0,0.04014804520039483
629.0,0.03876880295533702
628.0,0.03786753070176463
627.0,0.03744126420403626
626.0,0.03739392707587297
625.0,0.03753595394209874
624.0,0.03753595394209874
623.0,0.03720463014276687
622.0,0.03649550058570927
621.0,0.03545753392086315
620.0,0.03414006319292828
619.0,0.03263926003405038
618.0,0.031143625385307683
617.0,0.029792641193145286
616.0,0.028445846553939003
615.0,0.02710321556345563
614.0,0.026041313893296225
613.0,0.025718641122169483
612.0,0.026318081496016443
611.0,0.027612000892527133
610.0,0.028863370523193765
609.0,0.029002634427514717
608.0,0.027750864037404455
607.0,0.025810808881832736
606.0,0.024246610963712723
605.0,0.02342078135989012
604.0,0.02314585342378117
603.0,0.02282532397981263
602.0,0.022367834754000393
601.0,0.021956506090037076
600.0,0.021910826943857264
