cm-1,A
4000.0,0.011708658092512314
3999.0,0.011664044143949504
3998.0,0.011664044143949504
3997.0,0.011664044143949504
3996.0,0.011664044143949504
3995.0,0.011708658092512314
3994.0,0.011753276624621556
3993.0,0.011753276624621556
3992.0,0.011753276624621556
3991.0,0.011753276624621556
3990.0,0.011753276624621556
3989.0,0.011753276624621556
3988.0,0.011753276624621556
3987.0,0.011753276624621556
3986.0,0.011753276624621556
3985.0,0.011753276624621556
3984.0,0.011753276624621556
3983.0,0.011753276624621556
3982.0,0.011797899741219142
3981.0,0.011842527443247208
3980.0,0.011842527443247208
3979.0,0.011842527443247208
3978.0,0.011797899741219142
3977.0,0.011842527443247208
3976.0,0.011887159731648111
3975.0,0.011931796607364653
3974.0,0.011931796607364653
3973.0,0.011887159731648111
3972.0,0.011797899741219142
3971.0,0.011753276624621556
3970.0,0.011708658092512314
3969.0,0.011664044143949504
3968.0,0.011708658092512314
3967.0,0.011753276624621556
3966.0,0.011842527443247208
3965.0,0.011887159731648111
3964.0,0.011887159731648111
3963.0,0.011887159731648111
3962.0,0.011931796607364653
3961.0,0.011931796607364653
3960.0,0.0119764380713403
3959.0,0.012021084124518078
3958.0,0.012065734767841452
3957.0,0.012065734767841452
3956.0,0.012065734767841452
3955.0,0.012065734767841452
3954.0,0.012065734767841452
3953.0,0.012065734767841452
3952.0,0.012065734767841452
3951.0,0.012065734767841452
3950.0,0.012065734767841452
3949.0,0.012021084124518078
3948.0,0.0119764380713403
3947.0,0.011931796607364653
3946.0,0.011887159731648111
3945.0,0.011887159731648111
3944.0,0.011887159731648111
3943.0,0.011931796607364653
3942.0,0.011931796607364653
3941.0,0.0119764380713403
3940.0,0.012065734767841452
3939.0,0.012110390002254778
3938.0,0.01215504982870197
3937.0,0.012199714248127602
3936.0,0.012199714248127602
3935.0,0.012199714248127602
3934.0,0.01215504982870197
3933.0,0.012110390002254778
3932.0,0.012110390002254778
3931.0,0.012110390002254778
3930.0,0.01215504982870197
3929.0,0.012199714248127602
3928.0,0.012244383261476699
3927.0,0.012289056869694281
3926.0,0.012244383261476699
3925.0,0.012110390002254778
3924.0,0.012021084124518078
3923.0,0.0119764380713403
3922.0,0.012021084124518078
3921.0,0.012021084124518078
3920.0,0.012021084124518078
3919.0,0.012021084124518078
3918.0,0.012065734767841452
3917.0,0.012110390002254778
3916.0,0.012110390002254778
3915.0,0.012110390002254778
3914.0,0.012065734767841452
3913.0,0.012065734767841452
3912.0,0.012021084124518078
3911.0,0.012021084124518078
3910.0,0.012065734767841452
3909.0,0.012065734767841452
3908.0,0.012110390002254778
3907.0,0.012110390002254778
3906.0,0.012110390002254778
3905.0,0.012110390002254778
3904.0,0.012110390002254778
3903.0,0.01215504982870197
3902.0,0.01215504982870197
3901.0,0.012110390002254778
3900.0,0.012065734767841452
3899.0,0.012065734767841452
3898.0,0.012021084124518078
3897.0,0.012065734767841452
3896.0,0.012065734767841452
3895.0,0.012065734767841452
3894.0,0.012110390002254778
3893.0,0.012110390002254778
3892.0,0.01215504982870197
3891.0,0.01215504982870197
3890.0,0.012110390002254778
3889.0,0.012110390002254778
3888.0,0.012199714248127602
3887.0,0.012244383261476699
3886.0,0.012199714248127602
3885.0,0.012199714248127602
3884.0,0.012199714248127602
3883.0,0.012289056869694281
3882.0,0.012378417874516323
3881.0,0.012333735073725371
3880.0,0.012289056869694281
3879.0,0.012199714248127602
3878.0,0.012199714248127602
3877.0,0.012199714248127602
3876.0,0.012244383261476699
3875.0,0.012244383261476699
3874.0,0.01215504982870197
3873.0,0.012110390002254778
3872.0,0.01215504982870197
3871.0,0.012244383261476699
3870.0,0.012378417874516323
3869.0,0.012423105273012602
3868.0,0.012467797270160563
3867.0,0.012467797270160563
3866.0,0.012333735073725371
3865.0,0.012110390002254778
3864.0,0.0119764380713403
3863.0,0.011931796607364653
3862.0,0.012021084124518078
3861.0,0.012065734767841452
3860.0,0.012110390002254778
3859.0,0.012110390002254778
3858.0,0.012110390002254778
3857.0,0.012110390002254778
3856.0,0.012065734767841452
3855.0,0.012110390002254778
3854.0,0.012199714248127602
3853.0,0.012289056869694281
3852.0,0.012289056869694281
3851.0,0.012289056869694281
3850.0,0.012333735073725371
3849.0,0.012378417874516323
3848.0,0.012378417874516323
3847.0,0.012378417874516323
3846.0,0.012333735073725371
3845.0,0.012244383261476699
3844.0,0.012110390002254778
3843.0,0.012021084124518078
3842.0,0.011931796607364653
3841.0,0.011931796607364653
3840.0,0.012021084124518078
3839.0,0.012065734767841452
3838.0,0.012065734767841452
3837.0,0.012021084124518078
3836.0,0.0119764380713403
3835.0,0.012021084124518078
3834.0,0.012110390002254778
3833.0,0.012199714248127602
3832.0,0.012244383261476699
3831.0,0.012244383261476699
3830.0,0.012244383261476699
3829.0,0.012244383261476699
3828.0,0.012289056869694281
3827.0,0.012244383261476699
3826.0,0.012244383261476699
3825.0,0.012199714248127602
3824.0,0.012244383261476699
3823.0,0.012289056869694281
3822.0,0.012289056869694281
3821.0,0.012244383261476699
3820.0,0.012244383261476699
3819.0,0.012378417874516323
3818.0,0.012467797270160563
3817.0,0.012512493866907004
3816.0,0.012423105273012602
3815.0,0.012289056869694281
3814.0,0.012289056869694281
3813.0,0.012378417874516323
3812.0,0.012467797270160563
3811.0,0.012512493866907004
3810.0,0.012512493866907004
3809.0,0.012557195064198723
3808.0,0.012557195064198723
3807.0,0.012512493866907004
3806.0,0.012423105273012602
3805.0,0.012423105273012602
3804.0,0.012423105273012602
3803.0,0.012423105273012602
3802.0,0.012378417874516323
3801.0,0.012423105273012602
3800.0,0.012512493866907004
3799.0,0.01264661126420652
3798.0,0.012736045877764557
3797.0,0.012736045877764557
3796.0,0.012691326268817527
3795.0,0.01260190086298274
3794.0,0.01260190086298274
3793.0,0.01260190086298274
3792.0,0.01260190086298274
3791.0,0.012557195064198723
3790.0,0.012557195064198723
3789.0,0.012557195064198723
3788.0,0.012512493866907004
3787.0,0.012467797270160563
3786.0,0.012423105273012602
3785.0,0.012378417874516323
3784.0,0.012378417874516323
3783.0,0.012378417874516323
3782.0,0.012423105273012602
3781.0,0.012423105273012602
3780.0,0.012423105273012602
3779.0,0.012378417874516323
3778.0,0.012378417874516323
3777.0,0.012423105273012602
3776.0,0.012512493866907004
3775.0,0.012557195064198723
3774.0,0.01260190086298274
3773.0,0.01260190086298274
3772.0,0.01260190086298274
3771.0,0.012557195064198723
3770.0,0.012557195064198723
3769.0,0.012557195064198723
3768.0,0.012557195064198723
3767.0,0.012512493866907004
3766.0,0.012467797270160563
3765.0,0.012423105273012602
3764.0,0.012423105273012602
3763.0,0.012512493866907004
3762.0,0.01264661126420652
3761.0,0.012691326268817527
3760.0,0.012691326268817527
3759.0,0.01264661126420652
3758.0,0.01264661126420652
3757.0,0.01264661126420652
3756.0,0.01264661126420652
3755.0,0.012736045877764557
3754.0,0.012736045877764557
3753.0,0.01264661126420652
3752.0,0.012467797270160563
3751.0,0.012333735073725371
3750.0,0.012289056869694281
3749.0,0.012244383261476699
3748.0,0.012244383261476699
3747.0,0.012333735073725371
3746.0,0.012378417874516323
3745.0,0.012378417874516323
3744.0,0.012289056869694281
3743.0,0.012199714248127602
3742.0,0.012244383261476699
3741.0,0.012289056869694281
3740.0,0.012244383261476699
3739.0,0.012199714248127602
3738.0,0.01215504982870197
3737.0,0.012110390002254778
3736.0,0.012110390002254778
3735.0,0.012065734767841452
3734.0,0.012065734767841452
3733.0,0.012021084124518078
3732.0,0.0119764380713403
3731.0,0.011887159731648111
3730.0,0.011887159731648111
3729.0,0.011931796607364653
3728.0,0.012021084124518078
3727.0,0.012065734767841452
3726.0,0.012110390002254778
3725.0,0.01215504982870197
3724.0,0.01215504982870197
3723.0,0.01215504982870197
3722.0,0.012199714248127602
3721.0,0.012244383261476699
3720.0,0.012333735073725371
3719.0,0.012423105273012602
3718.0,0.012467797270160563
3717.0,0.012467797270160563
3716.0,0.012512493866907004
3715.0,0.012512493866907004
3714.0,0.012557195064198723
3713.0,0.012557195064198723
3712.0,0.01260190086298274
3711.0,0.01264661126420652
3710.0,0.01264661126420652
3709.0,0.012557195064198723
3708.0,0.012378417874516323
3707.0,0.012199714248127602
3706.0,0.012021084124518078
3705.0,0.011931796607364653
3704.0,0.0119764380713403
3703.0,0.012110390002254778
3702.0,0.012244383261476699
3701.0,0.012333735073725371
3700.0,0.012378417874516323
3699.0,0.012378417874516323
3698.0,0.012423105273012602
3697.0,0.012467797270160563
3696.0,0.012512493866907004
3695.0,0.012557195064198723
3694.0,0.012557195064198723
3693.0,0.01260190086298274
3692.0,0.01260190086298274
3691.0,0.01264661126420652
3690.0,0.012736045877764557
3689.0,0.012780770091995297
3688.0,0.012780770091995297
3687.0,0.012780770091995297
3686.0,0.012870232340102872
3685.0,0.012914970375878188
3684.0,0.012959713020733288
3683.0,0.012959713020733288
3682.0,0.013004460275618523
3681.0,0.013049212141483357
3680.0,0.013093968619278806
3679.0,0.013093968619278806
3678.0,0.013093968619278806
3677.0,0.013138729709955221
3676.0,0.013138729709955221
3675.0,0.01318349541446362
3674.0,0.01318349541446362
3673.0,0.01322826573375524
3672.0,0.013273040668781544
3671.0,0.013273040668781544
3670.0,0.013273040668781544
3669.0,0.013362604389846044
3668.0,0.013496984613259544
3667.0,0.013631406429727155
3666.0,0.01372104409400876
3665.0,0.013765869865004277
3664.0,0.013765869865004277
3663.0,0.01381070026317599
3662.0,0.01385553528947936
3661.0,0.01385553528947936
3660.0,0.013900374944870508
3659.0,0.013945219230304673
3658.0,0.013945219230304673
3657.0,0.013990068146738865
3656.0,0.013990068146738865
3655.0,0.013945219230304673
3654.0,0.013945219230304673
3653.0,0.013990068146738865
3652.0,0.013990068146738865
3651.0,0.01403492169512921
3650.0,0.014214382227394795
3649.0,0.014393916947563534
3648.0,0.0144837121472845
3647.0,0.014438812226654996
3646.0,0.014393916947563534
3645.0,0.014393916947563534
3644.0,0.014393916947563534
3643.0,0.014393916947563534
3642.0,0.014393916947563534
3641.0,0.014438812226654996
3640.0,0.01452861671041239
3639.0,0.014618439768003144
3638.0,0.014708281407112
3637.0,0.014843078722943437
3636.0,0.014888020460646079
3635.0,0.014888020460646079
3634.0,0.014798141635428141
3633.0,0.014618439768003144
3632.0,0.014573525916998342
3631.0,0.01452861671041239
3630.0,0.014618439768003144
3629.0,0.014753209197138295
3628.0,0.014843078722943437
3627.0,0.014888020460646079
3626.0,0.014977917890464765
3625.0,0.015112798935672522
3624.0,0.015202742910707112
3623.0,0.015247721884586563
3622.0,0.015247721884586563
3621.0,0.015202742910707112
3620.0,0.015157768594724175
3619.0,0.015157768594724175
3618.0,0.015247721884586563
3617.0,0.015337693809893471
3616.0,0.015427684378367834
3615.0,0.015517693597737248
3614.0,0.015607721475734415
3613.0,0.015742798294583915
3612.0,0.015832872853011715
3611.0,0.015922966097169144
3610.0,0.01596801972881945
3609.0,0.01596801972881945
3608.0,0.015877917138889863
3607.0,0.015742798294583915
3606.0,0.015652742414136167
3605.0,0.015607721475734415
3604.0,0.015607721475734415
3603.0,0.015697768020096703
3602.0,0.01578783323856614
3601.0,0.015877917138889863
3600.0,0.016058141016111804
3599.0,0.016238439713835096
3598.0,0.016373712875465518
3597.0,0.016418813294209356
3596.0,0.016373712875465518
3595.0,0.01632861713980338
3594.0,0.01628352608625061
3593.0,0.01632861713980338
3592.0,0.016373712875465518
3591.0,0.016418813294209356
3590.0,0.01646391839700767
3589.0,0.016509028184833463
3588.0,0.016599261819461697
3587.0,0.016824927962187042
3586.0,0.016960383953898095
3585.0,0.017005545341335804
3584.0,0.017050711425501408
3583.0,0.017141057687924732
3582.0,0.017231422748988034
3581.0,0.017321806616515723
3580.0,0.017412209298337533
3579.0,0.017502630802287644
3578.0,0.01759307113620534
3577.0,0.01768353030793479
3576.0,0.017728766960431575
3575.0,0.017774008325325275
3574.0,0.01781925440359733
3573.0,0.01781925440359733
3572.0,0.017864505196230507
3571.0,0.017909760704207134
3570.0,0.01800028587012159
3569.0,0.018045555530026514
3568.0,0.018136109008649592
3567.0,0.018271974638383703
3566.0,0.018362575344230914
3565.0,0.018498511851753108
3564.0,0.018543833477873584
3563.0,0.01858915983411169
3562.0,0.018634490921455527
3561.0,0.018679826740892747
3560.0,0.018725167293411005
3559.0,0.018770512579999288
3558.0,0.018815862601645694
3557.0,0.018815862601645694
3556.0,0.018815862601645694
3555.0,0.018861217359339655
3554.0,0.018861217359339655
3553.0,0.018951941086827073
3552.0,0.0190880622231564
3551.0,0.0192242260373785
3550.0,0.019360432556262852
3549.0,0.019451260640229506
3548.0,0.01949668180660491
3547.0,0.01949668180660491
3546.0,0.01949668180660491
3545.0,0.01954210772389997
3544.0,0.01958753839310856
3543.0,0.019632973815224997
3542.0,0.019723858922159776
3541.0,0.019769308608968306
3540.0,0.019814763052665052
3539.0,0.019860222254245663
3538.0,0.01995115493504329
3537.0,0.019996628416253603
3536.0,0.020087589665283012
3535.0,0.02013307743509718
3534.0,0.02013307743509718
3533.0,0.02013307743509718
3532.0,0.02013307743509718
3531.0,0.02022406727031445
3530.0,0.020315076172974234
3529.0,0.020497151212598652
3528.0,0.02058821736556471
3527.0,0.020633757603838898
3526.0,0.02067930261797568
3525.0,0.020724852408976924
3524.0,0.020770406977844713
3523.0,0.02081596632558158
3522.0,0.020907099361673565
3521.0,0.020952673052035298
3520.0,0.0209982515252789
3519.0,0.021043834782408455
3518.0,0.021089422824428272
3517.0,0.021089422824428272
3516.0,0.021135015652343103
3515.0,0.0211806132671577
3514.0,0.0211806132671577
3513.0,0.0211806132671577
3512.0,0.0211806132671577
3511.0,0.021271822861508305
3510.0,0.021363051615525652
3509.0,0.02140867317992523
3508.0,0.02140867317992523
3507.0,0.021363051615525652
3506.0,0.021317434843055594
3505.0,0.021317434843055594
3504.0,0.021363051615525652
3503.0,0.0214542995372613
3502.0,0.02159120737696063
3501.0,0.02168250325324883
3500.0,0.021773818325474092
3499.0,0.021819483062586187
3498.0,0.021865152601710403
3497.0,0.021819483062586187
3496.0,0.021819483062586187
3495.0,0.021910826943857264
3494.0,0.02204787879853809
3493.0,0.022139270735302752
3492.0,0.022230681908425698
3491.0,0.02227639471115217
3490.0,0.022322112326006227
3489.0,0.022413561996148967
3488.0,0.02255077261765881
3487.0,0.022642270454698687
3486.0,0.022733787572707387
3485.0,0.02277955336461468
3484.0,0.02277955336461468
3483.0,0.022733787572707387
3482.0,0.022642270454698687
3481.0,0.02259651912656535
3480.0,0.022642270454698687
3479.0,0.02277955336461468
3478.0,0.02296266477531872
3477.0,0.023054249440757957
3476.0,0.02314585342378117
3475.0,0.02314585342378117
3474.0,0.02314585342378117
3473.0,0.02314585342378117
3472.0,0.023191662661933732
3471.0,0.023237476732539397
3470.0,0.023329119375188556
3469.0,0.023466619608062178
3468.0,0.02355831062115543
3467.0,0.02365002099672653
3466.0,0.023787622882622816
3465.0,0.023879381700184332
3464.0,0.023925268380126097
3463.0,0.023925268380126097
3462.0,0.023925268380126097
3461.0,0.024017056287453542
3460.0,0.024108863598207186
3459.0,0.024246610963712723
3458.0,0.02438440203310499
3457.0,0.024476287039668643
3456.0,0.024568191490736968
3455.0,0.024660115394541604
3454.0,0.024660115394541604
3453.0,0.024706084643793647
3452.0,0.024706084643793647
3451.0,0.02475205875931885
3450.0,0.02484402159331056
3449.0,0.024936003904763915
3448.0,0.025074013910237447
3447.0,0.025258095499050004
3446.0,0.02539620791296726
3445.0,0.025488307262671706
3444.0,0.02562649291857677
3443.0,0.025718641122169483
3442.0,0.025810808881832736
3441.0,0.025902996205869
3440.0,0.025949097207122573
3439.0,0.025995203102585407
3438.0,0.026087429580295085
3437.0,0.02613355016462182
3436.0,0.02613355016462182
3435.0,0.02613355016462182
3434.0,0.02617967564731627
3433.0,0.026225806029419818
3432.0,0.026271941311972746
3431.0,0.02636422658259252
3430.0,0.026456531467510258
3429.0,0.02654885597506529
3428.0,0.02664120011360227
3427.0,0.026733563891471412
3426.0,0.026733563891471412
3425.0,0.02677975314776626
3424.0,0.02677975314776626
3423.0,0.02677975314776626
3422.0,0.02677975314776626
3421.0,0.026733563891471412
3420.0,0.026687379547098322
3419.0,0.026733563891471412
3418.0,0.026733563891471412
3417.0,0.02677975314776626
3416.0,0.026733563891471412
3415.0,0.026733563891471412
3414.0,0.026687379547098322
3413.0,0.02664120011360227
3412.0,0.026595025589939425
3411.0,0.026595025589939425
3410.0,0.026595025589939425
3409.0,0.02654885597506529
3408.0,0.02654885597506529
3407.0,0.02654885597506529
3406.0,0.02654885597506529
3405.0,0.02654885597506529
3404.0,0.02654885597506529
3403.0,0.026502691267936695
3402.0,0.026456531467510258
3401.0,0.026410376572743033
3400.0,0.026410376572743033
3399.0,0.026456531467510258
3398.0,0.02654885597506529
3397.0,0.02664120011360227
3396.0,0.026687379547098322
3395.0,0.02664120011360227
3394.0,0.02654885597506529
3393.0,0.026410376572743033
3392.0,0.026318081496016443
3391.0,0.026271941311972746
3390.0,0.026271941311972746
3389.0,0.02636422658259252
3388.0,0.026456531467510258
3387.0,0.026502691267936695
3386.0,0.026502691267936695
3385.0,0.026410376572743033
3384.0,0.02636422658259252
3383.0,0.026318081496016443
3382.0,0.02636422658259252
3381.0,0.026410376572743033
3380.0,0.026456531467510258
3379.0,0.026456531467510258
3378.0,0.026456531467510258
3377.0,0.026456531467510258
3376.0,0.026502691267936695
3375.0,0.02654885597506529
3374.0,0.02654885597506529
3373.0,0.026502691267936695
3372.0,0.026456531467510258
3371.0,0.026456531467510258
3370.0,0.026456531467510258
3369.0,0.026456531467510258
3368.0,0.026410376572743033
3367.0,0.026318081496016443
3366.0,0.026271941311972746
3365.0,0.026271941311972746
3364.0,0.026318081496016443
3363.0,0.026410376572743033
3362.0,0.026456531467510258
3361.0,0.026502691267936695
3360.0,0.026456531467510258
3359.0,0.026410376572743033
3358.0,0.026410376572743033
3357.0,0.026410376572743033
3356.0,0.026410376572743033
3355.0,0.026318081496016443
3354.0,0.026225806029419818
3353.0,0.02617967564731627
3352.0,0.026225806029419818
3351.0,0.026271941311972746
3350.0,0.02636422658259252
3349.0,0.02636422658259252
3348.0,0.026318081496016443
3347.0,0.026225806029419818
3346.0,0.02613355016462182
3345.0,0.02613355016462182
3344.0,0.02613355016462182
3343.0,0.02617967564731627
3342.0,0.026225806029419818
3341.0,0.02636422658259252
3340.0,0.026456531467510258
3339.0,0.026502691267936695
3338.0,0.026456531467510258
3337.0,0.02636422658259252
3336.0,0.026225806029419818
3335.0,0.026087429580295085
3334.0,0.025995203102585407
3333.0,0.025949097207122573
3332.0,0.025949097207122573
3331.0,0.025949097207122573
3330.0,0.025902996205869
3329.0,0.025810808881832736
3328.0,0.025764722556973707
3327.0,0.025718641122169483
3326.0,0.025672564576383117
3325.0,0.02562649291857677
3324.0,0.02558042614771394
3323.0,0.02553436426275746
3322.0,0.02553436426275746
3321.0,0.02544225514642018
3320.0,0.02539620791296726
3319.0,0.025350165561278004
3318.0,0.025350165561278004
3317.0,0.025350165561278004
3316.0,0.02539620791296726
3315.0,0.025350165561278004
3314.0,0.025304128090317013
3313.0,0.025258095499050004
3312.0,0.025258095499050004
3311.0,0.025258095499050004
3310.0,0.025258095499050004
3309.0,0.025304128090317013
3308.0,0.025350165561278004
3307.0,0.025304128090317013
3306.0,0.02521206778644225
3305.0,0.02512002699306959
3304.0,0.02498200236711723
3303.0,0.024936003904763915
3302.0,0.024890010313838973
3301.0,0.024890010313838973
3300.0,0.024890010313838973
3299.0,0.024890010313838973
3298.0,0.02484402159331056
3297.0,0.024798037742147727
3296.0,0.024706084643793647
3295.0,0.02461415101053266
3294.0,0.024568191490736968
3293.0,0.024522236834125355
3292.0,0.024522236834125355
3291.0,0.024568191490736968
3290.0,0.024568191490736968
3289.0,0.024660115394541604
3288.0,0.024660115394541604
3287.0,0.024660115394541604
3286.0,0.02461415101053266
3285.0,0.024522236834125355
3284.0,0.02438440203310499
3283.0,0.024292536462819925
3282.0,0.024246610963712723
3281.0,0.024246610963712723
3280.0,0.024246610963712723
3279.0,0.024200690320592466
3278.0,0.024154774532432866
3277.0,0.02406295751688936
3276.0,0.024017056287453542
3275.0,0.024017056287453542
3274.0,0.024017056287453542
3273.0,0.024017056287453542
3272.0,0.024017056287453542
3271.0,0.024017056287453542
3270.0,0.023971159908874107
3269.0,0.023879381700184332
3268.0,0.023879381700184332
3267.0,0.023879381700184332
3266.0,0.023879381700184332
3265.0,0.023879381700184332
3264.0,0.023833499868024743
3263.0,0.023787622882622816
3262.0,0.023741750742954926
3261.0,0.023695883447997224
3260.0,0.02365002099672653
3259.0,0.023604163388120325
3258.0,0.02355831062115543
3257.0,0.023466619608062178
3256.0,0.02342078135989012
3255.0,0.023374947949272418
3254.0,0.023374947949272418
3253.0,0.023374947949272418
3252.0,0.023329119375188556
3251.0,0.023283295636617574
3250.0,0.023237476732539397
3249.0,0.023191662661933732
3248.0,0.02314585342378117
3247.0,0.02314585342378117
3246.0,0.02314585342378117
3245.0,0.02314585342378117
3244.0,0.023191662661933732
3243.0,0.02314585342378117
3242.0,0.023054249440757957
3241.0,0.02296266477531872
3240.0,0.02291687968414724
3239.0,0.02296266477531872
3238.0,0.02296266477531872
3237.0,0.02296266477531872
3236.0,0.02291687968414724
3235.0,0.02282532397981263
3234.0,0.022733787572707387
3233.0,0.022642270454698687
3232.0,0.02259651912656535
3231.0,0.022505030926963654
3230.0,0.02245929405346514
3229.0,0.022413561996148967
3228.0,0.022367834754000393
3227.0,0.022322112326006227
3226.0,0.022230681908425698
3225.0,0.022139270735302752
3224.0,0.022093572362881675
3223.0,0.022093572362881675
3222.0,0.022139270735302752
3221.0,0.0221849739168134
3220.0,0.0221849739168134
3219.0,0.022139270735302752
3218.0,0.022093572362881675
3217.0,0.021956506090037076
3216.0,0.021865152601710403
3215.0,0.021773818325474092
3214.0,0.021728158389364705
3213.0,0.021636852916117055
3212.0,0.02159120737696063
3211.0,0.021499930688540836
3210.0,0.0214542995372613
3209.0,0.02140867317992523
3208.0,0.021363051615525652
3207.0,0.021363051615525652
3206.0,0.021317434843055594
3205.0,0.021317434843055594
3204.0,0.021271822861508305
3203.0,0.02122621566987748
3202.0,0.02122621566987748
3201.0,0.02122621566987748
3200.0,0.021271822861508305
3199.0,0.02122621566987748
3198.0,0.0211806132671577
3197.0,0.021135015652343103
3196.0,0.021089422824428272
3195.0,0.0209982515252789
3194.0,0.020907099361673565
3193.0,0.02081596632558158
3192.0,0.020770406977844713
3191.0,0.020770406977844713
3190.0,0.02081596632558158
3189.0,0.02081596632558158
3188.0,0.020770406977844713
3187.0,0.020724852408976924
3186.0,0.02067930261797568
3185.0,0.02058821736556471
3184.0,0.020497151212598652
3183.0,0.020406104151069693
3182.0,0.020315076172974234
3181.0,0.02022406727031445
3180.0,0.020178569969774962
3179.0,0.020178569969774962
3178.0,0.02022406727031445
3177.0,0.020178569969774962
3176.0,0.02013307743509718
3175.0,0.020087589665283012
3174.0,0.02004210665933459
3173.0,0.02004210665933459
3172.0,0.02004210665933459
3171.0,0.019996628416253603
3170.0,0.01990568621470623
3169.0,0.019769308608968306
3168.0,0.019723858922159776
3167.0,0.019723858922159776
3166.0,0.019769308608968306
3165.0,0.019769308608968306
3164.0,0.019723858922159776
3163.0,0.019678413991243593
3162.0,0.019632973815224997
3161.0,0.01954210772389997
3160.0,0.01949668180660491
3159.0,0.019451260640229506
3158.0,0.019360432556262852
3157.0,0.019315025636685412
3156.0,0.0192242260373785
3155.0,0.019178833355664393
3154.0,0.019133445417920836
3153.0,0.0190880622231564
3152.0,0.019042683770379876
3151.0,0.019042683770379876
3150.0,0.019042683770379876
3149.0,0.019042683770379876
3148.0,0.018951941086827073
3147.0,0.018906576854070378
3146.0,0.018906576854070378
3145.0,0.018906576854070378
3144.0,0.018906576854070378
3143.0,0.018906576854070378
3142.0,0.018906576854070378
3141.0,0.018861217359339655
3140.0,0.018861217359339655
3139.0,0.018861217359339655
3138.0,0.018815862601645694
3137.0,0.018770512579999288
3136.0,0.018725167293411005
3135.0,0.018679826740892747
3134.0,0.018679826740892747
3133.0,0.018725167293411005
3132.0,0.018770512579999288
3131.0,0.018770512579999288
3130.0,0.018725167293411005
3129.0,0.018679826740892747
3128.0,0.018634490921455527
3127.0,0.01858915983411169
3126.0,0.018543833477873584
3125.0,0.018543833477873584
3124.0,0.018498511851753108
3123.0,0.018498511851753108
3122.0,0.01845319495476394
3121.0,0.01840788278591865
3120.0,0.018362575344230914
3119.0,0.018362575344230914
3118.0,0.018362575344230914
3117.0,0.01840788278591865
3116.0,0.018498511851753108
3115.0,0.018543833477873584
3114.0,0.018543833477873584
3113.0,0.018543833477873584
3112.0,0.018543833477873584
3111.0,0.018543833477873584
3110.0,0.018543833477873584
3109.0,0.01858915983411169
3108.0,0.018679826740892747
3107.0,0.018725167293411005
3106.0,0.018770512579999288
3105.0,0.018725167293411005
3104.0,0.018725167293411005
3103.0,0.018725167293411005
3102.0,0.018679826740892747
3101.0,0.018679826740892747
3100.0,0.01858915983411169
3099.0,0.018543833477873584
3098.0,0.018498511851753108
3097.0,0.01845319495476394
3096.0,0.01840788278591865
3095.0,0.018362575344230914
3094.0,0.018271974638383703
3093.0,0.018226681372252695
3092.0,0.018136109008649592
3091.0,0.01809082990920774
3090.0,0.01809082990920774
3089.0,0.018136109008649592
3088.0,0.018181392829336396
3087.0,0.018271974638383703
3086.0,0.018362575344230914
3085.0,0.01845319495476394
3084.0,0.018543833477873584
3083.0,0.018634490921455527
3082.0,0.018725167293411005
3081.0,0.018770512579999288
3080.0,0.018770512579999288
3079.0,0.018725167293411005
3078.0,0.018634490921455527
3077.0,0.018543833477873584
3076.0,0.018498511851753108
3075.0,0.018498511851753108
3074.0,0.018498511851753108
3073.0,0.018498511851753108
3072.0,0.018498511851753108
3071.0,0.01845319495476394
3070.0,0.01840788278591865
3069.0,0.01840788278591865
3068.0,0.01845319495476394
3067.0,0.01845319495476394
3066.0,0.01840788278591865
3065.0,0.01831727262871463
3064.0,0.018271974638383703
3063.0,0.018181392829336396
3062.0,0.018045555530026514
3061.0,0.017955020928509757
3060.0,0.017955020928509757
3059.0,0.01800028587012159
3058.0,0.018136109008649592
3057.0,0.018271974638383703
3056.0,0.01831727262871463
3055.0,0.01831727262871463
3054.0,0.018271974638383703
3053.0,0.018271974638383703
3052.0,0.018226681372252695
3051.0,0.018136109008649592
3050.0,0.017955020928509757
3049.0,0.017728766960431575
3048.0,0.017547848615010242
3047.0,0.017412209298337533
3046.0,0.017321806616515723
3045.0,0.017186237868137555
3044.0,0.017095882207371904
3043.0,0.016960383953898095
3042.0,0.016824927962187042
3041.0,0.016689514205884493
3040.0,0.016599261819461697
3039.0,0.016554142658660398
3038.0,0.016509028184833463
3037.0,0.016509028184833463
3036.0,0.01646391839700767
3035.0,0.01646391839700767
3034.0,0.01646391839700767
3033.0,0.01646391839700767
3032.0,0.016509028184833463
3031.0,0.016509028184833463
3030.0,0.016554142658660398
3029.0,0.016599261819461697
3028.0,0.016599261819461697
3027.0,0.016644385668211692
3026.0,0.016644385668211692
3025.0,0.016689514205884493
3024.0,0.016734647433454652
3023.0,0.01677978535189717
3022.0,0.016870075265299933
3021.0,0.016960383953898095
3020.0,0.017050711425501408
3019.0,0.017095882207371904
3018.0,0.017141057687924732
3017.0,0.017231422748988034
3016.0,0.017321806616515723
3015.0,0.017412209298337533
3014.0,0.017547848615010242
3013.0,0.01768353030793479
3012.0,0.01781925440359733
3011.0,0.01800028587012159
3010.0,0.01809082990920774
3009.0,0.018226681372252695
3008.0,0.01831727262871463
3007.0,0.018362575344230914
3006.0,0.01845319495476394
3005.0,0.018498511851753108
3004.0,0.01858915983411169
3003.0,0.018679826740892747
3002.0,0.018815862601645694
3001.0,0.018951941086827073
3000.0,0.019042683770379876
2999.0,0.019133445417920836
2998.0,0.019178833355664393
2997.0,0.0192242260373785
2996.0,0.0192242260373785
2995.0,0.019269623464054586
2994.0,0.019360432556262852
2993.0,0.019451260640229506
2992.0,0.01958753839310856
2991.0,0.019723858922159776
2990.0,0.01990568621470623
2989.0,0.020087589665283012
2988.0,0.020315076172974234
2987.0,0.020542681902151694
2986.0,0.020724852408976924
2985.0,0.020861530453190058
2984.0,0.021043834782408455
2983.0,0.02122621566987748
2982.0,0.021499930688540836
2981.0,0.021773818325474092
2980.0,0.02204787879853809
2979.0,0.022367834754000393
2978.0,0.022688026603074007
2977.0,0.02300845469384938
2976.0,0.023283295636617574
2975.0,0.02355831062115543
2974.0,0.023787622882622816
2973.0,0.02406295751688936
2972.0,0.024292536462819925
2971.0,0.024476287039668643
2970.0,0.02461415101053266
2969.0,0.024706084643793647
2968.0,0.024798037742147727
2967.0,0.024936003904763915
2966.0,0.025028005701930978
2965.0,0.025074013910237447
2964.0,0.02512002699306959
2963.0,0.02512002699306959
2962.0,0.02512002699306959
2961.0,0.02512002699306959
2960.0,0.02512002699306959
2959.0,0.02498200236711723
2958.0,0.02484402159331056
2957.0,0.024660115394541604
2956.0,0.024476287039668643
2955.0,0.024338466818941473
2954.0,0.024200690320592466
2953.0,0.023971159908874107
2952.0,0.023695883447997224
2951.0,0.023329119375188556
2950.0,0.02296266477531872
2949.0,0.022688026603074007
2948.0,0.022413561996148967
2947.0,0.022139270735302752
2946.0,0.021865152601710403
2945.0,0.021636852916117055
2944.0,0.0214542995372613
2943.0,0.021317434843055594
2942.0,0.021271822861508305
2941.0,0.02122621566987748
2940.0,0.021135015652343103
2939.0,0.021089422824428272
2938.0,0.020952673052035298
2937.0,0.020907099361673565
2936.0,0.020861530453190058
2935.0,0.020907099361673565
2934.0,0.021043834782408455
2933.0,0.0211806132671577
2932.0,0.021363051615525652
2931.0,0.021545566634771474
2930.0,0.02168250325324883
2929.0,0.021773818325474092
2928.0,0.021910826943857264
2927.0,0.02200219004126036
2926.0,0.022139270735302752
2925.0,0.022230681908425698
2924.0,0.022322112326006227
2923.0,0.02245929405346514
2922.0,0.02259651912656535
2921.0,0.022733787572707387
2920.0,0.02282532397981263
2919.0,0.02282532397981263
2918.0,0.022733787572707387
2917.0,0.022642270454698687
2916.0,0.02259651912656535
2915.0,0.022505030926963654
2914.0,0.022367834754000393
2913.0,0.022322112326006227
2912.0,0.0221849739168134
2911.0,0.022093572362881675
2910.0,0.021956506090037076
2909.0,0.021773818325474092
2908.0,0.02168250325324883
2907.0,0.021545566634771474
2906.0,0.02140867317992523
2905.0,0.02122621566987748
2904.0,0.021043834782408455
2903.0,0.02081596632558158
2902.0,0.02058821736556471
2901.0,0.020406104151069693
2900.0,0.02022406727031445
2899.0,0.02013307743509718
2898.0,0.02004210665933459
2897.0,0.01995115493504329
2896.0,0.01990568621470623
2895.0,0.019860222254245663
2894.0,0.019769308608968306
2893.0,0.019678413991243593
2892.0,0.01958753839310856
2891.0,0.01954210772389997
2890.0,0.01949668180660491
2889.0,0.019451260640229506
2888.0,0.01940584422377989
2887.0,0.019315025636685412
2886.0,0.019133445417920836
2885.0,0.01899731005860028
2884.0,0.018861217359339655
2883.0,0.018770512579999288
2882.0,0.018725167293411005
2881.0,0.018679826740892747
2880.0,0.01858915983411169
2879.0,0.018543833477873584
2878.0,0.018543833477873584
2877.0,0.018543833477873584
2876.0,0.018543833477873584
2875.0,0.018498511851753108
2874.0,0.01845319495476394
2873.0,0.01840788278591865
2872.0,0.01840788278591865
2871.0,0.018362575344230914
2870.0,0.01831727262871463
2869.0,0.018226681372252695
2868.0,0.018136109008649592
2867.0,0.018045555530026514
2866.0,0.01800028587012159
2865.0,0.018045555530026514
2864.0,0.018136109008649592
2863.0,0.018271974638383703
2862.0,0.01840788278591865
2861.0,0.018498511851753108
2860.0,0.01858915983411169
2859.0,0.018725167293411005
2858.0,0.018815862601645694
2857.0,0.018951941086827073
2856.0,0.019042683770379876
2855.0,0.019178833355664393
2854.0,0.019269623464054586
2853.0,0.01940584422377989
2852.0,0.01940584422377989
2851.0,0.019360432556262852
2850.0,0.019178833355664393
2849.0,0.018951941086827073
2848.0,0.018634490921455527
2847.0,0.018271974638383703
2846.0,0.017864505196230507
2845.0,0.017547848615010242
2844.0,0.017231422748988034
2843.0,0.017005545341335804
2842.0,0.016734647433454652
2841.0,0.016554142658660398
2840.0,0.01646391839700767
2839.0,0.016373712875465518
2838.0,0.01632861713980338
2837.0,0.01628352608625061
2836.0,0.016193358021584725
2835.0,0.016103208673694303
2834.0,0.016013078034810446
2833.0,0.015922966097169144
2832.0,0.01578783323856614
2831.0,0.015742798294583915
2830.0,0.015652742414136167
2829.0,0.015652742414136167
2828.0,0.015607721475734415
2827.0,0.015562705203923999
2826.0,0.015562705203923999
2825.0,0.01547268665620738
2824.0,0.015427684378367834
2823.0,0.01538268676325183
2822.0,0.015337693809893471
2821.0,0.015292705517326866
2820.0,0.015292705517326866
2819.0,0.015337693809893471
2818.0,0.015337693809893471
2817.0,0.015337693809893471
2816.0,0.015292705517326866
2815.0,0.015202742910707112
2814.0,0.015157768594724175
2813.0,0.015112798935672522
2812.0,0.015112798935672522
2811.0,0.015112798935672522
2810.0,0.015157768594724175
2809.0,0.015157768594724175
2808.0,0.015202742910707112
2807.0,0.015202742910707112
2806.0,0.015157768594724175
2805.0,0.015157768594724175
2804.0,0.015112798935672522
2803.0,0.015067833932588037
2802.0,0.014977917890464765
2801.0,0.014932966849499074
2800.0,0.014888020460646079
2799.0,0.014888020460646079
2798.0,0.014932966849499074
2797.0,0.014932966849499074
2796.0,0.014932966849499074
2795.0,0.014888020460646079
2794.0,0.014798141635428141
2793.0,0.014708281407112
2792.0,0.014663358264387139
2791.0,0.014663358264387139
2790.0,0.014663358264387139
2789.0,0.014708281407112
2788.0,0.014708281407112
2787.0,0.014663358264387139
2786.0,0.014618439768003144
2785.0,0.014573525916998342
2784.0,0.01452861671041239
2783.0,0.01452861671041239
2782.0,0.01452861671041239
2781.0,0.0144837121472845
2780.0,0.014393916947563534
2779.0,0.014349026309051105
2778.0,0.014349026309051105
2777.0,0.014349026309051105
2776.0,0.014393916947563534
2775.0,0.014393916947563534
2774.0,0.014393916947563534
2773.0,0.014393916947563534
2772.0,0.014393916947563534
2771.0,0.014349026309051105
2770.0,0.014349026309051105
2769.0,0.014349026309051105
2768.0,0.014304140310157809
2767.0,0.014304140310157809
2766.0,0.014304140310157809
2765.0,0.014304140310157809
2764.0,0.014304140310157809
2763.0,0.014259258949925524
2762.0,0.014259258949925524
2761.0,0.014214382227394795
2760.0,0.014214382227394795
2759.0,0.014214382227394795
2758.0,0.014214382227394795
2757.0,0.014259258949925524
2756.0,0.014259258949925524
2755.0,0.014214382227394795
2754.0,0.014214382227394795
2753.0,0.014169510141607944
2752.0,0.014169510141607944
2751.0,0.014169510141607944
2750.0,0.014214382227394795
2749.0,0.014259258949925524
2748.0,0.014214382227394795
2747.0,0.014169510141607944
2746.0,0.014124642691606404
2745.0,0.01403492169512921
2744.0,0.01403492169512921
2743.0,0.014079779876432497
2742.0,0.014124642691606404
2741.0,0.014169510141607944
2740.0,0.014169510141607944
2739.0,0.014169510141607944
2738.0,0.014124642691606404
2737.0,0.014079779876432497
2736.0,0.014079779876432497
2735.0,0.014079779876432497
2734.0,0.014079779876432497
2733.0,0.01403492169512921
2732.0,0.013945219230304673
2731.0,0.013945219230304673
2730.0,0.013945219230304673
2729.0,0.013945219230304673
2728.0,0.013945219230304673
2727.0,0.013900374944870508
2726.0,0.01385553528947936
2725.0,0.01381070026317599
2724.0,0.013765869865004277
2723.0,0.013765869865004277
2722.0,0.01381070026317599
2721.0,0.01381070026317599
2720.0,0.01381070026317599
2719.0,0.01381070026317599
2718.0,0.01381070026317599
2717.0,0.01381070026317599
2716.0,0.01381070026317599
2715.0,0.01381070026317599
2714.0,0.013765869865004277
2713.0,0.013676222949234651
2712.0,0.013586594534531482
2711.0,0.013541787262693505
2710.0,0.013541787262693505
2709.0,0.013541787262693505
2708.0,0.013586594534531482
2707.0,0.013586594534531482
2706.0,0.013586594534531482
2705.0,0.013631406429727155
2704.0,0.013631406429727155
2703.0,0.013676222949234651
2702.0,0.01372104409400876
2701.0,0.013676222949234651
2700.0,0.013631406429727155
2699.0,0.013586594534531482
2698.0,0.013541787262693505
2697.0,0.013541787262693505
2696.0,0.013541787262693505
2695.0,0.013541787262693505
2694.0,0.013541787262693505
2693.0,0.013541787262693505
2692.0,0.013541787262693505
2691.0,0.013541787262693505
2690.0,0.013541787262693505
2689.0,0.013496984613259544
2688.0,0.013452186585275916
2687.0,0.013452186585275916
2686.0,0.013452186585275916
2685.0,0.013452186585275916
2684.0,0.013496984613259544
2683.0,0.013541787262693505
2682.0,0.013586594534531482
2681.0,0.013586594534531482
2680.0,0.013586594534531482
2679.0,0.013586594534531482
2678.0,0.013541787262693505
2677.0,0.013496984613259544
2676.0,0.013452186585275916
2675.0,0.013407393177789162
2674.0,0.013407393177789162
2673.0,0.013407393177789162
2672.0,0.013407393177789162
2671.0,0.013407393177789162
2670.0,0.013407393177789162
2669.0,0.013407393177789162
2668.0,0.013362604389846044
2667.0,0.013317820220494436
2666.0,0.013273040668781544
2665.0,0.013273040668781544
2664.0,0.013273040668781544
2663.0,0.013317820220494436
2662.0,0.013317820220494436
2661.0,0.013273040668781544
2660.0,0.01322826573375524
2659.0,0.01318349541446362
2658.0,0.01318349541446362
2657.0,0.01318349541446362
2656.0,0.01318349541446362
2655.0,0.01322826573375524
2654.0,0.01322826573375524
2653.0,0.013273040668781544
2652.0,0.013317820220494436
2651.0,0.013317820220494436
2650.0,0.013273040668781544
2649.0,0.01322826573375524
2648.0,0.01318349541446362
2647.0,0.01318349541446362
2646.0,0.01318349541446362
2645.0,0.01318349541446362
2644.0,0.01318349541446362
2643.0,0.01318349541446362
2642.0,0.01318349541446362
2641.0,0.01318349541446362
2640.0,0.01318349541446362
2639.0,0.013138729709955221
2638.0,0.013138729709955221
2637.0,0.013138729709955221
2636.0,0.01318349541446362
2635.0,0.01322826573375524
2634.0,0.013273040668781544
2633.0,0.013362604389846044
2632.0,0.013407393177789162
2631.0,0.013452186585275916
2630.0,0.013452186585275916
2629.0,0.013407393177789162
2628.0,0.013317820220494436
2627.0,0.013273040668781544
2626.0,0.013273040668781544
2625.0,0.01322826573375524
2624.0,0.01322826573375524
2623.0,0.01318349541446362
2622.0,0.013138729709955221
2621.0,0.013138729709955221
2620.0,0.01318349541446362
2619.0,0.01322826573375524
2618.0,0.013273040668781544
2617.0,0.013273040668781544
2616.0,0.013273040668781544
2615.0,0.013273040668781544
2614.0,0.013317820220494436
2613.0,0.013317820220494436
2612.0,0.013317820220494436
2611.0,0.013317820220494436
2610.0,0.013273040668781544
2609.0,0.01322826573375524
2608.0,0.01318349541446362
2607.0,0.01318349541446362
2606.0,0.01318349541446362
2605.0,0.01318349541446362
2604.0,0.01322826573375524
2603.0,0.01322826573375524
2602.0,0.01322826573375524
2601.0,0.01322826573375524
2600.0,0.01322826573375524
2599.0,0.01318349541446362
2598.0,0.013138729709955221
2597.0,0.013049212141483357
2596.0,0.013049212141483357
2595.0,0.013093968619278806
2594.0,0.013138729709955221
2593.0,0.01318349541446362
2592.0,0.013273040668781544
2591.0,0.013317820220494436
2590.0,0.013362604389846044
2589.0,0.013317820220494436
2588.0,0.013273040668781544
2587.0,0.013273040668781544
2586.0,0.01322826573375524
2585.0,0.013273040668781544
2584.0,0.013273040668781544
2583.0,0.013317820220494436
2582.0,0.013362604389846044
2581.0,0.013407393177789162
2580.0,0.013407393177789162
2579.0,0.013362604389846044
2578.0,0.013317820220494436
2577.0,0.013273040668781544
2576.0,0.01322826573375524
2575.0,0.01318349541446362
2574.0,0.01318349541446362
2573.0,0.01318349541446362
2572.0,0.01322826573375524
2571.0,0.013273040668781544
2570.0,0.013273040668781544
2569.0,0.01318349541446362
2568.0,0.013138729709955221
2567.0,0.013093968619278806
2566.0,0.013093968619278806
2565.0,0.013093968619278806
2564.0,0.013138729709955221
2563.0,0.01318349541446362
2562.0,0.013273040668781544
2561.0,0.013273040668781544
2560.0,0.013273040668781544
2559.0,0.013317820220494436
2558.0,0.013317820220494436
2557.0,0.013317820220494436
2556.0,0.01322826573375524
2555.0,0.013138729709955221
2554.0,0.013093968619278806
2553.0,0.013049212141483357
2552.0,0.013093968619278806
2551.0,0.013138729709955221
2550.0,0.013138729709955221
2549.0,0.013138729709955221
2548.0,0.013093968619278806
2547.0,0.013049212141483357
2546.0,0.013004460275618523
2545.0,0.013004460275618523
2544.0,0.013049212141483357
2543.0,0.013093968619278806
2542.0,0.013138729709955221
2541.0,0.013138729709955221
2540.0,0.013138729709955221
2539.0,0.013138729709955221
2538.0,0.013093968619278806
2537.0,0.013049212141483357
2536.0,0.013049212141483357
2535.0,0.013049212141483357
2534.0,0.013049212141483357
2533.0,0.013004460275618523
2532.0,0.013049212141483357
2531.0,0.013049212141483357
2530.0,0.013093968619278806
2529.0,0.013138729709955221
2528.0,0.013138729709955221
2527.0,0.013138729709955221
2526.0,0.013049212141483357
2525.0,0.013004460275618523
2524.0,0.013004460275618523
2523.0,0.013004460275618523
2522.0,0.013004460275618523
2521.0,0.013004460275618523
2520.0,0.012959713020733288
2519.0,0.013004460275618523
2518.0,0.013049212141483357
2517.0,0.013093968619278806
2516.0,0.013093968619278806
2515.0,0.013049212141483357
2514.0,0.012959713020733288
2513.0,0.012914970375878188
2512.0,0.012825498912458322
2511.0,0.012825498912458322
2510.0,0.012825498912458322
2509.0,0.012870232340102872
2508.0,0.012914970375878188
2507.0,0.012914970375878188
2506.0,0.012870232340102872
2505.0,0.012780770091995297
2504.0,0.012736045877764557
2503.0,0.012691326268817527
2502.0,0.012736045877764557
2501.0,0.012780770091995297
2500.0,0.012825498912458322
2499.0,0.012825498912458322
2498.0,0.012825498912458322
2497.0,0.012780770091995297
2496.0,0.012780770091995297
2495.0,0.012780770091995297
2494.0,0.012825498912458322
2493.0,0.012825498912458322
2492.0,0.012780770091995297
2491.0,0.012691326268817527
2490.0,0.01264661126420652
2489.0,0.01260190086298274
2488.0,0.012557195064198723
2487.0,0.012557195064198723
2486.0,0.012557195064198723
2485.0,0.012512493866907004
2484.0,0.012467797270160563
2483.0,0.012423105273012602
2482.0,0.012378417874516323
2481.0,0.012423105273012602
2480.0,0.012467797270160563
2479.0,0.012512493866907004
2478.0,0.012557195064198723
2477.0,0.012557195064198723
2476.0,0.012512493866907004
2475.0,0.012467797270160563
2474.0,0.012423105273012602
2473.0,0.012423105273012602
2472.0,0.012378417874516323
2471.0,0.012378417874516323
2470.0,0.012378417874516323
2469.0,0.012378417874516323
2468.0,0.012378417874516323
2467.0,0.012333735073725371
2466.0,0.012289056869694281
2465.0,0.012289056869694281
2464.0,0.012289056869694281
2463.0,0.012333735073725371
2462.0,0.012333735073725371
2461.0,0.012333735073725371
2460.0,0.012333735073725371
2459.0,0.012289056869694281
2458.0,0.012289056869694281
2457.0,0.012244383261476699
2456.0,0.012244383261476699
2455.0,0.012199714248127602
2454.0,0.012199714248127602
2453.0,0.012199714248127602
2452.0,0.012199714248127602
2451.0,0.012199714248127602
2450.0,0.012199714248127602
2449.0,0.012244383261476699
2448.0,0.012199714248127602
2447.0,0.012199714248127602
2446.0,0.012199714248127602
2445.0,0.01215504982870197
2444.0,0.012110390002254778
2443.0,0.012065734767841452
2442.0,0.012065734767841452
2441.0,0.012065734767841452
2440.0,0.012021084124518078
2439.0,0.0119764380713403
2438.0,0.0119764380713403
2437.0,0.011931796607364653
2436.0,0.0119764380713403
2435.0,0.012021084124518078
2434.0,0.012110390002254778
2433.0,0.012110390002254778
2432.0,0.012110390002254778
2431.0,0.012110390002254778
2430.0,0.012065734767841452
2429.0,0.012065734767841452
2428.0,0.012065734767841452
2427.0,0.012065734767841452
2426.0,0.012110390002254778
2425.0,0.01215504982870197
2424.0,0.01215504982870197
2423.0,0.01215504982870197
2422.0,0.012199714248127602
2421.0,0.012244383261476699
2420.0,0.012244383261476699
2419.0,0.012244383261476699
2418.0,0.012199714248127602
2417.0,0.012199714248127602
2416.0,0.012199714248127602
2415.0,0.012244383261476699
2414.0,0.012289056869694281
2413.0,0.012289056869694281
2412.0,0.012333735073725371
2411.0,0.012378417874516323
2410.0,0.012423105273012602
2409.0,0.012423105273012602
2408.0,0.012467797270160563
2407.0,0.012467797270160563
2406.0,0.012423105273012602
2405.0,0.012423105273012602
2404.0,0.012423105273012602
2403.0,0.012423105273012602
2402.0,0.012423105273012602
2401.0,0.012378417874516323
2400.0,0.012333735073725371
2399.0,0.012333735073725371
2398.0,0.012333735073725371
2397.0,0.012333735073725371
2396.0,0.012378417874516323
2395.0,0.012423105273012602
2394.0,0.012467797270160563
2393.0,0.012467797270160563
2392.0,0.012467797270160563
2391.0,0.012467797270160563
2390.0,0.012423105273012602
2389.0,0.012378417874516323
2388.0,0.012333735073725371
2387.0,0.012244383261476699
2386.0,0.012110390002254778
2385.0,0.011887159731648111
2384.0,0.011664044143949504
2383.0,0.011485634166333858
2382.0,0.011307297450183107
2381.0,0.011039929609661936
2380.0,0.010728208358306901
2379.0,0.01037222925484893
2378.0,0.01001654169860089
2377.0,0.00974996707218323
2376.0,0.009616741093766423
2375.0,0.009572341514736404
2374.0,0.009527946474380489
2373.0,0.009439170005980158
2372.0,0.009439170005980158
2371.0,0.009705553871561357
2370.0,0.009972101229705377
2369.0,0.009972101229705377
2368.0,0.009572341514736404
2367.0,0.008995559669244813
2366.0,0.008375265465994541
2365.0,0.007932739972333236
2364.0,0.008065450281052211
2363.0,0.008773924307505121
2362.0,0.009217308196862062
2361.0,0.008818242332126802
2360.0,0.008198201155356077
2359.0,0.008419542825660153
2358.0,0.009217308196862062
2357.0,0.009616741093766423
2356.0,0.009172949432521227
2355.0,0.008375265465994541
2354.0,0.007844288957383316
2353.0,0.007667440952535687
2352.0,0.007800070204414977
2351.0,0.007888512213050314
2350.0,0.007888512213050314
2349.0,0.007800070204414977
2348.0,0.007800070204414977
2347.0,0.007711646202907652
2346.0,0.0075790439479759275
2345.0,0.007358130121602358
2344.0,0.007181479933320523
2343.0,0.007181479933320523
2342.0,0.007225635744644521
2341.0,0.007358130121602358
2340.0,0.0075790439479759275
2339.0,0.007711646202907652
2338.0,0.0074464821678643656
2337.0,0.006828394969235152
2336.0,0.006167133386013823
2335.0,0.005814871797682919
2334.0,0.005858888873877532
2333.0,0.006167133386013823
2332.0,0.006651960076740071
2331.0,0.007181479933320523
2330.0,0.00762324020119709
2329.0,0.007844288957383316
2328.0,0.008021209005416363
2327.0,0.008153946355103248
2326.0,0.008198201155356077
2325.0,0.008109696063975047
2324.0,0.008021209005416363
2323.0,0.008109696063975047
2322.0,0.008286724286910463
2321.0,0.008640997362049818
2320.0,0.009039900317800775
2319.0,0.00939478857608056
2318.0,0.009616741093766423
2317.0,0.009572341514736404
2316.0,0.009439170005980158
2315.0,0.009306039320248427
2314.0,0.009217308196862062
2313.0,0.009128595198514056
2312.0,0.009128595198514056
2311.0,0.009128595198514056
2310.0,0.009172949432521227
2309.0,0.009261671492462709
2308.0,0.009350411681145587
2307.0,0.009483555971770974
2306.0,0.009616741093766423
2305.0,0.009705553871561357
2304.0,0.009794384815193347
2303.0,0.009883233932095559
2302.0,0.009972101229705377
2301.0,0.01001654169860089
2300.0,0.01001654169860089
2299.0,0.010060986715464404
2298.0,0.010194349063173958
2297.0,0.010327752376126709
2296.0,0.010505687227290839
2295.0,0.010683695010048622
2294.0,0.01077272626946324
2293.0,0.01086177578421088
2292.0,0.010906307389674463
2291.0,0.010950843561779777
2290.0,0.010995384301463185
2289.0,0.011084479487313281
2288.0,0.011218156546359825
2287.0,0.011307297450183107
2286.0,0.011396456654336085
2285.0,0.011441043121384498
2284.0,0.011441043121384498
2283.0,0.011441043121384498
2282.0,0.011441043121384498
2281.0,0.011441043121384498
2280.0,0.011396456654336085
2279.0,0.011396456654336085
2278.0,0.011351874764248926
2277.0,0.011307297450183107
2276.0,0.011262724711199823
2275.0,0.01117359295472431
2274.0,0.011084479487313281
2273.0,0.011039929609661936
2272.0,0.010995384301463185
2271.0,0.011039929609661936
2270.0,0.011129033935354915
2269.0,0.011129033935354915
2268.0,0.01117359295472431
2267.0,0.01117359295472431
2266.0,0.011129033935354915
2265.0,0.01117359295472431
2264.0,0.01117359295472431
2263.0,0.011129033935354915
2262.0,0.011129033935354915
2261.0,0.011084479487313281
2260.0,0.011039929609661936
2259.0,0.011039929609661936
2258.0,0.011084479487313281
2257.0,0.011129033935354915
2256.0,0.01117359295472431
2255.0,0.01117359295472431
2254.0,0.01117359295472431
2253.0,0.011129033935354915
2252.0,0.011084479487313281
2251.0,0.011084479487313281
2250.0,0.011039929609661936
2249.0,0.010995384301463185
2248.0,0.010995384301463185
2247.0,0.010995384301463185
2246.0,0.010995384301463185
2245.0,0.011039929609661936
2244.0,0.011039929609661936
2243.0,0.011084479487313281
2242.0,0.011084479487313281
2241.0,0.011084479487313281
2240.0,0.011084479487313281
2239.0,0.011084479487313281
2238.0,0.011039929609661936
2237.0,0.011039929609661936
2236.0,0.010995384301463185
2235.0,0.010950843561779777
2234.0,0.010906307389674463
2233.0,0.01086177578421088
2232.0,0.010817248744452446
2231.0,0.01086177578421088
2230.0,0.01086177578421088
2229.0,0.010906307389674463
2228.0,0.010906307389674463
2227.0,0.010906307389674463
2226.0,0.010906307389674463
2225.0,0.010906307389674463
2224.0,0.010906307389674463
2223.0,0.010906307389674463
2222.0,0.010906307389674463
2221.0,0.010906307389674463
2220.0,0.010906307389674463
2219.0,0.01086177578421088
2218.0,0.010817248744452446
2217.0,0.010728208358306901
2216.0,0.010728208358306901
2215.0,0.010728208358306901
2214.0,0.010728208358306901
2213.0,0.010728208358306901
2212.0,0.010728208358306901
2211.0,0.010683695010048622
2210.0,0.010639186223752484
2209.0,0.010639186223752484
2208.0,0.010594681998483901
2207.0,0.010550182333308289
2206.0,0.010505687227290839
2205.0,0.010505687227290839
2204.0,0.010550182333308289
2203.0,0.010550182333308289
2202.0,0.010505687227290839
2201.0,0.010505687227290839
2200.0,0.01046119667949763
2199.0,0.010416710688994968
2198.0,0.010416710688994968
2197.0,0.01037222925484893
2196.0,0.01037222925484893
2195.0,0.010327752376126709
2194.0,0.010283280051895272
2193.0,0.01023881228122181
2192.0,0.010194349063173958
2191.0,0.010149890396819572
2190.0,0.010149890396819572
2189.0,0.010105436281226954
2188.0,0.010105436281226954
2187.0,0.010105436281226954
2186.0,0.010105436281226954
2185.0,0.010105436281226954
2184.0,0.010149890396819572
2183.0,0.010149890396819572
2182.0,0.010149890396819572
2181.0,0.010149890396819572
2180.0,0.010149890396819572
2179.0,0.010194349063173958
2178.0,0.010149890396819572
2177.0,0.010149890396819572
2176.0,0.010105436281226954
2175.0,0.010060986715464404
2174.0,0.010060986715464404
2173.0,0.010060986715464404
2172.0,0.01001654169860089
2171.0,0.01001654169860089
2170.0,0.009972101229705377
2169.0,0.009972101229705377
2168.0,0.01001654169860089
2167.0,0.010060986715464404
2166.0,0.010105436281226954
2165.0,0.010149890396819572
2164.0,0.010149890396819572
2163.0,0.010105436281226954
2162.0,0.010060986715464404
2161.0,0.010060986715464404
2160.0,0.010060986715464404
2159.0,0.010105436281226954
2158.0,0.010105436281226954
2157.0,0.010105436281226954
2156.0,0.010105436281226954
2155.0,0.010105436281226954
2154.0,0.010105436281226954
2153.0,0.010060986715464404
2152.0,0.01001654169860089
2151.0,0.01001654169860089
2150.0,0.010060986715464404
2149.0,0.010105436281226954
2148.0,0.010105436281226954
2147.0,0.010105436281226954
2146.0,0.010149890396819572
2145.0,0.010149890396819572
2144.0,0.010149890396819572
2143.0,0.010194349063173958
2142.0,0.010149890396819572
2141.0,0.010149890396819572
2140.0,0.010105436281226954
2139.0,0.010105436281226954
2138.0,0.010149890396819572
2137.0,0.010149890396819572
2136.0,0.010149890396819572
2135.0,0.010194349063173958
2134.0,0.01023881228122181
2133.0,0.010283280051895272
2132.0,0.010327752376126709
2131.0,0.010283280051895272
2130.0,0.010194349063173958
2129.0,0.010105436281226954
2128.0,0.010105436281226954
2127.0,0.010105436281226954
2126.0,0.010105436281226954
2125.0,0.010105436281226954
2124.0,0.010149890396819572
2123.0,0.010149890396819572
2122.0,0.010194349063173958
2121.0,0.010194349063173958
2120.0,0.01023881228122181
2119.0,0.01023881228122181
2118.0,0.01023881228122181
2117.0,0.010194349063173958
2116.0,0.010194349063173958
2115.0,0.01023881228122181
2114.0,0.01023881228122181
2113.0,0.010283280051895272
2112.0,0.010283280051895272
2111.0,0.010283280051895272
2110.0,0.010283280051895272
2109.0,0.01023881228122181
2108.0,0.01023881228122181
2107.0,0.010194349063173958
2106.0,0.010194349063173958
2105.0,0.010149890396819572
2104.0,0.010149890396819572
2103.0,0.010149890396819572
2102.0,0.010194349063173958
2101.0,0.010194349063173958
2100.0,0.010194349063173958
2099.0,0.01023881228122181
2098.0,0.010194349063173958
2097.0,0.010194349063173958
2096.0,0.010149890396819572
2095.0,0.010149890396819572
2094.0,0.010149890396819572
2093.0,0.010149890396819572
2092.0,0.010149890396819572
2091.0,0.010105436281226954
2090.0,0.01001654169860089
2089.0,0.009972101229705377
2088.0,0.009927665307847056
2087.0,0.009883233932095559
2086.0,0.009883233932095559
2085.0,0.009838807101520963
2084.0,0.009838807101520963
2083.0,0.009838807101520963
2082.0,0.009838807101520963
2081.0,0.009838807101520963
2080.0,0.009794384815193347
2079.0,0.009794384815193347
2078.0,0.009794384815193347
2077.0,0.00974996707218323
2076.0,0.00966114521239847
2075.0,0.009572341514736404
2074.0,0.009527946474380489
2073.0,0.009483555971770974
2072.0,0.009483555971770974
2071.0,0.009483555971770974
2070.0,0.009439170005980158
2069.0,0.009350411681145587
2068.0,0.009306039320248427
2067.0,0.009217308196862062
2066.0,0.009217308196862062
2065.0,0.009172949432521227
2064.0,0.009172949432521227
2063.0,0.009172949432521227
2062.0,0.009172949432521227
2061.0,0.009128595198514056
2060.0,0.00908424549391551
2059.0,0.008995559669244813
2058.0,0.008906891951112605
2057.0,0.008862564879688284
2056.0,0.008818242332126802
2055.0,0.008818242332126802
2054.0,0.008818242332126802
2053.0,0.008773924307505121
2052.0,0.008685301823389224
2051.0,0.008685301823389224
2050.0,0.008685301823389224
2049.0,0.008640997362049818
2048.0,0.008640997362049818
2047.0,0.008596697419959609
2046.0,0.008552401996197112
2045.0,0.00850811108984062
2044.0,0.008463824699968647
2043.0,0.008419542825660153
2042.0,0.008419542825660153
2041.0,0.008375265465994541
2040.0,0.008375265465994541
2039.0,0.008375265465994541
2038.0,0.008375265465994541
2037.0,0.008330992620051436
2036.0,0.008330992620051436
2035.0,0.008286724286910463
2034.0,0.008242460465651913
2033.0,0.008198201155356077
2032.0,0.008198201155356077
2031.0,0.008198201155356077
2030.0,0.008198201155356077
2029.0,0.008153946355103248
2028.0,0.008153946355103248
2027.0,0.008109696063975047
2026.0,0.008065450281052211
2025.0,0.008065450281052211
2024.0,0.008065450281052211
2023.0,0.008109696063975047
2022.0,0.008109696063975047
2021.0,0.008065450281052211
2020.0,0.008021209005416363
2019.0,0.007976972236149349
2018.0,0.007976972236149349
2017.0,0.007932739972333236
2016.0,0.007932739972333236
2015.0,0.007932739972333236
2014.0,0.007888512213050314
2013.0,0.007888512213050314
2012.0,0.007844288957383316
2011.0,0.007888512213050314
2010.0,0.007888512213050314
2009.0,0.007932739972333236
2008.0,0.007932739972333236
2007.0,0.007976972236149349
2006.0,0.007976972236149349
2005.0,0.007932739972333236
2004.0,0.007888512213050314
2003.0,0.007888512213050314
2002.0,0.007888512213050314
2001.0,0.007932739972333236
2000.0,0.008021209005416363
1999.0,0.008065450281052211
1998.0,0.008109696063975047
1997.0,0.008109696063975047
1996.0,0.008153946355103248
1995.0,0.008198201155356077
1994.0,0.008198201155356077
1993.0,0.008198201155356077
1992.0,0.008198201155356077
1991.0,0.008242460465651913
1990.0,0.008242460465651913
1989.0,0.008242460465651913
1988.0,0.008242460465651913
1987.0,0.008242460465651913
1986.0,0.008286724286910463
1985.0,0.008286724286910463
1984.0,0.008242460465651913
1983.0,0.008286724286910463
1982.0,0.008286724286910463
1981.0,0.008286724286910463
1980.0,0.008286724286910463
1979.0,0.008330992620051436
1978.0,0.008375265465994541
1977.0,0.008330992620051436
1976.0,0.008330992620051436
1975.0,0.008375265465994541
1974.0,0.008463824699968647
1973.0,0.008552401996197112
1972.0,0.008552401996197112
1971.0,0.008596697419959609
1970.0,0.008596697419959609
1969.0,0.008596697419959609
1968.0,0.008640997362049818
1967.0,0.008685301823389224
1966.0,0.008818242332126802
1965.0,0.008906891951112605
1964.0,0.008995559669244813
1963.0,0.009128595198514056
1962.0,0.009217308196862062
1961.0,0.009306039320248427
1960.0,0.009350411681145587
1959.0,0.00939478857608056
1958.0,0.009483555971770974
1957.0,0.009483555971770974
1956.0,0.009527946474380489
1955.0,0.009572341514736404
1954.0,0.009572341514736404
1953.0,0.009616741093766423
1952.0,0.009616741093766423
1951.0,0.009572341514736404
1950.0,0.009527946474380489
1949.0,0.009439170005980158
1948.0,0.009350411681145587
1947.0,0.009306039320248427
1946.0,0.009261671492462709
1945.0,0.009172949432521227
1944.0,0.00908424549391551
1943.0,0.008995559669244813
1942.0,0.008906891951112605
1941.0,0.008773924307505121
1940.0,0.008685301823389224
1939.0,0.008596697419959609
1938.0,0.008463824699968647
1937.0,0.008375265465994541
1936.0,0.008198201155356077
1935.0,0.008065450281052211
1934.0,0.007932739972333236
1933.0,0.007800070204414977
1932.0,0.007711646202907652
1931.0,0.007667440952535687
1930.0,0.00762324020119709
1929.0,0.007534852191956709
1928.0,0.0074464821678643656
1927.0,0.007358130121602358
1926.0,0.007269796045857202
1925.0,0.007181479933320523
1924.0,0.007049039429553483
1923.0,0.00696076819309055
1922.0,0.006916639301937977
1921.0,0.006872514894289861
1920.0,0.006784279525863024
1919.0,0.006696062080525422
1918.0,0.00656376950238835
1917.0,0.006475596832934416
1916.0,0.006431517210272464
1915.0,0.006387442061109638
1914.0,0.006387442061109638
1913.0,0.006299305179649828
1912.0,0.00625524344553785
1911.0,0.006167133386013823
1910.0,0.00612308505878878
1909.0,0.006035001804881146
1908.0,0.005990966876386672
1907.0,0.00590291041179003
1906.0,0.005858888873877532
1905.0,0.00577085918230158
1904.0,0.005682847330363394
1903.0,0.005638848091999105
1902.0,0.005594853310833647
1901.0,0.005506877116487674
1900.0,0.005462895701502157
1899.0,0.00541891874010525
1898.0,0.00537494623139545
1897.0,0.0052870145684298375
1896.0,0.005155150446602086
1895.0,0.005067263269958211
1894.0,0.005023326350308999
1893.0,0.004979393875242044
1892.0,0.004935465843858511
1891.0,0.00489154225525934
1890.0,0.00489154225525934
1889.0,0.00484762310854614
1888.0,0.004759798137184523
1887.0,0.004715892310740433
1886.0,0.004628093971837721
1885.0,0.0044964297349936455
1884.0,0.004408675747646695
1883.0,0.0043648054024501
1882.0,0.004320939488377862
1881.0,0.004320939488377862
1880.0,0.004277078004534696
1879.0,0.004233220950025984
1878.0,0.004189368323957332
1877.0,0.004101676353562844
1876.0,0.0040578370074493275
1875.0,0.0040578370074493275
1874.0,0.00401400208620073
1873.0,0.00401400208620073
1872.0,0.00401400208620073
1871.0,0.00401400208620073
1870.0,0.00401400208620073
1869.0,0.003970171588923321
1868.0,0.0038825238627120395
1867.0,0.003794893821675638
1866.0,0.0037510854308679953
1865.0,0.0036634819042162814
1864.0,0.003619686766589858
1863.0,0.003619686766589858
1862.0,0.003619686766589858
1861.0,0.003619686766589858
1860.0,0.0035758960449088217
1859.0,0.0035758960449088217
1858.0,0.0035321097382827737
1857.0,0.003488327845821315
1856.0,0.0034445503666347133
1855.0,0.003488327845821315
1854.0,0.003488327845821315
1853.0,0.0034445503666347133
1852.0,0.0034007772998332353
1851.0,0.0034445503666347133
1850.0,0.0034445503666347133
1849.0,0.0034445503666347133
1848.0,0.003488327845821315
1847.0,0.0035758960449088217
1846.0,0.003707281458678491
1845.0,0.003707281458678491
1844.0,0.0036634819042162814
1843.0,0.003619686766589858
1842.0,0.0036634819042162814
1841.0,0.0036634819042162814
1840.0,0.003707281458678491
1839.0,0.0037510854308679953
1838.0,0.003794893821675638
1837.0,0.003794893821675638
1836.0,0.0037510854308679953
1835.0,0.003794893821675638
1834.0,0.0038387066319929275
1833.0,0.003926345514724705
1832.0,0.003970171588923321
1831.0,0.00401400208620073
1830.0,0.00401400208620073
1829.0,0.00401400208620073
1828.0,0.00401400208620073
1827.0,0.0040578370074493275
1826.0,0.0040578370074493275
1825.0,0.003970171588923321
1824.0,0.0038825238627120395
1823.0,0.0038387066319929275
1822.0,0.003794893821675638
1821.0,0.003707281458678491
1820.0,0.003619686766589858
1819.0,0.0035758960449088217
1818.0,0.0035758960449088217
1817.0,0.0035321097382827737
1816.0,0.003488327845821315
1815.0,0.0034445503666347133
1814.0,0.0033570086445275926
1813.0,0.0032257291386954545
1812.0,0.0030944893043338695
1811.0,0.0030070181092942683
1810.0,0.0029632891174733444
1809.0,0.0028321285541661467
1808.0,0.002701007590486082
1807.0,0.002613615602686581
1806.0,0.0025262411970197185
1805.0,0.002482560585275184
1804.0,0.002395212539545666
1803.0,0.002395212539545666
1802.0,0.002351545103793873
1801.0,0.0022205691343961664
1800.0,0.0020459959305969555
1799.0,0.0019587356365717845
1798.0,0.0018278780605593958
1797.0,0.0017406615763013722
1796.0,0.0016970599014589638
1795.0,0.0016970599014589638
1794.0,0.0016970599014589638
1793.0,0.0015662811355310335
1792.0,0.001348404001626502
1791.0,0.0012177301682640973
1790.0,0.0011741809597138886
1789.0,0.0010435595295137379
1788.0,0.0009565003968372565
1787.0,0.0009129773741116676
1786.0,0.000869458712629001
1785.0,0.0007389288868995258
1784.0,0.0005649501236701937
1783.0,0.000521466320689834
1782.0,0.0004779868710962365
1781.0,0.0003475746339209884
1780.0,0.00021720154586435392
1779.0,0.0001303078917322953
1778.0,0.0001303078917322953
1777.0,0.0
1776.0,-4.3427276862573194e-05
1775.0,0.0
1774.0,0.0
1773.0,-0.00021709297223004853
1772.0,-0.00043407747931878404
1771.0,-0.0003472966853634851
1770.0,-0.00021709297223004853
1769.0,-0.0002604985473904087
1768.0,-0.0003472966853634851
1767.0,-0.0002604985473904087
1766.0,-0.00013026880522692963
1765.0,-4.3427276862573194e-05
1764.0,8.686758342868472e-05
1763.0,0.00030411258916074324
1762.0,0.0005649501236701937
1761.0,0.0007389288868995258
1760.0,0.0009129773741116676
1759.0,0.001348404001626502
1758.0,0.0020023635919956817
1757.0,0.002569926202528716
1756.0,0.0032257291386954545
1755.0,0.0040578370074493275
1754.0,0.005023326350308999
1753.0,0.006079041198713275
1752.0,0.007402303897961815
1751.0,0.009483555971770974
1750.0,0.01215504982870197
1749.0,0.015022873584506602
1748.0,0.018271974638383703
1747.0,0.02200219004126036
1746.0,0.02613355016462182
1745.0,0.0307239045110681
1744.0,0.036117771071222604
1743.0,0.04210551278710151
1742.0,0.04841965509660828
1741.0,0.05541863577307371
1740.0,0.06373765809652254
1739.0,0.07232173586200852
1738.0,0.07914650387874067
1737.0,0.08438913733853282
1736.0,0.09012318200960712
1735.0,0.09990609845660159
1734.0,0.11350927482751816
1733.0,0.12482294018529605
1732.0,0.13288622016802298
1731.0,0.14110204276799654
1730.0,0.15051916275601385
1729.0,0.1603334431175667
1728.0,0.16960382351653092
1727.0,0.17861750025270084
1726.0,0.1879561020697733
1725.0,0.19797924822802404
1724.0,0.2088007535011247
1723.0,0.21961067152904712
1722.0,0.2290743853610009
1721.0,0.23657200643706267
1720.0,0.2430597639532759
1719.0,0.2512694439015055
1718.0,0.2622509261084429
1717.0,0.2714838952402334
1716.0,0.2754783728814374
1715.0,0.2759700270644023
1714.0,0.27384353382724513
1713.0,0.26841123481326123
1712.0,0.2596373105057561
1711.0,0.24848994972995864
1710.0,0.23597339230796277
1709.0,0.22279074185431513
1708.0,0.2092223986623063
1707.0,0.19429529556613567
1706.0,0.1784864715952268
1705.0,0.16475346000368907
1704.0,0.15515019919336104
1703.0,0.14800825203784274
1702.0,0.1404414273739465
1701.0,0.13041629228657614
1700.0,0.12027350336042275
1699.0,0.1136220932414278
1698.0,0.10935546370475246
1697.0,0.10501970907203151
1696.0,0.09996076451267522
1695.0,0.09550084460218011
1694.0,0.09253489323414388
1693.0,0.09049745859458458
1692.0,0.08857603462370545
1691.0,0.0862920860195171
1690.0,0.0839147001562972
1689.0,0.08212704480115218
1688.0,0.08092190762392604
1687.0,0.07966792846041071
1686.0,0.07805354577058976
1685.0,0.07628980560343712
1684.0,0.07479107858799638
1683.0,0.07355465218161061
1682.0,0.07237303755504598
1681.0,0.07129697256940304
1680.0,0.07012147634321675
1679.0,0.06884736147670667
1678.0,0.06767846801070698
1677.0,0.0665127121512945
1676.0,0.06524912533642091
1675.0,0.06388856832514578
1674.0,0.0627329277885873
1673.0,0.061830653609679764
1672.0,0.06098022355133348
1671.0,0.05993198626064755
1670.0,0.058786812414678646
1669.0,0.05784307153250956
1668.0,0.057049929922901255
1667.0,0.056159373598738904
1666.0,0.05531996611868961
1665.0,0.05443294655761144
1664.0,0.0534986094304124
1663.0,0.0525172634430815
1662.0,0.0515870342213991
1661.0,0.050902874887084115
1660.0,0.050171041064686284
1659.0,0.04944043838819989
1658.0,0.04871106272232795
1657.0,0.04817696468408794
1656.0,0.04774046340917959
1655.0,0.047062332249019345
1654.0,0.04624030826677128
1653.0,0.04580574818413763
1652.0,0.045323413081356456
1651.0,0.044793462458058375
1650.0,0.044456557540257124
1649.0,0.044167989767578186
1648.0,0.043735497301724546
1647.0,0.043303435105349175
1646.0,0.04301563225723992
1645.0,0.04268010314465909
1644.0,0.04229695845116854
1643.0,0.04186632432376469
1642.0,0.041436116778032606
1641.0,0.04105406750606355
1640.0,0.04072004986906119
1639.0,0.040338629726504704
1638.0,0.03986232513620536
1637.0,0.03948165721929198
1636.0,0.03929144831144349
1635.0,0.03914884628031379
1634.0,0.038816290187564384
1633.0,0.03848398855105106
1632.0,0.038151940981675736
1631.0,0.03777276864991497
1630.0,0.03739392707587297
1629.0,0.0371100126082089
1628.0,0.03682628362474838
1627.0,0.036542739883292485
1626.0,0.03621217265444465
1625.0,0.03597620715996652
1624.0,0.03578752703018084
1623.0,0.03555179208333925
1622.0,0.035363296211498474
1621.0,0.03526907894637077
1620.0,0.03522197797762394
1619.0,0.03512779136222477
1618.0,0.03522197797762394
1617.0,0.035646070707806565
1616.0,0.03630659476198117
1615.0,0.03658998431977123
1614.0,0.03668448861388862
1613.0,0.03663723389626394
1612.0,0.03649550058570927
1611.0,0.036117771071222604
1610.0,0.035646070707806565
1609.0,0.03517488211661135
1608.0,0.03475124903287918
1607.0,0.03423403581731388
1606.0,0.03371743783253667
1605.0,0.033154576345083564
1604.0,0.032592443402527316
1603.0,0.032031037121307726
1602.0,0.031563752288295444
1601.0,0.031143625385307683
1600.0,0.03081714076773867
1599.0,0.030444315779156517
1598.0,0.030071810571884017
1597.0,0.029746130405213123
1596.0,0.029513651152349718
1595.0,0.029281296279810798
1594.0,0.029141943003497595
1593.0,0.029095501846216454
1592.0,0.02904906565457588
1591.0,0.029002634427514717
1590.0,0.029002634427514717
1589.0,0.02904906565457588
1588.0,0.029141943003497595
1587.0,0.029281296279810798
1586.0,0.02960662792039992
1585.0,0.030164906924202484
1584.0,0.031003673351687855
1583.0,0.032031037121307726
1582.0,0.0332483359486222
1581.0,0.034516075754861264
1580.0,0.03559892883726867
1579.0,0.03630659476198117
1578.0,0.03649550058570927
1577.0,0.03621217265444465
1576.0,0.03545753392086315
1575.0,0.034516075754861264
1574.0,0.03367050483612166
1573.0,0.032920265855503006
1572.0,0.032218091924200776
1571.0,0.03128362253321426
1570.0,0.03030458888152676
1569.0,0.029560137048236124
1568.0,0.029002634427514717
1567.0,0.028538594975413334
1566.0,0.028075050815808744
1565.0,0.0277045713888604
1564.0,0.02738066094037661
1563.0,0.027195677663422346
1562.0,0.027010773144651168
1561.0,0.02682594731702781
1560.0,0.02654885597506529
1559.0,0.026410376572743033
1558.0,0.026271941311972746
1557.0,0.025995203102585407
1556.0,0.025718641122169483
1555.0,0.025488307262671706
1554.0,0.025304128090317013
1553.0,0.02512002699306959
1552.0,0.024936003904763915
1551.0,0.02475205875931885
1550.0,0.024568191490736968
1549.0,0.024430342106337877
1548.0,0.024292536462819925
1547.0,0.024108863598207186
1546.0,0.023879381700184332
1545.0,0.02365002099672653
1544.0,0.02351246269481
1543.0,0.023283295636617574
1542.0,0.02296266477531872
1541.0,0.02277955336461468
1540.0,0.022733787572707387
1539.0,0.02255077261765881
1538.0,0.02227639471115217
1537.0,0.0221849739168134
1536.0,0.0221849739168134
1535.0,0.0221849739168134
1534.0,0.022230681908425698
1533.0,0.022367834754000393
1532.0,0.022413561996148967
1531.0,0.02227639471115217
1530.0,0.0221849739168134
1529.0,0.022139270735302752
1528.0,0.022139270735302752
1527.0,0.022093572362881675
1526.0,0.021956506090037076
1525.0,0.021819483062586187
1524.0,0.02168250325324883
1523.0,0.0214542995372613
1522.0,0.02122621566987748
1521.0,0.021089422824428272
1520.0,0.0209982515252789
1519.0,0.02081596632558158
1518.0,0.020633757603838898
1517.0,0.020542681902151694
1516.0,0.02045162529590483
1515.0,0.02036058777709271
1514.0,0.020406104151069693
1513.0,0.02067930261797568
1512.0,0.021317434843055594
1511.0,0.0221849739168134
1510.0,0.02342078135989012
1509.0,0.02521206778644225
1508.0,0.029141943003497595
1507.0,0.03559892883726867
1506.0,0.03981472339538916
1505.0,0.0400527842915015
1504.0,0.03857890593355173
1503.0,0.03625938114211591
1502.0,0.03352973627071565
1501.0,0.03063068826647264
1500.0,0.02798240132598462
1499.0,0.02562649291857677
1498.0,0.023604163388120325
1497.0,0.02200219004126036
1496.0,0.020907099361673565
1495.0,0.02013307743509718
1494.0,0.019678413991243593
1493.0,0.019451260640229506
1492.0,0.01940584422377989
1491.0,0.019360432556262852
1490.0,0.01940584422377989
1489.0,0.019769308608968306
1488.0,0.02026956933771462
1487.0,0.020724852408976924
1486.0,0.02122621566987748
1485.0,0.021819483062586187
1484.0,0.022505030926963654
1483.0,0.023283295636617574
1482.0,0.024200690320592466
1481.0,0.025258095499050004
1480.0,0.026271941311972746
1479.0,0.027056991894431892
1478.0,0.027843464140506313
1477.0,0.02863136320857662
1476.0,0.02942069428514915
1475.0,0.03002526987828502
1474.0,0.030397735151460825
1473.0,0.03081714076773867
1472.0,0.031190286087141805
1471.0,0.03128362253321426
1470.0,0.031190286087141805
1469.0,0.031190286087141805
1468.0,0.03133029827960798
1467.0,0.03147035562516054
1466.0,0.03189079887180224
1465.0,0.032545631817259224
1464.0,0.03338901331806565
1463.0,0.034046110897937076
1462.0,0.03461012978487776
1461.0,0.03522197797762394
1460.0,0.03588185684851508
1459.0,0.036542739883292485
1458.0,0.037488606492403154
1457.0,0.03862637240519895
1456.0,0.03924390909822728
1455.0,0.03924390909822728
1454.0,0.03910132267333921
1453.0,0.038958783046687984
1452.0,0.03862637240519895
1451.0,0.038151940981675736
1450.0,0.03763066432997886
1449.0,0.0371100126082089
1448.0,0.036542739883292485
1447.0,0.03602339000339416
1446.0,0.03555179208333925
1445.0,0.03512779136222477
1444.0,0.03479829897408804
1443.0,0.034469056377139484
1442.0,0.034187046963396917
1441.0,0.033952178923546183
1440.0,0.03371743783253667
1439.0,0.03334211579824231
1438.0,0.032686081712916426
1437.0,0.03170388495374454
1436.0,0.030537492025363155
1435.0,0.02942069428514915
1434.0,0.02839947976994095
1433.0,0.027334407733889066
1432.0,0.02617967564731627
1431.0,0.024936003904763915
1430.0,0.023695883447997224
1429.0,0.02259651912656535
1428.0,0.021728158389364705
1427.0,0.021043834782408455
1426.0,0.020497151212598652
1425.0,0.02004210665933459
1424.0,0.019860222254245663
1423.0,0.01995115493504329
1422.0,0.02026956933771462
1421.0,0.020952673052035298
1420.0,0.022413561996148967
1419.0,0.02498200236711723
1418.0,0.028353117935693284
1417.0,0.03217132066984485
1416.0,0.036873558918095295
1415.0,0.04263219156847242
1414.0,0.04963514562387683
1413.0,0.05794231615860479
1412.0,0.06696850489759454
1411.0,0.07525564752005143
1410.0,0.08160266115629988
1409.0,0.08539243222891946
1408.0,0.08634506491338012
1407.0,0.08428366205400617
1406.0,0.07961575782164254
1405.0,0.07334892291111106
1404.0,0.06701917807680191
1403.0,0.06153031163235467
1402.0,0.056950888991593285
1401.0,0.05290953578037816
1400.0,0.048905443158337114
1399.0,0.0451788169482068
1398.0,0.04215336629184985
1397.0,0.03981472339538916
1396.0,0.03777276864991497
1395.0,0.03583468937826462
1394.0,0.03409308450480819
1393.0,0.03277974021703267
1392.0,0.03179733185715028
1391.0,0.030957032694186815
1390.0,0.03030458888152676
1389.0,0.029746130405213123
1388.0,0.02932775731028059
1387.0,0.02904906565457588
1386.0,0.02890978686288448
1385.0,0.028816959143838528
1384.0,0.02890978686288448
1383.0,0.02904906565457588
1382.0,0.029281296279810798
1381.0,0.029653123769906697
1380.0,0.030071810571884017
1379.0,0.03058408764601861
1378.0,0.031003673351687855
1377.0,0.03151705144606498
1376.0,0.032031037121307726
1375.0,0.03273290844021437
1374.0,0.03338901331806565
1373.0,0.03385826726096752
1372.0,0.03409308450480819
1371.0,0.03399914237121604
1370.0,0.03362357691107709
1369.0,0.032920265855503006
1368.0,0.03189079887180224
1367.0,0.03067729388779794
1366.0,0.029281296279810798
1365.0,0.027843464140506313
1364.0,0.026318081496016443
1363.0,0.02475205875931885
1362.0,0.023374947949272418
1361.0,0.022413561996148967
1360.0,0.021819483062586187
1359.0,0.021363051615525652
1358.0,0.021135015652343103
1357.0,0.021135015652343103
1356.0,0.02140867317992523
1355.0,0.021910826943857264
1354.0,0.022642270454698687
1353.0,0.023741750742954926
1352.0,0.02516604495145991
1351.0,0.027056991894431892
1350.0,0.029467170231675777
1349.0,0.03245202378113787
1348.0,0.0360705779734416
1347.0,0.04038628892895613
1346.0,0.0454680573730859
1345.0,0.05134256785867963
1344.0,0.057743849580535134
1343.0,0.06424089625468832
1342.0,0.07068327324650436
1341.0,0.07691148455760066
1340.0,0.08223199755224364
1339.0,0.08539243222891946
1338.0,0.0854453014823664
1337.0,0.08254700807033655
1336.0,0.0772226580712021
1335.0,0.07012147634321675
1334.0,0.06203099704854709
1333.0,0.05379344615721715
1332.0,0.04609540658654021
1331.0,0.03948165721929198
1330.0,0.034187046963396917
1329.0,0.030211462585061133
1328.0,0.027334407733889066
1327.0,0.02544225514642018
1326.0,0.024246610963712723
1325.0,0.02365002099672653
1324.0,0.02351246269481
1323.0,0.02365002099672653
1322.0,0.023971159908874107
1321.0,0.024476287039668643
1320.0,0.02512002699306959
1319.0,0.025856900097785074
1318.0,0.026687379547098322
1317.0,0.027612000892527133
1316.0,0.02858497661500481
1315.0,0.02960662792039992
1314.0,0.03081714076773867
1313.0,0.032124554451966825
1312.0,0.03362357691107709
1311.0,0.03522197797762394
1310.0,0.03692083935817303
1309.0,0.038673844065289176
1308.0,0.04043395336207234
1307.0,0.04215336629184985
1306.0,0.0437835307566099
1305.0,0.04537162249272897
1304.0,0.04711073508906982
1303.0,0.04900266601119507
1302.0,0.05119595406718891
1301.0,0.053842605077627725
1300.0,0.05685187064143715
1299.0,0.06028111764589528
1298.0,0.06398920428479049
1297.0,0.06793230779927839
1296.0,0.07206531825882068
1295.0,0.07623803917129979
1294.0,0.08034671768963575
1293.0,0.08438913733853282
1292.0,0.08841629901892434
1291.0,0.09231997575758011
1290.0,0.0960964733098364
1289.0,0.09985143928065598
1288.0,0.10347378251044459
1287.0,0.10695988804288215
1286.0,0.11019424813191447
1285.0,0.1133401021387972
1284.0,0.1163953390777075
1283.0,0.11924355548978971
1282.0,0.1219955297319748
1281.0,0.12470717462899183
1280.0,0.12749410065407507
1279.0,0.13035765534840538
1278.0,0.13329924395750092
1277.0,0.13661765155921235
1276.0,0.14038142122781938
1275.0,0.14466259553045968
1274.0,0.1494762911210057
1273.0,0.15508812608785938
1272.0,0.16178077809237412
1271.0,0.16915480769138846
1270.0,0.17711305216584927
1269.0,0.18555262147751228
1268.0,0.19449914184159978
1267.0,0.20342566678957041
1266.0,0.21232703531250707
1265.0,0.22090879615450087
1264.0,0.22914798835785577
1263.0,0.2364222755333547
1262.0,0.24275584897802993
1261.0,0.24810531195625263
1260.0,0.25266589038409504
1259.0,0.2562551214075388
1258.0,0.2589272276266785
1257.0,0.26145725907121475
1256.0,0.264241462556261
1255.0,0.26728465965000714
1254.0,0.27091624295638805
1253.0,0.27539648460328325
1252.0,0.2809174260985141
1251.0,0.28718199979214987
1250.0,0.29387989029729633
1249.0,0.30120374820956886
1248.0,0.30883006586839623
1247.0,0.3163227011813081
1246.0,0.3233063903751334
1245.0,0.32956859063939437
1244.0,0.33507610656191833
1243.0,0.3389449151466213
1242.0,0.3407495312273392
1241.0,0.3407495312273392
1240.0,0.3388501427552135
1239.0,0.3347005005001029
1238.0,0.32845691473742633
1237.0,0.32075385458614103
1236.0,0.3118472444084337
1235.0,0.302073555193495
1234.0,0.2915790998652872
1233.0,0.28108331398513897
1232.0,0.27075419277469326
1231.0,0.26066503980392075
1230.0,0.2506502394025234
1229.0,0.24116377525304178
1228.0,0.2321023839819094
1227.0,0.22322619758789308
1226.0,0.2145989750076125
1225.0,0.20627944318647673
1224.0,0.1983905119726812
1223.0,0.19070969882368427
1222.0,0.1832285876666535
1221.0,0.17606954487443605
1220.0,0.16928305056310244
1219.0,0.16266413198498508
1218.0,0.1562068016740874
1217.0,0.1500894416985039
1216.0,0.14435971910985468
1215.0,0.13894375542312654
1214.0,0.13383085236622927
1213.0,0.1290696416513042
1212.0,0.12476505354983503
1211.0,0.1207320431753871
1210.0,0.11690664142431006
1209.0,0.11328372588352176
1208.0,0.1098585399354226
1207.0,0.10662666975397506
1206.0,0.10341867249426717
1205.0,0.10045306890913297
1204.0,0.0975619438013351
1203.0,0.09485199814398393
1202.0,0.09215885741705532
1201.0,0.08958906008531176
1200.0,0.08708744882390307
1199.0,0.08470571697731355
1198.0,0.08238947425013277
1197.0,0.08013774644446192
1196.0,0.07794959783282618
1195.0,0.07587584681417514
1194.0,0.07381195089279391
1193.0,0.07191154033502922
1192.0,0.07012147634321675
1191.0,0.06844043290919477
1190.0,0.06691783763020887
1189.0,0.0655520510510299
1188.0,0.06434161389936577
1187.0,0.06328524178879635
1186.0,0.06248210798265341
1185.0,0.06198090252378963
1184.0,0.06173051653708872
1183.0,0.06173051653708872
1182.0,0.06203099704854709
1181.0,0.06258241852286206
1180.0,0.06338573802478864
1179.0,0.06424089625468832
1178.0,0.06509774167768612
1177.0,0.06580465065211571
1176.0,0.0663102910421054
1175.0,0.06656333217371957
1174.0,0.06636088747507496
1173.0,0.06575411897692884
1172.0,0.06459351024765114
1171.0,0.06303410289212974
1170.0,0.0611301784870133
1169.0,0.05908526241971446
1168.0,0.05709945885970602
1167.0,0.05531996611868961
1166.0,0.053842605077627725
1165.0,0.05271335532220167
1164.0,0.05197846685889629
1163.0,0.05148923116234294
1162.0,0.051098239029786274
1161.0,0.05085404758005607
1160.0,0.050707598587974356
1159.0,0.0506099933550872
1158.0,0.0506099933550872
1157.0,0.050805225762017736
1156.0,0.05119595406718891
1155.0,0.05173378011970464
1154.0,0.052468254304406825
1153.0,0.053449489430144714
1152.0,0.05462990550969615
1151.0,0.055912320584565744
1150.0,0.057396751157843484
1149.0,0.059035506507200575
1148.0,0.06083032037482261
1147.0,0.06283329628496737
1146.0,0.06499684854634524
1145.0,0.06732334137759932
1144.0,0.0699173666076287
1143.0,0.07262963696097646
1142.0,0.07556563645676939
1141.0,0.07867775641617802
1140.0,0.08202211740709164
1139.0,0.08549817717268593
1138.0,0.0892155652071629
1137.0,0.09323411045927221
1136.0,0.09761631556752848
1135.0,0.10226297465457268
1134.0,0.10723776538418317
1133.0,0.11266406960083297
1132.0,0.11855827805860697
1131.0,0.12482294018529605
1130.0,0.13141433344123432
1129.0,0.1384058553561347
1128.0,0.14575470293388149
1127.0,0.1532918545439932
1126.0,0.16096212661169407
1125.0,0.16877030613293664
1124.0,0.17665620917935154
1123.0,0.18435585086803474
1122.0,0.19158644859963192
1121.0,0.19832194096410682
1120.0,0.2043980201058202
1119.0,0.2093630380682967
1118.0,0.2130357405642671
1117.0,0.21516882187553077
1116.0,0.2158107946190393
1115.0,0.2148838049780799
1114.0,0.21296481797377664
1113.0,0.21105427297625234
1112.0,0.2101373699536182
1111.0,0.21091308491197136
1110.0,0.21388771628017356
1109.0,0.2194666746835956
1108.0,0.22731164531785852
1107.0,0.23687162320086297
1106.0,0.24726030606467186
1105.0,0.2582970160422602
1104.0,0.26937920211271726
1103.0,0.2798406965940432
1102.0,0.2893749849392031
1101.0,0.29800052511036323
1100.0,0.30557030904291693
1099.0,0.31175820402228815
1098.0,0.31623273857468837
1097.0,0.31948319061874497
1096.0,0.3212995650016959
1095.0,0.32157267756613295
1094.0,0.32011805788713765
1093.0,0.31767438133219295
1092.0,0.3144373888417702
1091.0,0.3101585908624953
1090.0,0.3051316720175439
1089.0,0.29990229538694635
1088.0,0.2946495371142881
1087.0,0.2891213823148271
1086.0,0.28341242232430774
1085.0,0.27753061411596924
1084.0,0.27164621797877153
1083.0,0.26512019720737245
1082.0,0.25798225285986165
1081.0,0.25041826513444065
1080.0,0.24245214653075609
1079.0,0.23388471677858602
1078.0,0.22489950112097512
1077.0,0.21573941743391623
1076.0,0.20683847075444928
1075.0,0.1981162928747604
1074.0,0.18970025895983111
1073.0,0.18197215814074386
1072.0,0.1748985884019969
1071.0,0.16838614469090118
1070.0,0.16228533171508874
1069.0,0.15676722190199066
1068.0,0.1517492853229574
1067.0,0.14709324120304634
1066.0,0.14260718907909875
1065.0,0.13858508136400327
1064.0,0.1349552783069008
1063.0,0.13153190097901324
1062.0,0.12836869546244634
1061.0,0.12557616941349803
1060.0,0.12308968865537295
1059.0,0.12090412049992727
1058.0,0.11890078161098283
1057.0,0.11730473761840288
1056.0,0.11605480496572018
1055.0,0.11509140583739286
1054.0,0.11429961987167014
1053.0,0.11379137583250243
1052.0,0.11356568037106163
1051.0,0.11350927482751816
1050.0,0.11350927482751816
1049.0,0.1136220932414278
1048.0,0.11379137583250243
1047.0,0.11396072443355765
1046.0,0.11401718864502697
1045.0,0.11396072443355765
1044.0,0.11367851344052027
1043.0,0.11311464101399138
1042.0,0.11221396516162851
1041.0,0.11114683301706374
1040.0,0.10997041383658313
1039.0,0.10862982530385179
1038.0,0.10707101764479421
1037.0,0.10546241500425357
1036.0,0.1038045895457893
1035.0,0.10204318999304807
1034.0,0.10028890542885538
1033.0,0.09854167860388774
1032.0,0.09696430321150284
1031.0,0.0955549589230904
1030.0,0.09447395156495153
1029.0,0.09404230090757282
1028.0,0.09458193129745807
1027.0,0.09663866374468144
1026.0,0.10089114180660053
1025.0,0.10790539730951965
1024.0,0.11787408022996826
1023.0,0.13076828026902376
1022.0,0.14630178822382556
1021.0,0.16386585053462532
1020.0,0.18210424283820448
1019.0,0.19866490432545336
1018.0,0.21056031543282083
1017.0,0.21538270736712462
1016.0,0.212185432936977
1015.0,0.20190206793751408
1014.0,0.18742084459095332
1013.0,0.1718558926962137
1012.0,0.15757799664235028
1011.0,0.14539036190420496
1010.0,0.1354889189416082
1009.0,0.1275523522109867
1008.0,0.12119106764079435
1007.0,0.11594135290606156
1006.0,0.11159583226295333
1005.0,0.10801676914803293
1004.0,0.10501970907203151
1003.0,0.10253786198693682
1002.0,0.10034361969436434
1001.0,0.09848719087006019
1000.0,0.09685572959046151
999.0,0.09533854208447545
998.0,0.09388054245443844
997.0,0.09248115389337075
996.0,0.09124698081546634
995.0,0.09012318200960712
994.0,0.08916223500731646
993.0,0.08836306687055773
992.0,0.08767164203958999
991.0,0.08708744882390307
990.0,0.08655704514060414
989.0,0.0861331881037608
988.0,0.08586848736910624
987.0,0.08570974433405087
986.0,0.08570974433405087
985.0,0.08586848736910624
984.0,0.0862920860195171
983.0,0.08687520961044104
982.0,0.08767164203958999
981.0,0.08873582900163002
980.0,0.0900163050601559
979.0,0.09140776115243066
978.0,0.09280368972839836
977.0,0.09420411963213149
976.0,0.09560907998763835
975.0,0.09691001300805646
974.0,0.09799710864927058
973.0,0.09875969792669093
972.0,0.09925064193892053
971.0,0.09935981601739963
970.0,0.0990869322623309
969.0,0.09848719087006019
968.0,0.09761631556752848
967.0,0.09653017149282994
966.0,0.09523037409340485
965.0,0.0937727369476411
964.0,0.0922125568893839
963.0,0.0905509530187334
962.0,0.08889568219596411
961.0,0.0872997918091396
960.0,0.08576265223225898
959.0,0.08433639649422697
958.0,0.08286224724355584
957.0,0.08149786036382611
956.0,0.08018997982980403
955.0,0.07899019850296574
954.0,0.07779372256098371
953.0,0.07675598136972361
952.0,0.07577241873988227
951.0,0.07489427319033615
950.0,0.07406940213152868
949.0,0.07329750581735506
948.0,0.07262963696097646
947.0,0.07196279359311708
946.0,0.07129697256940304
945.0,0.07068327324650436
944.0,0.07012147634321675
943.0,0.06956040523329987
942.0,0.06905096883247697
941.0,0.0685421293109949
940.0,0.0680846829187538
939.0,0.06767846801070698
938.0,0.06722192993944942
937.0,0.06681652082538614
936.0,0.06646209802829528
935.0,0.06605739725873905
934.0,0.06560255921901192
933.0,0.06519865825346338
932.0,0.06479513257341862
931.0,0.06444235490698613
930.0,0.06403953101083348
929.0,0.06358680028852026
928.0,0.06318476880236723
927.0,0.0627329277885873
926.0,0.062281556382736136
925.0,0.061880730805688344
924.0,0.06163040254819374
923.0,0.061380218497318895
922.0,0.06118017497378969
921.0,0.06093025007657582
920.0,0.060730413661268745
919.0,0.060430831344098435
918.0,0.060131455540490375
917.0,0.05988213325228142
916.0,0.05973260855398799
915.0,0.05968277842578207
914.0,0.05973260855398799
913.0,0.05988213325228142
912.0,0.060231224546650086
911.0,0.06058059667068294
910.0,0.06103020277710969
909.0,0.061580354206806964
908.0,0.06223143295006417
907.0,0.06293368798257193
906.0,0.0636873663378068
905.0,0.06454311928839007
904.0,0.06545105233385295
903.0,0.0663102910421054
902.0,0.06701917807680191
901.0,0.0676277178520861
900.0,0.06813548650796819
899.0,0.0684912781333824
898.0,0.0685421293109949
897.0,0.06844043290919477
896.0,0.06823711151882228
895.0,0.06793230779927839
894.0,0.0675769736232612
893.0,0.0671712330991534
892.0,0.06681652082538614
891.0,0.06656333217371957
890.0,0.06641148980334699
889.0,0.06646209802829528
888.0,0.06686717627326577
887.0,0.06772922410050963
886.0,0.06905096883247697
885.0,0.0710411591191702
884.0,0.07370901311513656
883.0,0.07717078033335123
882.0,0.08139308485501817
881.0,0.08639805027084257
880.0,0.09210516458371698
879.0,0.09843270997155007
878.0,0.10518567091669917
877.0,0.11227020271196975
876.0,0.11952940719622163
875.0,0.12638880300353272
874.0,0.13182595914036166
873.0,0.13471831500438958
872.0,0.13418561983203192
871.0,0.13041629228657614
870.0,0.12441789567211425
869.0,0.11770319906234805
868.0,0.11142740314240007
867.0,0.10612732120491852
866.0,0.10187842445889239
865.0,0.09865067458435761
864.0,0.09631326826349751
863.0,0.09458193129745807
862.0,0.09328794305703592
861.0,0.09237369515673355
860.0,0.0917295005042762
859.0,0.09108625997902897
858.0,0.0905509530187334
857.0,0.09017663034908807
856.0,0.0900163050601559
855.0,0.0900697402471693
854.0,0.09023008526723086
853.0,0.09060445403289452
852.0,0.09119340059432579
851.0,0.09189045960744768
850.0,0.09264239186882706
849.0,0.09339562827501968
848.0,0.09409623378338305
847.0,0.09447395156495153
846.0,0.09441997176475758
845.0,0.09404230090757282
844.0,0.09344948089854999
843.0,0.09264239186882706
842.0,0.09167586072382083
841.0,0.09071147583774919
840.0,0.08974922769985194
839.0,0.08878910686244668
838.0,0.0877779434675845
837.0,0.08682216600953208
836.0,0.08586848736910624
835.0,0.08470571697731355
834.0,0.08349341288484435
833.0,0.08228448344050654
832.0,0.08118360963962057
831.0,0.08003329851661278
830.0,0.07893810920972144
829.0,0.07794959783282618
828.0,0.07717078033335123
827.0,0.0763933569825408
826.0,0.0756173227980268
825.0,0.07489427319033615
824.0,0.07432700607875953
823.0,0.07386342893255127
822.0,0.07350321072677968
821.0,0.07319468988839395
820.0,0.0729891310243489
819.0,0.07278366940873537
818.0,0.07262963696097646
817.0,0.07252697900472405
816.0,0.07242434530888953
815.0,0.07221915065262552
814.0,0.07196279359311708
813.0,0.0716553647351379
812.0,0.0713481533463054
811.0,0.0710411591191702
810.0,0.07073438174693436
809.0,0.07042782092345012
808.0,0.07012147634321675
807.0,0.06966236426227002
806.0,0.06915280831750303
805.0,0.06869471857832687
804.0,0.06833876031551878
803.0,0.06788152797087754
802.0,0.06732334137759932
801.0,0.06681652082538614
800.0,0.06671522765130522
799.0,0.0671712330991534
798.0,0.06859298644342648
797.0,0.0710411591191702
796.0,0.07417242537525759
795.0,0.07717078033335123
794.0,0.07930286553008004
793.0,0.08029446545087904
792.0,0.08003329851661278
791.0,0.07878187880504961
790.0,0.07691148455760066
789.0,0.07499749231902242
788.0,0.0732460948102629
787.0,0.07160414774328627
786.0,0.07001940948448526
785.0,0.0685421293109949
784.0,0.06727263269847072
783.0,0.06615853710127872
782.0,0.06514819703433927
781.0,0.06424089625468832
780.0,0.06348625752110681
779.0,0.06278310913729457
778.0,0.06203099704854709
777.0,0.06128018521761747
776.0,0.06058059667068294
775.0,0.05978244440026481
774.0,0.058836539841526925
773.0,0.05794231615860479
772.0,0.0571489934456626
771.0,0.056406567231630955
770.0,0.055566682299785564
769.0,0.05462990550969615
768.0,0.05354773498692689
767.0,0.05237025261564554
766.0,0.05119595406718891
765.0,0.050171041064686284
764.0,0.049294465226138895
763.0,0.04851676924770687
762.0,0.047643522676209304
761.0,0.04682039893436585
760.0,0.04609540658654021
759.0,0.04527520902093718
758.0,0.04440844959427559
757.0,0.0435434165901003
756.0,0.042775942156833
755.0,0.04200982159316968
754.0,0.04124505013091051
753.0,0.04038628892895613
752.0,0.03952922246570112
751.0,0.038721320914956836
750.0,0.038057116858612794
749.0,0.03763066432997886
748.0,0.037488606492403154
747.0,0.03744126420403626
746.0,0.03772539537668518
745.0,0.03857890593355173
744.0,0.04014804520039483
743.0,0.04272802000705722
742.0,0.04672366333269573
741.0,0.05281143447390635
740.0,0.06133019897732073
739.0,0.07227044022834539
738.0,0.08539243222891946
737.0,0.1005625457138224
736.0,0.1175323851046286
735.0,0.13560759484941132
734.0,0.15440590683997568
733.0,0.1742494186519723
732.0,0.19538358301274483
731.0,0.21802932608744796
730.0,0.242376254091611
729.0,0.2685724129490521
728.0,0.2960211749916142
727.0,0.3223930472795069
726.0,0.3441895055047477
725.0,0.35862505480787443
724.0,0.36391348489692743
723.0,0.3600157519584115
722.0,0.3492069603480692
721.0,0.3344190089820469
720.0,0.3178549236261683
719.0,0.3005959181846627
718.0,0.283495836226783
717.0,0.2676062401770314
716.0,0.25313237214957063
715.0,0.24003014244569276
714.0,0.22848601002033342
713.0,0.21881927906273835
712.0,0.21105427297625234
711.0,0.2046066650687106
710.0,0.19893947015214453
709.0,0.19388788983090888
708.0,0.18909571933129965
707.0,0.18442225167573278
706.0,0.17986424812957003
705.0,0.17574396237031764
704.0,0.17204947169736973
703.0,0.1683221508085333
702.0,0.16437283379010226
701.0,0.1603334431175667
700.0,0.15633127702085625
699.0,0.15218065270476067
698.0,0.14819148577176255
697.0,0.14472319616990825
696.0,0.14176366457048695
695.0,0.13900356324280416
694.0,0.13620146131949973
693.0,0.13371266091580503
692.0,0.13182595914036166
691.0,0.13024040521758962
690.0,0.1284854412916181
689.0,0.12656313677796316
688.0,0.12464930342071079
687.0,0.12297438413275108
686.0,0.12182301950849372
685.0,0.12153565465853111
684.0,0.12193801870998744
683.0,0.12239832027072817
682.0,0.12257105921178035
681.0,0.12257105921178035
680.0,0.12234075588839133
679.0,0.12153565465853111
678.0,0.1202162199095842
677.0,0.11895789180659433
676.0,0.11787408022996826
675.0,0.1165089098110701
674.0,0.114865033936566
673.0,0.11350927482751816
672.0,0.1128329791052256
671.0,0.1125514997500463
670.0,0.11227020271196975
669.0,0.11165198982195101
668.0,0.11109074073646874
667.0,0.11036219959333216
666.0,0.10851829616048003
665.0,0.10640466618011679
664.0,0.10518567091669917
663.0,0.10485381062400778
662.0,0.10501970907203151
661.0,0.10529634739076998
660.0,0.10551778498990938
659.0,0.10557316203581202
658.0,0.10535169620648288
657.0,0.10513034325474746
656.0,0.1047432468551055
655.0,0.10391491457671487
654.0,0.10264786565568684
653.0,0.10160395406999112
652.0,0.10138450258381404
651.0,0.10165883427249067
650.0,0.10171372141087698
649.0,0.10127481841050656
648.0,0.10089114180660053
647.0,0.10100072911021085
646.0,0.1017686154869033
645.0,0.10270287794050348
644.0,0.10292299679057959
643.0,0.10193333935836524
642.0,0.10039834085387778
641.0,0.09963287134352972
640.0,0.10001543745060903
639.0,0.10078158214862709
638.0,0.10100072911021085
637.0,0.10083635852278117
636.0,0.10116516193172598
635.0,0.10242788617426934
634.0,0.10430127304069425
633.0,0.10585015323207791
632.0,0.10579474085791629
631.0,0.1038045895457893
630.0,0.10111034407341357
629.0,0.09941441335003853
628.0,0.0990869322623309
627.0,0.09946901754724413
626.0,0.09963287134352972
625.0,0.09930522554760213
624.0,0.0989778267519208
623.0,0.09886874864462802
622.0,0.09914149529800831
621.0,0.09974214156222239
620.0,0.10007011727213588
619.0,0.09935981601739963
618.0,0.09799710864927058
617.0,0.09718153191774648
616.0,0.09745322068600859
615.0,0.09783387072894878
614.0,0.09745322068600859
613.0,0.09680145295702158
612.0,0.09674718310604158
611.0,0.09739886933346864
610.0,0.09821485469640057
609.0,0.09886874864462802
608.0,0.09935981601739963
607.0,0.09957824654226233
606.0,0.09957824654226233
605.0,0.09990609845660159
604.0,0.10078158214862709
603.0,0.10171372141087698
602.0,0.10231793820358015
601.0,0.10319830233507843
600.0,0.10463271122663809
599.0,0.10579474085791629
598.0,0.10573933555301185
597.0,0.10479852522110678
596.0,0.10363915453068362
595.0,0.10215306842042837
594.0,0.10023419805561384
593.0,0.09865067458435761
592.0,0.09805153492691598
591.0,0.09794268919153337
590.0,0.0972358560759139
589.0,0.09593394808549704
588.0,0.09468993788391455
587.0,0.09371884422784693
586.0,0.09318028453345462
585.0,0.09339562827501968
584.0,0.09371884422784693
583.0,0.09248115389337075
582.0,0.08862929288386212
581.0,0.08328292240118751
580.0,0.0781575185941421
579.0,0.07355465218161061
578.0,0.068389593637038
577.0,0.061380218497318895
576.0,0.05261529831525902
575.0,0.04469717723830824
574.0,0.04043395336207234
573.0,0.039338992729018196
572.0,0.03962436858984186
571.0,0.04010041213405646
570.0,0.03919637508823026
569.0,0.03470420418834386
568.0,0.026318081496016443
567.0,0.017774008325325275
566.0,0.013452186585275916
565.0,0.013317820220494436
564.0,0.015202742910707112
563.0,0.01759307113620534
562.0,0.018770512579999288
561.0,0.01759307113620534
560.0,0.015157768594724175
559.0,0.01381070026317599
558.0,0.014214382227394795
557.0,0.014888020460646079
556.0,0.01547268665620738
555.0,0.017186237868137555
554.0,0.019814763052665052
553.0,0.02122621566987748
552.0,0.020952673052035298
551.0,0.02036058777709271
550.0,0.02004210665933459
549.0,0.019269623464054586
548.0,0.018725167293411005
547.0,0.02081596632558158
546.0,0.025949097207122573
545.0,0.03142366482450232
544.0,0.03550466044490741
543.0,0.03810452633214956
542.0,0.03829421599749461
541.0,0.033905220553829274
540.0,0.025258095499050004
539.0,0.016599261819461697
538.0,0.011619434777991433
537.0,0.009838807101520963
536.0,0.00939478857608056
535.0,0.01046119667949763
534.0,0.012914970375878188
533.0,0.014214382227394795
532.0,0.012065734767841452
531.0,0.008021209005416363
530.0,0.005726851026829571
529.0,0.007225635744644521
528.0,0.012378417874516323
527.0,0.01954210772389997
526.0,0.02553436426275746
525.0,0.02691835039863255
524.0,0.02342078135989012
523.0,0.018226681372252695
522.0,0.014349026309051105
521.0,0.0119764380713403
520.0,0.010505687227290839
519.0,0.010817248744452446
518.0,0.013541787262693505
517.0,0.016824927962187042
516.0,0.01831727262871463
515.0,0.017367005605150476
514.0,0.014753209197138295
513.0,0.012021084124518078
512.0,0.011619434777991433
511.0,0.015742798294583915
510.0,0.02314585342378117
509.0,0.029141943003497595
508.0,0.03030458888152676
507.0,0.027797161620935595
506.0,0.024798037742147727
505.0,0.022871099419317753
504.0,0.02204787879853809
503.0,0.022093572362881675
502.0,0.02227639471115217
501.0,0.021271822861508305
500.0,0.01949668180660491
499.0,0.019360432556262852
498.0,0.021317434843055594
497.0,0.022367834754000393
496.0,0.02022406727031445
495.0,0.01677978535189717
494.0,0.015292705517326866
493.0,0.015607721475734415
492.0,0.015697768020096703
491.0,0.015607721475734415
490.0,0.016870075265299933
489.0,0.018543833477873584
488.0,0.018045555530026514
487.0,0.015292705517326866
486.0,0.013631406429727155
485.0,0.015427684378367834
484.0,0.019178833355664393
483.0,0.02168250325324883
482.0,0.02140867317992523
481.0,0.018951941086827073
480.0,0.015562705203923999
479.0,0.012512493866907004
478.0,0.010683695010048622
477.0,0.009927665307847056
476.0,0.009616741093766423
475.0,0.009350411681145587
474.0,0.008995559669244813
473.0,0.008153946355103248
472.0,0.006475596832934416
471.0,0.004671990922590297
470.0,0.00458420145758498
469.0,0.0075790439479759275
468.0,0.013049212141483357
467.0,0.01858915983411169
466.0,0.021363051615525652
465.0,0.020315076172974234
464.0,0.016824927962187042
463.0,0.013362604389846044
462.0,0.011351874764248926
461.0,0.011307297450183107
460.0,0.01318349541446362
459.0,0.01646391839700767
458.0,0.01949668180660491
457.0,0.02081596632558158
456.0,0.02081596632558158
455.0,0.0209982515252789
454.0,0.02140867317992523
453.0,0.021089422824428272
452.0,0.020087589665283012
451.0,0.01958753839310856
450.0,0.019769308608968306
