cm-1,A
4000.0,0.011
3999.0,0.011
3998.0,0.0111
3997.0,0.0111
3996.0,0.011
3995.0,0.011
3994.0,0.011
3993.0,0.011
3992.0,0.011
3991.0,0.0111
3990.0,0.0111
3989.0,0.0111
3988.0,0.0111
3987.0,0.011
3986.0,0.011
3985.0,0.0111
3984.0,0.0111
3983.0,0.0111
3982.0,0.011
3981.0,0.0109
3980.0,0.0109
3979.0,0.0109
3978.0,0.0109
3977.0,0.011
3976.0,0.0111
3975.0,0.011
3974.0,0.011
3973.0,0.0108
3972.0,0.0108
3971.0,0.0108
3970.0,0.0108
3969.0,0.0109
3968.0,0.0109
3967.0,0.0109
3966.0,0.011
3965.0,0.011
3964.0,0.011
3963.0,0.011
3962.0,0.011
3961.0,0.011
3960.0,0.011
3959.0,0.011
3958.0,0.0111
3957.0,0.0111
3956.0,0.0111
3955.0,0.0111
3954.0,0.011
3953.0,0.011
3952.0,0.011
3951.0,0.0111
3950.0,0.0111
3949.0,0.0111
3948.0,0.0112
3947.0,0.0112
3946.0,0.0113
3945.0,0.0113
3944.0,0.0112
3943.0,0.0111
3942.0,0.0112
3941.0,0.0112
3940.0,0.0112
3939.0,0.0112
3938.0,0.0112
3937.0,0.0112
3936.0,0.0112
3935.0,0.0113
3934.0,0.0113
3933.0,0.0113
3932.0,0.0113
3931.0,0.0113
3930.0,0.0113
3929.0,0.0114
3928.0,0.0114
3927.0,0.0114
3926.0,0.0114
3925.0,0.0114
3924.0,0.0114
3923.0,0.0114
3922.0,0.0114
3921.0,0.0113
3920.0,0.0113
3919.0,0.0113
3918.0,0.0113
3917.0,0.0113
3916.0,0.0113
3915.0,0.0113
3914.0,0.0112
3913.0,0.0112
3912.0,0.0111
3911.0,0.0111
3910.0,0.0112
3909.0,0.0113
3908.0,0.0114
3907.0,0.0114
3906.0,0.0114
3905.0,0.0114
3904.0,0.0115
3903.0,0.0117
3902.0,0.0118
3901.0,0.0117
3900.0,0.0115
3899.0,0.0114
3898.0,0.0114
3897.0,0.0114
3896.0,0.0114
3895.0,0.0114
3894.0,0.0115
3893.0,0.0114
3892.0,0.0113
3891.0,0.0112
3890.0,0.0112
3889.0,0.0113
3888.0,0.0112
3887.0,0.011
3886.0,0.011
3885.0,0.0112
3884.0,0.0115
3883.0,0.0117
3882.0,0.0117
3881.0,0.0116
3880.0,0.0116
3879.0,0.0116
3878.0,0.0117
3877.0,0.0116
3876.0,0.0113
3875.0,0.0112
3874.0,0.0113
3873.0,0.0115
3872.0,0.0116
3871.0,0.0114
3870.0,0.0112
3869.0,0.0112
3868.0,0.0113
3867.0,0.0113
3866.0,0.0112
3865.0,0.0113
3864.0,0.0115
3863.0,0.0117
3862.0,0.0117
3861.0,0.0114
3860.0,0.0112
3859.0,0.0109
3858.0,0.0108
3857.0,0.0109
3856.0,0.0109
3855.0,0.0108
3854.0,0.0109
3853.0,0.0113
3852.0,0.0115
3851.0,0.0116
3850.0,0.0115
3849.0,0.0114
3848.0,0.0114
3847.0,0.0114
3846.0,0.0115
3845.0,0.0115
3844.0,0.0115
3843.0,0.0116
3842.0,0.0117
3841.0,0.0117
3840.0,0.0117
3839.0,0.0116
3838.0,0.0115
3837.0,0.0115
3836.0,0.0115
3835.0,0.0115
3834.0,0.0115
3833.0,0.0114
3832.0,0.0114
3831.0,0.0114
3830.0,0.0115
3829.0,0.0116
3828.0,0.0115
3827.0,0.0115
3826.0,0.0115
3825.0,0.0117
3824.0,0.0119
3823.0,0.0117
3822.0,0.0114
3821.0,0.0114
3820.0,0.0117
3819.0,0.0119
3818.0,0.0118
3817.0,0.0115
3816.0,0.0114
3815.0,0.0116
3814.0,0.0116
3813.0,0.0115
3812.0,0.0113
3811.0,0.0113
3810.0,0.0114
3809.0,0.0114
3808.0,0.0113
3807.0,0.0113
3806.0,0.0114
3805.0,0.0117
3804.0,0.0117
3803.0,0.0115
3802.0,0.0113
3801.0,0.0116
3800.0,0.0118
3799.0,0.0119
3798.0,0.0117
3797.0,0.0115
3796.0,0.0115
3795.0,0.0116
3794.0,0.0116
3793.0,0.0116
3792.0,0.0115
3791.0,0.0115
3790.0,0.0115
3789.0,0.0116
3788.0,0.0116
3787.0,0.0117
3786.0,0.0117
3785.0,0.0116
3784.0,0.0117
3783.0,0.0118
3782.0,0.0118
3781.0,0.0118
3780.0,0.0117
3779.0,0.0117
3778.0,0.0118
3777.0,0.0117
3776.0,0.0117
3775.0,0.0116
3774.0,0.0117
3773.0,0.0118
3772.0,0.0117
3771.0,0.0117
3770.0,0.0117
3769.0,0.0119
3768.0,0.012
3767.0,0.012
3766.0,0.0118
3765.0,0.0117
3764.0,0.0118
3763.0,0.0119
3762.0,0.012
3761.0,0.0119
3760.0,0.012
3759.0,0.012
3758.0,0.012
3757.0,0.0119
3756.0,0.0118
3755.0,0.0118
3754.0,0.0116
3753.0,0.0114
3752.0,0.0113
3751.0,0.0114
3750.0,0.0115
3749.0,0.0115
3748.0,0.0118
3747.0,0.012
3746.0,0.012
3745.0,0.0119
3744.0,0.012
3743.0,0.0121
3742.0,0.012
3741.0,0.0119
3740.0,0.0119
3739.0,0.012
3738.0,0.012
3737.0,0.0119
3736.0,0.0117
3735.0,0.0117
3734.0,0.0116
3733.0,0.0113
3732.0,0.011
3731.0,0.0108
3730.0,0.0109
3729.0,0.0109
3728.0,0.011
3727.0,0.011
3726.0,0.0112
3725.0,0.0114
3724.0,0.0115
3723.0,0.0114
3722.0,0.0114
3721.0,0.0114
3720.0,0.0114
3719.0,0.0114
3718.0,0.0114
3717.0,0.0116
3716.0,0.0118
3715.0,0.012
3714.0,0.012
3713.0,0.0119
3712.0,0.0118
3711.0,0.0118
3710.0,0.0117
3709.0,0.0115
3708.0,0.0112
3707.0,0.011
3706.0,0.0109
3705.0,0.0109
3704.0,0.0109
3703.0,0.0109
3702.0,0.0109
3701.0,0.0111
3700.0,0.0112
3699.0,0.0113
3698.0,0.0112
3697.0,0.0112
3696.0,0.0112
3695.0,0.0112
3694.0,0.0113
3693.0,0.0115
3692.0,0.0116
3691.0,0.0117
3690.0,0.0118
3689.0,0.0118
3688.0,0.0118
3687.0,0.0118
3686.0,0.0118
3685.0,0.0118
3684.0,0.0118
3683.0,0.0119
3682.0,0.0119
3681.0,0.0119
3680.0,0.0119
3679.0,0.0121
3678.0,0.0122
3677.0,0.0121
3676.0,0.012
3675.0,0.0121
3674.0,0.0122
3673.0,0.0124
3672.0,0.0122
3671.0,0.0119
3670.0,0.0119
3669.0,0.0121
3668.0,0.0123
3667.0,0.0123
3666.0,0.0123
3665.0,0.0123
3664.0,0.0122
3663.0,0.0122
3662.0,0.0121
3661.0,0.0121
3660.0,0.0121
3659.0,0.0122
3658.0,0.0122
3657.0,0.0121
3656.0,0.012
3655.0,0.0119
3654.0,0.012
3653.0,0.0121
3652.0,0.012
3651.0,0.0121
3650.0,0.0125
3649.0,0.0129
3648.0,0.013
3647.0,0.0129
3646.0,0.0128
3645.0,0.0127
3644.0,0.0126
3643.0,0.0124
3642.0,0.0124
3641.0,0.0124
3640.0,0.0124
3639.0,0.0123
3638.0,0.0123
3637.0,0.0122
3636.0,0.0121
3635.0,0.0119
3634.0,0.0118
3633.0,0.0118
3632.0,0.0118
3631.0,0.0116
3630.0,0.0113
3629.0,0.0113
3628.0,0.0116
3627.0,0.0119
3626.0,0.0119
3625.0,0.0119
3624.0,0.0119
3623.0,0.012
3622.0,0.0121
3621.0,0.0121
3620.0,0.0121
3619.0,0.0123
3618.0,0.0125
3617.0,0.0127
3616.0,0.0128
3615.0,0.0128
3614.0,0.0128
3613.0,0.0128
3612.0,0.0128
3611.0,0.0128
3610.0,0.0128
3609.0,0.0128
3608.0,0.0129
3607.0,0.0129
3606.0,0.0128
3605.0,0.0127
3604.0,0.0126
3603.0,0.0126
3602.0,0.0126
3601.0,0.0127
3600.0,0.0128
3599.0,0.0129
3598.0,0.0129
3597.0,0.0128
3596.0,0.0127
3595.0,0.0126
3594.0,0.0126
3593.0,0.0127
3592.0,0.0128
3591.0,0.013
3590.0,0.0131
3589.0,0.0131
3588.0,0.0131
3587.0,0.0132
3586.0,0.0132
3585.0,0.0132
3584.0,0.0132
3583.0,0.0132
3582.0,0.0132
3581.0,0.0131
3580.0,0.0131
3579.0,0.0131
3578.0,0.0131
3577.0,0.0131
3576.0,0.0132
3575.0,0.0132
3574.0,0.0132
3573.0,0.0132
3572.0,0.0133
3571.0,0.0134
3570.0,0.0136
3569.0,0.0137
3568.0,0.0138
3567.0,0.0139
3566.0,0.014
3565.0,0.0139
3564.0,0.0138
3563.0,0.0136
3562.0,0.0134
3561.0,0.0134
3560.0,0.0133
3559.0,0.0133
3558.0,0.0134
3557.0,0.0134
3556.0,0.0135
3555.0,0.0136
3554.0,0.0136
3553.0,0.0137
3552.0,0.0137
3551.0,0.0136
3550.0,0.0136
3549.0,0.0136
3548.0,0.0137
3547.0,0.0139
3546.0,0.014
3545.0,0.0141
3544.0,0.0141
3543.0,0.014
3542.0,0.0139
3541.0,0.0138
3540.0,0.0138
3539.0,0.0138
3538.0,0.0137
3537.0,0.0138
3536.0,0.0138
3535.0,0.0139
3534.0,0.014
3533.0,0.014
3532.0,0.014
3531.0,0.014
3530.0,0.0139
3529.0,0.0139
3528.0,0.0139
3527.0,0.0141
3526.0,0.0142
3525.0,0.0142
3524.0,0.0142
3523.0,0.0142
3522.0,0.0141
3521.0,0.014
3520.0,0.014
3519.0,0.014
3518.0,0.014
3517.0,0.014
3516.0,0.0141
3515.0,0.0141
3514.0,0.0142
3513.0,0.0142
3512.0,0.0142
3511.0,0.0143
3510.0,0.0143
3509.0,0.0142
3508.0,0.0142
3507.0,0.0142
3506.0,0.0141
3505.0,0.0142
3504.0,0.0142
3503.0,0.0143
3502.0,0.0143
3501.0,0.0142
3500.0,0.0142
3499.0,0.0141
3498.0,0.0142
3497.0,0.0143
3496.0,0.0143
3495.0,0.0143
3494.0,0.0143
3493.0,0.0142
3492.0,0.0142
3491.0,0.0143
3490.0,0.0143
3489.0,0.0143
3488.0,0.0143
3487.0,0.0143
3486.0,0.0143
3485.0,0.0145
3484.0,0.0146
3483.0,0.0147
3482.0,0.0148
3481.0,0.0147
3480.0,0.0146
3479.0,0.0146
3478.0,0.0145
3477.0,0.0145
3476.0,0.0146
3475.0,0.0146
3474.0,0.0145
3473.0,0.0145
3472.0,0.0145
3471.0,0.0145
3470.0,0.0145
3469.0,0.0145
3468.0,0.0144
3467.0,0.0143
3466.0,0.0143
3465.0,0.0144
3464.0,0.0144
3463.0,0.0144
3462.0,0.0145
3461.0,0.0146
3460.0,0.0147
3459.0,0.0147
3458.0,0.0147
3457.0,0.0146
3456.0,0.0145
3455.0,0.0145
3454.0,0.0145
3453.0,0.0145
3452.0,0.0145
3451.0,0.0145
3450.0,0.0145
3449.0,0.0145
3448.0,0.0145
3447.0,0.0145
3446.0,0.0146
3445.0,0.0147
3444.0,0.0147
3443.0,0.0147
3442.0,0.0147
3441.0,0.0148
3440.0,0.0148
3439.0,0.0148
3438.0,0.0148
3437.0,0.0147
3436.0,0.0146
3435.0,0.0146
3434.0,0.0146
3433.0,0.0146
3432.0,0.0147
3431.0,0.0147
3430.0,0.0147
3429.0,0.0147
3428.0,0.0148
3427.0,0.0148
3426.0,0.0149
3425.0,0.015
3424.0,0.015
3423.0,0.015
3422.0,0.015
3421.0,0.0149
3420.0,0.0148
3419.0,0.0148
3418.0,0.0148
3417.0,0.0148
3416.0,0.0148
3415.0,0.0148
3414.0,0.0149
3413.0,0.0149
3412.0,0.0148
3411.0,0.0148
3410.0,0.0147
3409.0,0.0147
3408.0,0.0147
3407.0,0.0148
3406.0,0.0149
3405.0,0.0149
3404.0,0.0149
3403.0,0.0149
3402.0,0.0148
3401.0,0.0148
3400.0,0.0148
3399.0,0.0147
3398.0,0.0146
3397.0,0.0146
3396.0,0.0146
3395.0,0.0147
3394.0,0.0148
3393.0,0.0148
3392.0,0.0148
3391.0,0.0148
3390.0,0.0148
3389.0,0.0147
3388.0,0.0148
3387.0,0.0148
3386.0,0.0149
3385.0,0.0149
3384.0,0.0149
3383.0,0.0149
3382.0,0.0149
3381.0,0.0148
3380.0,0.0148
3379.0,0.0148
3378.0,0.0147
3377.0,0.0147
3376.0,0.0147
3375.0,0.0146
3374.0,0.0146
3373.0,0.0146
3372.0,0.0146
3371.0,0.0146
3370.0,0.0147
3369.0,0.0147
3368.0,0.0148
3367.0,0.0149
3366.0,0.015
3365.0,0.015
3364.0,0.015
3363.0,0.0149
3362.0,0.0149
3361.0,0.0148
3360.0,0.0148
3359.0,0.0147
3358.0,0.0147
3357.0,0.0147
3356.0,0.0148
3355.0,0.0148
3354.0,0.0147
3353.0,0.0147
3352.0,0.0148
3351.0,0.0148
3350.0,0.0148
3349.0,0.0148
3348.0,0.0149
3347.0,0.0149
3346.0,0.0149
3345.0,0.0149
3344.0,0.0148
3343.0,0.0147
3342.0,0.0146
3341.0,0.0146
3340.0,0.0146
3339.0,0.0146
3338.0,0.0146
3337.0,0.0147
3336.0,0.0147
3335.0,0.0147
3334.0,0.0147
3333.0,0.0147
3332.0,0.0147
3331.0,0.0146
3330.0,0.0146
3329.0,0.0145
3328.0,0.0146
3327.0,0.0146
3326.0,0.0146
3325.0,0.0145
3324.0,0.0145
3323.0,0.0144
3322.0,0.0144
3321.0,0.0144
3320.0,0.0144
3319.0,0.0144
3318.0,0.0145
3317.0,0.0145
3316.0,0.0145
3315.0,0.0144
3314.0,0.0145
3313.0,0.0145
3312.0,0.0145
3311.0,0.0145
3310.0,0.0145
3309.0,0.0145
3308.0,0.0145
3307.0,0.0145
3306.0,0.0144
3305.0,0.0144
3304.0,0.0143
3303.0,0.0143
3302.0,0.0144
3301.0,0.0145
3300.0,0.0145
3299.0,0.0145
3298.0,0.0145
3297.0,0.0144
3296.0,0.0144
3295.0,0.0145
3294.0,0.0145
3293.0,0.0144
3292.0,0.0144
3291.0,0.0143
3290.0,0.0142
3289.0,0.0142
3288.0,0.0142
3287.0,0.0142
3286.0,0.0142
3285.0,0.0142
3284.0,0.0143
3283.0,0.0143
3282.0,0.0143
3281.0,0.0143
3280.0,0.0142
3279.0,0.0142
3278.0,0.0142
3277.0,0.0141
3276.0,0.014
3275.0,0.0139
3274.0,0.0139
3273.0,0.0139
3272.0,0.014
3271.0,0.014
3270.0,0.014
3269.0,0.014
3268.0,0.014
3267.0,0.014
3266.0,0.0139
3265.0,0.0139
3264.0,0.0138
3263.0,0.0137
3262.0,0.0136
3261.0,0.0137
3260.0,0.0138
3259.0,0.0139
3258.0,0.014
3257.0,0.0139
3256.0,0.0139
3255.0,0.0138
3254.0,0.0138
3253.0,0.0137
3252.0,0.0137
3251.0,0.0136
3250.0,0.0136
3249.0,0.0137
3248.0,0.0137
3247.0,0.0136
3246.0,0.0136
3245.0,0.0136
3244.0,0.0137
3243.0,0.0137
3242.0,0.0136
3241.0,0.0136
3240.0,0.0136
3239.0,0.0136
3238.0,0.0135
3237.0,0.0134
3236.0,0.0133
3235.0,0.0132
3234.0,0.0131
3233.0,0.0131
3232.0,0.0131
3231.0,0.0132
3230.0,0.0132
3229.0,0.0133
3228.0,0.0132
3227.0,0.0133
3226.0,0.0133
3225.0,0.0134
3224.0,0.0135
3223.0,0.0135
3222.0,0.0135
3221.0,0.0135
3220.0,0.0134
3219.0,0.0134
3218.0,0.0134
3217.0,0.0134
3216.0,0.0135
3215.0,0.0135
3214.0,0.0135
3213.0,0.0135
3212.0,0.0134
3211.0,0.0135
3210.0,0.0135
3209.0,0.0134
3208.0,0.0134
3207.0,0.0134
3206.0,0.0134
3205.0,0.0134
3204.0,0.0134
3203.0,0.0134
3202.0,0.0134
3201.0,0.0134
3200.0,0.0134
3199.0,0.0134
3198.0,0.0134
3197.0,0.0134
3196.0,0.0134
3195.0,0.0133
3194.0,0.0133
3193.0,0.0133
3192.0,0.0133
3191.0,0.0133
3190.0,0.0133
3189.0,0.0132
3188.0,0.0131
3187.0,0.0131
3186.0,0.0131
3185.0,0.0131
3184.0,0.0131
3183.0,0.0131
3182.0,0.013
3181.0,0.013
3180.0,0.013
3179.0,0.013
3178.0,0.0131
3177.0,0.0131
3176.0,0.013
3175.0,0.0129
3174.0,0.0127
3173.0,0.0126
3172.0,0.0125
3171.0,0.0124
3170.0,0.0124
3169.0,0.0124
3168.0,0.0124
3167.0,0.0125
3166.0,0.0125
3165.0,0.0125
3164.0,0.0125
3163.0,0.0125
3162.0,0.0125
3161.0,0.0126
3160.0,0.0126
3159.0,0.0126
3158.0,0.0126
3157.0,0.0125
3156.0,0.0124
3155.0,0.0123
3154.0,0.0122
3153.0,0.0121
3152.0,0.0121
3151.0,0.0122
3150.0,0.0123
3149.0,0.0123
3148.0,0.0123
3147.0,0.0122
3146.0,0.0122
3145.0,0.0122
3144.0,0.0122
3143.0,0.0123
3142.0,0.0123
3141.0,0.0123
3140.0,0.0123
3139.0,0.0122
3138.0,0.0121
3137.0,0.012
3136.0,0.0119
3135.0,0.0119
3134.0,0.0118
3133.0,0.0118
3132.0,0.0118
3131.0,0.0117
3130.0,0.0117
3129.0,0.0117
3128.0,0.0117
3127.0,0.0117
3126.0,0.0117
3125.0,0.0116
3124.0,0.0116
3123.0,0.0115
3122.0,0.0115
3121.0,0.0115
3120.0,0.0114
3119.0,0.0113
3118.0,0.0113
3117.0,0.0112
3116.0,0.0112
3115.0,0.0112
3114.0,0.0112
3113.0,0.0112
3112.0,0.0111
3111.0,0.0111
3110.0,0.011
3109.0,0.011
3108.0,0.011
3107.0,0.0109
3106.0,0.0109
3105.0,0.011
3104.0,0.011
3103.0,0.0109
3102.0,0.0108
3101.0,0.0107
3100.0,0.0107
3099.0,0.0108
3098.0,0.0109
3097.0,0.0109
3096.0,0.0108
3095.0,0.0106
3094.0,0.0105
3093.0,0.0104
3092.0,0.0104
3091.0,0.0104
3090.0,0.0104
3089.0,0.0105
3088.0,0.0105
3087.0,0.0105
3086.0,0.0104
3085.0,0.0103
3084.0,0.0102
3083.0,0.0102
3082.0,0.0101
3081.0,0.0101
3080.0,0.0101
3079.0,0.01
3078.0,0.01
3077.0,0.01
3076.0,0.01
3075.0,0.0099
3074.0,0.0099
3073.0,0.0098
3072.0,0.0098
3071.0,0.0098
3070.0,0.0098
3069.0,0.0098
3068.0,0.0097
3067.0,0.0097
3066.0,0.0097
3065.0,0.0097
3064.0,0.0097
3063.0,0.0096
3062.0,0.0095
3061.0,0.0095
3060.0,0.0094
3059.0,0.0094
3058.0,0.0094
3057.0,0.0094
3056.0,0.0094
3055.0,0.0093
3054.0,0.0093
3053.0,0.0092
3052.0,0.0092
3051.0,0.0091
3050.0,0.009
3049.0,0.0089
3048.0,0.0088
3047.0,0.0088
3046.0,0.0087
3045.0,0.0087
3044.0,0.0087
3043.0,0.0086
3042.0,0.0085
3041.0,0.0085
3040.0,0.0084
3039.0,0.0084
3038.0,0.0083
3037.0,0.0082
3036.0,0.0082
3035.0,0.0081
3034.0,0.008
3033.0,0.0081
3032.0,0.0081
3031.0,0.0081
3030.0,0.0081
3029.0,0.0081
3028.0,0.008
3027.0,0.008
3026.0,0.0079
3025.0,0.0079
3024.0,0.0079
3023.0,0.0078
3022.0,0.0077
3021.0,0.0076
3020.0,0.0075
3019.0,0.0075
3018.0,0.0075
3017.0,0.0074
3016.0,0.0073
3015.0,0.0072
3014.0,0.0071
3013.0,0.007
3012.0,0.0069
3011.0,0.0068
3010.0,0.0067
3009.0,0.0067
3008.0,0.0067
3007.0,0.0067
3006.0,0.0067
3005.0,0.0067
3004.0,0.0066
3003.0,0.0066
3002.0,0.0066
3001.0,0.0066
3000.0,0.0066
2999.0,0.0065
2998.0,0.0066
2997.0,0.0066
2996.0,0.0066
2995.0,0.0067
2994.0,0.0068
2993.0,0.007
2992.0,0.0072
2991.0,0.0075
2990.0,0.0078
2989.0,0.0081
2988.0,0.0084
2987.0,0.0088
2986.0,0.0092
2985.0,0.0098
2984.0,0.0105
2983.0,0.0114
2982.0,0.0124
2981.0,0.0135
2980.0,0.0148
2979.0,0.0162
2978.0,0.0179
2977.0,0.0199
2976.0,0.0222
2975.0,0.025
2974.0,0.0282
2973.0,0.0318
2972.0,0.0359
2971.0,0.0406
2970.0,0.0457
2969.0,0.0512
2968.0,0.0572
2967.0,0.0635
2966.0,0.0702
2965.0,0.0771
2964.0,0.0838
2963.0,0.0899
2962.0,0.095
2961.0,0.0987
2960.0,0.1012
2959.0,0.1027
2958.0,0.1038
2957.0,0.105
2956.0,0.1068
2955.0,0.1095
2954.0,0.1131
2953.0,0.1171
2952.0,0.1207
2951.0,0.1232
2950.0,0.1237
2949.0,0.122
2948.0,0.1179
2947.0,0.112
2946.0,0.1048
2945.0,0.0972
2944.0,0.0899
2943.0,0.0835
2942.0,0.0783
2941.0,0.0744
2940.0,0.0719
2939.0,0.0706
2938.0,0.0705
2937.0,0.0714
2936.0,0.0732
2935.0,0.076
2934.0,0.0797
2933.0,0.0843
2932.0,0.0895
2931.0,0.0954
2930.0,0.1016
2929.0,0.108
2928.0,0.1144
2927.0,0.1206
2926.0,0.1266
2925.0,0.1325
2924.0,0.1383
2923.0,0.1442
2922.0,0.1501
2921.0,0.1558
2920.0,0.1608
2919.0,0.1645
2918.0,0.1664
2917.0,0.1662
2916.0,0.1639
2915.0,0.1601
2914.0,0.1554
2913.0,0.1505
2912.0,0.1459
2911.0,0.1417
2910.0,0.1381
2909.0,0.135
2908.0,0.1321
2907.0,0.1292
2906.0,0.1263
2905.0,0.1232
2904.0,0.1199
2903.0,0.1164
2902.0,0.113
2901.0,0.1096
2900.0,0.1064
2899.0,0.1032
2898.0,0.1001
2897.0,0.0971
2896.0,0.0945
2895.0,0.0921
2894.0,0.09
2893.0,0.0883
2892.0,0.087
2891.0,0.0859
2890.0,0.0852
2889.0,0.0847
2888.0,0.0845
2887.0,0.0845
2886.0,0.0846
2885.0,0.085
2884.0,0.0855
2883.0,0.0863
2882.0,0.0872
2881.0,0.0881
2880.0,0.089
2879.0,0.0897
2878.0,0.09
2877.0,0.0898
2876.0,0.0893
2875.0,0.0887
2874.0,0.0883
2873.0,0.0883
2872.0,0.0888
2871.0,0.0898
2870.0,0.0912
2869.0,0.0925
2868.0,0.0934
2867.0,0.0934
2866.0,0.0922
2865.0,0.0896
2864.0,0.0859
2863.0,0.0815
2862.0,0.0771
2861.0,0.0731
2860.0,0.0699
2859.0,0.0676
2858.0,0.0662
2857.0,0.0657
2856.0,0.0659
2855.0,0.0669
2854.0,0.0684
2853.0,0.0703
2852.0,0.0722
2851.0,0.0739
2850.0,0.0751
2849.0,0.0757
2848.0,0.0761
2847.0,0.0767
2846.0,0.078
2845.0,0.0802
2844.0,0.0832
2843.0,0.0867
2842.0,0.0904
2841.0,0.0939
2840.0,0.0966
2839.0,0.0982
2838.0,0.0982
2837.0,0.0964
2836.0,0.093
2835.0,0.0883
2834.0,0.0828
2833.0,0.0771
2832.0,0.0718
2831.0,0.067
2830.0,0.0629
2829.0,0.0594
2828.0,0.0565
2827.0,0.054
2826.0,0.052
2825.0,0.0502
2824.0,0.0487
2823.0,0.0474
2822.0,0.0463
2821.0,0.0452
2820.0,0.0443
2819.0,0.0434
2818.0,0.0426
2817.0,0.0418
2816.0,0.0411
2815.0,0.0405
2814.0,0.0399
2813.0,0.0395
2812.0,0.039
2811.0,0.0386
2810.0,0.0382
2809.0,0.0377
2808.0,0.0373
2807.0,0.0369
2806.0,0.0364
2805.0,0.0359
2804.0,0.0353
2803.0,0.0347
2802.0,0.0342
2801.0,0.0338
2800.0,0.0335
2799.0,0.0332
2798.0,0.033
2797.0,0.0327
2796.0,0.0325
2795.0,0.0322
2794.0,0.0319
2793.0,0.0316
2792.0,0.0313
2791.0,0.031
2790.0,0.0307
2789.0,0.0304
2788.0,0.0301
2787.0,0.0298
2786.0,0.0294
2785.0,0.0291
2784.0,0.0289
2783.0,0.0287
2782.0,0.0285
2781.0,0.0283
2780.0,0.0281
2779.0,0.0279
2778.0,0.0277
2777.0,0.0276
2776.0,0.0275
2775.0,0.0273
2774.0,0.0272
2773.0,0.027
2772.0,0.0268
2771.0,0.0267
2770.0,0.0267
2769.0,0.0265
2768.0,0.0264
2767.0,0.0262
2766.0,0.0261
2765.0,0.026
2764.0,0.026
2763.0,0.0259
2762.0,0.0258
2761.0,0.0256
2760.0,0.0255
2759.0,0.0255
2758.0,0.0254
2757.0,0.0254
2756.0,0.0253
2755.0,0.0253
2754.0,0.0252
2753.0,0.0251
2752.0,0.025
2751.0,0.0249
2750.0,0.0248
2749.0,0.0248
2748.0,0.0248
2747.0,0.0249
2746.0,0.0249
2745.0,0.0249
2744.0,0.0249
2743.0,0.0248
2742.0,0.0248
2741.0,0.0248
2740.0,0.0248
2739.0,0.0248
2738.0,0.0248
2737.0,0.0249
2736.0,0.0249
2735.0,0.025
2734.0,0.0251
2733.0,0.0251
2732.0,0.0251
2731.0,0.0252
2730.0,0.0253
2729.0,0.0254
2728.0,0.0256
2727.0,0.0257
2726.0,0.0259
2725.0,0.0262
2724.0,0.0263
2723.0,0.0265
2722.0,0.0265
2721.0,0.0264
2720.0,0.0262
2719.0,0.0259
2718.0,0.0257
2717.0,0.0255
2716.0,0.0254
2715.0,0.0252
2714.0,0.025
2713.0,0.0247
2712.0,0.0245
2711.0,0.0243
2710.0,0.0242
2709.0,0.0241
2708.0,0.024
2707.0,0.0239
2706.0,0.0237
2705.0,0.0236
2704.0,0.0235
2703.0,0.0235
2702.0,0.0234
2701.0,0.0234
2700.0,0.0233
2699.0,0.0232
2698.0,0.0231
2697.0,0.023
2696.0,0.0229
2695.0,0.0229
2694.0,0.0229
2693.0,0.0229
2692.0,0.0228
2691.0,0.0228
2690.0,0.0228
2689.0,0.0228
2688.0,0.0227
2687.0,0.0227
2686.0,0.0226
2685.0,0.0226
2684.0,0.0226
2683.0,0.0225
2682.0,0.0225
2681.0,0.0225
2680.0,0.0226
2679.0,0.0226
2678.0,0.0226
2677.0,0.0226
2676.0,0.0226
2675.0,0.0226
2674.0,0.0226
2673.0,0.0226
2672.0,0.0226
2671.0,0.0225
2670.0,0.0225
2669.0,0.0224
2668.0,0.0223
2667.0,0.0223
2666.0,0.0223
2665.0,0.0223
2664.0,0.0223
2663.0,0.0223
2662.0,0.0222
2661.0,0.0222
2660.0,0.0221
2659.0,0.0221
2658.0,0.0221
2657.0,0.022
2656.0,0.022
2655.0,0.0219
2654.0,0.0218
2653.0,0.0218
2652.0,0.0217
2651.0,0.0217
2650.0,0.0216
2649.0,0.0216
2648.0,0.0215
2647.0,0.0215
2646.0,0.0215
2645.0,0.0214
2644.0,0.0214
2643.0,0.0214
2642.0,0.0213
2641.0,0.0213
2640.0,0.0213
2639.0,0.0212
2638.0,0.0212
2637.0,0.0211
2636.0,0.0211
2635.0,0.0211
2634.0,0.0211
2633.0,0.0211
2632.0,0.0211
2631.0,0.021
2630.0,0.021
2629.0,0.021
2628.0,0.021
2627.0,0.0211
2626.0,0.0211
2625.0,0.0211
2624.0,0.0211
2623.0,0.0212
2622.0,0.0212
2621.0,0.0212
2620.0,0.0212
2619.0,0.0212
2618.0,0.0211
2617.0,0.0211
2616.0,0.021
2615.0,0.0209
2614.0,0.0209
2613.0,0.0209
2612.0,0.0209
2611.0,0.021
2610.0,0.021
2609.0,0.0209
2608.0,0.0209
2607.0,0.0208
2606.0,0.0207
2605.0,0.0206
2604.0,0.0205
2603.0,0.0204
2602.0,0.0204
2601.0,0.0204
2600.0,0.0204
2599.0,0.0204
2598.0,0.0203
2597.0,0.0202
2596.0,0.0202
2595.0,0.0201
2594.0,0.0202
2593.0,0.0202
2592.0,0.0203
2591.0,0.0204
2590.0,0.0205
2589.0,0.0205
2588.0,0.0205
2587.0,0.0205
2586.0,0.0206
2585.0,0.0206
2584.0,0.0207
2583.0,0.0208
2582.0,0.0208
2581.0,0.0209
2580.0,0.0209
2579.0,0.0209
2578.0,0.0208
2577.0,0.0207
2576.0,0.0206
2575.0,0.0204
2574.0,0.0203
2573.0,0.0202
2572.0,0.0202
2571.0,0.0201
2570.0,0.0201
2569.0,0.02
2568.0,0.02
2567.0,0.0199
2566.0,0.0199
2565.0,0.0199
2564.0,0.0199
2563.0,0.0199
2562.0,0.0198
2561.0,0.0198
2560.0,0.0197
2559.0,0.0197
2558.0,0.0196
2557.0,0.0195
2556.0,0.0195
2555.0,0.0195
2554.0,0.0196
2553.0,0.0196
2552.0,0.0196
2551.0,0.0195
2550.0,0.0194
2549.0,0.0193
2548.0,0.0193
2547.0,0.0193
2546.0,0.0193
2545.0,0.0193
2544.0,0.0193
2543.0,0.0192
2542.0,0.0192
2541.0,0.0192
2540.0,0.0191
2539.0,0.0191
2538.0,0.0191
2537.0,0.0191
2536.0,0.0191
2535.0,0.0191
2534.0,0.0191
2533.0,0.019
2532.0,0.019
2531.0,0.019
2530.0,0.019
2529.0,0.019
2528.0,0.0189
2527.0,0.0188
2526.0,0.0188
2525.0,0.0187
2524.0,0.0186
2523.0,0.0186
2522.0,0.0186
2521.0,0.0186
2520.0,0.0186
2519.0,0.0186
2518.0,0.0185
2517.0,0.0185
2516.0,0.0185
2515.0,0.0184
2514.0,0.0184
2513.0,0.0185
2512.0,0.0185
2511.0,0.0185
2510.0,0.0185
2509.0,0.0185
2508.0,0.0185
2507.0,0.0184
2506.0,0.0184
2505.0,0.0184
2504.0,0.0184
2503.0,0.0184
2502.0,0.0184
2501.0,0.0183
2500.0,0.0183
2499.0,0.0183
2498.0,0.0183
2497.0,0.0183
2496.0,0.0183
2495.0,0.0183
2494.0,0.0182
2493.0,0.0182
2492.0,0.0182
2491.0,0.0182
2490.0,0.0182
2489.0,0.0182
2488.0,0.0181
2487.0,0.0181
2486.0,0.0181
2485.0,0.0181
2484.0,0.0182
2483.0,0.0183
2482.0,0.0183
2481.0,0.0183
2480.0,0.0182
2479.0,0.0181
2478.0,0.018
2477.0,0.018
2476.0,0.018
2475.0,0.018
2474.0,0.018
2473.0,0.018
2472.0,0.0179
2471.0,0.0179
2470.0,0.0179
2469.0,0.0179
2468.0,0.0179
2467.0,0.0179
2466.0,0.0179
2465.0,0.0179
2464.0,0.0179
2463.0,0.0179
2462.0,0.0179
2461.0,0.0179
2460.0,0.0179
2459.0,0.0179
2458.0,0.0179
2457.0,0.0179
2456.0,0.0179
2455.0,0.0179
2454.0,0.0178
2453.0,0.0178
2452.0,0.0178
2451.0,0.0177
2450.0,0.0177
2449.0,0.0177
2448.0,0.0178
2447.0,0.0178
2446.0,0.0179
2445.0,0.0179
2444.0,0.0179
2443.0,0.0179
2442.0,0.0178
2441.0,0.0178
2440.0,0.0178
2439.0,0.0178
2438.0,0.0178
2437.0,0.0178
2436.0,0.0178
2435.0,0.0178
2434.0,0.0178
2433.0,0.0179
2432.0,0.0179
2431.0,0.0179
2430.0,0.0179
2429.0,0.0179
2428.0,0.0178
2427.0,0.0178
2426.0,0.0179
2425.0,0.0179
2424.0,0.0179
2423.0,0.0178
2422.0,0.0178
2421.0,0.0178
2420.0,0.0178
2419.0,0.0178
2418.0,0.0178
2417.0,0.0178
2416.0,0.0177
2415.0,0.0177
2414.0,0.0177
2413.0,0.0177
2412.0,0.0178
2411.0,0.0178
2410.0,0.0178
2409.0,0.0177
2408.0,0.0177
2407.0,0.0177
2406.0,0.0176
2405.0,0.0176
2404.0,0.0176
2403.0,0.0177
2402.0,0.0177
2401.0,0.0177
2400.0,0.0177
2399.0,0.0177
2398.0,0.0176
2397.0,0.0176
2396.0,0.0176
2395.0,0.0177
2394.0,0.0177
2393.0,0.0178
2392.0,0.0177
2391.0,0.0177
2390.0,0.0177
2389.0,0.0177
2388.0,0.0177
2387.0,0.0176
2386.0,0.0174
2385.0,0.0172
2384.0,0.0169
2383.0,0.0165
2382.0,0.0159
2381.0,0.0152
2380.0,0.0145
2379.0,0.0139
2378.0,0.0135
2377.0,0.0133
2376.0,0.0134
2375.0,0.0137
2374.0,0.014
2373.0,0.0143
2372.0,0.0145
2371.0,0.0144
2370.0,0.0141
2369.0,0.0137
2368.0,0.0134
2367.0,0.0135
2366.0,0.0142
2365.0,0.0147
2364.0,0.014
2363.0,0.0121
2362.0,0.0101
2361.0,0.0094
2360.0,0.0105
2359.0,0.0126
2358.0,0.0148
2357.0,0.016
2356.0,0.0157
2355.0,0.0141
2354.0,0.0116
2353.0,0.0096
2352.0,0.0091
2351.0,0.0104
2350.0,0.012
2349.0,0.0125
2348.0,0.0114
2347.0,0.0096
2346.0,0.0083
2345.0,0.0081
2344.0,0.0086
2343.0,0.009
2342.0,0.0094
2341.0,0.0096
2340.0,0.0099
2339.0,0.0103
2338.0,0.0109
2337.0,0.0112
2336.0,0.0106
2335.0,0.0095
2334.0,0.0084
2333.0,0.0076
2332.0,0.0076
2331.0,0.0086
2330.0,0.0102
2329.0,0.0119
2328.0,0.013
2327.0,0.0134
2326.0,0.0131
2325.0,0.0127
2324.0,0.0125
2323.0,0.0123
2322.0,0.0125
2321.0,0.0129
2320.0,0.0137
2319.0,0.0145
2318.0,0.0152
2317.0,0.0154
2316.0,0.0152
2315.0,0.0148
2314.0,0.0143
2313.0,0.014
2312.0,0.014
2311.0,0.0141
2310.0,0.0142
2309.0,0.0145
2308.0,0.0147
2307.0,0.0148
2306.0,0.0149
2305.0,0.015
2304.0,0.0151
2303.0,0.0152
2302.0,0.0153
2301.0,0.0153
2300.0,0.0153
2299.0,0.0154
2298.0,0.0156
2297.0,0.0158
2296.0,0.0159
2295.0,0.0159
2294.0,0.016
2293.0,0.0162
2292.0,0.0163
2291.0,0.0164
2290.0,0.0165
2289.0,0.0166
2288.0,0.0167
2287.0,0.0168
2286.0,0.0169
2285.0,0.0169
2284.0,0.0169
2283.0,0.0169
2282.0,0.0168
2281.0,0.0167
2280.0,0.0167
2279.0,0.0166
2278.0,0.0165
2277.0,0.0164
2276.0,0.0164
2275.0,0.0163
2274.0,0.0163
2273.0,0.0164
2272.0,0.0164
2271.0,0.0164
2270.0,0.0164
2269.0,0.0164
2268.0,0.0165
2267.0,0.0165
2266.0,0.0165
2265.0,0.0165
2264.0,0.0165
2263.0,0.0165
2262.0,0.0165
2261.0,0.0165
2260.0,0.0166
2259.0,0.0166
2258.0,0.0166
2257.0,0.0167
2256.0,0.0167
2255.0,0.0167
2254.0,0.0167
2253.0,0.0168
2252.0,0.0168
2251.0,0.0169
2250.0,0.0168
2249.0,0.0168
2248.0,0.0168
2247.0,0.0167
2246.0,0.0167
2245.0,0.0167
2244.0,0.0168
2243.0,0.0168
2242.0,0.0168
2241.0,0.0169
2240.0,0.0168
2239.0,0.0168
2238.0,0.0169
2237.0,0.0169
2236.0,0.0169
2235.0,0.0169
2234.0,0.0169
2233.0,0.0169
2232.0,0.0169
2231.0,0.0169
2230.0,0.0169
2229.0,0.0169
2228.0,0.0169
2227.0,0.0169
2226.0,0.0169
2225.0,0.0169
2224.0,0.0168
2223.0,0.0168
2222.0,0.0168
2221.0,0.0167
2220.0,0.0167
2219.0,0.0167
2218.0,0.0166
2217.0,0.0166
2216.0,0.0167
2215.0,0.0167
2214.0,0.0168
2213.0,0.0168
2212.0,0.0167
2211.0,0.0167
2210.0,0.0167
2209.0,0.0167
2208.0,0.0167
2207.0,0.0168
2206.0,0.0168
2205.0,0.0168
2204.0,0.0168
2203.0,0.0168
2202.0,0.0168
2201.0,0.0168
2200.0,0.0168
2199.0,0.0168
2198.0,0.0168
2197.0,0.0168
2196.0,0.0168
2195.0,0.0168
2194.0,0.0168
2193.0,0.0168
2192.0,0.0168
2191.0,0.0168
2190.0,0.0169
2189.0,0.0169
2188.0,0.0168
2187.0,0.0168
2186.0,0.0168
2185.0,0.0168
2184.0,0.0168
2183.0,0.0168
2182.0,0.0168
2181.0,0.0168
2180.0,0.0168
2179.0,0.0168
2178.0,0.0168
2177.0,0.0168
2176.0,0.0168
2175.0,0.0168
2174.0,0.0168
2173.0,0.0169
2172.0,0.0169
2171.0,0.0168
2170.0,0.0168
2169.0,0.0168
2168.0,0.0168
2167.0,0.0168
2166.0,0.0169
2165.0,0.0169
2164.0,0.0169
2163.0,0.0169
2162.0,0.0169
2161.0,0.0168
2160.0,0.0168
2159.0,0.0168
2158.0,0.0168
2157.0,0.0167
2156.0,0.0167
2155.0,0.0166
2154.0,0.0166
2153.0,0.0166
2152.0,0.0166
2151.0,0.0166
2150.0,0.0167
2149.0,0.0167
2148.0,0.0167
2147.0,0.0167
2146.0,0.0166
2145.0,0.0166
2144.0,0.0166
2143.0,0.0166
2142.0,0.0166
2141.0,0.0166
2140.0,0.0166
2139.0,0.0167
2138.0,0.0167
2137.0,0.0167
2136.0,0.0167
2135.0,0.0167
2134.0,0.0168
2133.0,0.0168
2132.0,0.0168
2131.0,0.0168
2130.0,0.0168
2129.0,0.0168
2128.0,0.0168
2127.0,0.0167
2126.0,0.0167
2125.0,0.0166
2124.0,0.0166
2123.0,0.0166
2122.0,0.0166
2121.0,0.0166
2120.0,0.0166
2119.0,0.0166
2118.0,0.0165
2117.0,0.0165
2116.0,0.0165
2115.0,0.0164
2114.0,0.0164
2113.0,0.0164
2112.0,0.0164
2111.0,0.0164
2110.0,0.0164
2109.0,0.0164
2108.0,0.0164
2107.0,0.0165
2106.0,0.0165
2105.0,0.0166
2104.0,0.0166
2103.0,0.0166
2102.0,0.0165
2101.0,0.0165
2100.0,0.0164
2099.0,0.0164
2098.0,0.0164
2097.0,0.0165
2096.0,0.0165
2095.0,0.0165
2094.0,0.0165
2093.0,0.0165
2092.0,0.0165
2091.0,0.0165
2090.0,0.0165
2089.0,0.0165
2088.0,0.0164
2087.0,0.0164
2086.0,0.0163
2085.0,0.0163
2084.0,0.0163
2083.0,0.0164
2082.0,0.0163
2081.0,0.0163
2080.0,0.0163
2079.0,0.0163
2078.0,0.0163
2077.0,0.0163
2076.0,0.0163
2075.0,0.0163
2074.0,0.0163
2073.0,0.0163
2072.0,0.0163
2071.0,0.0163
2070.0,0.0163
2069.0,0.0163
2068.0,0.0163
2067.0,0.0163
2066.0,0.0163
2065.0,0.0163
2064.0,0.0163
2063.0,0.0163
2062.0,0.0163
2061.0,0.0162
2060.0,0.0162
2059.0,0.0163
2058.0,0.0163
2057.0,0.0163
2056.0,0.0164
2055.0,0.0164
2054.0,0.0164
2053.0,0.0164
2052.0,0.0164
2051.0,0.0164
2050.0,0.0164
2049.0,0.0164
2048.0,0.0163
2047.0,0.0163
2046.0,0.0163
2045.0,0.0163
2044.0,0.0163
2043.0,0.0163
2042.0,0.0163
2041.0,0.0163
2040.0,0.0162
2039.0,0.0162
2038.0,0.0162
2037.0,0.0163
2036.0,0.0163
2035.0,0.0162
2034.0,0.0162
2033.0,0.0163
2032.0,0.0163
2031.0,0.0164
2030.0,0.0164
2029.0,0.0163
2028.0,0.0163
2027.0,0.0163
2026.0,0.0163
2025.0,0.0164
2024.0,0.0164
2023.0,0.0164
2022.0,0.0163
2021.0,0.0163
2020.0,0.0163
2019.0,0.0163
2018.0,0.0164
2017.0,0.0164
2016.0,0.0163
2015.0,0.0163
2014.0,0.0163
2013.0,0.0162
2012.0,0.0163
2011.0,0.0163
2010.0,0.0163
2009.0,0.0162
2008.0,0.0162
2007.0,0.0162
2006.0,0.0162
2005.0,0.0163
2004.0,0.0163
2003.0,0.0163
2002.0,0.0162
2001.0,0.0162
2000.0,0.0162
1999.0,0.0162
1998.0,0.0162
1997.0,0.0162
1996.0,0.0161
1995.0,0.0162
1994.0,0.0162
1993.0,0.0162
1992.0,0.0162
1991.0,0.0162
1990.0,0.0162
1989.0,0.0162
1988.0,0.0162
1987.0,0.0162
1986.0,0.0162
1985.0,0.0162
1984.0,0.0162
1983.0,0.0162
1982.0,0.0163
1981.0,0.0163
1980.0,0.0162
1979.0,0.0162
1978.0,0.0162
1977.0,0.0162
1976.0,0.0162
1975.0,0.0161
1974.0,0.0161
1973.0,0.0162
1972.0,0.0162
1971.0,0.0162
1970.0,0.0162
1969.0,0.0162
1968.0,0.0162
1967.0,0.0163
1966.0,0.0163
1965.0,0.0163
1964.0,0.0163
1963.0,0.0163
1962.0,0.0163
1961.0,0.0164
1960.0,0.0164
1959.0,0.0163
1958.0,0.0163
1957.0,0.0163
1956.0,0.0162
1955.0,0.0162
1954.0,0.0162
1953.0,0.0162
1952.0,0.0162
1951.0,0.0162
1950.0,0.0161
1949.0,0.0161
1948.0,0.0162
1947.0,0.0162
1946.0,0.0163
1945.0,0.0163
1944.0,0.0163
1943.0,0.0163
1942.0,0.0163
1941.0,0.0162
1940.0,0.0162
1939.0,0.0162
1938.0,0.0162
1937.0,0.0162
1936.0,0.0162
1935.0,0.0162
1934.0,0.0162
1933.0,0.0162
1932.0,0.0162
1931.0,0.0163
1930.0,0.0163
1929.0,0.0163
1928.0,0.0163
1927.0,0.0162
1926.0,0.0162
1925.0,0.0162
1924.0,0.0162
1923.0,0.0162
1922.0,0.0163
1921.0,0.0163
1920.0,0.0162
1919.0,0.0162
1918.0,0.0162
1917.0,0.0162
1916.0,0.0162
1915.0,0.0161
1914.0,0.0161
1913.0,0.0161
1912.0,0.0161
1911.0,0.0161
1910.0,0.0162
1909.0,0.0162
1908.0,0.0163
1907.0,0.0163
1906.0,0.0163
1905.0,0.0162
1904.0,0.0162
1903.0,0.0162
1902.0,0.0162
1901.0,0.0163
1900.0,0.0163
1899.0,0.0163
1898.0,0.0163
1897.0,0.0163
1896.0,0.0163
1895.0,0.0163
1894.0,0.0163
1893.0,0.0163
1892.0,0.0164
1891.0,0.0164
1890.0,0.0164
1889.0,0.0164
1888.0,0.0164
1887.0,0.0163
1886.0,0.0163
1885.0,0.0163
1884.0,0.0162
1883.0,0.0162
1882.0,0.0162
1881.0,0.0162
1880.0,0.0162
1879.0,0.0162
1878.0,0.0162
1877.0,0.0162
1876.0,0.0162
1875.0,0.0162
1874.0,0.0162
1873.0,0.0162
1872.0,0.0162
1871.0,0.0161
1870.0,0.0161
1869.0,0.0161
1868.0,0.0162
1867.0,0.0162
1866.0,0.0162
1865.0,0.0162
1864.0,0.0162
1863.0,0.0162
1862.0,0.0162
1861.0,0.0161
1860.0,0.0162
1859.0,0.0162
1858.0,0.0162
1857.0,0.0162
1856.0,0.0162
1855.0,0.0162
1854.0,0.0162
1853.0,0.0162
1852.0,0.0162
1851.0,0.0161
1850.0,0.0161
1849.0,0.0161
1848.0,0.0162
1847.0,0.0162
1846.0,0.0162
1845.0,0.0162
1844.0,0.0162
1843.0,0.0162
1842.0,0.0162
1841.0,0.0162
1840.0,0.0162
1839.0,0.0161
1838.0,0.0162
1837.0,0.0162
1836.0,0.0162
1835.0,0.0163
1834.0,0.0163
1833.0,0.0163
1832.0,0.0163
1831.0,0.0163
1830.0,0.0163
1829.0,0.0163
1828.0,0.0163
1827.0,0.0163
1826.0,0.0162
1825.0,0.0162
1824.0,0.0162
1823.0,0.0162
1822.0,0.0162
1821.0,0.0162
1820.0,0.0162
1819.0,0.0161
1818.0,0.0161
1817.0,0.0161
1816.0,0.0161
1815.0,0.0161
1814.0,0.016
1813.0,0.0161
1812.0,0.0161
1811.0,0.0161
1810.0,0.0161
1809.0,0.0161
1808.0,0.0161
1807.0,0.0161
1806.0,0.0161
1805.0,0.0161
1804.0,0.016
1803.0,0.016
1802.0,0.016
1801.0,0.0161
1800.0,0.0161
1799.0,0.0161
1798.0,0.0161
1797.0,0.0161
1796.0,0.0161
1795.0,0.0161
1794.0,0.016
1793.0,0.016
1792.0,0.0161
1791.0,0.0161
1790.0,0.0162
1789.0,0.0162
1788.0,0.0162
1787.0,0.0162
1786.0,0.0162
1785.0,0.0162
1784.0,0.0163
1783.0,0.0163
1782.0,0.0163
1781.0,0.0163
1780.0,0.0163
1779.0,0.0163
1778.0,0.0163
1777.0,0.0162
1776.0,0.0162
1775.0,0.0162
1774.0,0.0162
1773.0,0.0162
1772.0,0.0163
1771.0,0.0163
1770.0,0.0163
1769.0,0.0163
1768.0,0.0163
1767.0,0.0163
1766.0,0.0163
1765.0,0.0164
1764.0,0.0164
1763.0,0.0165
1762.0,0.0165
1761.0,0.0166
1760.0,0.0167
1759.0,0.0168
1758.0,0.0169
1757.0,0.0171
1756.0,0.0173
1755.0,0.0175
1754.0,0.0176
1753.0,0.0177
1752.0,0.0178
1751.0,0.0181
1750.0,0.0184
1749.0,0.0187
1748.0,0.019
1747.0,0.0192
1746.0,0.0193
1745.0,0.0194
1744.0,0.0195
1743.0,0.0196
1742.0,0.0196
1741.0,0.0196
1740.0,0.0195
1739.0,0.0195
1738.0,0.0195
1737.0,0.0194
1736.0,0.0192
1735.0,0.019
1734.0,0.0189
1733.0,0.019
1732.0,0.0191
1731.0,0.0191
1730.0,0.019
1729.0,0.0188
1728.0,0.0187
1727.0,0.0186
1726.0,0.0185
1725.0,0.0184
1724.0,0.0183
1723.0,0.0182
1722.0,0.0182
1721.0,0.0183
1720.0,0.0183
1719.0,0.0182
1718.0,0.0181
1717.0,0.0182
1716.0,0.0183
1715.0,0.0182
1714.0,0.0182
1713.0,0.0182
1712.0,0.0182
1711.0,0.0181
1710.0,0.018
1709.0,0.018
1708.0,0.018
1707.0,0.0179
1706.0,0.0178
1705.0,0.0178
1704.0,0.0177
1703.0,0.0177
1702.0,0.0177
1701.0,0.0177
1700.0,0.0178
1699.0,0.0179
1698.0,0.018
1697.0,0.018
1696.0,0.0179
1695.0,0.0178
1694.0,0.0178
1693.0,0.0179
1692.0,0.0179
1691.0,0.0179
1690.0,0.0178
1689.0,0.0179
1688.0,0.0179
1687.0,0.018
1686.0,0.018
1685.0,0.0181
1684.0,0.0182
1683.0,0.0183
1682.0,0.0182
1681.0,0.0183
1680.0,0.0183
1679.0,0.0183
1678.0,0.0183
1677.0,0.0183
1676.0,0.0183
1675.0,0.0184
1674.0,0.0184
1673.0,0.0184
1672.0,0.0184
1671.0,0.0184
1670.0,0.0185
1669.0,0.0186
1668.0,0.0187
1667.0,0.0188
1666.0,0.0188
1665.0,0.0189
1664.0,0.0189
1663.0,0.019
1662.0,0.019
1661.0,0.0191
1660.0,0.0191
1659.0,0.019
1658.0,0.019
1657.0,0.019
1656.0,0.0192
1655.0,0.0192
1654.0,0.0192
1653.0,0.0194
1652.0,0.0194
1651.0,0.0194
1650.0,0.0196
1649.0,0.0197
1648.0,0.0198
1647.0,0.0199
1646.0,0.02
1645.0,0.0199
1644.0,0.0198
1643.0,0.0198
1642.0,0.0198
1641.0,0.0198
1640.0,0.0198
1639.0,0.0198
1638.0,0.0198
1637.0,0.0198
1636.0,0.0199
1635.0,0.0199
1634.0,0.0196
1633.0,0.0194
1632.0,0.0193
1631.0,0.0192
1630.0,0.0191
1629.0,0.019
1628.0,0.0189
1627.0,0.0189
1626.0,0.0189
1625.0,0.0188
1624.0,0.0187
1623.0,0.0187
1622.0,0.0187
1621.0,0.0186
1620.0,0.0185
1619.0,0.0184
1618.0,0.0183
1617.0,0.0182
1616.0,0.0182
1615.0,0.0182
1614.0,0.0182
1613.0,0.0182
1612.0,0.0181
1611.0,0.0181
1610.0,0.0182
1609.0,0.0182
1608.0,0.0183
1607.0,0.0183
1606.0,0.0183
1605.0,0.0183
1604.0,0.0182
1603.0,0.0182
1602.0,0.0182
1601.0,0.0181
1600.0,0.0181
1599.0,0.018
1598.0,0.0179
1597.0,0.0178
1596.0,0.0177
1595.0,0.0177
1594.0,0.0176
1593.0,0.0175
1592.0,0.0175
1591.0,0.0174
1590.0,0.0174
1589.0,0.0174
1588.0,0.0174
1587.0,0.0174
1586.0,0.0174
1585.0,0.0174
1584.0,0.0174
1583.0,0.0174
1582.0,0.0174
1581.0,0.0174
1580.0,0.0174
1579.0,0.0173
1578.0,0.0173
1577.0,0.0172
1576.0,0.0172
1575.0,0.0172
1574.0,0.0172
1573.0,0.0173
1572.0,0.0173
1571.0,0.0173
1570.0,0.0174
1569.0,0.0174
1568.0,0.0175
1567.0,0.0175
1566.0,0.0174
1565.0,0.0174
1564.0,0.0175
1563.0,0.0176
1562.0,0.0176
1561.0,0.0177
1560.0,0.0175
1559.0,0.0177
1558.0,0.0177
1557.0,0.0175
1556.0,0.0175
1555.0,0.0176
1554.0,0.0176
1553.0,0.0176
1552.0,0.0177
1551.0,0.0177
1550.0,0.0178
1549.0,0.0178
1548.0,0.0179
1547.0,0.0178
1546.0,0.0178
1545.0,0.0177
1544.0,0.0177
1543.0,0.0177
1542.0,0.0176
1541.0,0.0176
1540.0,0.0178
1539.0,0.0177
1538.0,0.0175
1537.0,0.0174
1536.0,0.0175
1535.0,0.0174
1534.0,0.0173
1533.0,0.0172
1532.0,0.0171
1531.0,0.017
1530.0,0.0168
1529.0,0.0168
1528.0,0.0167
1527.0,0.0167
1526.0,0.0166
1525.0,0.0166
1524.0,0.0165
1523.0,0.0164
1522.0,0.0163
1521.0,0.0163
1520.0,0.0164
1519.0,0.0164
1518.0,0.0163
1517.0,0.0163
1516.0,0.0162
1515.0,0.016
1514.0,0.0159
1513.0,0.0159
1512.0,0.0159
1511.0,0.016
1510.0,0.016
1509.0,0.0162
1508.0,0.0164
1507.0,0.0164
1506.0,0.0161
1505.0,0.0159
1504.0,0.0158
1503.0,0.0158
1502.0,0.0157
1501.0,0.0158
1500.0,0.0159
1499.0,0.0159
1498.0,0.0161
1497.0,0.0164
1496.0,0.0169
1495.0,0.0172
1494.0,0.0173
1493.0,0.0175
1492.0,0.0175
1491.0,0.0172
1490.0,0.0169
1489.0,0.0168
1488.0,0.0169
1487.0,0.0169
1486.0,0.0169
1485.0,0.017
1484.0,0.0171
1483.0,0.0173
1482.0,0.0176
1481.0,0.018
1480.0,0.0186
1479.0,0.0192
1478.0,0.02
1477.0,0.0214
1476.0,0.0234
1475.0,0.0258
1474.0,0.0291
1473.0,0.0336
1472.0,0.0383
1471.0,0.042
1470.0,0.0453
1469.0,0.0491
1468.0,0.0534
1467.0,0.0582
1466.0,0.0644
1465.0,0.0717
1464.0,0.0781
1463.0,0.082
1462.0,0.0843
1461.0,0.0859
1460.0,0.0869
1459.0,0.0876
1458.0,0.0891
1457.0,0.0914
1456.0,0.093
1455.0,0.0934
1454.0,0.0935
1453.0,0.0933
1452.0,0.0924
1451.0,0.0908
1450.0,0.0884
1449.0,0.0847
1448.0,0.0796
1447.0,0.074
1446.0,0.0689
1445.0,0.0644
1444.0,0.0603
1443.0,0.0567
1442.0,0.054
1441.0,0.052
1440.0,0.0506
1439.0,0.0498
1438.0,0.0496
1437.0,0.0498
1436.0,0.0495
1435.0,0.0482
1434.0,0.046
1433.0,0.0434
1432.0,0.0404
1431.0,0.0377
1430.0,0.0354
1429.0,0.0338
1428.0,0.0325
1427.0,0.0317
1426.0,0.031
1425.0,0.0303
1424.0,0.0296
1423.0,0.0292
1422.0,0.0288
1421.0,0.0283
1420.0,0.0279
1419.0,0.0276
1418.0,0.0275
1417.0,0.0273
1416.0,0.027
1415.0,0.0267
1414.0,0.0265
1413.0,0.0262
1412.0,0.026
1411.0,0.0258
1410.0,0.0256
1409.0,0.0253
1408.0,0.025
1407.0,0.0247
1406.0,0.0246
1405.0,0.0244
1404.0,0.0241
1403.0,0.024
1402.0,0.0239
1401.0,0.0237
1400.0,0.0235
1399.0,0.0234
1398.0,0.0233
1397.0,0.0232
1396.0,0.0231
1395.0,0.023
1394.0,0.0231
1393.0,0.023
1392.0,0.0229
1391.0,0.023
1390.0,0.0232
1389.0,0.0236
1388.0,0.0244
1387.0,0.026
1386.0,0.0284
1385.0,0.0316
1384.0,0.0363
1383.0,0.0432
1382.0,0.0526
1381.0,0.0646
1380.0,0.0797
1379.0,0.097
1378.0,0.1138
1377.0,0.1263
1376.0,0.1316
1375.0,0.1276
1374.0,0.1156
1373.0,0.1011
1372.0,0.0882
1371.0,0.0772
1370.0,0.0678
1369.0,0.0601
1368.0,0.0546
1367.0,0.051
1366.0,0.0488
1365.0,0.0476
1364.0,0.0473
1363.0,0.048
1362.0,0.0493
1361.0,0.0507
1360.0,0.0518
1359.0,0.0521
1358.0,0.0514
1357.0,0.0499
1356.0,0.0477
1355.0,0.0453
1354.0,0.0428
1353.0,0.0408
1352.0,0.039
1351.0,0.0376
1350.0,0.0363
1349.0,0.0352
1348.0,0.0343
1347.0,0.0334
1346.0,0.0327
1345.0,0.0321
1344.0,0.0316
1343.0,0.0311
1342.0,0.0307
1341.0,0.0303
1340.0,0.03
1339.0,0.0298
1338.0,0.0296
1337.0,0.0295
1336.0,0.0295
1335.0,0.0295
1334.0,0.0296
1333.0,0.0297
1332.0,0.03
1331.0,0.0302
1330.0,0.0303
1329.0,0.0302
1328.0,0.03
1327.0,0.0297
1326.0,0.0294
1325.0,0.0289
1324.0,0.0285
1323.0,0.0281
1322.0,0.0278
1321.0,0.0275
1320.0,0.0272
1319.0,0.027
1318.0,0.0269
1317.0,0.0267
1316.0,0.0266
1315.0,0.0265
1314.0,0.0265
1313.0,0.0264
1312.0,0.0263
1311.0,0.0264
1310.0,0.0265
1309.0,0.0269
1308.0,0.0276
1307.0,0.0284
1306.0,0.0293
1305.0,0.03
1304.0,0.0302
1303.0,0.03
1302.0,0.0296
1301.0,0.0293
1300.0,0.029
1299.0,0.0289
1298.0,0.0288
1297.0,0.0288
1296.0,0.0287
1295.0,0.0285
1294.0,0.0283
1293.0,0.0281
1292.0,0.0278
1291.0,0.0275
1290.0,0.0272
1289.0,0.0269
1288.0,0.0267
1287.0,0.0265
1286.0,0.0263
1285.0,0.0262
1284.0,0.0261
1283.0,0.0259
1282.0,0.0258
1281.0,0.0258
1280.0,0.0257
1279.0,0.0256
1278.0,0.0256
1277.0,0.0255
1276.0,0.0255
1275.0,0.0255
1274.0,0.0254
1273.0,0.0254
1272.0,0.0253
1271.0,0.0253
1270.0,0.0254
1269.0,0.0255
1268.0,0.0256
1267.0,0.0258
1266.0,0.0259
1265.0,0.026
1264.0,0.0261
1263.0,0.0263
1262.0,0.0265
1261.0,0.0268
1260.0,0.0272
1259.0,0.0278
1258.0,0.0284
1257.0,0.0289
1256.0,0.0293
1255.0,0.0293
1254.0,0.0289
1253.0,0.0283
1252.0,0.0277
1251.0,0.0272
1250.0,0.0267
1249.0,0.0265
1248.0,0.0262
1247.0,0.0261
1246.0,0.0259
1245.0,0.0258
1244.0,0.0257
1243.0,0.0256
1242.0,0.0254
1241.0,0.0253
1240.0,0.0252
1239.0,0.0251
1238.0,0.0251
1237.0,0.025
1236.0,0.0249
1235.0,0.0249
1234.0,0.0249
1233.0,0.0249
1232.0,0.0249
1231.0,0.0249
1230.0,0.0248
1229.0,0.0248
1228.0,0.0248
1227.0,0.0249
1226.0,0.025
1225.0,0.0251
1224.0,0.0253
1223.0,0.0255
1222.0,0.0257
1221.0,0.0259
1220.0,0.026
1219.0,0.0259
1218.0,0.0258
1217.0,0.0257
1216.0,0.0255
1215.0,0.0254
1214.0,0.0252
1213.0,0.0251
1212.0,0.0249
1211.0,0.0248
1210.0,0.0247
1209.0,0.0247
1208.0,0.0246
1207.0,0.0246
1206.0,0.0245
1205.0,0.0245
1204.0,0.0245
1203.0,0.0245
1202.0,0.0245
1201.0,0.0245
1200.0,0.0245
1199.0,0.0246
1198.0,0.0246
1197.0,0.0246
1196.0,0.0246
1195.0,0.0245
1194.0,0.0245
1193.0,0.0245
1192.0,0.0244
1191.0,0.0245
1190.0,0.0245
1189.0,0.0246
1188.0,0.0247
1187.0,0.0247
1186.0,0.0248
1185.0,0.0249
1184.0,0.025
1183.0,0.0252
1182.0,0.0253
1181.0,0.0255
1180.0,0.0256
1179.0,0.0259
1178.0,0.0263
1177.0,0.0268
1176.0,0.0276
1175.0,0.0286
1174.0,0.0301
1173.0,0.032
1172.0,0.0343
1171.0,0.037
1170.0,0.0396
1169.0,0.0417
1168.0,0.0431
1167.0,0.0435
1166.0,0.0431
1165.0,0.0421
1164.0,0.0409
1163.0,0.0397
1162.0,0.0387
1161.0,0.0378
1160.0,0.0371
1159.0,0.0365
1158.0,0.036
1157.0,0.0356
1156.0,0.0353
1155.0,0.0351
1154.0,0.035
1153.0,0.0349
1152.0,0.0346
1151.0,0.0341
1150.0,0.0335
1149.0,0.0328
1148.0,0.0321
1147.0,0.0314
1146.0,0.0307
1145.0,0.0301
1144.0,0.0296
1143.0,0.029
1142.0,0.0286
1141.0,0.0281
1140.0,0.0277
1139.0,0.0274
1138.0,0.0271
1137.0,0.0268
1136.0,0.0265
1135.0,0.0263
1134.0,0.0261
1133.0,0.026
1132.0,0.0259
1131.0,0.0258
1130.0,0.0257
1129.0,0.0256
1128.0,0.0256
1127.0,0.0256
1126.0,0.0256
1125.0,0.0256
1124.0,0.0255
1123.0,0.0255
1122.0,0.0255
1121.0,0.0256
1120.0,0.0256
1119.0,0.0256
1118.0,0.0257
1117.0,0.0257
1116.0,0.0258
1115.0,0.0259
1114.0,0.0259
1113.0,0.026
1112.0,0.0261
1111.0,0.0262
1110.0,0.0264
1109.0,0.0266
1108.0,0.0269
1107.0,0.0272
1106.0,0.0277
1105.0,0.0282
1104.0,0.0287
1103.0,0.029
1102.0,0.029
1101.0,0.0288
1100.0,0.0285
1099.0,0.028
1098.0,0.0277
1097.0,0.0273
1096.0,0.027
1095.0,0.0267
1094.0,0.0265
1093.0,0.0264
1092.0,0.0263
1091.0,0.0262
1090.0,0.0261
1089.0,0.026
1088.0,0.0258
1087.0,0.0257
1086.0,0.0255
1085.0,0.0254
1084.0,0.0253
1083.0,0.0253
1082.0,0.0252
1081.0,0.0252
1080.0,0.0252
1079.0,0.0252
1078.0,0.0251
1077.0,0.025
1076.0,0.025
1075.0,0.0249
1074.0,0.0249
1073.0,0.0248
1072.0,0.0247
1071.0,0.0247
1070.0,0.0248
1069.0,0.0249
1068.0,0.0249
1067.0,0.0249
1066.0,0.0249
1065.0,0.0249
1064.0,0.025
1063.0,0.025
1062.0,0.0249
1061.0,0.0249
1060.0,0.025
1059.0,0.0251
1058.0,0.0252
1057.0,0.0253
1056.0,0.0254
1055.0,0.0256
1054.0,0.0259
1053.0,0.0261
1052.0,0.0264
1051.0,0.0266
1050.0,0.0269
1049.0,0.0272
1048.0,0.0275
1047.0,0.0279
1046.0,0.0283
1045.0,0.0285
1044.0,0.0286
1043.0,0.0285
1042.0,0.0284
1041.0,0.0283
1040.0,0.0281
1039.0,0.028
1038.0,0.0279
1037.0,0.0279
1036.0,0.0279
1035.0,0.0279
1034.0,0.0278
1033.0,0.0277
1032.0,0.0277
1031.0,0.0276
1030.0,0.0277
1029.0,0.0277
1028.0,0.0278
1027.0,0.0278
1026.0,0.0279
1025.0,0.0279
1024.0,0.028
1023.0,0.0281
1022.0,0.0282
1021.0,0.0284
1020.0,0.0286
1019.0,0.0287
1018.0,0.0288
1017.0,0.0288
1016.0,0.0287
1015.0,0.0285
1014.0,0.0283
1013.0,0.0282
1012.0,0.0281
1011.0,0.028
1010.0,0.028
1009.0,0.028
1008.0,0.0281
1007.0,0.0282
1006.0,0.0285
1005.0,0.029
1004.0,0.0299
1003.0,0.0314
1002.0,0.0336
1001.0,0.0365
1000.0,0.0398
999.0,0.0427
998.0,0.0445
997.0,0.0446
996.0,0.043
995.0,0.0403
994.0,0.0373
993.0,0.0347
992.0,0.0326
991.0,0.031
990.0,0.0297
989.0,0.0287
988.0,0.0279
987.0,0.0274
986.0,0.0271
985.0,0.0269
984.0,0.0269
983.0,0.0272
982.0,0.0278
981.0,0.0287
980.0,0.0302
979.0,0.0322
978.0,0.0349
977.0,0.0382
976.0,0.0418
975.0,0.0454
974.0,0.0483
973.0,0.0498
972.0,0.0492
971.0,0.0469
970.0,0.0435
969.0,0.0399
968.0,0.0369
967.0,0.0345
966.0,0.0327
965.0,0.0314
964.0,0.0304
963.0,0.0295
962.0,0.0289
961.0,0.0283
960.0,0.0278
959.0,0.0274
958.0,0.027
957.0,0.0267
956.0,0.0265
955.0,0.0262
954.0,0.0259
953.0,0.0257
952.0,0.0255
951.0,0.0254
950.0,0.0253
949.0,0.0252
948.0,0.0251
947.0,0.0251
946.0,0.0252
945.0,0.0253
944.0,0.0255
943.0,0.0257
942.0,0.0259
941.0,0.0261
940.0,0.0262
939.0,0.0261
938.0,0.0258
937.0,0.0254
936.0,0.0251
935.0,0.0248
934.0,0.0246
933.0,0.0244
932.0,0.0242
931.0,0.0241
930.0,0.024
929.0,0.0238
928.0,0.0237
927.0,0.0236
926.0,0.0236
925.0,0.0236
924.0,0.0236
923.0,0.0236
922.0,0.0236
921.0,0.0235
920.0,0.0236
919.0,0.0235
918.0,0.0235
917.0,0.0235
916.0,0.0235
915.0,0.0236
914.0,0.0237
913.0,0.0237
912.0,0.0237
911.0,0.0238
910.0,0.0239
909.0,0.0241
908.0,0.0242
907.0,0.0245
906.0,0.0248
905.0,0.0253
904.0,0.0262
903.0,0.0273
902.0,0.0288
901.0,0.0303
900.0,0.0315
899.0,0.032
898.0,0.0319
897.0,0.031
896.0,0.0298
895.0,0.0286
894.0,0.0274
893.0,0.0266
892.0,0.026
891.0,0.0256
890.0,0.0253
889.0,0.0251
888.0,0.025
887.0,0.025
886.0,0.025
885.0,0.0249
884.0,0.0249
883.0,0.0248
882.0,0.0248
881.0,0.0248
880.0,0.0249
879.0,0.0251
878.0,0.0254
877.0,0.0256
876.0,0.0259
875.0,0.0261
874.0,0.0261
873.0,0.0259
872.0,0.0256
871.0,0.0254
870.0,0.0252
869.0,0.025
868.0,0.0249
867.0,0.0249
866.0,0.0248
865.0,0.0247
864.0,0.0246
863.0,0.0246
862.0,0.0246
861.0,0.0246
860.0,0.0246
859.0,0.0247
858.0,0.0249
857.0,0.0251
856.0,0.0252
855.0,0.0252
854.0,0.0252
853.0,0.0252
852.0,0.0253
851.0,0.0254
850.0,0.0256
849.0,0.0259
848.0,0.0264
847.0,0.0274
846.0,0.0288
845.0,0.0312
844.0,0.0345
843.0,0.0384
842.0,0.0419
841.0,0.0435
840.0,0.0425
839.0,0.0396
838.0,0.0363
837.0,0.0334
836.0,0.0315
835.0,0.0302
834.0,0.0293
833.0,0.0287
832.0,0.0283
831.0,0.028
830.0,0.0278
829.0,0.0276
828.0,0.0274
827.0,0.0271
826.0,0.0268
825.0,0.0267
824.0,0.0266
823.0,0.0265
822.0,0.0265
821.0,0.0265
820.0,0.0265
819.0,0.0266
818.0,0.0267
817.0,0.0269
816.0,0.0273
815.0,0.0281
814.0,0.0293
813.0,0.0307
812.0,0.0323
811.0,0.0336
810.0,0.0344
809.0,0.0347
808.0,0.0346
807.0,0.0341
806.0,0.0334
805.0,0.0324
804.0,0.0315
803.0,0.0306
802.0,0.0298
801.0,0.0292
800.0,0.0287
799.0,0.0283
798.0,0.028
797.0,0.0278
796.0,0.0275
795.0,0.0273
794.0,0.027
793.0,0.0269
792.0,0.0268
791.0,0.0267
790.0,0.0266
789.0,0.0264
788.0,0.0262
787.0,0.0261
786.0,0.0259
785.0,0.0258
784.0,0.0257
783.0,0.0256
782.0,0.0254
781.0,0.0252
780.0,0.0252
779.0,0.0252
778.0,0.0252
777.0,0.0253
776.0,0.0254
775.0,0.0255
774.0,0.0256
773.0,0.0258
772.0,0.0259
771.0,0.0261
770.0,0.0263
769.0,0.0265
768.0,0.0267
767.0,0.0268
766.0,0.0269
765.0,0.027
764.0,0.027
763.0,0.0271
762.0,0.0271
761.0,0.0272
760.0,0.0273
759.0,0.0275
758.0,0.0276
757.0,0.0277
756.0,0.0277
755.0,0.0277
754.0,0.0277
753.0,0.0278
752.0,0.028
751.0,0.0281
750.0,0.0281
749.0,0.0282
748.0,0.0284
747.0,0.0285
746.0,0.0286
745.0,0.0286
744.0,0.0284
743.0,0.0284
742.0,0.0283
741.0,0.0283
740.0,0.0283
739.0,0.0283
738.0,0.0283
737.0,0.0284
736.0,0.0287
735.0,0.0291
734.0,0.03
733.0,0.0313
732.0,0.033
731.0,0.0343
730.0,0.0349
729.0,0.0346
728.0,0.0339
727.0,0.0334
726.0,0.0333
725.0,0.0335
724.0,0.0338
723.0,0.0344
722.0,0.0351
721.0,0.036
720.0,0.0367
719.0,0.0367
718.0,0.036
717.0,0.0351
716.0,0.0341
715.0,0.0334
714.0,0.0328
713.0,0.0324
712.0,0.0321
711.0,0.0319
710.0,0.0319
709.0,0.0321
708.0,0.0325
707.0,0.033
706.0,0.0336
705.0,0.0344
704.0,0.0354
703.0,0.0368
702.0,0.0383
701.0,0.0397
700.0,0.0406
699.0,0.041
698.0,0.0409
697.0,0.0402
696.0,0.0388
695.0,0.0369
694.0,0.0349
693.0,0.0333
692.0,0.0321
691.0,0.0313
690.0,0.0306
689.0,0.0301
688.0,0.0299
687.0,0.0298
686.0,0.0298
685.0,0.0298
684.0,0.0298
683.0,0.0298
682.0,0.0297
681.0,0.0294
680.0,0.0288
679.0,0.0282
678.0,0.0281
677.0,0.0285
676.0,0.0292
675.0,0.0298
674.0,0.0302
673.0,0.03
672.0,0.0297
671.0,0.0295
670.0,0.0296
669.0,0.0295
668.0,0.03
667.0,0.0319
666.0,0.0323
665.0,0.031
664.0,0.0298
663.0,0.0291
662.0,0.0288
661.0,0.0286
660.0,0.0285
659.0,0.0286
658.0,0.0288
657.0,0.0289
656.0,0.029
655.0,0.0291
654.0,0.029
653.0,0.0288
652.0,0.0284
651.0,0.028
650.0,0.0277
649.0,0.0278
648.0,0.0285
647.0,0.0291
646.0,0.0294
645.0,0.0295
644.0,0.0296
643.0,0.0298
642.0,0.0301
641.0,0.0305
640.0,0.031
639.0,0.0316
638.0,0.0327
637.0,0.0341
636.0,0.0356
635.0,0.0366
634.0,0.0365
633.0,0.0354
632.0,0.0339
631.0,0.0326
630.0,0.0316
629.0,0.0309
628.0,0.0306
627.0,0.0307
626.0,0.031
625.0,0.0315
624.0,0.032
623.0,0.0324
622.0,0.0324
621.0,0.032
620.0,0.0313
619.0,0.0308
618.0,0.0307
617.0,0.031
616.0,0.0314
615.0,0.0317
614.0,0.0322
613.0,0.0328
612.0,0.0333
611.0,0.0336
610.0,0.0339
609.0,0.0341
608.0,0.034
607.0,0.0334
606.0,0.0325
605.0,0.032
604.0,0.032
603.0,0.0324
602.0,0.0326
601.0,0.0328
600.0,0.033
