cm-1,A
4000.0,0.0034007772998332353
3999.0,0.0034007772998332353
3998.0,0.0034007772998332353
3997.0,0.0034445503666347133
3996.0,0.003488327845821315
3995.0,0.0035321097382827737
3994.0,0.003488327845821315
3993.0,0.0033570086445275926
3992.0,0.0032257291386954545
3991.0,0.0031382315093266833
3990.0,0.0030944893043338695
3989.0,0.0031382315093266833
3988.0,0.0031819781204844855
3987.0,0.0032257291386954545
3986.0,0.0032694845648473247
3985.0,0.0032257291386954545
3984.0,0.0032257291386954545
3983.0,0.0031819781204844855
3982.0,0.0031382315093266833
3981.0,0.0031382315093266833
3980.0,0.0031819781204844855
3979.0,0.0031819781204844855
3978.0,0.0031382315093266833
3977.0,0.0030944893043338695
3976.0,0.003050751504618754
3975.0,0.0030944893043338695
3974.0,0.0030944893043338695
3973.0,0.0031382315093266833
3972.0,0.0031819781204844855
3971.0,0.0031819781204844855
3970.0,0.0031819781204844855
3969.0,0.0031819781204844855
3968.0,0.0031382315093266833
3967.0,0.003050751504618754
3966.0,0.0030070181092942683
3965.0,0.0030070181092942683
3964.0,0.003050751504618754
3963.0,0.0031382315093266833
3962.0,0.0031819781204844855
3961.0,0.0031819781204844855
3960.0,0.0031382315093266833
3959.0,0.0031382315093266833
3958.0,0.0031382315093266833
3957.0,0.0030944893043338695
3956.0,0.0030944893043338695
3955.0,0.0030944893043338695
3954.0,0.003050751504618754
3953.0,0.003050751504618754
3952.0,0.0030070181092942683
3951.0,0.0030070181092942683
3950.0,0.003050751504618754
3949.0,0.003050751504618754
3948.0,0.0030070181092942683
3947.0,0.0030070181092942683
3946.0,0.0030070181092942683
3945.0,0.003050751504618754
3944.0,0.0031819781204844855
3943.0,0.0032257291386954545
3942.0,0.0031819781204844855
3941.0,0.003050751504618754
3940.0,0.0029632891174733444
3939.0,0.0030070181092942683
3938.0,0.0030944893043338695
3937.0,0.0031382315093266833
3936.0,0.0031382315093266833
3935.0,0.0031382315093266833
3934.0,0.0030944893043338695
3933.0,0.0030070181092942683
3932.0,0.0030070181092942683
3931.0,0.0029632891174733444
3930.0,0.0029632891174733444
3929.0,0.0029195645282691363
3928.0,0.0028758443407954637
3927.0,0.0028758443407954637
3926.0,0.0028758443407954637
3925.0,0.0028758443407954637
3924.0,0.0028321285541661467
3923.0,0.0028321285541661467
3922.0,0.0028321285541661467
3921.0,0.0028758443407954637
3920.0,0.0029195645282691363
3919.0,0.0030070181092942683
3918.0,0.0030944893043338695
3917.0,0.0031382315093266833
3916.0,0.0031819781204844855
3915.0,0.0031382315093266833
3914.0,0.0031382315093266833
3913.0,0.0031382315093266833
3912.0,0.0031819781204844855
3911.0,0.0031819781204844855
3910.0,0.0031382315093266833
3909.0,0.0029632891174733444
3908.0,0.0027447101798967477
3907.0,0.002482560585275184
3906.0,0.0022642234021015284
3905.0,0.0021332737608552588
3904.0,0.0021332737608552588
3903.0,0.0021332737608552588
3902.0,0.0021769192542746563
3901.0,0.002351545103793873
3900.0,0.0025262411970197185
3899.0,0.0026573093983774942
3898.0,0.002701007590486082
3897.0,0.002701007590486082
3896.0,0.002701007590486082
3895.0,0.0026573093983774942
3894.0,0.002613615602686581
3893.0,0.002569926202528716
3892.0,0.002613615602686581
3891.0,0.002613615602686581
3890.0,0.002482560585275184
3889.0,0.002395212539545666
3888.0,0.002395212539545666
3887.0,0.0025262411970197185
3886.0,0.002613615602686581
3885.0,0.002569926202528716
3884.0,0.002395212539545666
3883.0,0.0023078820582733695
3882.0,0.002395212539545666
3881.0,0.0026573093983774942
3880.0,0.0028321285541661467
3879.0,0.0027884171674950053
3878.0,0.002613615602686581
3877.0,0.002569926202528716
3876.0,0.002569926202528716
3875.0,0.002569926202528716
3874.0,0.0025262411970197185
3873.0,0.002351545103793873
3872.0,0.0022642234021015284
3871.0,0.002351545103793873
3870.0,0.002482560585275184
3869.0,0.002395212539545666
3868.0,0.0022205691343961664
3867.0,0.002089632653256679
3866.0,0.002089632653256679
3865.0,0.0021332737608552588
3864.0,0.0022205691343961664
3863.0,0.0022642234021015284
3862.0,0.0022642234021015284
3861.0,0.002351545103793873
3860.0,0.0024388843664115978
3859.0,0.002395212539545666
3858.0,0.0021769192542746563
3857.0,0.0017842676290416026
3856.0,0.0013919706849057079
3855.0,0.0012612837441823288
3854.0,0.001609869681952425
3853.0,0.0018714928717336043
3852.0,0.0018278780605593958
3851.0,0.0018714928717336043
3850.0,0.0022642234021015284
3849.0,0.002569926202528716
3848.0,0.002701007590486082
3847.0,0.0026573093983774942
3846.0,0.002569926202528716
3845.0,0.002395212539545666
3844.0,0.0021332737608552588
3843.0,0.0018278780605593958
3842.0,0.0014791171649619628
3841.0,0.001304841688344327
3840.0,0.001348404001626502
3839.0,0.0015226969634936083
3838.0,0.001609869681952425
3837.0,0.0015226969634936083
3836.0,0.0013919706849057079
3835.0,0.0014355417390583547
3834.0,0.0016534626036355249
3833.0,0.0019587356365717845
3832.0,0.0022205691343961664
3831.0,0.002351545103793873
3830.0,0.002395212539545666
3829.0,0.002395212539545666
3828.0,0.002482560585275184
3827.0,0.002482560585275184
3826.0,0.0023078820582733695
3825.0,0.0020023635919956817
3824.0,0.0016970599014589638
3823.0,0.0015226969634936083
3822.0,0.0016534626036355249
3821.0,0.0018278780605593958
3820.0,0.0017842676290416026
3819.0,0.0016534626036355249
3818.0,0.0017842676290416026
3817.0,0.002089632653256679
3816.0,0.002395212539545666
3815.0,0.002482560585275184
3814.0,0.0025262411970197185
3813.0,0.002613615602686581
3812.0,0.0027447101798967477
3811.0,0.0027884171674950053
3810.0,0.002701007590486082
3809.0,0.002569926202528716
3808.0,0.0025262411970197185
3807.0,0.002395212539545666
3806.0,0.0021332737608552588
3805.0,0.0017842676290416026
3804.0,0.0015662811355310335
3803.0,0.001609869681952425
3802.0,0.001915112063444413
3801.0,0.002089632653256679
3800.0,0.0020023635919956817
3799.0,0.0019587356365717845
3798.0,0.0022205691343961664
3797.0,0.002569926202528716
3796.0,0.0028321285541661467
3795.0,0.0028758443407954637
3794.0,0.0028758443407954637
3793.0,0.0029195645282691363
3792.0,0.0030070181092942683
3791.0,0.0031382315093266833
3790.0,0.0031819781204844855
3789.0,0.0031819781204844855
3788.0,0.0030944893043338695
3787.0,0.0029632891174733444
3786.0,0.0028321285541661467
3785.0,0.002701007590486082
3784.0,0.0025262411970197185
3783.0,0.002395212539545666
3782.0,0.0023078820582733695
3781.0,0.002351545103793873
3780.0,0.0025262411970197185
3779.0,0.002701007590486082
3778.0,0.0028321285541661467
3777.0,0.0029195645282691363
3776.0,0.0030070181092942683
3775.0,0.0031382315093266833
3774.0,0.0031382315093266833
3773.0,0.003050751504618754
3772.0,0.0029632891174733444
3771.0,0.0028321285541661467
3770.0,0.0026573093983774942
3769.0,0.002482560585275184
3768.0,0.002351545103793873
3767.0,0.002351545103793873
3766.0,0.0024388843664115978
3765.0,0.0025262411970197185
3764.0,0.002482560585275184
3763.0,0.002395212539545666
3762.0,0.002351545103793873
3761.0,0.002395212539545666
3760.0,0.002482560585275184
3759.0,0.002482560585275184
3758.0,0.002395212539545666
3757.0,0.0022205691343961664
3756.0,0.0019587356365717845
3755.0,0.0016970599014589638
3754.0,0.0014355417390583547
3753.0,0.0011741809597138886
3752.0,0.0010870956412141197
3751.0,0.0010870956412141197
3750.0,0.0010000277816797354
3749.0,0.0008259444115150671
3748.0,0.0007389288868995258
3747.0,0.0008259444115150671
3746.0,0.0010000277816797354
3745.0,0.0012612837441823288
3744.0,0.0013919706849057079
3743.0,0.001304841688344327
3742.0,0.001304841688344327
3741.0,0.0015226969634936083
3740.0,0.001609869681952425
3739.0,0.0014355417390583547
3738.0,0.0012177301682640973
3737.0,0.0011306361176557367
3736.0,0.0011306361176557367
3735.0,0.0010435595295137379
3734.0,0.0009129773741116676
3733.0,0.0007389288868995258
3732.0,0.0007389288868995258
3731.0,0.0008259444115150671
3730.0,0.0009565003968372565
3729.0,0.0011306361176557367
3728.0,0.001304841688344327
3727.0,0.0013919706849057079
3726.0,0.0014355417390583547
3725.0,0.0014355417390583547
3724.0,0.0014791171649619628
3723.0,0.0016534626036355249
3722.0,0.0018278780605593958
3721.0,0.0020459959305969555
3720.0,0.0022642234021015284
3719.0,0.0024388843664115978
3718.0,0.002569926202528716
3717.0,0.002569926202528716
3716.0,0.0024388843664115978
3715.0,0.0022205691343961664
3714.0,0.0020459959305969555
3713.0,0.0018714928717336043
3712.0,0.0017842676290416026
3711.0,0.0017406615763013722
3710.0,0.0016970599014589638
3709.0,0.0016970599014589638
3708.0,0.0018278780605593958
3707.0,0.0019587356365717845
3706.0,0.0020459959305969555
3705.0,0.0020459959305969555
3704.0,0.002089632653256679
3703.0,0.0021769192542746563
3702.0,0.0022642234021015284
3701.0,0.0023078820582733695
3700.0,0.0022642234021015284
3699.0,0.0022642234021015284
3698.0,0.002351545103793873
3697.0,0.0024388843664115978
3696.0,0.002395212539545666
3695.0,0.0022205691343961664
3694.0,0.0020023635919956817
3693.0,0.0018278780605593958
3692.0,0.0016970599014589638
3691.0,0.0016970599014589638
3690.0,0.0017842676290416026
3689.0,0.0017842676290416026
3688.0,0.0017842676290416026
3687.0,0.0018278780605593958
3686.0,0.0021332737608552588
3685.0,0.002482560585275184
3684.0,0.0027447101798967477
3683.0,0.0027884171674950053
3682.0,0.0026573093983774942
3681.0,0.0025262411970197185
3680.0,0.0023078820582733695
3679.0,0.0020459959305969555
3678.0,0.0018278780605593958
3677.0,0.0017842676290416026
3676.0,0.0019587356365717845
3675.0,0.0019587356365717845
3674.0,0.0016970599014589638
3673.0,0.0015226969634936083
3672.0,0.0015662811355310335
3671.0,0.0018278780605593958
3670.0,0.002089632653256679
3669.0,0.0023078820582733695
3668.0,0.0024388843664115978
3667.0,0.0026573093983774942
3666.0,0.0029632891174733444
3665.0,0.0031819781204844855
3664.0,0.0032694845648473247
3663.0,0.0032257291386954545
3662.0,0.0031819781204844855
3661.0,0.003050751504618754
3660.0,0.0029195645282691363
3659.0,0.0028321285541661467
3658.0,0.0027884171674950053
3657.0,0.0027884171674950053
3656.0,0.0027447101798967477
3655.0,0.002613615602686581
3654.0,0.002395212539545666
3653.0,0.002089632653256679
3652.0,0.0016970599014589638
3651.0,0.0013919706849057079
3650.0,0.001348404001626502
3649.0,0.0015226969634936083
3648.0,0.0017406615763013722
3647.0,0.0020023635919956817
3646.0,0.0023078820582733695
3645.0,0.0026573093983774942
3644.0,0.0029195645282691363
3643.0,0.003050751504618754
3642.0,0.0030944893043338695
3641.0,0.0030070181092942683
3640.0,0.0029195645282691363
3639.0,0.0027884171674950053
3638.0,0.0027447101798967477
3637.0,0.002701007590486082
3636.0,0.0027447101798967477
3635.0,0.0028321285541661467
3634.0,0.0027884171674950053
3633.0,0.0025262411970197185
3632.0,0.0021332737608552588
3631.0,0.0016970599014589638
3630.0,0.0015226969634936083
3629.0,0.001609869681952425
3628.0,0.0017406615763013722
3627.0,0.0018278780605593958
3626.0,0.0020459959305969555
3625.0,0.0023078820582733695
3624.0,0.002395212539545666
3623.0,0.002351545103793873
3622.0,0.0022642234021015284
3621.0,0.0022205691343961664
3620.0,0.0023078820582733695
3619.0,0.0023078820582733695
3618.0,0.0022642234021015284
3617.0,0.0022642234021015284
3616.0,0.002395212539545666
3615.0,0.0026573093983774942
3614.0,0.0029632891174733444
3613.0,0.0030944893043338695
3612.0,0.0030944893043338695
3611.0,0.0030070181092942683
3610.0,0.0030070181092942683
3609.0,0.0031819781204844855
3608.0,0.0034445503666347133
3607.0,0.0035758960449088217
3606.0,0.003619686766589858
3605.0,0.003488327845821315
3604.0,0.0033132443998284966
3603.0,0.0031382315093266833
3602.0,0.0030070181092942683
3601.0,0.0029632891174733444
3600.0,0.0029632891174733444
3599.0,0.0029195645282691363
3598.0,0.0028758443407954637
3597.0,0.0028321285541661467
3596.0,0.0027884171674950053
3595.0,0.0027884171674950053
3594.0,0.0027884171674950053
3593.0,0.0027447101798967477
3592.0,0.0026573093983774942
3591.0,0.002569926202528716
3590.0,0.002482560585275184
3589.0,0.002482560585275184
3588.0,0.002613615602686581
3587.0,0.002701007590486082
3586.0,0.0027884171674950053
3585.0,0.0028758443407954637
3584.0,0.0030070181092942683
3583.0,0.0031819781204844855
3582.0,0.0033132443998284966
3581.0,0.0034007772998332353
3580.0,0.003488327845821315
3579.0,0.0035758960449088217
3578.0,0.0036634819042162814
3577.0,0.0037510854308679953
3576.0,0.0038387066319929275
3575.0,0.0038825238627120395
3574.0,0.0038387066319929275
3573.0,0.003794893821675638
3572.0,0.003707281458678491
3571.0,0.0035758960449088217
3570.0,0.0033570086445275926
3569.0,0.0031382315093266833
3568.0,0.0029632891174733444
3567.0,0.0029195645282691363
3566.0,0.0028758443407954637
3565.0,0.0029195645282691363
3564.0,0.0031382315093266833
3563.0,0.0034445503666347133
3562.0,0.003707281458678491
3561.0,0.0038387066319929275
3560.0,0.003794893821675638
3559.0,0.0036634819042162814
3558.0,0.0035758960449088217
3557.0,0.0035758960449088217
3556.0,0.003619686766589858
3555.0,0.0036634819042162814
3554.0,0.0036634819042162814
3553.0,0.003707281458678491
3552.0,0.003794893821675638
3551.0,0.0038387066319929275
3550.0,0.0038387066319929275
3549.0,0.0038825238627120395
3548.0,0.0038825238627120395
3547.0,0.0038825238627120395
3546.0,0.0038387066319929275
3545.0,0.0038387066319929275
3544.0,0.003794893821675638
3543.0,0.003794893821675638
3542.0,0.003794893821675638
3541.0,0.003794893821675638
3540.0,0.0037510854308679953
3539.0,0.003707281458678491
3538.0,0.0037510854308679953
3537.0,0.0038387066319929275
3536.0,0.0038387066319929275
3535.0,0.0038387066319929275
3534.0,0.0037510854308679953
3533.0,0.0037510854308679953
3532.0,0.003794893821675638
3531.0,0.003926345514724705
3530.0,0.003970171588923321
3529.0,0.003926345514724705
3528.0,0.0038387066319929275
3527.0,0.0037510854308679953
3526.0,0.0036634819042162814
3525.0,0.003707281458678491
3524.0,0.003794893821675638
3523.0,0.0038825238627120395
3522.0,0.003970171588923321
3521.0,0.003970171588923321
3520.0,0.003970171588923321
3519.0,0.003970171588923321
3518.0,0.00401400208620073
3517.0,0.0040578370074493275
3516.0,0.004145520125434121
3515.0,0.004145520125434121
3514.0,0.004101676353562844
3513.0,0.00401400208620073
3512.0,0.0038387066319929275
3511.0,0.0037510854308679953
3510.0,0.003707281458678491
3509.0,0.0036634819042162814
3508.0,0.0036634819042162814
3507.0,0.003619686766589858
3506.0,0.0035758960449088217
3505.0,0.0035321097382827737
3504.0,0.0035758960449088217
3503.0,0.0036634819042162814
3502.0,0.0037510854308679953
3501.0,0.0038387066319929275
3500.0,0.0038825238627120395
3499.0,0.003970171588923321
3498.0,0.00401400208620073
3497.0,0.00401400208620073
3496.0,0.003970171588923321
3495.0,0.003926345514724705
3494.0,0.0038825238627120395
3493.0,0.0038825238627120395
3492.0,0.0038825238627120395
3491.0,0.003926345514724705
3490.0,0.003926345514724705
3489.0,0.003926345514724705
3488.0,0.003926345514724705
3487.0,0.00401400208620073
3486.0,0.0040578370074493275
3485.0,0.004101676353562844
3484.0,0.004101676353562844
3483.0,0.004189368323957332
3482.0,0.004277078004534696
3481.0,0.0043648054024501
3480.0,0.0043648054024501
3479.0,0.004320939488377862
3478.0,0.004277078004534696
3477.0,0.004189368323957332
3476.0,0.004189368323957332
3475.0,0.004189368323957332
3474.0,0.004233220950025984
3473.0,0.004320939488377862
3472.0,0.0043648054024501
3471.0,0.004408675747646695
3470.0,0.0043648054024501
3469.0,0.004277078004534696
3468.0,0.004189368323957332
3467.0,0.004101676353562844
3466.0,0.00401400208620073
3465.0,0.003926345514724705
3464.0,0.003926345514724705
3463.0,0.003970171588923321
3462.0,0.0040578370074493275
3461.0,0.004189368323957332
3460.0,0.004189368323957332
3459.0,0.004189368323957332
3458.0,0.004189368323957332
3457.0,0.004189368323957332
3456.0,0.004233220950025984
3455.0,0.004233220950025984
3454.0,0.004277078004534696
3453.0,0.004277078004534696
3452.0,0.004277078004534696
3451.0,0.004277078004534696
3450.0,0.004277078004534696
3449.0,0.004277078004534696
3448.0,0.004277078004534696
3447.0,0.004277078004534696
3446.0,0.004277078004534696
3445.0,0.004277078004534696
3444.0,0.004320939488377862
3443.0,0.0043648054024501
3442.0,0.0043648054024501
3441.0,0.004320939488377862
3440.0,0.004233220950025984
3439.0,0.004145520125434121
3438.0,0.004145520125434121
3437.0,0.004145520125434121
3436.0,0.004101676353562844
3435.0,0.004101676353562844
3434.0,0.004145520125434121
3433.0,0.004145520125434121
3432.0,0.004189368323957332
3431.0,0.004145520125434121
3430.0,0.004101676353562844
3429.0,0.0040578370074493275
3428.0,0.004101676353562844
3427.0,0.004189368323957332
3426.0,0.004277078004534696
3425.0,0.004277078004534696
3424.0,0.004189368323957332
3423.0,0.00401400208620073
3422.0,0.0038825238627120395
3421.0,0.0038387066319929275
3420.0,0.0038825238627120395
3419.0,0.00401400208620073
3418.0,0.004101676353562844
3417.0,0.004189368323957332
3416.0,0.004233220950025984
3415.0,0.004189368323957332
3414.0,0.004189368323957332
3413.0,0.004189368323957332
3412.0,0.004233220950025984
3411.0,0.004189368323957332
3410.0,0.004145520125434121
3409.0,0.0040578370074493275
3408.0,0.003970171588923321
3407.0,0.003926345514724705
3406.0,0.003926345514724705
3405.0,0.003926345514724705
3404.0,0.00401400208620073
3403.0,0.004145520125434121
3402.0,0.004277078004534696
3401.0,0.004320939488377862
3400.0,0.004277078004534696
3399.0,0.004189368323957332
3398.0,0.004145520125434121
3397.0,0.004189368323957332
3396.0,0.004277078004534696
3395.0,0.004320939488377862
3394.0,0.004320939488377862
3393.0,0.004277078004534696
3392.0,0.004233220950025984
3391.0,0.004145520125434121
3390.0,0.0040578370074493275
3389.0,0.00401400208620073
3388.0,0.00401400208620073
3387.0,0.00401400208620073
3386.0,0.0040578370074493275
3385.0,0.0040578370074493275
3384.0,0.0040578370074493275
3383.0,0.003970171588923321
3382.0,0.003926345514724705
3381.0,0.0038825238627120395
3380.0,0.0038387066319929275
3379.0,0.003794893821675638
3378.0,0.0038387066319929275
3377.0,0.003926345514724705
3376.0,0.00401400208620073
3375.0,0.0040578370074493275
3374.0,0.00401400208620073
3373.0,0.003970171588923321
3372.0,0.003926345514724705
3371.0,0.003970171588923321
3370.0,0.0040578370074493275
3369.0,0.004189368323957332
3368.0,0.004320939488377862
3367.0,0.0043648054024501
3366.0,0.004320939488377862
3365.0,0.004233220950025984
3364.0,0.004145520125434121
3363.0,0.004101676353562844
3362.0,0.0040578370074493275
3361.0,0.00401400208620073
3360.0,0.00401400208620073
3359.0,0.0040578370074493275
3358.0,0.0040578370074493275
3357.0,0.0040578370074493275
3356.0,0.0040578370074493275
3355.0,0.004145520125434121
3354.0,0.004189368323957332
3353.0,0.004277078004534696
3352.0,0.004277078004534696
3351.0,0.004277078004534696
3350.0,0.004277078004534696
3349.0,0.004277078004534696
3348.0,0.004189368323957332
3347.0,0.004101676353562844
3346.0,0.003926345514724705
3345.0,0.0038387066319929275
3344.0,0.003794893821675638
3343.0,0.0038387066319929275
3342.0,0.0038825238627120395
3341.0,0.0038825238627120395
3340.0,0.0038387066319929275
3339.0,0.0038387066319929275
3338.0,0.0038387066319929275
3337.0,0.0038825238627120395
3336.0,0.0038825238627120395
3335.0,0.0038825238627120395
3334.0,0.0038825238627120395
3333.0,0.003926345514724705
3332.0,0.003926345514724705
3331.0,0.003970171588923321
3330.0,0.003970171588923321
3329.0,0.003970171588923321
3328.0,0.003970171588923321
3327.0,0.003926345514724705
3326.0,0.0038387066319929275
3325.0,0.0037510854308679953
3324.0,0.0036634819042162814
3323.0,0.003707281458678491
3322.0,0.003707281458678491
3321.0,0.0037510854308679953
3320.0,0.003707281458678491
3319.0,0.0036634819042162814
3318.0,0.003619686766589858
3317.0,0.003619686766589858
3316.0,0.003707281458678491
3315.0,0.0038387066319929275
3314.0,0.003970171588923321
3313.0,0.0040578370074493275
3312.0,0.003970171588923321
3311.0,0.003794893821675638
3310.0,0.003619686766589858
3309.0,0.003488327845821315
3308.0,0.0034445503666347133
3307.0,0.0034445503666347133
3306.0,0.0035321097382827737
3305.0,0.0035321097382827737
3304.0,0.0034445503666347133
3303.0,0.0033570086445275926
3302.0,0.0033132443998284966
3301.0,0.0033132443998284966
3300.0,0.0034007772998332353
3299.0,0.0034445503666347133
3298.0,0.003488327845821315
3297.0,0.0035321097382827737
3296.0,0.0035321097382827737
3295.0,0.003488327845821315
3294.0,0.0034445503666347133
3293.0,0.003488327845821315
3292.0,0.0035321097382827737
3291.0,0.0035758960449088217
3290.0,0.0035758960449088217
3289.0,0.0035321097382827737
3288.0,0.003488327845821315
3287.0,0.0034445503666347133
3286.0,0.0034445503666347133
3285.0,0.0034445503666347133
3284.0,0.0034007772998332353
3283.0,0.0034007772998332353
3282.0,0.0034445503666347133
3281.0,0.003488327845821315
3280.0,0.0034445503666347133
3279.0,0.0033132443998284966
3278.0,0.0032257291386954545
3277.0,0.0031819781204844855
3276.0,0.0031382315093266833
3275.0,0.0031382315093266833
3274.0,0.0031819781204844855
3273.0,0.0031819781204844855
3272.0,0.0031819781204844855
3271.0,0.0031819781204844855
3270.0,0.0031819781204844855
3269.0,0.0031819781204844855
3268.0,0.0032694845648473247
3267.0,0.0033570086445275926
3266.0,0.0034007772998332353
3265.0,0.0034007772998332353
3264.0,0.0033570086445275926
3263.0,0.0032694845648473247
3262.0,0.0031819781204844855
3261.0,0.0031382315093266833
3260.0,0.0031382315093266833
3259.0,0.0031382315093266833
3258.0,0.0031382315093266833
3257.0,0.0030944893043338695
3256.0,0.003050751504618754
3255.0,0.0030070181092942683
3254.0,0.0030070181092942683
3253.0,0.0029632891174733444
3252.0,0.0029195645282691363
3251.0,0.0028758443407954637
3250.0,0.0028758443407954637
3249.0,0.0029195645282691363
3248.0,0.0030070181092942683
3247.0,0.003050751504618754
3246.0,0.003050751504618754
3245.0,0.003050751504618754
3244.0,0.003050751504618754
3243.0,0.003050751504618754
3242.0,0.0030944893043338695
3241.0,0.0030944893043338695
3240.0,0.0030944893043338695
3239.0,0.003050751504618754
3238.0,0.0030944893043338695
3237.0,0.0030944893043338695
3236.0,0.003050751504618754
3235.0,0.0030070181092942683
3234.0,0.0029195645282691363
3233.0,0.0028321285541661467
3232.0,0.0028321285541661467
3231.0,0.0027884171674950053
3230.0,0.002701007590486082
3229.0,0.0026573093983774942
3228.0,0.002701007590486082
3227.0,0.0027884171674950053
3226.0,0.0029632891174733444
3225.0,0.0030944893043338695
3224.0,0.0031382315093266833
3223.0,0.0030944893043338695
3222.0,0.003050751504618754
3221.0,0.0029195645282691363
3220.0,0.0028321285541661467
3219.0,0.002701007590486082
3218.0,0.002613615602686581
3217.0,0.002569926202528716
3216.0,0.0025262411970197185
3215.0,0.002482560585275184
3214.0,0.0024388843664115978
3213.0,0.002395212539545666
3212.0,0.0024388843664115978
3211.0,0.0025262411970197185
3210.0,0.0026573093983774942
3209.0,0.0027884171674950053
3208.0,0.0028758443407954637
3207.0,0.0028758443407954637
3206.0,0.0027884171674950053
3205.0,0.002701007590486082
3204.0,0.002613615602686581
3203.0,0.0025262411970197185
3202.0,0.002395212539545666
3201.0,0.0023078820582733695
3200.0,0.0023078820582733695
3199.0,0.002395212539545666
3198.0,0.0024388843664115978
3197.0,0.002482560585275184
3196.0,0.0024388843664115978
3195.0,0.002351545103793873
3194.0,0.0022642234021015284
3193.0,0.0022205691343961664
3192.0,0.0022642234021015284
3191.0,0.0023078820582733695
3190.0,0.002395212539545666
3189.0,0.002395212539545666
3188.0,0.002395212539545666
3187.0,0.002351545103793873
3186.0,0.0023078820582733695
3185.0,0.0022205691343961664
3184.0,0.002089632653256679
3183.0,0.0020023635919956817
3182.0,0.0019587356365717845
3181.0,0.0020459959305969555
3180.0,0.0021332737608552588
3179.0,0.0022205691343961664
3178.0,0.0022642234021015284
3177.0,0.0022642234021015284
3176.0,0.0022642234021015284
3175.0,0.0022642234021015284
3174.0,0.0021769192542746563
3173.0,0.002089632653256679
3172.0,0.0020023635919956817
3171.0,0.0020023635919956817
3170.0,0.0020023635919956817
3169.0,0.002089632653256679
3168.0,0.002089632653256679
3167.0,0.0020459959305969555
3166.0,0.0020023635919956817
3165.0,0.0020023635919956817
3164.0,0.0020459959305969555
3163.0,0.0021332737608552588
3162.0,0.0021769192542746563
3161.0,0.0022205691343961664
3160.0,0.0022205691343961664
3159.0,0.0022205691343961664
3158.0,0.0021332737608552588
3157.0,0.0020459959305969555
3156.0,0.0019587356365717845
3155.0,0.0018714928717336043
3154.0,0.0018714928717336043
3153.0,0.0018714928717336043
3152.0,0.0018714928717336043
3151.0,0.0018714928717336043
3150.0,0.0018714928717336043
3149.0,0.0018714928717336043
3148.0,0.0018278780605593958
3147.0,0.0017406615763013722
3146.0,0.0016534626036355249
3145.0,0.001609869681952425
3144.0,0.001609869681952425
3143.0,0.001609869681952425
3142.0,0.0015226969634936083
3141.0,0.0014355417390583547
3140.0,0.0014355417390583547
3139.0,0.0014355417390583547
3138.0,0.0014791171649619628
3137.0,0.0014791171649619628
3136.0,0.0014791171649619628
3135.0,0.0014791171649619628
3134.0,0.0014791171649619628
3133.0,0.0014791171649619628
3132.0,0.0014791171649619628
3131.0,0.0014791171649619628
3130.0,0.0014355417390583547
3129.0,0.0013919706849057079
3128.0,0.0013919706849057079
3127.0,0.0014355417390583547
3126.0,0.0014355417390583547
3125.0,0.0013919706849057079
3124.0,0.001304841688344327
3123.0,0.0011741809597138886
3122.0,0.0010870956412141197
3121.0,0.0010000277816797354
3120.0,0.0010000277816797354
3119.0,0.0010000277816797354
3118.0,0.0010000277816797354
3117.0,0.0010000277816797354
3116.0,0.0010000277816797354
3115.0,0.0010435595295137379
3114.0,0.0010435595295137379
3113.0,0.0010435595295137379
3112.0,0.0010435595295137379
3111.0,0.0010435595295137379
3110.0,0.0010000277816797354
3109.0,0.0009129773741116676
3108.0,0.0009129773741116676
3107.0,0.0009565003968372565
3106.0,0.0010435595295137379
3105.0,0.0011306361176557367
3104.0,0.0011306361176557367
3103.0,0.0010000277816797354
3102.0,0.000869458712629001
3101.0,0.0007824344698965646
3100.0,0.000869458712629001
3099.0,0.0010435595295137379
3098.0,0.0012177301682640973
3097.0,0.001304841688344327
3096.0,0.0013919706849057079
3095.0,0.0014355417390583547
3094.0,0.0014355417390583547
3093.0,0.0013919706849057079
3092.0,0.001348404001626502
3091.0,0.0013919706849057079
3090.0,0.0014355417390583547
3089.0,0.0014791171649619628
3088.0,0.0014791171649619628
3087.0,0.0014355417390583547
3086.0,0.001348404001626502
3085.0,0.0012612837441823288
3084.0,0.0011741809597138886
3083.0,0.0011306361176557367
3082.0,0.0010435595295137379
3081.0,0.0010435595295137379
3080.0,0.0010870956412141197
3079.0,0.0011741809597138886
3078.0,0.0012612837441823288
3077.0,0.0012612837441823288
3076.0,0.0012612837441823288
3075.0,0.0012177301682640973
3074.0,0.0012177301682640973
3073.0,0.0012177301682640973
3072.0,0.0011741809597138886
3071.0,0.0010870956412141197
3070.0,0.0009565003968372565
3069.0,0.000869458712629001
3068.0,0.000869458712629001
3067.0,0.0009129773741116676
3066.0,0.0009565003968372565
3065.0,0.0010435595295137379
3064.0,0.0010870956412141197
3063.0,0.0011306361176557367
3062.0,0.0011741809597138886
3061.0,0.0011741809597138886
3060.0,0.0011306361176557367
3059.0,0.0010870956412141197
3058.0,0.0010870956412141197
3057.0,0.0010435595295137379
3056.0,0.0010000277816797354
3055.0,0.0009565003968372565
3054.0,0.0009565003968372565
3053.0,0.0009565003968372565
3052.0,0.0009565003968372565
3051.0,0.0009565003968372565
3050.0,0.0009565003968372565
3049.0,0.0009565003968372565
3048.0,0.0009565003968372565
3047.0,0.0009565003968372565
3046.0,0.0009129773741116676
3045.0,0.0009565003968372565
3044.0,0.0009565003968372565
3043.0,0.0009565003968372565
3042.0,0.0010000277816797354
3041.0,0.0010000277816797354
3040.0,0.0010000277816797354
3039.0,0.0009565003968372565
3038.0,0.0009565003968372565
3037.0,0.0009565003968372565
3036.0,0.0010435595295137379
3035.0,0.0011741809597138886
3034.0,0.0012177301682640973
3033.0,0.0011741809597138886
3032.0,0.0010870956412141197
3031.0,0.0009565003968372565
3030.0,0.000869458712629001
3029.0,0.000869458712629001
3028.0,0.0008259444115150671
3027.0,0.0008259444115150671
3026.0,0.0007824344698965646
3025.0,0.0007389288868995258
3024.0,0.0006954276616513155
3023.0,0.0006954276616513155
3022.0,0.0006954276616513155
3021.0,0.0006954276616513155
3020.0,0.0006954276616513155
3019.0,0.0006954276616513155
3018.0,0.0006954276616513155
3017.0,0.0006519307932786322
3016.0,0.0006084382809090627
3015.0,0.0005649501236701937
3014.0,0.0005649501236701937
3013.0,0.0006084382809090627
3012.0,0.0006084382809090627
3011.0,0.0005649501236701937
3010.0,0.0004779868710962365
3009.0,0.0003910410285830057
3008.0,0.0003475746339209884
3007.0,0.00026065489343207737
3006.0,0.00017375254558760211
3005.0,8.686758342868472e-05
3004.0,8.686758342868472e-05
3003.0,0.0001303078917322953
3002.0,0.00017375254558760211
3001.0,0.00021720154586435392
3000.0,0.00017375254558760211
2999.0,0.00017375254558760211
2998.0,0.0001303078917322953
2997.0,0.0001303078917322953
2996.0,0.0001303078917322953
2995.0,0.00021720154586435392
2994.0,0.00030411258916074324
2993.0,0.00043451177401765406
2992.0,0.0004779868710962365
2991.0,0.000521466320689834
2990.0,0.000521466320689834
2989.0,0.000521466320689834
2988.0,0.000521466320689834
2987.0,0.000521466320689834
2986.0,0.0005649501236701937
2985.0,0.0006084382809090627
2984.0,0.0006519307932786322
2983.0,0.0007389288868995258
2982.0,0.0008259444115150671
2981.0,0.0009565003968372565
2980.0,0.0011306361176557367
2979.0,0.0012612837441823288
2978.0,0.0013919706849057079
2977.0,0.0015662811355310335
2976.0,0.0016970599014589638
2975.0,0.0018278780605593958
2974.0,0.0020023635919956817
2973.0,0.0022205691343961664
2972.0,0.002482560585275184
2971.0,0.0027447101798967477
2970.0,0.0030070181092942683
2969.0,0.0032694845648473247
2968.0,0.0035758960449088217
2967.0,0.0038387066319929275
2966.0,0.004145520125434121
2965.0,0.004540313378935901
2964.0,0.004979393875242044
2963.0,0.005462895701502157
2962.0,0.005946936412324799
2961.0,0.006431517210272464
2960.0,0.006872514894289861
2959.0,0.007269796045857202
2958.0,0.007667440952535687
2957.0,0.008021209005416363
2956.0,0.008375265465994541
2955.0,0.008773924307505121
2954.0,0.009128595198514056
2953.0,0.009527946474380489
2952.0,0.009972101229705377
2951.0,0.010550182333308289
2950.0,0.011262724711199823
2949.0,0.012065734767841452
2948.0,0.013049212141483357
2947.0,0.014169510141607944
2946.0,0.015517693597737248
2945.0,0.017050711425501408
2944.0,0.018861217359339655
2943.0,0.020861530453190058
2942.0,0.023100049017062307
2941.0,0.02553436426275746
2940.0,0.028167720075074953
2939.0,0.03105031901865729
2938.0,0.03414006319292828
2937.0,0.03753595394209874
2936.0,0.04124505013091051
2935.0,0.045323413081356456
2934.0,0.04973253198641148
2933.0,0.05448217792216048
2932.0,0.05968277842578207
2931.0,0.0653500770992892
2930.0,0.07150173187630915
2929.0,0.07820951434181311
2928.0,0.0856568428805593
2927.0,0.09393445524476318
2926.0,0.10314322726279568
2925.0,0.11350927482751816
2924.0,0.1251124891538875
2923.0,0.13798794874978348
2922.0,0.15211900255462485
2921.0,0.16729952903943257
2920.0,0.1832285876666535
2919.0,0.19887081242029603
2918.0,0.21275211966804597
2917.0,0.2231535913047007
2916.0,0.2286330291422194
2915.0,0.22855951336008817
2914.0,0.22366209037982476
2913.0,0.21516882187553077
2912.0,0.20481541031757589
2911.0,0.19382002601611292
2910.0,0.18309616062433975
2909.0,0.1730833528150797
2908.0,0.16411926818260536
2907.0,0.1562068016740874
2906.0,0.14929251462546267
2905.0,0.14333151638846497
2904.0,0.1381073096085541
2903.0,0.13365357725039817
2902.0,0.12971317100740865
2901.0,0.12627261935332057
2900.0,0.12314735239865637
2899.0,0.1202162199095842
2898.0,0.11741854644554883
2897.0,0.11463877996848804
2896.0,0.11182050608167504
2895.0,0.10907622851098608
2894.0,0.1063491830140364
2893.0,0.10358402352687701
2892.0,0.10078158214862709
2891.0,0.0978882765519955
2890.0,0.09485199814398393
2889.0,0.09183679994445204
2888.0,0.08878910686244668
2887.0,0.08576265223225898
2886.0,0.08275714209253371
2885.0,0.07972010536705154
2884.0,0.07665234350217442
2883.0,0.07350321072677968
2882.0,0.07032568205141221
2881.0,0.06706985716921054
2880.0,0.06388856832514578
2879.0,0.06068046892176193
2878.0,0.0575950591438934
2877.0,0.05462990550969615
2876.0,0.05178270644002936
2875.0,0.04919717703534143
2874.0,0.04682039893436585
2873.0,0.044793462458058375
2872.0,0.0431115453499229
2871.0,0.04167506835594681
2870.0,0.040481623027001756
2869.0,0.03957679292217042
2868.0,0.038958783046687984
2867.0,0.03876880295533702
2866.0,0.03905380426616856
2865.0,0.03986232513620536
2864.0,0.041197296600497646
2863.0,0.0431115453499229
2862.0,0.04575749056067524
2861.0,0.04934311749548925
2860.0,0.05403929642243144
2859.0,0.05988213325228142
2858.0,0.06706985716921054
2857.0,0.07572071393811841
2856.0,0.08618614761628329
2855.0,0.0989778267519208
2854.0,0.11463877996848804
2853.0,0.13365357725039817
2852.0,0.1558335895497993
2851.0,0.17953580942231584
2850.0,0.2014874669686484
2849.0,0.2173840679683965
2848.0,0.22366209037982476
2847.0,0.21975471613464737
2846.0,0.20774842809673588
2845.0,0.1911815749078758
2844.0,0.17340694606595197
2843.0,0.15633127702085625
2842.0,0.14086170270546927
2841.0,0.12743585690934855
2840.0,0.11599807523121286
2839.0,0.1063491830140364
2838.0,0.09826930827078129
2837.0,0.09140776115243066
2836.0,0.08555105930144569
2835.0,0.08055578953476306
2834.0,0.07618627890881036
2833.0,0.07237303755504598
2832.0,0.06894915322260897
2831.0,0.0658551882075229
2830.0,0.06303410289212974
2829.0,0.06058059667068294
2828.0,0.0583891978463662
2827.0,0.056456022846545606
2826.0,0.054679159207724926
2825.0,0.05310580489767336
2824.0,0.05163594401163074
2823.0,0.05026854768429301
2822.0,0.04900266601119507
2821.0,0.04778894189133087
2820.0,0.04667530361081473
2819.0,0.045612749855485024
2818.0,0.04460091336073302
2817.0,0.04368746915880539
2816.0,0.042775942156833
2815.0,0.041914151478914974
2814.0,0.041101805289228244
2813.0,0.040338629726504704
2812.0,0.03962436858984186
2811.0,0.039006291057664066
2810.0,0.038341651362284734
2809.0,0.03767802727041558
2808.0,0.03701541568300293
2807.0,0.03635381351515665
2806.0,0.03578752703018084
2805.0,0.03526907894637077
2804.0,0.03479829897408804
2803.0,0.03437503289075727
2802.0,0.033905220553829274
2801.0,0.03343591590268957
2800.0,0.0329671178412978
2799.0,0.03245202378113787
2798.0,0.03193753992355086
2797.0,0.03147035562516054
2796.0,0.031096969696171817
2795.0,0.030770520137356927
2794.0,0.030444315779156517
2793.0,0.030118356253500123
2792.0,0.02969962459782227
2791.0,0.029234840219232394
2790.0,0.028770552723758724
2789.0,0.028353117935693284
2788.0,0.028028723600243666
2787.0,0.027797161620935595
2786.0,0.027565723042634938
2785.0,0.027288159452933503
2784.0,0.02691835039863255
2783.0,0.026595025589939425
2782.0,0.026225806029419818
2781.0,0.025902996205869
2780.0,0.02562649291857677
2779.0,0.025350165561278004
2778.0,0.02512002699306959
2777.0,0.024890010313838973
2776.0,0.02461415101053266
2775.0,0.024292536462819925
2774.0,0.023971159908874107
2773.0,0.023695883447997224
2772.0,0.023466619608062178
2771.0,0.023191662661933732
2770.0,0.02296266477531872
2769.0,0.022733787572707387
2768.0,0.022505030926963654
2767.0,0.022322112326006227
2766.0,0.022139270735302752
2765.0,0.02200219004126036
2764.0,0.021865152601710403
2763.0,0.021728158389364705
2762.0,0.021636852916117055
2761.0,0.0214542995372613
2760.0,0.021317434843055594
2759.0,0.0211806132671577
2758.0,0.021043834782408455
2757.0,0.020907099361673565
2756.0,0.020724852408976924
2755.0,0.02058821736556471
2754.0,0.020406104151069693
2753.0,0.020315076172974234
2752.0,0.02022406727031445
2751.0,0.020178569969774962
2750.0,0.02013307743509718
2749.0,0.02004210665933459
2748.0,0.01990568621470623
2747.0,0.019814763052665052
2746.0,0.019723858922159776
2745.0,0.019678413991243593
2744.0,0.019632973815224997
2743.0,0.01954210772389997
2742.0,0.019451260640229506
2741.0,0.019360432556262852
2740.0,0.019269623464054586
2739.0,0.019178833355664393
2738.0,0.0190880622231564
2737.0,0.01899731005860028
2736.0,0.018861217359339655
2735.0,0.018725167293411005
2734.0,0.018634490921455527
2733.0,0.018543833477873584
2732.0,0.018498511851753108
2731.0,0.01845319495476394
2730.0,0.01831727262871463
2729.0,0.018181392829336396
2728.0,0.018045555530026514
2727.0,0.017955020928509757
2726.0,0.017909760704207134
2725.0,0.017864505196230507
2724.0,0.01781925440359733
2723.0,0.017728766960431575
2722.0,0.01759307113620534
2721.0,0.017457417697056554
2720.0,0.01727661233145472
2719.0,0.017186237868137555
2718.0,0.017186237868137555
2717.0,0.017231422748988034
2716.0,0.017186237868137555
2715.0,0.017095882207371904
2714.0,0.016960383953898095
2713.0,0.016870075265299933
2712.0,0.01677978535189717
2711.0,0.016734647433454652
2710.0,0.016644385668211692
2709.0,0.016554142658660398
2708.0,0.016509028184833463
2707.0,0.01646391839700767
2706.0,0.016418813294209356
2705.0,0.016418813294209356
2704.0,0.01632861713980338
2703.0,0.01628352608625061
2702.0,0.016193358021584725
2701.0,0.016148281008528276
2700.0,0.016103208673694303
2699.0,0.016013078034810446
2698.0,0.015922966097169144
2697.0,0.01578783323856614
2696.0,0.015742798294583915
2695.0,0.015697768020096703
2694.0,0.015652742414136167
2693.0,0.015607721475734415
2692.0,0.015562705203923999
2691.0,0.015517693597737248
2690.0,0.01547268665620738
2689.0,0.01547268665620738
2688.0,0.015427684378367834
2687.0,0.015337693809893471
2686.0,0.015247721884586563
2685.0,0.015157768594724175
2684.0,0.015112798935672522
2683.0,0.015157768594724175
2682.0,0.015247721884586563
2681.0,0.015292705517326866
2680.0,0.015292705517326866
2679.0,0.015247721884586563
2678.0,0.015202742910707112
2677.0,0.015112798935672522
2676.0,0.015067833932588037
2675.0,0.015022873584506602
2674.0,0.014977917890464765
2673.0,0.015022873584506602
2672.0,0.015067833932588037
2671.0,0.015112798935672522
2670.0,0.015157768594724175
2669.0,0.015247721884586563
2668.0,0.015337693809893471
2667.0,0.015337693809893471
2666.0,0.015337693809893471
2665.0,0.01538268676325183
2664.0,0.015427684378367834
2663.0,0.015427684378367834
2662.0,0.01547268665620738
2661.0,0.015427684378367834
2660.0,0.015427684378367834
2659.0,0.01538268676325183
2658.0,0.015292705517326866
2657.0,0.015247721884586563
2656.0,0.015202742910707112
2655.0,0.015157768594724175
2654.0,0.015067833932588037
2653.0,0.014977917890464765
2652.0,0.014977917890464765
2651.0,0.014977917890464765
2650.0,0.014977917890464765
2649.0,0.014977917890464765
2648.0,0.014888020460646079
2647.0,0.014843078722943437
2646.0,0.014843078722943437
2645.0,0.014888020460646079
2644.0,0.014888020460646079
2643.0,0.014932966849499074
2642.0,0.014932966849499074
2641.0,0.014977917890464765
2640.0,0.014977917890464765
2639.0,0.014977917890464765
2638.0,0.014932966849499074
2637.0,0.014932966849499074
2636.0,0.014888020460646079
2635.0,0.014843078722943437
2634.0,0.014843078722943437
2633.0,0.014888020460646079
2632.0,0.014843078722943437
2631.0,0.014798141635428141
2630.0,0.014708281407112
2629.0,0.014663358264387139
2628.0,0.014618439768003144
2627.0,0.014618439768003144
2626.0,0.014618439768003144
2625.0,0.01452861671041239
2624.0,0.014349026309051105
2623.0,0.014169510141607944
2622.0,0.013990068146738865
2621.0,0.013900374944870508
2620.0,0.01385553528947936
2619.0,0.01381070026317599
2618.0,0.013765869865004277
2617.0,0.01372104409400876
2616.0,0.013631406429727155
2615.0,0.013496984613259544
2614.0,0.013407393177789162
2613.0,0.013317820220494436
2612.0,0.013273040668781544
2611.0,0.013273040668781544
2610.0,0.01322826573375524
2609.0,0.01318349541446362
2608.0,0.013138729709955221
2607.0,0.013093968619278806
2606.0,0.013093968619278806
2605.0,0.013049212141483357
2604.0,0.013004460275618523
2603.0,0.012959713020733288
2602.0,0.012870232340102872
2601.0,0.012780770091995297
2600.0,0.012736045877764557
2599.0,0.012736045877764557
2598.0,0.012736045877764557
2597.0,0.012780770091995297
2596.0,0.012780770091995297
2595.0,0.012736045877764557
2594.0,0.01264661126420652
2593.0,0.01260190086298274
2592.0,0.012557195064198723
2591.0,0.012557195064198723
2590.0,0.012512493866907004
2589.0,0.012423105273012602
2588.0,0.012378417874516323
2587.0,0.012289056869694281
2586.0,0.012244383261476699
2585.0,0.012199714248127602
2584.0,0.012199714248127602
2583.0,0.01215504982870197
2582.0,0.012110390002254778
2581.0,0.012065734767841452
2580.0,0.012021084124518078
2579.0,0.0119764380713403
2578.0,0.011931796607364653
2577.0,0.011887159731648111
2576.0,0.011842527443247208
2575.0,0.011797899741219142
2574.0,0.011753276624621556
2573.0,0.011797899741219142
2572.0,0.011797899741219142
2571.0,0.011797899741219142
2570.0,0.011797899741219142
2569.0,0.011753276624621556
2568.0,0.011753276624621556
2567.0,0.011797899741219142
2566.0,0.011887159731648111
2565.0,0.011887159731648111
2564.0,0.011842527443247208
2563.0,0.011797899741219142
2562.0,0.011708658092512314
2561.0,0.011619434777991433
2560.0,0.011485634166333858
2559.0,0.011396456654336085
2558.0,0.011307297450183107
2557.0,0.011307297450183107
2556.0,0.011307297450183107
2555.0,0.011351874764248926
2554.0,0.011351874764248926
2553.0,0.011351874764248926
2552.0,0.011307297450183107
2551.0,0.011218156546359825
2550.0,0.011129033935354915
2549.0,0.011084479487313281
2548.0,0.011129033935354915
2547.0,0.01117359295472431
2546.0,0.01117359295472431
2545.0,0.011129033935354915
2544.0,0.011039929609661936
2543.0,0.010995384301463185
2542.0,0.010950843561779777
2541.0,0.010906307389674463
2540.0,0.01086177578421088
2539.0,0.010817248744452446
2538.0,0.01077272626946324
2537.0,0.01077272626946324
2536.0,0.010817248744452446
2535.0,0.01086177578421088
2534.0,0.01086177578421088
2533.0,0.01086177578421088
2532.0,0.010817248744452446
2531.0,0.010817248744452446
2530.0,0.010817248744452446
2529.0,0.010817248744452446
2528.0,0.010817248744452446
2527.0,0.010728208358306901
2526.0,0.010683695010048622
2525.0,0.010639186223752484
2524.0,0.010594681998483901
2523.0,0.010550182333308289
2522.0,0.010550182333308289
2521.0,0.010550182333308289
2520.0,0.010505687227290839
2519.0,0.01046119667949763
2518.0,0.010416710688994968
2517.0,0.01037222925484893
2516.0,0.01037222925484893
2515.0,0.010416710688994968
2514.0,0.01046119667949763
2513.0,0.01046119667949763
2512.0,0.01037222925484893
2511.0,0.010283280051895272
2510.0,0.01023881228122181
2509.0,0.01023881228122181
2508.0,0.01023881228122181
2507.0,0.01023881228122181
2506.0,0.01023881228122181
2505.0,0.010283280051895272
2504.0,0.010327752376126709
2503.0,0.010283280051895272
2502.0,0.01023881228122181
2501.0,0.010149890396819572
2500.0,0.010105436281226954
2499.0,0.010060986715464404
2498.0,0.01001654169860089
2497.0,0.009972101229705377
2496.0,0.009972101229705377
2495.0,0.009927665307847056
2494.0,0.009927665307847056
2493.0,0.009927665307847056
2492.0,0.009927665307847056
2491.0,0.009927665307847056
2490.0,0.009927665307847056
2489.0,0.009972101229705377
2488.0,0.010060986715464404
2487.0,0.010105436281226954
2486.0,0.010060986715464404
2485.0,0.010060986715464404
2484.0,0.010105436281226954
2483.0,0.010105436281226954
2482.0,0.010105436281226954
2481.0,0.01001654169860089
2480.0,0.009972101229705377
2479.0,0.009927665307847056
2478.0,0.009927665307847056
2477.0,0.009883233932095559
2476.0,0.009883233932095559
2475.0,0.009838807101520963
2474.0,0.009794384815193347
2473.0,0.00974996707218323
2472.0,0.009705553871561357
2471.0,0.009705553871561357
2470.0,0.00974996707218323
2469.0,0.009794384815193347
2468.0,0.009883233932095559
2467.0,0.009883233932095559
2466.0,0.009794384815193347
2465.0,0.009705553871561357
2464.0,0.009616741093766423
2463.0,0.009616741093766423
2462.0,0.00966114521239847
2461.0,0.00974996707218323
2460.0,0.009794384815193347
2459.0,0.009794384815193347
2458.0,0.009705553871561357
2457.0,0.009616741093766423
2456.0,0.009527946474380489
2455.0,0.009483555971770974
2454.0,0.009439170005980158
2453.0,0.009483555971770974
2452.0,0.009483555971770974
2451.0,0.009483555971770974
2450.0,0.009439170005980158
2449.0,0.009350411681145587
2448.0,0.009306039320248427
2447.0,0.009306039320248427
2446.0,0.009350411681145587
2445.0,0.00939478857608056
2444.0,0.009350411681145587
2443.0,0.009350411681145587
2442.0,0.009306039320248427
2441.0,0.009350411681145587
2440.0,0.009439170005980158
2439.0,0.009483555971770974
2438.0,0.009572341514736404
2437.0,0.009616741093766423
2436.0,0.009572341514736404
2435.0,0.009483555971770974
2434.0,0.00939478857608056
2433.0,0.009261671492462709
2432.0,0.009217308196862062
2431.0,0.009217308196862062
2430.0,0.009217308196862062
2429.0,0.009217308196862062
2428.0,0.009217308196862062
2427.0,0.009261671492462709
2426.0,0.009306039320248427
2425.0,0.009306039320248427
2424.0,0.009350411681145587
2423.0,0.009350411681145587
2422.0,0.00939478857608056
2421.0,0.00939478857608056
2420.0,0.009350411681145587
2419.0,0.009350411681145587
2418.0,0.009350411681145587
2417.0,0.009350411681145587
2416.0,0.009350411681145587
2415.0,0.009306039320248427
2414.0,0.009261671492462709
2413.0,0.009217308196862062
2412.0,0.009217308196862062
2411.0,0.009172949432521227
2410.0,0.009128595198514056
2409.0,0.00908424549391551
2408.0,0.008995559669244813
2407.0,0.008951223547323472
2406.0,0.008995559669244813
2405.0,0.009039900317800775
2404.0,0.009039900317800775
2403.0,0.009039900317800775
2402.0,0.009039900317800775
2401.0,0.00908424549391551
2400.0,0.00908424549391551
2399.0,0.00908424549391551
2398.0,0.009039900317800775
2397.0,0.008995559669244813
2396.0,0.008995559669244813
2395.0,0.008995559669244813
2394.0,0.00908424549391551
2393.0,0.009128595198514056
2392.0,0.009172949432521227
2391.0,0.009128595198514056
2390.0,0.009039900317800775
2389.0,0.008951223547323472
2388.0,0.008773924307505121
2387.0,0.008552401996197112
2386.0,0.008330992620051436
2385.0,0.008065450281052211
2384.0,0.007800070204414977
2383.0,0.007490664932224611
2382.0,0.007225635744644521
2381.0,0.00696076819309055
2380.0,0.006740168563263094
2379.0,0.006431517210272464
2378.0,0.006079041198713275
2377.0,0.005726851026829571
2376.0,0.005506877116487674
2375.0,0.00541891874010525
2374.0,0.005462895701502157
2373.0,0.005594853310833647
2372.0,0.005638848091999105
2371.0,0.005550862985963967
2370.0,0.005243055412371911
2369.0,0.004803708402820517
2368.0,0.0043648054024501
2367.0,0.003970171588923321
2366.0,0.0038825238627120395
2365.0,0.004189368323957332
2364.0,0.004715892310740433
2363.0,0.005111204635089406
2362.0,0.005243055412371911
2361.0,0.005155150446602086
2360.0,0.00489154225525934
2359.0,0.004628093971837721
2358.0,0.004628093971837721
2357.0,0.004803708402820517
2356.0,0.004803708402820517
2355.0,0.004759798137184523
2354.0,0.004715892310740433
2353.0,0.004759798137184523
2352.0,0.004671990922590297
2351.0,0.004628093971837721
2350.0,0.004803708402820517
2349.0,0.004979393875242044
2348.0,0.004803708402820517
2347.0,0.004277078004534696
2346.0,0.0037510854308679953
2345.0,0.003794893821675638
2344.0,0.0044964297349936455
2343.0,0.005199100705396198
2342.0,0.00537494623139545
2341.0,0.005243055412371911
2340.0,0.005155150446602086
2339.0,0.005243055412371911
2338.0,0.005462895701502157
2337.0,0.005506877116487674
2336.0,0.00537494623139545
2335.0,0.005155150446602086
2334.0,0.005155150446602086
2333.0,0.005330978174470591
2332.0,0.005550862985963967
2331.0,0.005638848091999105
2330.0,0.00577085918230158
2329.0,0.005990966876386672
2328.0,0.006387442061109638
2327.0,0.006651960076740071
2326.0,0.006828394969235152
2325.0,0.006872514894289861
2324.0,0.006916639301937977
2323.0,0.007093181776687496
2322.0,0.007313960837872058
2321.0,0.007490664932224611
2320.0,0.007534852191956709
2319.0,0.0075790439479759275
2318.0,0.007800070204414977
2317.0,0.008065450281052211
2316.0,0.008198201155356077
2315.0,0.008065450281052211
2314.0,0.007667440952535687
2313.0,0.007225635744644521
2312.0,0.006916639301937977
2311.0,0.006740168563263094
2310.0,0.006651960076740071
2309.0,0.006651960076740071
2308.0,0.006696062080525422
2307.0,0.006828394969235152
2306.0,0.00696076819309055
2305.0,0.007049039429553483
2304.0,0.007093181776687496
2303.0,0.007093181776687496
2302.0,0.007137328610972382
2301.0,0.007181479933320523
2300.0,0.007269796045857202
2299.0,0.007313960837872058
2298.0,0.007358130121602358
2297.0,0.0074464821678643656
2296.0,0.0075790439479759275
2295.0,0.007711646202907652
2294.0,0.007844288957383316
2293.0,0.007976972236149349
2292.0,0.008065450281052211
2291.0,0.008109696063975047
2290.0,0.008109696063975047
2289.0,0.008198201155356077
2288.0,0.008330992620051436
2287.0,0.008419542825660153
2286.0,0.00850811108984062
2285.0,0.008552401996197112
2284.0,0.008552401996197112
2283.0,0.00850811108984062
2282.0,0.008463824699968647
2281.0,0.008463824699968647
2280.0,0.008419542825660153
2279.0,0.008330992620051436
2278.0,0.008286724286910463
2277.0,0.008242460465651913
2276.0,0.008286724286910463
2275.0,0.008330992620051436
2274.0,0.008375265465994541
2273.0,0.008375265465994541
2272.0,0.008330992620051436
2271.0,0.008286724286910463
2270.0,0.008198201155356077
2269.0,0.008109696063975047
2268.0,0.008065450281052211
2267.0,0.008065450281052211
2266.0,0.008109696063975047
2265.0,0.008153946355103248
2264.0,0.008198201155356077
2263.0,0.008242460465651913
2262.0,0.008286724286910463
2261.0,0.008330992620051436
2260.0,0.008330992620051436
2259.0,0.008242460465651913
2258.0,0.008198201155356077
2257.0,0.008198201155356077
2256.0,0.008242460465651913
2255.0,0.008286724286910463
2254.0,0.008330992620051436
2253.0,0.008375265465994541
2252.0,0.008419542825660153
2251.0,0.008419542825660153
2250.0,0.008419542825660153
2249.0,0.008375265465994541
2248.0,0.008330992620051436
2247.0,0.008286724286910463
2246.0,0.008286724286910463
2245.0,0.008330992620051436
2244.0,0.008375265465994541
2243.0,0.008419542825660153
2242.0,0.008463824699968647
2241.0,0.008419542825660153
2240.0,0.008419542825660153
2239.0,0.008375265465994541
2238.0,0.008375265465994541
2237.0,0.008375265465994541
2236.0,0.008419542825660153
2235.0,0.00850811108984062
2234.0,0.00850811108984062
2233.0,0.008463824699968647
2232.0,0.008419542825660153
2231.0,0.008375265465994541
2230.0,0.008330992620051436
2229.0,0.008375265465994541
2228.0,0.008419542825660153
2227.0,0.008419542825660153
2226.0,0.008419542825660153
2225.0,0.008419542825660153
2224.0,0.008375265465994541
2223.0,0.008375265465994541
2222.0,0.008330992620051436
2221.0,0.008286724286910463
2220.0,0.008286724286910463
2219.0,0.008286724286910463
2218.0,0.008286724286910463
2217.0,0.008286724286910463
2216.0,0.008242460465651913
2215.0,0.008286724286910463
2214.0,0.008286724286910463
2213.0,0.008375265465994541
2212.0,0.008419542825660153
2211.0,0.008463824699968647
2210.0,0.008419542825660153
2209.0,0.008375265465994541
2208.0,0.008286724286910463
2207.0,0.008242460465651913
2206.0,0.008242460465651913
2205.0,0.008242460465651913
2204.0,0.008286724286910463
2203.0,0.008286724286910463
2202.0,0.008286724286910463
2201.0,0.008286724286910463
2200.0,0.008330992620051436
2199.0,0.008330992620051436
2198.0,0.008286724286910463
2197.0,0.008242460465651913
2196.0,0.008242460465651913
2195.0,0.008242460465651913
2194.0,0.008242460465651913
2193.0,0.008242460465651913
2192.0,0.008198201155356077
2191.0,0.008153946355103248
2190.0,0.008153946355103248
2189.0,0.008198201155356077
2188.0,0.008242460465651913
2187.0,0.008242460465651913
2186.0,0.008242460465651913
2185.0,0.008198201155356077
2184.0,0.008153946355103248
2183.0,0.008153946355103248
2182.0,0.008109696063975047
2181.0,0.008109696063975047
2180.0,0.008153946355103248
2179.0,0.008153946355103248
2178.0,0.008198201155356077
2177.0,0.008198201155356077
2176.0,0.008198201155356077
2175.0,0.008242460465651913
2174.0,0.008242460465651913
2173.0,0.008286724286910463
2172.0,0.008330992620051436
2171.0,0.008375265465994541
2170.0,0.008375265465994541
2169.0,0.008330992620051436
2168.0,0.008286724286910463
2167.0,0.008242460465651913
2166.0,0.008153946355103248
2165.0,0.008153946355103248
2164.0,0.008153946355103248
2163.0,0.008153946355103248
2162.0,0.008198201155356077
2161.0,0.008242460465651913
2160.0,0.008242460465651913
2159.0,0.008242460465651913
2158.0,0.008242460465651913
2157.0,0.008198201155356077
2156.0,0.008198201155356077
2155.0,0.008198201155356077
2154.0,0.008242460465651913
2153.0,0.008286724286910463
2152.0,0.008286724286910463
2151.0,0.008242460465651913
2150.0,0.008242460465651913
2149.0,0.008198201155356077
2148.0,0.008198201155356077
2147.0,0.008153946355103248
2146.0,0.008153946355103248
2145.0,0.008153946355103248
2144.0,0.008153946355103248
2143.0,0.008198201155356077
2142.0,0.008198201155356077
2141.0,0.008198201155356077
2140.0,0.008153946355103248
2139.0,0.008109696063975047
2138.0,0.008109696063975047
2137.0,0.008109696063975047
2136.0,0.008153946355103248
2135.0,0.008109696063975047
2134.0,0.008109696063975047
2133.0,0.008065450281052211
2132.0,0.008065450281052211
2131.0,0.008109696063975047
2130.0,0.008109696063975047
2129.0,0.008021209005416363
2128.0,0.007932739972333236
2127.0,0.007844288957383316
2126.0,0.007844288957383316
2125.0,0.007888512213050314
2124.0,0.007976972236149349
2123.0,0.007976972236149349
2122.0,0.008021209005416363
2121.0,0.008021209005416363
2120.0,0.007976972236149349
2119.0,0.007976972236149349
2118.0,0.007932739972333236
2117.0,0.007932739972333236
2116.0,0.007932739972333236
2115.0,0.007976972236149349
2114.0,0.007976972236149349
2113.0,0.007976972236149349
2112.0,0.007932739972333236
2111.0,0.007932739972333236
2110.0,0.007932739972333236
2109.0,0.007976972236149349
2108.0,0.007976972236149349
2107.0,0.007932739972333236
2106.0,0.007888512213050314
2105.0,0.007888512213050314
2104.0,0.007888512213050314
2103.0,0.007932739972333236
2102.0,0.007932739972333236
2101.0,0.007932739972333236
2100.0,0.007888512213050314
2099.0,0.007888512213050314
2098.0,0.007888512213050314
2097.0,0.007888512213050314
2096.0,0.007932739972333236
2095.0,0.007976972236149349
2094.0,0.008021209005416363
2093.0,0.008021209005416363
2092.0,0.008021209005416363
2091.0,0.008021209005416363
2090.0,0.008021209005416363
2089.0,0.007976972236149349
2088.0,0.007932739972333236
2087.0,0.007888512213050314
2086.0,0.007844288957383316
2085.0,0.007755855953228474
2084.0,0.007755855953228474
2083.0,0.007755855953228474
2082.0,0.007755855953228474
2081.0,0.007844288957383316
2080.0,0.007844288957383316
2079.0,0.007844288957383316
2078.0,0.007800070204414977
2077.0,0.007800070204414977
2076.0,0.007800070204414977
2075.0,0.007844288957383316
2074.0,0.007888512213050314
2073.0,0.007932739972333236
2072.0,0.007932739972333236
2071.0,0.007888512213050314
2070.0,0.007844288957383316
2069.0,0.007844288957383316
2068.0,0.007888512213050314
2067.0,0.007932739972333236
2066.0,0.007976972236149349
2065.0,0.007976972236149349
2064.0,0.007976972236149349
2063.0,0.007932739972333236
2062.0,0.007932739972333236
2061.0,0.007932739972333236
2060.0,0.007932739972333236
2059.0,0.007932739972333236
2058.0,0.007932739972333236
2057.0,0.007976972236149349
2056.0,0.008065450281052211
2055.0,0.008153946355103248
2054.0,0.008153946355103248
2053.0,0.008153946355103248
2052.0,0.008065450281052211
2051.0,0.008021209005416363
2050.0,0.007976972236149349
2049.0,0.007976972236149349
2048.0,0.007976972236149349
2047.0,0.007976972236149349
2046.0,0.008021209005416363
2045.0,0.008065450281052211
2044.0,0.008109696063975047
2043.0,0.008109696063975047
2042.0,0.008065450281052211
2041.0,0.008021209005416363
2040.0,0.008065450281052211
2039.0,0.008109696063975047
2038.0,0.008198201155356077
2037.0,0.008198201155356077
2036.0,0.008153946355103248
2035.0,0.008153946355103248
2034.0,0.008109696063975047
2033.0,0.008109696063975047
2032.0,0.008109696063975047
2031.0,0.008065450281052211
2030.0,0.008065450281052211
2029.0,0.008065450281052211
2028.0,0.008065450281052211
2027.0,0.008109696063975047
2026.0,0.008153946355103248
2025.0,0.008153946355103248
2024.0,0.008198201155356077
2023.0,0.008198201155356077
2022.0,0.008198201155356077
2021.0,0.008242460465651913
2020.0,0.008242460465651913
2019.0,0.008198201155356077
2018.0,0.008198201155356077
2017.0,0.008242460465651913
2016.0,0.008198201155356077
2015.0,0.008153946355103248
2014.0,0.008109696063975047
2013.0,0.008021209005416363
2012.0,0.008021209005416363
2011.0,0.008021209005416363
2010.0,0.007976972236149349
2009.0,0.007976972236149349
2008.0,0.007932739972333236
2007.0,0.007888512213050314
2006.0,0.007844288957383316
2005.0,0.007800070204414977
2004.0,0.007755855953228474
2003.0,0.007711646202907652
2002.0,0.007667440952535687
2001.0,0.007667440952535687
2000.0,0.007711646202907652
1999.0,0.007800070204414977
1998.0,0.007800070204414977
1997.0,0.007800070204414977
1996.0,0.007755855953228474
1995.0,0.007711646202907652
1994.0,0.007755855953228474
1993.0,0.007844288957383316
1992.0,0.007888512213050314
1991.0,0.007888512213050314
1990.0,0.007844288957383316
1989.0,0.007800070204414977
1988.0,0.007800070204414977
1987.0,0.007800070204414977
1986.0,0.007800070204414977
1985.0,0.007844288957383316
1984.0,0.007844288957383316
1983.0,0.007800070204414977
1982.0,0.007711646202907652
1981.0,0.007667440952535687
1980.0,0.007667440952535687
1979.0,0.007667440952535687
1978.0,0.007711646202907652
1977.0,0.007667440952535687
1976.0,0.007667440952535687
1975.0,0.00762324020119709
1974.0,0.007667440952535687
1973.0,0.007755855953228474
1972.0,0.007800070204414977
1971.0,0.007800070204414977
1970.0,0.007755855953228474
1969.0,0.00762324020119709
1968.0,0.007534852191956709
1967.0,0.007490664932224611
1966.0,0.0074464821678643656
1965.0,0.007490664932224611
1964.0,0.007534852191956709
1963.0,0.00762324020119709
1962.0,0.007711646202907652
1961.0,0.007711646202907652
1960.0,0.007711646202907652
1959.0,0.007667440952535687
1958.0,0.007667440952535687
1957.0,0.007667440952535687
1956.0,0.007667440952535687
1955.0,0.007667440952535687
1954.0,0.007667440952535687
1953.0,0.007667440952535687
1952.0,0.007711646202907652
1951.0,0.007755855953228474
1950.0,0.007755855953228474
1949.0,0.007800070204414977
1948.0,0.007800070204414977
1947.0,0.007800070204414977
1946.0,0.007755855953228474
1945.0,0.007667440952535687
1944.0,0.0075790439479759275
1943.0,0.0075790439479759275
1942.0,0.007534852191956709
1941.0,0.007534852191956709
1940.0,0.007534852191956709
1939.0,0.0075790439479759275
1938.0,0.0075790439479759275
1937.0,0.00762324020119709
1936.0,0.00762324020119709
1935.0,0.0075790439479759275
1934.0,0.0075790439479759275
1933.0,0.007534852191956709
1932.0,0.0075790439479759275
1931.0,0.00762324020119709
1930.0,0.007667440952535687
1929.0,0.007711646202907652
1928.0,0.007711646202907652
1927.0,0.007667440952535687
1926.0,0.00762324020119709
1925.0,0.0075790439479759275
1924.0,0.00762324020119709
1923.0,0.00762324020119709
1922.0,0.0075790439479759275
1921.0,0.007534852191956709
1920.0,0.007534852191956709
1919.0,0.0075790439479759275
1918.0,0.00762324020119709
1917.0,0.00762324020119709
1916.0,0.0075790439479759275
1915.0,0.0075790439479759275
1914.0,0.00762324020119709
1913.0,0.00762324020119709
1912.0,0.00762324020119709
1911.0,0.007667440952535687
1910.0,0.007667440952535687
1909.0,0.007667440952535687
1908.0,0.007667440952535687
1907.0,0.007667440952535687
1906.0,0.007667440952535687
1905.0,0.007711646202907652
1904.0,0.007755855953228474
1903.0,0.007800070204414977
1902.0,0.007844288957383316
1901.0,0.007888512213050314
1900.0,0.007932739972333236
1899.0,0.007932739972333236
1898.0,0.007976972236149349
1897.0,0.007976972236149349
1896.0,0.007932739972333236
1895.0,0.007888512213050314
1894.0,0.007888512213050314
1893.0,0.007844288957383316
1892.0,0.007844288957383316
1891.0,0.007800070204414977
1890.0,0.007755855953228474
1889.0,0.007711646202907652
1888.0,0.00762324020119709
1887.0,0.0075790439479759275
1886.0,0.007534852191956709
1885.0,0.007490664932224611
1884.0,0.007490664932224611
1883.0,0.0074464821678643656
1882.0,0.007402303897961815
1881.0,0.007402303897961815
1880.0,0.007402303897961815
1879.0,0.007402303897961815
1878.0,0.007358130121602358
1877.0,0.007358130121602358
1876.0,0.007358130121602358
1875.0,0.007313960837872058
1874.0,0.007269796045857202
1873.0,0.007225635744644521
1872.0,0.007181479933320523
1871.0,0.007137328610972382
1870.0,0.007137328610972382
1869.0,0.007181479933320523
1868.0,0.007181479933320523
1867.0,0.007137328610972382
1866.0,0.007137328610972382
1865.0,0.007181479933320523
1864.0,0.007181479933320523
1863.0,0.007137328610972382
1862.0,0.007181479933320523
1861.0,0.007225635744644521
1860.0,0.007313960837872058
1859.0,0.007358130121602358
1858.0,0.007358130121602358
1857.0,0.007358130121602358
1856.0,0.007313960837872058
1855.0,0.007313960837872058
1854.0,0.007313960837872058
1853.0,0.007269796045857202
1852.0,0.007225635744644521
1851.0,0.007137328610972382
1850.0,0.007049039429553483
1849.0,0.00696076819309055
1848.0,0.00696076819309055
1847.0,0.00696076819309055
1846.0,0.007093181776687496
1845.0,0.007225635744644521
1844.0,0.007269796045857202
1843.0,0.007225635744644521
1842.0,0.007181479933320523
1841.0,0.007269796045857202
1840.0,0.007313960837872058
1839.0,0.007269796045857202
1838.0,0.007181479933320523
1837.0,0.007093181776687496
1836.0,0.007049039429553483
1835.0,0.00696076819309055
1834.0,0.006872514894289861
1833.0,0.006784279525863024
1832.0,0.006740168563263094
1831.0,0.006784279525863024
1830.0,0.006872514894289861
1829.0,0.006872514894289861
1828.0,0.006916639301937977
1827.0,0.00696076819309055
1826.0,0.007049039429553483
1825.0,0.007049039429553483
1824.0,0.007004901568658406
1823.0,0.00696076819309055
1822.0,0.00696076819309055
1821.0,0.00696076819309055
1820.0,0.007004901568658406
1819.0,0.007049039429553483
1818.0,0.007093181776687496
1817.0,0.007093181776687496
1816.0,0.007004901568658406
1815.0,0.006872514894289861
1814.0,0.006740168563263094
1813.0,0.006740168563263094
1812.0,0.006740168563263094
1811.0,0.006784279525863024
1810.0,0.006740168563263094
1809.0,0.006740168563263094
1808.0,0.006740168563263094
1807.0,0.006740168563263094
1806.0,0.006740168563263094
1805.0,0.006784279525863024
1804.0,0.006828394969235152
1803.0,0.006828394969235152
1802.0,0.006784279525863024
1801.0,0.006784279525863024
1800.0,0.006740168563263094
1799.0,0.006740168563263094
1798.0,0.006784279525863024
1797.0,0.006872514894289861
1796.0,0.006916639301937977
1795.0,0.006872514894289861
1794.0,0.006784279525863024
1793.0,0.006828394969235152
1792.0,0.006916639301937977
1791.0,0.007049039429553483
1790.0,0.007137328610972382
1789.0,0.007225635744644521
1788.0,0.007269796045857202
1787.0,0.007225635744644521
1786.0,0.007225635744644521
1785.0,0.007181479933320523
1784.0,0.007093181776687496
1783.0,0.007049039429553483
1782.0,0.007004901568658406
1781.0,0.007049039429553483
1780.0,0.007049039429553483
1779.0,0.007004901568658406
1778.0,0.00696076819309055
1777.0,0.006916639301937977
1776.0,0.006916639301937977
1775.0,0.006872514894289861
1774.0,0.006916639301937977
1773.0,0.006916639301937977
1772.0,0.006872514894289861
1771.0,0.006828394969235152
1770.0,0.006828394969235152
1769.0,0.006872514894289861
1768.0,0.006916639301937977
1767.0,0.006828394969235152
1766.0,0.006784279525863024
1765.0,0.006784279525863024
1764.0,0.006828394969235152
1763.0,0.006916639301937977
1762.0,0.007004901568658406
1761.0,0.007004901568658406
1760.0,0.007004901568658406
1759.0,0.007004901568658406
1758.0,0.007049039429553483
1757.0,0.007137328610972382
1756.0,0.007181479933320523
1755.0,0.007269796045857202
1754.0,0.007358130121602358
1753.0,0.007490664932224611
1752.0,0.00762324020119709
1751.0,0.007755855953228474
1750.0,0.007800070204414977
1749.0,0.007800070204414977
1748.0,0.007844288957383316
1747.0,0.007844288957383316
1746.0,0.007888512213050314
1745.0,0.007976972236149349
1744.0,0.008109696063975047
1743.0,0.008153946355103248
1742.0,0.008109696063975047
1741.0,0.008065450281052211
1740.0,0.008021209005416363
1739.0,0.007932739972333236
1738.0,0.007800070204414977
1737.0,0.007800070204414977
1736.0,0.007800070204414977
1735.0,0.007800070204414977
1734.0,0.007844288957383316
1733.0,0.007844288957383316
1732.0,0.007844288957383316
1731.0,0.007932739972333236
1730.0,0.007932739972333236
1729.0,0.007844288957383316
1728.0,0.007711646202907652
1727.0,0.00762324020119709
1726.0,0.0075790439479759275
1725.0,0.0075790439479759275
1724.0,0.0075790439479759275
1723.0,0.007534852191956709
1722.0,0.0074464821678643656
1721.0,0.007402303897961815
1720.0,0.007313960837872058
1719.0,0.007137328610972382
1718.0,0.007049039429553483
1717.0,0.007093181776687496
1716.0,0.007225635744644521
1715.0,0.007402303897961815
1714.0,0.007490664932224611
1713.0,0.007490664932224611
1712.0,0.007402303897961815
1711.0,0.007313960837872058
1710.0,0.007269796045857202
1709.0,0.007225635744644521
1708.0,0.007181479933320523
1707.0,0.007137328610972382
1706.0,0.007049039429553483
1705.0,0.006916639301937977
1704.0,0.006872514894289861
1703.0,0.006916639301937977
1702.0,0.007049039429553483
1701.0,0.007181479933320523
1700.0,0.007181479933320523
1699.0,0.007004901568658406
1698.0,0.007137328610972382
1697.0,0.007490664932224611
1696.0,0.007667440952535687
1695.0,0.007490664932224611
1694.0,0.007269796045857202
1693.0,0.007269796045857202
1692.0,0.007269796045857202
1691.0,0.007181479933320523
1690.0,0.007049039429553483
1689.0,0.007004901568658406
1688.0,0.007004901568658406
1687.0,0.007004901568658406
1686.0,0.00696076819309055
1685.0,0.007093181776687496
1684.0,0.007269796045857202
1683.0,0.007225635744644521
1682.0,0.007269796045857202
1681.0,0.007402303897961815
1680.0,0.0074464821678643656
1679.0,0.0074464821678643656
1678.0,0.0074464821678643656
1677.0,0.007490664932224611
1676.0,0.0075790439479759275
1675.0,0.0075790439479759275
1674.0,0.0074464821678643656
1673.0,0.007358130121602358
1672.0,0.007313960837872058
1671.0,0.007269796045857202
1670.0,0.007269796045857202
1669.0,0.007402303897961815
1668.0,0.0074464821678643656
1667.0,0.007534852191956709
1666.0,0.00762324020119709
1665.0,0.007667440952535687
1664.0,0.007711646202907652
1663.0,0.007800070204414977
1662.0,0.007800070204414977
1661.0,0.007755855953228474
1660.0,0.007800070204414977
1659.0,0.007755855953228474
1658.0,0.007711646202907652
1657.0,0.0075790439479759275
1656.0,0.007490664932224611
1655.0,0.007534852191956709
1654.0,0.007800070204414977
1653.0,0.008109696063975047
1652.0,0.007667440952535687
1651.0,0.0074464821678643656
1650.0,0.007490664932224611
1649.0,0.0074464821678643656
1648.0,0.007358130121602358
1647.0,0.007313960837872058
1646.0,0.007358130121602358
1645.0,0.007358130121602358
1644.0,0.0074464821678643656
1643.0,0.007534852191956709
1642.0,0.00762324020119709
1641.0,0.00762324020119709
1640.0,0.007534852191956709
1639.0,0.0074464821678643656
1638.0,0.007358130121602358
1637.0,0.007402303897961815
1636.0,0.007534852191956709
1635.0,0.007534852191956709
1634.0,0.0074464821678643656
1633.0,0.007490664932224611
1632.0,0.0075790439479759275
1631.0,0.0075790439479759275
1630.0,0.007490664932224611
1629.0,0.007402303897961815
1628.0,0.007358130121602358
1627.0,0.007269796045857202
1626.0,0.007269796045857202
1625.0,0.007269796045857202
1624.0,0.007358130121602358
1623.0,0.007358130121602358
1622.0,0.007358130121602358
1621.0,0.007313960837872058
1620.0,0.007269796045857202
1619.0,0.007181479933320523
1618.0,0.007137328610972382
1617.0,0.007181479933320523
1616.0,0.007181479933320523
1615.0,0.007181479933320523
1614.0,0.007181479933320523
1613.0,0.007269796045857202
1612.0,0.007313960837872058
1611.0,0.007269796045857202
1610.0,0.007225635744644521
1609.0,0.007181479933320523
1608.0,0.007093181776687496
1607.0,0.007004901568658406
1606.0,0.00696076819309055
1605.0,0.00696076819309055
1604.0,0.00696076819309055
1603.0,0.006916639301937977
1602.0,0.006916639301937977
1601.0,0.006916639301937977
1600.0,0.006916639301937977
1599.0,0.006916639301937977
1598.0,0.006916639301937977
1597.0,0.006872514894289861
1596.0,0.006872514894289861
1595.0,0.006828394969235152
1594.0,0.006828394969235152
1593.0,0.006828394969235152
1592.0,0.006828394969235152
1591.0,0.006828394969235152
1590.0,0.006828394969235152
1589.0,0.006872514894289861
1588.0,0.006872514894289861
1587.0,0.006828394969235152
1586.0,0.006696062080525422
1585.0,0.006651960076740071
1584.0,0.006607862550997545
1583.0,0.006607862550997545
1582.0,0.00656376950238835
1581.0,0.006475596832934416
1580.0,0.006387442061109638
1579.0,0.006387442061109638
1578.0,0.006431517210272464
1577.0,0.006519680930003435
1576.0,0.006607862550997545
1575.0,0.006519680930003435
1574.0,0.006475596832934416
1573.0,0.006519680930003435
1572.0,0.006519680930003435
1571.0,0.006475596832934416
1570.0,0.006387442061109638
1569.0,0.006299305179649828
1568.0,0.00621118618129457
1567.0,0.00625524344553785
1566.0,0.00625524344553785
1565.0,0.006299305179649828
1564.0,0.006299305179649828
1563.0,0.006299305179649828
1562.0,0.006299305179649828
1561.0,0.006167133386013823
1560.0,0.00621118618129457
1559.0,0.006651960076740071
1558.0,0.006740168563263094
1557.0,0.006696062080525422
1556.0,0.006828394969235152
1555.0,0.006828394969235152
1554.0,0.006696062080525422
1553.0,0.00656376950238835
1552.0,0.00656376950238835
1551.0,0.00656376950238835
1550.0,0.00656376950238835
1549.0,0.00656376950238835
1548.0,0.006519680930003435
1547.0,0.006431517210272464
1546.0,0.00625524344553785
1545.0,0.00612308505878878
1544.0,0.006079041198713275
1543.0,0.006079041198713275
1542.0,0.006079041198713275
1541.0,0.006167133386013823
1540.0,0.006387442061109638
1539.0,0.006343371384537999
1538.0,0.00621118618129457
1537.0,0.00625524344553785
1536.0,0.00625524344553785
1535.0,0.006079041198713275
1534.0,0.005858888873877532
1533.0,0.005858888873877532
1532.0,0.005990966876386672
1531.0,0.005990966876386672
1530.0,0.005946936412324799
1529.0,0.00590291041179003
1528.0,0.00590291041179003
1527.0,0.005814871797682919
1526.0,0.005682847330363394
1525.0,0.005506877116487674
1524.0,0.00541891874010525
1523.0,0.005330978174470591
1522.0,0.005330978174470591
1521.0,0.005462895701502157
1520.0,0.005506877116487674
1519.0,0.005506877116487674
1518.0,0.005506877116487674
1517.0,0.005550862985963967
1516.0,0.005550862985963967
1515.0,0.005462895701502157
1514.0,0.005330978174470591
1513.0,0.0052870145684298375
1512.0,0.005199100705396198
1511.0,0.005067263269958211
1510.0,0.00489154225525934
1509.0,0.00489154225525934
1508.0,0.005243055412371911
1507.0,0.005814871797682919
1506.0,0.005946936412324799
1505.0,0.005814871797682919
1504.0,0.00577085918230158
1503.0,0.005726851026829571
1502.0,0.005638848091999105
1501.0,0.005638848091999105
1500.0,0.005682847330363394
1499.0,0.005682847330363394
1498.0,0.005550862985963967
1497.0,0.005550862985963967
1496.0,0.005550862985963967
1495.0,0.005462895701502157
1494.0,0.00537494623139545
1493.0,0.00537494623139545
1492.0,0.00541891874010525
1491.0,0.0052870145684298375
1490.0,0.005067263269958211
1489.0,0.005067263269958211
1488.0,0.0052870145684298375
1487.0,0.00537494623139545
1486.0,0.005462895701502157
1485.0,0.005682847330363394
1484.0,0.00590291041179003
1483.0,0.006035001804881146
1482.0,0.006299305179649828
1481.0,0.00696076819309055
1480.0,0.008065450281052211
1479.0,0.009794384815193347
1478.0,0.013317820220494436
1477.0,0.020406104151069693
1476.0,0.03189079887180224
1475.0,0.0469171560879138
1474.0,0.06348625752110681
1473.0,0.07587584681417514
1472.0,0.07763790321520991
1471.0,0.07191154033502922
1470.0,0.06570359318059427
1469.0,0.061380218497318895
1468.0,0.058836539841526925
1467.0,0.05863766428823891
1466.0,0.0630843190547461
1465.0,0.07365755337434488
1464.0,0.08592141461088798
1463.0,0.09274991711867164
1462.0,0.09156860103399356
1461.0,0.0838620168928248
1460.0,0.07221915065262552
1459.0,0.05948351506743288
1458.0,0.0486139051197072
1457.0,0.041579471947481794
1456.0,0.03767802727041558
1455.0,0.03517488211661135
1454.0,0.033060836978886954
1453.0,0.03081714076773867
1452.0,0.02863136320857662
1451.0,0.026872146400301444
1450.0,0.02558042614771394
1449.0,0.024568191490736968
1448.0,0.02365002099672653
1447.0,0.02300845469384938
1446.0,0.02255077261765881
1445.0,0.022093572362881675
1444.0,0.021636852916117055
1443.0,0.021271822861508305
1442.0,0.020952673052035298
1441.0,0.020542681902151694
1440.0,0.02004210665933459
1439.0,0.01954210772389997
1438.0,0.019178833355664393
1437.0,0.018815862601645694
1436.0,0.01840788278591865
1435.0,0.017955020928509757
1434.0,0.017547848615010242
1433.0,0.017050711425501408
1432.0,0.016418813294209356
1431.0,0.01578783323856614
1430.0,0.015247721884586563
1429.0,0.014708281407112
1428.0,0.014214382227394795
1427.0,0.01372104409400876
1426.0,0.013273040668781544
1425.0,0.012780770091995297
1424.0,0.012289056869694281
1423.0,0.012021084124518078
1422.0,0.011797899741219142
1421.0,0.011530229790124524
1420.0,0.011262724711199823
1419.0,0.011129033935354915
1418.0,0.010995384301463185
1417.0,0.01086177578421088
1416.0,0.010728208358306901
1415.0,0.010594681998483901
1414.0,0.01046119667949763
1413.0,0.01023881228122181
1412.0,0.010060986715464404
1411.0,0.009972101229705377
1410.0,0.009883233932095559
1409.0,0.009794384815193347
1408.0,0.009705553871561357
1407.0,0.009616741093766423
1406.0,0.009527946474380489
1405.0,0.009350411681145587
1404.0,0.009217308196862062
1403.0,0.009172949432521227
1402.0,0.009172949432521227
1401.0,0.00908424549391551
1400.0,0.009039900317800775
1399.0,0.009039900317800775
1398.0,0.00908424549391551
1397.0,0.00908424549391551
1396.0,0.00908424549391551
1395.0,0.00908424549391551
1394.0,0.009128595198514056
1393.0,0.00908424549391551
1392.0,0.009039900317800775
1391.0,0.00908424549391551
1390.0,0.00908424549391551
1389.0,0.008995559669244813
1388.0,0.008951223547323472
1387.0,0.008951223547323472
1386.0,0.009039900317800775
1385.0,0.009128595198514056
1384.0,0.009306039320248427
1383.0,0.009616741093766423
1382.0,0.009972101229705377
1381.0,0.010283280051895272
1380.0,0.010594681998483901
1379.0,0.01086177578421088
1378.0,0.010995384301463185
1377.0,0.010950843561779777
1376.0,0.010906307389674463
1375.0,0.010950843561779777
1374.0,0.01117359295472431
1373.0,0.011441043121384498
1372.0,0.011664044143949504
1371.0,0.011931796607364653
1370.0,0.01215504982870197
1369.0,0.012289056869694281
1368.0,0.012333735073725371
1367.0,0.012244383261476699
1366.0,0.012065734767841452
1365.0,0.011797899741219142
1364.0,0.011530229790124524
1363.0,0.011307297450183107
1362.0,0.01117359295472431
1361.0,0.011039929609661936
1360.0,0.010950843561779777
1359.0,0.010906307389674463
1358.0,0.010906307389674463
1357.0,0.010906307389674463
1356.0,0.01086177578421088
1355.0,0.01086177578421088
1354.0,0.01086177578421088
1353.0,0.010817248744452446
1352.0,0.01077272626946324
1351.0,0.010728208358306901
1350.0,0.010639186223752484
1349.0,0.010505687227290839
1348.0,0.010327752376126709
1347.0,0.010194349063173958
1346.0,0.010105436281226954
1345.0,0.009972101229705377
1344.0,0.009794384815193347
1343.0,0.009572341514736404
1342.0,0.009350411681145587
1341.0,0.009128595198514056
1340.0,0.008951223547323472
1339.0,0.008906891951112605
1338.0,0.008951223547323472
1337.0,0.008951223547323472
1336.0,0.008951223547323472
1335.0,0.008906891951112605
1334.0,0.008862564879688284
1333.0,0.008773924307505121
1332.0,0.0087296108049002
1331.0,0.008685301823389224
1330.0,0.008640997362049818
1329.0,0.008685301823389224
1328.0,0.0087296108049002
1327.0,0.008818242332126802
1326.0,0.008862564879688284
1325.0,0.008906891951112605
1324.0,0.008906891951112605
1323.0,0.008906891951112605
1322.0,0.008951223547323472
1321.0,0.009039900317800775
1320.0,0.00908424549391551
1319.0,0.009217308196862062
1318.0,0.009350411681145587
1317.0,0.009439170005980158
1316.0,0.009527946474380489
1315.0,0.009616741093766423
1314.0,0.009705553871561357
1313.0,0.009838807101520963
1312.0,0.009927665307847056
1311.0,0.01001654169860089
1310.0,0.010105436281226954
1309.0,0.010149890396819572
1308.0,0.010149890396819572
1307.0,0.010105436281226954
1306.0,0.010105436281226954
1305.0,0.010105436281226954
1304.0,0.010060986715464404
1303.0,0.010060986715464404
1302.0,0.01001654169860089
1301.0,0.009972101229705377
1300.0,0.009883233932095559
1299.0,0.009838807101520963
1298.0,0.00974996707218323
1297.0,0.009616741093766423
1296.0,0.009527946474380489
1295.0,0.00939478857608056
1294.0,0.009350411681145587
1293.0,0.009261671492462709
1292.0,0.009172949432521227
1291.0,0.00908424549391551
1290.0,0.009039900317800775
1289.0,0.008995559669244813
1288.0,0.008951223547323472
1287.0,0.008906891951112605
1286.0,0.008906891951112605
1285.0,0.008862564879688284
1284.0,0.008773924307505121
1283.0,0.0087296108049002
1282.0,0.008685301823389224
1281.0,0.008640997362049818
1280.0,0.008640997362049818
1279.0,0.008640997362049818
1278.0,0.008596697419959609
1277.0,0.00850811108984062
1276.0,0.008463824699968647
1275.0,0.00850811108984062
1274.0,0.008552401996197112
1273.0,0.008596697419959609
1272.0,0.008596697419959609
1271.0,0.008640997362049818
1270.0,0.008640997362049818
1269.0,0.008685301823389224
1268.0,0.008685301823389224
1267.0,0.0087296108049002
1266.0,0.008818242332126802
1265.0,0.008862564879688284
1264.0,0.008906891951112605
1263.0,0.008906891951112605
1262.0,0.008862564879688284
1261.0,0.008862564879688284
1260.0,0.008818242332126802
1259.0,0.008773924307505121
1258.0,0.0087296108049002
1257.0,0.008640997362049818
1256.0,0.008596697419959609
1255.0,0.00850811108984062
1254.0,0.008463824699968647
1253.0,0.008419542825660153
1252.0,0.008375265465994541
1251.0,0.008330992620051436
1250.0,0.008286724286910463
1249.0,0.008242460465651913
1248.0,0.008153946355103248
1247.0,0.008065450281052211
1246.0,0.008021209005416363
1245.0,0.007976972236149349
1244.0,0.007976972236149349
1243.0,0.007976972236149349
1242.0,0.008021209005416363
1241.0,0.008021209005416363
1240.0,0.007976972236149349
1239.0,0.007932739972333236
1238.0,0.007888512213050314
1237.0,0.007888512213050314
1236.0,0.007888512213050314
1235.0,0.007932739972333236
1234.0,0.007932739972333236
1233.0,0.007888512213050314
1232.0,0.007844288957383316
1231.0,0.007800070204414977
1230.0,0.007800070204414977
1229.0,0.007800070204414977
1228.0,0.007800070204414977
1227.0,0.007800070204414977
1226.0,0.007711646202907652
1225.0,0.007667440952535687
1224.0,0.00762324020119709
1223.0,0.00762324020119709
1222.0,0.007667440952535687
1221.0,0.007667440952535687
1220.0,0.0075790439479759275
1219.0,0.007534852191956709
1218.0,0.007490664932224611
1217.0,0.007490664932224611
1216.0,0.007490664932224611
1215.0,0.007534852191956709
1214.0,0.0075790439479759275
1213.0,0.0075790439479759275
1212.0,0.0075790439479759275
1211.0,0.0075790439479759275
1210.0,0.0075790439479759275
1209.0,0.007534852191956709
1208.0,0.007490664932224611
1207.0,0.0074464821678643656
1206.0,0.0074464821678643656
1205.0,0.007490664932224611
1204.0,0.007534852191956709
1203.0,0.0075790439479759275
1202.0,0.0075790439479759275
1201.0,0.007490664932224611
1200.0,0.007358130121602358
1199.0,0.007269796045857202
1198.0,0.007181479933320523
1197.0,0.007137328610972382
1196.0,0.007093181776687496
1195.0,0.007049039429553483
1194.0,0.007093181776687496
1193.0,0.007093181776687496
1192.0,0.007049039429553483
1191.0,0.007004901568658406
1190.0,0.007004901568658406
1189.0,0.00696076819309055
1188.0,0.00696076819309055
1187.0,0.00696076819309055
1186.0,0.007004901568658406
1185.0,0.007093181776687496
1184.0,0.007181479933320523
1183.0,0.007269796045857202
1182.0,0.007358130121602358
1181.0,0.007402303897961815
1180.0,0.007490664932224611
1179.0,0.0075790439479759275
1178.0,0.007667440952535687
1177.0,0.007755855953228474
1176.0,0.007800070204414977
1175.0,0.007844288957383316
1174.0,0.007932739972333236
1173.0,0.007976972236149349
1172.0,0.008021209005416363
1171.0,0.008065450281052211
1170.0,0.008065450281052211
1169.0,0.008065450281052211
1168.0,0.008021209005416363
1167.0,0.008021209005416363
1166.0,0.008065450281052211
1165.0,0.008065450281052211
1164.0,0.008065450281052211
1163.0,0.008109696063975047
1162.0,0.008242460465651913
1161.0,0.008330992620051436
1160.0,0.008330992620051436
1159.0,0.008330992620051436
1158.0,0.008330992620051436
1157.0,0.008286724286910463
1156.0,0.008286724286910463
1155.0,0.008242460465651913
1154.0,0.008153946355103248
1153.0,0.008021209005416363
1152.0,0.007932739972333236
1151.0,0.007844288957383316
1150.0,0.007800070204414977
1149.0,0.007755855953228474
1148.0,0.007711646202907652
1147.0,0.007667440952535687
1146.0,0.007667440952535687
1145.0,0.00762324020119709
1144.0,0.007534852191956709
1143.0,0.0074464821678643656
1142.0,0.007402303897961815
1141.0,0.007358130121602358
1140.0,0.007313960837872058
1139.0,0.007269796045857202
1138.0,0.007225635744644521
1137.0,0.007137328610972382
1136.0,0.007049039429553483
1135.0,0.007049039429553483
1134.0,0.007004901568658406
1133.0,0.006916639301937977
1132.0,0.006872514894289861
1131.0,0.006828394969235152
1130.0,0.006872514894289861
1129.0,0.00696076819309055
1128.0,0.00696076819309055
1127.0,0.00696076819309055
1126.0,0.00696076819309055
1125.0,0.00696076819309055
1124.0,0.00696076819309055
1123.0,0.007004901568658406
1122.0,0.007004901568658406
1121.0,0.00696076819309055
1120.0,0.006916639301937977
1119.0,0.00696076819309055
1118.0,0.007093181776687496
1117.0,0.007181479933320523
1116.0,0.007313960837872058
1115.0,0.007358130121602358
1114.0,0.007402303897961815
1113.0,0.007402303897961815
1112.0,0.007402303897961815
1111.0,0.0074464821678643656
1110.0,0.0075790439479759275
1109.0,0.007711646202907652
1108.0,0.007755855953228474
1107.0,0.007844288957383316
1106.0,0.007888512213050314
1105.0,0.007932739972333236
1104.0,0.007932739972333236
1103.0,0.007932739972333236
1102.0,0.007844288957383316
1101.0,0.007755855953228474
1100.0,0.007667440952535687
1099.0,0.007667440952535687
1098.0,0.007667440952535687
1097.0,0.007711646202907652
1096.0,0.007711646202907652
1095.0,0.007711646202907652
1094.0,0.007711646202907652
1093.0,0.00762324020119709
1092.0,0.0075790439479759275
1091.0,0.0075790439479759275
1090.0,0.00762324020119709
1089.0,0.007711646202907652
1088.0,0.007711646202907652
1087.0,0.007711646202907652
1086.0,0.007667440952535687
1085.0,0.00762324020119709
1084.0,0.0075790439479759275
1083.0,0.0075790439479759275
1082.0,0.007667440952535687
1081.0,0.007800070204414977
1080.0,0.007800070204414977
1079.0,0.007711646202907652
1078.0,0.007534852191956709
1077.0,0.007313960837872058
1076.0,0.007093181776687496
1075.0,0.00696076819309055
1074.0,0.006916639301937977
1073.0,0.006872514894289861
1072.0,0.006872514894289861
1071.0,0.006872514894289861
1070.0,0.006828394969235152
1069.0,0.006740168563263094
1068.0,0.006696062080525422
1067.0,0.006607862550997545
1066.0,0.00656376950238835
1065.0,0.006607862550997545
1064.0,0.006651960076740071
1063.0,0.006651960076740071
1062.0,0.006651960076740071
1061.0,0.006607862550997545
1060.0,0.006607862550997545
1059.0,0.006607862550997545
1058.0,0.006651960076740071
1057.0,0.006651960076740071
1056.0,0.006651960076740071
1055.0,0.006651960076740071
1054.0,0.006696062080525422
1053.0,0.006740168563263094
1052.0,0.006828394969235152
1051.0,0.006872514894289861
1050.0,0.006828394969235152
1049.0,0.006740168563263094
1048.0,0.006696062080525422
1047.0,0.006696062080525422
1046.0,0.006651960076740071
1045.0,0.006519680930003435
1044.0,0.006387442061109638
1043.0,0.00625524344553785
1042.0,0.00621118618129457
1041.0,0.00612308505878878
1040.0,0.006079041198713275
1039.0,0.006079041198713275
1038.0,0.006079041198713275
1037.0,0.006079041198713275
1036.0,0.006079041198713275
1035.0,0.006079041198713275
1034.0,0.00612308505878878
1033.0,0.00612308505878878
1032.0,0.006035001804881146
1031.0,0.005990966876386672
1030.0,0.00590291041179003
1029.0,0.005814871797682919
1028.0,0.00577085918230158
1027.0,0.005726851026829571
1026.0,0.00577085918230158
1025.0,0.00577085918230158
1024.0,0.005726851026829571
1023.0,0.005638848091999105
1022.0,0.005594853310833647
1021.0,0.005594853310833647
1020.0,0.005594853310833647
1019.0,0.005638848091999105
1018.0,0.005550862985963967
1017.0,0.005462895701502157
1016.0,0.00537494623139545
1015.0,0.005243055412371911
1014.0,0.005155150446602086
1013.0,0.005067263269958211
1012.0,0.004979393875242044
1011.0,0.004979393875242044
1010.0,0.004979393875242044
1009.0,0.004935465843858511
1008.0,0.00484762310854614
1007.0,0.004715892310740433
1006.0,0.004715892310740433
1005.0,0.004759798137184523
1004.0,0.00484762310854614
1003.0,0.00489154225525934
1002.0,0.00484762310854614
1001.0,0.004759798137184523
1000.0,0.004759798137184523
999.0,0.004803708402820517
998.0,0.00489154225525934
997.0,0.004935465843858511
996.0,0.004935465843858511
995.0,0.004979393875242044
994.0,0.004979393875242044
993.0,0.004935465843858511
992.0,0.004935465843858511
991.0,0.004935465843858511
990.0,0.005023326350308999
989.0,0.005067263269958211
988.0,0.005067263269958211
987.0,0.005023326350308999
986.0,0.004979393875242044
985.0,0.004979393875242044
984.0,0.00489154225525934
983.0,0.00484762310854614
982.0,0.00484762310854614
981.0,0.00484762310854614
980.0,0.004935465843858511
979.0,0.004979393875242044
978.0,0.005067263269958211
977.0,0.005111204635089406
976.0,0.005155150446602086
975.0,0.005155150446602086
974.0,0.005199100705396198
973.0,0.005199100705396198
972.0,0.005199100705396198
971.0,0.005111204635089406
970.0,0.005023326350308999
969.0,0.00489154225525934
968.0,0.004803708402820517
967.0,0.004671990922590297
966.0,0.00458420145758498
965.0,0.004540313378935901
964.0,0.004540313378935901
963.0,0.00458420145758498
962.0,0.00458420145758498
961.0,0.004540313378935901
960.0,0.0044964297349936455
959.0,0.0044964297349936455
958.0,0.004452550524862486
957.0,0.004452550524862486
956.0,0.004408675747646695
955.0,0.004408675747646695
954.0,0.004277078004534696
953.0,0.004145520125434121
952.0,0.003970171588923321
951.0,0.003926345514724705
950.0,0.003926345514724705
949.0,0.00401400208620073
948.0,0.0040578370074493275
947.0,0.004101676353562844
946.0,0.004189368323957332
945.0,0.004277078004534696
944.0,0.004320939488377862
943.0,0.004320939488377862
942.0,0.004320939488377862
941.0,0.0043648054024501
940.0,0.004408675747646695
939.0,0.004452550524862486
938.0,0.004452550524862486
937.0,0.004452550524862486
936.0,0.004540313378935901
935.0,0.004628093971837721
934.0,0.004715892310740433
933.0,0.004759798137184523
932.0,0.004759798137184523
931.0,0.00484762310854614
930.0,0.00484762310854614
929.0,0.00484762310854614
928.0,0.004803708402820517
927.0,0.00484762310854614
926.0,0.00489154225525934
925.0,0.004979393875242044
924.0,0.005023326350308999
923.0,0.005023326350308999
922.0,0.004979393875242044
921.0,0.004935465843858511
920.0,0.00489154225525934
919.0,0.00489154225525934
918.0,0.00489154225525934
917.0,0.00484762310854614
916.0,0.004759798137184523
915.0,0.004671990922590297
914.0,0.004628093971837721
913.0,0.00458420145758498
912.0,0.0044964297349936455
911.0,0.004408675747646695
910.0,0.004408675747646695
909.0,0.004408675747646695
908.0,0.004408675747646695
907.0,0.004408675747646695
906.0,0.004320939488377862
905.0,0.004189368323957332
904.0,0.0040578370074493275
903.0,0.003926345514724705
902.0,0.003794893821675638
901.0,0.003707281458678491
900.0,0.0036634819042162814
899.0,0.003619686766589858
898.0,0.0035321097382827737
897.0,0.0034445503666347133
896.0,0.0034007772998332353
895.0,0.0034445503666347133
894.0,0.0035758960449088217
893.0,0.0036634819042162814
892.0,0.0037510854308679953
891.0,0.003794893821675638
890.0,0.0038387066319929275
889.0,0.0038825238627120395
888.0,0.003926345514724705
887.0,0.003970171588923321
886.0,0.003970171588923321
885.0,0.003970171588923321
884.0,0.003926345514724705
883.0,0.003794893821675638
882.0,0.003707281458678491
881.0,0.0036634819042162814
880.0,0.003707281458678491
879.0,0.003794893821675638
878.0,0.0038387066319929275
877.0,0.0038387066319929275
876.0,0.0038825238627120395
875.0,0.003926345514724705
874.0,0.003926345514724705
873.0,0.003926345514724705
872.0,0.003970171588923321
871.0,0.004101676353562844
870.0,0.004277078004534696
869.0,0.004408675747646695
868.0,0.004408675747646695
867.0,0.004408675747646695
866.0,0.0043648054024501
865.0,0.004277078004534696
864.0,0.004277078004534696
863.0,0.004320939488377862
862.0,0.004452550524862486
861.0,0.0044964297349936455
860.0,0.0044964297349936455
859.0,0.0044964297349936455
858.0,0.004452550524862486
857.0,0.004452550524862486
856.0,0.004452550524862486
855.0,0.004452550524862486
854.0,0.004408675747646695
853.0,0.004277078004534696
852.0,0.004101676353562844
851.0,0.0040578370074493275
850.0,0.004101676353562844
849.0,0.004189368323957332
848.0,0.004233220950025984
847.0,0.004233220950025984
846.0,0.004145520125434121
845.0,0.003926345514724705
844.0,0.003707281458678491
843.0,0.0035321097382827737
842.0,0.0034445503666347133
841.0,0.0033570086445275926
840.0,0.0033132443998284966
839.0,0.0033570086445275926
838.0,0.0034445503666347133
837.0,0.0034445503666347133
836.0,0.0033132443998284966
835.0,0.0030944893043338695
834.0,0.0028758443407954637
833.0,0.0027447101798967477
832.0,0.002613615602686581
831.0,0.002569926202528716
830.0,0.0024388843664115978
829.0,0.0023078820582733695
828.0,0.0022205691343961664
827.0,0.0021769192542746563
826.0,0.0022205691343961664
825.0,0.0022205691343961664
824.0,0.0021769192542746563
823.0,0.0022205691343961664
822.0,0.002351545103793873
821.0,0.0024388843664115978
820.0,0.002395212539545666
819.0,0.0023078820582733695
818.0,0.0022205691343961664
817.0,0.0022642234021015284
816.0,0.002351545103793873
815.0,0.002482560585275184
814.0,0.002613615602686581
813.0,0.002701007590486082
812.0,0.0027447101798967477
811.0,0.0028321285541661467
810.0,0.0029195645282691363
809.0,0.0029632891174733444
808.0,0.0030070181092942683
807.0,0.003050751504618754
806.0,0.0030944893043338695
805.0,0.0031382315093266833
804.0,0.0031382315093266833
803.0,0.0031382315093266833
802.0,0.0030944893043338695
801.0,0.0031382315093266833
800.0,0.0033132443998284966
799.0,0.0035758960449088217
798.0,0.0038387066319929275
797.0,0.003970171588923321
796.0,0.0038825238627120395
795.0,0.0036634819042162814
794.0,0.0034007772998332353
793.0,0.0031382315093266833
792.0,0.0029195645282691363
791.0,0.0028321285541661467
790.0,0.0027884171674950053
789.0,0.0028321285541661467
788.0,0.0027884171674950053
787.0,0.0027447101798967477
786.0,0.002701007590486082
785.0,0.002613615602686581
784.0,0.002482560585275184
783.0,0.0023078820582733695
782.0,0.0021769192542746563
781.0,0.0020459959305969555
780.0,0.0020023635919956817
779.0,0.0019587356365717845
778.0,0.0018278780605593958
777.0,0.0015662811355310335
776.0,0.001304841688344327
775.0,0.0011741809597138886
774.0,0.0011741809597138886
773.0,0.001304841688344327
772.0,0.0013919706849057079
771.0,0.0014355417390583547
770.0,0.0014355417390583547
769.0,0.001348404001626502
768.0,0.0010435595295137379
767.0,0.0006084382809090627
766.0,0.00021720154586435392
765.0,4.343161980746579e-05
764.0,0.00026065489343207737
763.0,0.0007389288868995258
762.0,0.0012177301682640973
761.0,0.0014355417390583547
760.0,0.001304841688344327
759.0,0.0010870956412141197
758.0,0.0009129773741116676
757.0,0.0010435595295137379
756.0,0.0013919706849057079
755.0,0.0017842676290416026
754.0,0.0020459959305969555
753.0,0.0019587356365717845
752.0,0.0016534626036355249
751.0,0.0013919706849057079
750.0,0.0014355417390583547
749.0,0.0016534626036355249
748.0,0.0018714928717336043
747.0,0.0019587356365717845
746.0,0.0019587356365717845
745.0,0.002089632653256679
744.0,0.0022642234021015284
743.0,0.002569926202528716
742.0,0.0029632891174733444
741.0,0.0034445503666347133
740.0,0.003970171588923321
739.0,0.004803708402820517
738.0,0.00612308505878878
737.0,0.008153946355103248
736.0,0.011485634166333858
735.0,0.017638298366853045
734.0,0.028538594975413334
733.0,0.04455278942230456
732.0,0.0627329277885873
731.0,0.07685964397479927
730.0,0.08149786036382611
729.0,0.07644514193245056
728.0,0.06620911585658007
727.0,0.05635711724787096
726.0,0.04997609347667353
725.0,0.04778894189133087
724.0,0.04987865248862655
723.0,0.05690137699451481
722.0,0.06986635415888243
721.0,0.0870343792958963
720.0,0.10226297465457268
719.0,0.10768273927751948
718.0,0.10111034407341357
717.0,0.0870343792958963
716.0,0.07139934015547578
715.0,0.05769424710410598
714.0,0.04696554274964315
713.0,0.038816290187564384
712.0,0.03263926003405038
711.0,0.027750864037404455
710.0,0.023787622882622816
709.0,0.020633757603838898
708.0,0.018498511851753108
707.0,0.017231422748988034
706.0,0.01632861713980338
705.0,0.015202742910707112
704.0,0.013945219230304673
703.0,0.012914970375878188
702.0,0.012110390002254778
701.0,0.011351874764248926
700.0,0.010550182333308289
699.0,0.009794384815193347
698.0,0.009172949432521227
697.0,0.008685301823389224
696.0,0.008419542825660153
695.0,0.008330992620051436
694.0,0.007976972236149349
693.0,0.007313960837872058
692.0,0.006696062080525422
691.0,0.006519680930003435
690.0,0.006784279525863024
689.0,0.007004901568658406
688.0,0.006916639301937977
687.0,0.006784279525863024
686.0,0.006916639301937977
685.0,0.007093181776687496
684.0,0.007181479933320523
683.0,0.00696076819309055
682.0,0.006387442061109638
681.0,0.005638848091999105
680.0,0.005023326350308999
679.0,0.004715892310740433
678.0,0.00458420145758498
677.0,0.004452550524862486
676.0,0.0043648054024501
675.0,0.004452550524862486
674.0,0.00458420145758498
673.0,0.004628093971837721
672.0,0.004715892310740433
671.0,0.005067263269958211
670.0,0.005506877116487674
669.0,0.005023326350308999
668.0,0.004408675747646695
667.0,0.005243055412371911
666.0,0.0052870145684298375
665.0,0.003794893821675638
664.0,0.0024388843664115978
663.0,0.0019587356365717845
662.0,0.0017842676290416026
661.0,0.0011306361176557367
660.0,-4.3427276862573194e-05
659.0,-0.0009543984064577238
658.0,-0.0011710149414008164
657.0,-0.0009110621312231615
656.0,-0.0007376737740329986
655.0,-0.0008677215312267172
654.0,-0.0013875234866409514
653.0,-0.0021660617565077978
652.0,-0.002900068611387585
651.0,-0.003115717099805959
650.0,-0.0025548081484823015
649.0,-0.0016471913460383014
648.0,-0.0008677215312267172
647.0,-0.0004774613744551459
646.0,-0.00030389978481260016
645.0,-0.00021709297223004853
644.0,0.0001303078917322953
643.0,0.0009565003968372565
642.0,0.0020023635919956817
641.0,0.0028321285541661467
640.0,0.003050751504618754
639.0,0.0029632891174733444
638.0,0.0030070181092942683
637.0,0.0035758960449088217
636.0,0.00458420145758498
635.0,0.00537494623139545
634.0,0.0052870145684298375
633.0,0.004320939488377862
632.0,0.0034445503666347133
631.0,0.0033132443998284966
630.0,0.003707281458678491
629.0,0.003970171588923321
628.0,0.004189368323957332
627.0,0.0044964297349936455
626.0,0.004979393875242044
625.0,0.005462895701502157
624.0,0.006035001804881146
623.0,0.006740168563263094
622.0,0.007093181776687496
621.0,0.006299305179649828
620.0,0.0043648054024501
619.0,0.002395212539545666
618.0,0.0016970599014589638
617.0,0.0023078820582733695
616.0,0.0031819781204844855
615.0,0.0035321097382827737
614.0,0.0033132443998284966
613.0,0.0030944893043338695
612.0,0.0031382315093266833
611.0,0.003488327845821315
610.0,0.003926345514724705
609.0,0.004145520125434121
608.0,0.004101676353562844
607.0,0.003707281458678491
606.0,0.0028758443407954637
605.0,0.0017842676290416026
604.0,0.0006084382809090627
603.0,-0.0003472966853634851
602.0,-0.0011277002770349043
601.0,-0.0018634626925240205
600.0,-0.0025116312849080558
