cm-1,A
4000.0,0.0211806132671577
3999.0,0.02122621566987748
3998.0,0.021317434843055594
3997.0,0.02140867317992523
3996.0,0.021499930688540836
3995.0,0.02159120737696063
3994.0,0.02159120737696063
3993.0,0.021499930688540836
3992.0,0.02140867317992523
3991.0,0.021363051615525652
3990.0,0.021317434843055594
3989.0,0.021317434843055594
3988.0,0.021363051615525652
3987.0,0.021317434843055594
3986.0,0.02122621566987748
3985.0,0.021043834782408455
3984.0,0.020907099361673565
3983.0,0.020907099361673565
3982.0,0.020952673052035298
3981.0,0.021089422824428272
3980.0,0.02122621566987748
3979.0,0.021317434843055594
3978.0,0.021363051615525652
3977.0,0.021363051615525652
3976.0,0.021363051615525652
3975.0,0.021363051615525652
3974.0,0.021363051615525652
3973.0,0.021363051615525652
3972.0,0.021317434843055594
3971.0,0.021271822861508305
3970.0,0.021271822861508305
3969.0,0.021271822861508305
3968.0,0.021271822861508305
3967.0,0.02122621566987748
3966.0,0.021135015652343103
3965.0,0.021089422824428272
3964.0,0.021089422824428272
3963.0,0.021089422824428272
3962.0,0.021135015652343103
3961.0,0.021135015652343103
3960.0,0.0211806132671577
3959.0,0.02122621566987748
3958.0,0.021271822861508305
3957.0,0.021317434843055594
3956.0,0.021317434843055594
3955.0,0.021271822861508305
3954.0,0.02122621566987748
3953.0,0.0211806132671577
3952.0,0.021089422824428272
3951.0,0.021043834782408455
3950.0,0.0209982515252789
3949.0,0.021043834782408455
3948.0,0.021043834782408455
3947.0,0.0209982515252789
3946.0,0.021043834782408455
3945.0,0.021135015652343103
3944.0,0.021271822861508305
3943.0,0.021363051615525652
3942.0,0.021317434843055594
3941.0,0.0211806132671577
3940.0,0.021089422824428272
3939.0,0.0211806132671577
3938.0,0.02122621566987748
3937.0,0.02122621566987748
3936.0,0.021089422824428272
3935.0,0.0209982515252789
3934.0,0.0209982515252789
3933.0,0.021135015652343103
3932.0,0.021271822861508305
3931.0,0.021363051615525652
3930.0,0.021317434843055594
3929.0,0.02122621566987748
3928.0,0.0211806132671577
3927.0,0.02122621566987748
3926.0,0.021363051615525652
3925.0,0.021363051615525652
3924.0,0.0211806132671577
3923.0,0.020861530453190058
3922.0,0.02067930261797568
3921.0,0.02067930261797568
3920.0,0.02081596632558158
3919.0,0.0209982515252789
3918.0,0.021135015652343103
3917.0,0.0211806132671577
3916.0,0.021043834782408455
3915.0,0.020952673052035298
3914.0,0.021043834782408455
3913.0,0.02122621566987748
3912.0,0.0214542995372613
3911.0,0.02159120737696063
3910.0,0.021636852916117055
3909.0,0.0214542995372613
3908.0,0.021135015652343103
3907.0,0.020724852408976924
3906.0,0.020315076172974234
3905.0,0.02004210665933459
3904.0,0.01995115493504329
3903.0,0.01995115493504329
3902.0,0.020087589665283012
3901.0,0.020406104151069693
3900.0,0.020770406977844713
3899.0,0.020952673052035298
3898.0,0.021043834782408455
3897.0,0.021135015652343103
3896.0,0.0211806132671577
3895.0,0.0211806132671577
3894.0,0.021135015652343103
3893.0,0.021135015652343103
3892.0,0.02122621566987748
3891.0,0.021089422824428272
3890.0,0.020770406977844713
3889.0,0.02058821736556471
3888.0,0.02067930261797568
3887.0,0.0209982515252789
3886.0,0.0211806132671577
3885.0,0.0209982515252789
3884.0,0.020724852408976924
3883.0,0.020770406977844713
3882.0,0.02122621566987748
3881.0,0.021728158389364705
3880.0,0.021819483062586187
3879.0,0.0214542995372613
3878.0,0.021089422824428272
3877.0,0.0209982515252789
3876.0,0.021043834782408455
3875.0,0.020907099361673565
3874.0,0.020497151212598652
3873.0,0.019996628416253603
3872.0,0.019860222254245663
3871.0,0.02022406727031445
3870.0,0.020633757603838898
3869.0,0.02067930261797568
3868.0,0.020542681902151694
3867.0,0.020633757603838898
3866.0,0.020952673052035298
3865.0,0.021271822861508305
3864.0,0.0214542995372613
3863.0,0.0214542995372613
3862.0,0.02140867317992523
3861.0,0.021317434843055594
3860.0,0.0211806132671577
3859.0,0.020952673052035298
3858.0,0.02058821736556471
3857.0,0.02004210665933459
3856.0,0.01949668180660491
3855.0,0.019360432556262852
3854.0,0.019769308608968306
3853.0,0.019769308608968306
3852.0,0.019269623464054586
3851.0,0.019360432556262852
3850.0,0.02013307743509718
3849.0,0.020861530453190058
3848.0,0.021135015652343103
3847.0,0.021135015652343103
3846.0,0.0209982515252789
3845.0,0.02081596632558158
3844.0,0.02058821736556471
3843.0,0.02022406727031445
3842.0,0.019769308608968306
3841.0,0.01949668180660491
3840.0,0.019451260640229506
3839.0,0.01958753839310856
3838.0,0.019723858922159776
3837.0,0.019723858922159776
3836.0,0.019769308608968306
3835.0,0.019996628416253603
3834.0,0.020406104151069693
3833.0,0.020770406977844713
3832.0,0.021043834782408455
3831.0,0.021089422824428272
3830.0,0.021043834782408455
3829.0,0.021089422824428272
3828.0,0.021271822861508305
3827.0,0.021499930688540836
3826.0,0.0214542995372613
3825.0,0.021135015652343103
3824.0,0.02081596632558158
3823.0,0.020724852408976924
3822.0,0.020907099361673565
3821.0,0.020952673052035298
3820.0,0.02045162529590483
3819.0,0.019996628416253603
3818.0,0.02022406727031445
3817.0,0.02081596632558158
3816.0,0.021271822861508305
3815.0,0.021271822861508305
3814.0,0.0211806132671577
3813.0,0.02140867317992523
3812.0,0.021728158389364705
3811.0,0.021773818325474092
3810.0,0.02159120737696063
3809.0,0.021545566634771474
3808.0,0.02168250325324883
3807.0,0.021636852916117055
3806.0,0.0211806132671577
3805.0,0.02058821736556471
3804.0,0.020406104151069693
3803.0,0.020724852408976924
3802.0,0.021271822861508305
3801.0,0.021363051615525652
3800.0,0.020907099361673565
3799.0,0.02081596632558158
3798.0,0.021271822861508305
3797.0,0.021773818325474092
3796.0,0.02200219004126036
3795.0,0.021956506090037076
3794.0,0.021865152601710403
3793.0,0.021910826943857264
3792.0,0.02204787879853809
3791.0,0.022139270735302752
3790.0,0.022139270735302752
3789.0,0.02204787879853809
3788.0,0.021956506090037076
3787.0,0.021956506090037076
3786.0,0.02204787879853809
3785.0,0.02204787879853809
3784.0,0.021956506090037076
3783.0,0.021728158389364705
3782.0,0.021636852916117055
3781.0,0.021819483062586187
3780.0,0.0221849739168134
3779.0,0.022413561996148967
3778.0,0.022322112326006227
3777.0,0.0221849739168134
3776.0,0.022139270735302752
3775.0,0.02204787879853809
3774.0,0.021910826943857264
3773.0,0.021819483062586187
3772.0,0.021910826943857264
3771.0,0.022139270735302752
3770.0,0.022230681908425698
3769.0,0.02204787879853809
3768.0,0.021865152601710403
3767.0,0.02200219004126036
3766.0,0.022322112326006227
3765.0,0.022413561996148967
3764.0,0.0221849739168134
3763.0,0.021865152601710403
3762.0,0.021728158389364705
3761.0,0.021728158389364705
3760.0,0.021819483062586187
3759.0,0.021910826943857264
3758.0,0.021773818325474092
3757.0,0.021545566634771474
3756.0,0.02122621566987748
3755.0,0.020861530453190058
3754.0,0.02045162529590483
3753.0,0.02013307743509718
3752.0,0.020178569969774962
3751.0,0.02045162529590483
3750.0,0.02045162529590483
3749.0,0.020087589665283012
3748.0,0.019814763052665052
3747.0,0.01990568621470623
3746.0,0.020406104151069693
3745.0,0.021089422824428272
3744.0,0.021089422824428272
3743.0,0.020542681902151694
3742.0,0.02045162529590483
3741.0,0.020907099361673565
3740.0,0.0211806132671577
3739.0,0.020952673052035298
3738.0,0.020497151212598652
3737.0,0.02022406727031445
3736.0,0.02026956933771462
3735.0,0.02045162529590483
3734.0,0.020542681902151694
3733.0,0.020724852408976924
3732.0,0.020907099361673565
3731.0,0.021043834782408455
3730.0,0.02122621566987748
3729.0,0.021499930688540836
3728.0,0.021728158389364705
3727.0,0.021819483062586187
3726.0,0.02168250325324883
3725.0,0.0214542995372613
3724.0,0.0214542995372613
3723.0,0.02159120737696063
3722.0,0.021819483062586187
3721.0,0.02200219004126036
3720.0,0.022139270735302752
3719.0,0.02227639471115217
3718.0,0.02227639471115217
3717.0,0.02200219004126036
3716.0,0.02159120737696063
3715.0,0.02122621566987748
3714.0,0.020952673052035298
3713.0,0.021043834782408455
3712.0,0.02140867317992523
3711.0,0.02159120737696063
3710.0,0.021545566634771474
3709.0,0.0214542995372613
3708.0,0.021545566634771474
3707.0,0.021728158389364705
3706.0,0.021819483062586187
3705.0,0.021865152601710403
3704.0,0.021865152601710403
3703.0,0.021956506090037076
3702.0,0.02204787879853809
3701.0,0.02200219004126036
3700.0,0.021956506090037076
3699.0,0.02204787879853809
3698.0,0.02227639471115217
3697.0,0.022413561996148967
3696.0,0.022367834754000393
3695.0,0.022139270735302752
3694.0,0.021728158389364705
3693.0,0.021317434843055594
3692.0,0.0209982515252789
3691.0,0.020907099361673565
3690.0,0.0211806132671577
3689.0,0.02140867317992523
3688.0,0.021363051615525652
3687.0,0.021363051615525652
3686.0,0.02168250325324883
3685.0,0.022093572362881675
3684.0,0.022322112326006227
3683.0,0.02227639471115217
3682.0,0.022093572362881675
3681.0,0.021773818325474092
3680.0,0.021363051615525652
3679.0,0.020770406977844713
3678.0,0.020315076172974234
3677.0,0.02045162529590483
3676.0,0.021043834782408455
3675.0,0.0211806132671577
3674.0,0.02058821736556471
3673.0,0.02036058777709271
3672.0,0.02067930261797568
3671.0,0.02122621566987748
3670.0,0.02168250325324883
3669.0,0.021773818325474092
3668.0,0.021728158389364705
3667.0,0.02204787879853809
3666.0,0.022505030926963654
3665.0,0.022871099419317753
3664.0,0.023054249440757957
3663.0,0.023054249440757957
3662.0,0.02296266477531872
3661.0,0.02277955336461468
3660.0,0.02259651912656535
3659.0,0.02245929405346514
3658.0,0.02259651912656535
3657.0,0.02277955336461468
3656.0,0.02282532397981263
3655.0,0.022505030926963654
3654.0,0.02204787879853809
3653.0,0.021636852916117055
3652.0,0.021271822861508305
3651.0,0.021135015652343103
3650.0,0.0214542995372613
3649.0,0.021865152601710403
3648.0,0.02200219004126036
3647.0,0.022139270735302752
3646.0,0.022367834754000393
3645.0,0.022688026603074007
3644.0,0.02296266477531872
3643.0,0.02314585342378117
3642.0,0.023191662661933732
3641.0,0.023237476732539397
3640.0,0.023283295636617574
3639.0,0.023283295636617574
3638.0,0.023237476732539397
3637.0,0.02314585342378117
3636.0,0.023054249440757957
3635.0,0.02300845469384938
3634.0,0.02282532397981263
3633.0,0.02245929405346514
3632.0,0.02200219004126036
3631.0,0.02168250325324883
3630.0,0.021819483062586187
3629.0,0.02227639471115217
3628.0,0.022367834754000393
3627.0,0.022322112326006227
3626.0,0.022642270454698687
3625.0,0.023054249440757957
3624.0,0.023191662661933732
3623.0,0.02300845469384938
3622.0,0.022733787572707387
3621.0,0.022688026603074007
3620.0,0.02291687968414724
3619.0,0.023100049017062307
3618.0,0.023054249440757957
3617.0,0.02291687968414724
3616.0,0.02296266477531872
3615.0,0.023054249440757957
3614.0,0.02314585342378117
3613.0,0.023054249440757957
3612.0,0.02291687968414724
3611.0,0.022871099419317753
3610.0,0.023054249440757957
3609.0,0.02342078135989012
3608.0,0.023833499868024743
3607.0,0.023971159908874107
3606.0,0.024017056287453542
3605.0,0.023925268380126097
3604.0,0.023833499868024743
3603.0,0.023741750742954926
3602.0,0.023741750742954926
3601.0,0.023741750742954926
3600.0,0.023787622882622816
3599.0,0.023741750742954926
3598.0,0.023695883447997224
3597.0,0.02365002099672653
3596.0,0.023741750742954926
3595.0,0.023833499868024743
3594.0,0.023879381700184332
3593.0,0.023879381700184332
3592.0,0.023741750742954926
3591.0,0.02351246269481
3590.0,0.023237476732539397
3589.0,0.023054249440757957
3588.0,0.023100049017062307
3587.0,0.02314585342378117
3586.0,0.023283295636617574
3585.0,0.02351246269481
3584.0,0.023879381700184332
3583.0,0.024246610963712723
3582.0,0.024338466818941473
3581.0,0.024338466818941473
3580.0,0.024200690320592466
3579.0,0.024154774532432866
3578.0,0.024200690320592466
3577.0,0.024338466818941473
3576.0,0.024476287039668643
3575.0,0.024660115394541604
3574.0,0.024706084643793647
3573.0,0.024660115394541604
3572.0,0.02438440203310499
3571.0,0.024017056287453542
3570.0,0.023604163388120325
3569.0,0.023374947949272418
3568.0,0.023466619608062178
3567.0,0.023833499868024743
3566.0,0.024017056287453542
3565.0,0.024154774532432866
3564.0,0.024246610963712723
3563.0,0.024430342106337877
3562.0,0.024568191490736968
3561.0,0.024706084643793647
3560.0,0.024798037742147727
3559.0,0.02484402159331056
3558.0,0.02484402159331056
3557.0,0.02475205875931885
3556.0,0.024706084643793647
3555.0,0.024706084643793647
3554.0,0.024706084643793647
3553.0,0.024706084643793647
3552.0,0.02461415101053266
3551.0,0.024522236834125355
3550.0,0.024430342106337877
3549.0,0.024476287039668643
3548.0,0.02461415101053266
3547.0,0.024706084643793647
3546.0,0.02484402159331056
3545.0,0.024936003904763915
3544.0,0.025074013910237447
3543.0,0.02516604495145991
3542.0,0.025258095499050004
3541.0,0.025350165561278004
3540.0,0.02539620791296726
3539.0,0.025350165561278004
3538.0,0.025304128090317013
3537.0,0.02521206778644225
3536.0,0.02516604495145991
3535.0,0.02521206778644225
3534.0,0.025304128090317013
3533.0,0.02539620791296726
3532.0,0.02544225514642018
3531.0,0.02539620791296726
3530.0,0.025350165561278004
3529.0,0.02521206778644225
3528.0,0.025074013910237447
3527.0,0.024890010313838973
3526.0,0.02475205875931885
3525.0,0.02475205875931885
3524.0,0.024936003904763915
3523.0,0.02512002699306959
3522.0,0.025258095499050004
3521.0,0.025304128090317013
3520.0,0.025350165561278004
3519.0,0.02539620791296726
3518.0,0.02544225514642018
3517.0,0.025488307262671706
3516.0,0.025488307262671706
3515.0,0.02558042614771394
3514.0,0.02562649291857677
3513.0,0.025672564576383117
3512.0,0.02558042614771394
3511.0,0.02539620791296726
3510.0,0.02521206778644225
3509.0,0.02512002699306959
3508.0,0.025074013910237447
3507.0,0.025074013910237447
3506.0,0.02516604495145991
3505.0,0.025304128090317013
3504.0,0.025350165561278004
3503.0,0.025350165561278004
3502.0,0.025258095499050004
3501.0,0.02521206778644225
3500.0,0.025304128090317013
3499.0,0.02544225514642018
3498.0,0.02553436426275746
3497.0,0.02558042614771394
3496.0,0.025672564576383117
3495.0,0.025856900097785074
3494.0,0.025995203102585407
3493.0,0.026041313893296225
3492.0,0.025995203102585407
3491.0,0.025902996205869
3490.0,0.025810808881832736
3489.0,0.025810808881832736
3488.0,0.025764722556973707
3487.0,0.025672564576383117
3486.0,0.02558042614771394
3485.0,0.02544225514642018
3484.0,0.025350165561278004
3483.0,0.025304128090317013
3482.0,0.025304128090317013
3481.0,0.025350165561278004
3480.0,0.025488307262671706
3479.0,0.025718641122169483
3478.0,0.025949097207122573
3477.0,0.02613355016462182
3476.0,0.026225806029419818
3475.0,0.026225806029419818
3474.0,0.026225806029419818
3473.0,0.02617967564731627
3472.0,0.02617967564731627
3471.0,0.02617967564731627
3470.0,0.02617967564731627
3469.0,0.02613355016462182
3468.0,0.025995203102585407
3467.0,0.025902996205869
3466.0,0.025764722556973707
3465.0,0.025672564576383117
3464.0,0.02553436426275746
3463.0,0.02544225514642018
3462.0,0.02544225514642018
3461.0,0.02558042614771394
3460.0,0.025764722556973707
3459.0,0.025902996205869
3458.0,0.025995203102585407
3457.0,0.025995203102585407
3456.0,0.025949097207122573
3455.0,0.025902996205869
3454.0,0.025949097207122573
3453.0,0.025995203102585407
3452.0,0.026087429580295085
3451.0,0.026087429580295085
3450.0,0.026041313893296225
3449.0,0.025995203102585407
3448.0,0.025902996205869
3447.0,0.025764722556973707
3446.0,0.025672564576383117
3445.0,0.02558042614771394
3444.0,0.02558042614771394
3443.0,0.025672564576383117
3442.0,0.025764722556973707
3441.0,0.025764722556973707
3440.0,0.025718641122169483
3439.0,0.02558042614771394
3438.0,0.02553436426275746
3437.0,0.025488307262671706
3436.0,0.02558042614771394
3435.0,0.025718641122169483
3434.0,0.025856900097785074
3433.0,0.025949097207122573
3432.0,0.025902996205869
3431.0,0.025856900097785074
3430.0,0.025810808881832736
3429.0,0.025902996205869
3428.0,0.026087429580295085
3427.0,0.026318081496016443
3426.0,0.026502691267936695
3425.0,0.02664120011360227
3424.0,0.02664120011360227
3423.0,0.02654885597506529
3422.0,0.026456531467510258
3421.0,0.026410376572743033
3420.0,0.02636422658259252
3419.0,0.02636422658259252
3418.0,0.026318081496016443
3417.0,0.026225806029419818
3416.0,0.026041313893296225
3415.0,0.025902996205869
3414.0,0.025810808881832736
3413.0,0.025810808881832736
3412.0,0.025949097207122573
3411.0,0.026087429580295085
3410.0,0.026225806029419818
3409.0,0.02636422658259252
3408.0,0.026456531467510258
3407.0,0.02654885597506529
3406.0,0.026502691267936695
3405.0,0.026410376572743033
3404.0,0.026271941311972746
3403.0,0.02613355016462182
3402.0,0.026087429580295085
3401.0,0.026041313893296225
3400.0,0.026087429580295085
3399.0,0.02617967564731627
3398.0,0.026225806029419818
3397.0,0.026225806029419818
3396.0,0.026225806029419818
3395.0,0.02617967564731627
3394.0,0.02617967564731627
3393.0,0.02617967564731627
3392.0,0.02613355016462182
3391.0,0.02613355016462182
3390.0,0.02613355016462182
3389.0,0.026041313893296225
3388.0,0.025902996205869
3387.0,0.025856900097785074
3386.0,0.025995203102585407
3385.0,0.026271941311972746
3384.0,0.026502691267936695
3383.0,0.026595025589939425
3382.0,0.026502691267936695
3381.0,0.026318081496016443
3380.0,0.026271941311972746
3379.0,0.026271941311972746
3378.0,0.02636422658259252
3377.0,0.026410376572743033
3376.0,0.026410376572743033
3375.0,0.02636422658259252
3374.0,0.026225806029419818
3373.0,0.026041313893296225
3372.0,0.025902996205869
3371.0,0.025856900097785074
3370.0,0.025902996205869
3369.0,0.025949097207122573
3368.0,0.025949097207122573
3367.0,0.025856900097785074
3366.0,0.025810808881832736
3365.0,0.025764722556973707
3364.0,0.025764722556973707
3363.0,0.025856900097785074
3362.0,0.025995203102585407
3361.0,0.02613355016462182
3360.0,0.02617967564731627
3359.0,0.02617967564731627
3358.0,0.026041313893296225
3357.0,0.025902996205869
3356.0,0.025764722556973707
3355.0,0.02562649291857677
3354.0,0.02562649291857677
3353.0,0.025764722556973707
3352.0,0.025995203102585407
3351.0,0.02617967564731627
3350.0,0.026318081496016443
3349.0,0.026410376572743033
3348.0,0.026410376572743033
3347.0,0.026456531467510258
3346.0,0.026410376572743033
3345.0,0.026271941311972746
3344.0,0.026087429580295085
3343.0,0.025949097207122573
3342.0,0.025856900097785074
3341.0,0.025810808881832736
3340.0,0.025764722556973707
3339.0,0.025718641122169483
3338.0,0.025672564576383117
3337.0,0.02562649291857677
3336.0,0.025672564576383117
3335.0,0.025764722556973707
3334.0,0.025856900097785074
3333.0,0.025949097207122573
3332.0,0.026041313893296225
3331.0,0.026041313893296225
3330.0,0.026041313893296225
3329.0,0.025995203102585407
3328.0,0.025949097207122573
3327.0,0.025810808881832736
3326.0,0.025672564576383117
3325.0,0.02562649291857677
3324.0,0.025672564576383117
3323.0,0.025718641122169483
3322.0,0.025764722556973707
3321.0,0.025718641122169483
3320.0,0.025718641122169483
3319.0,0.025810808881832736
3318.0,0.025949097207122573
3317.0,0.026041313893296225
3316.0,0.026041313893296225
3315.0,0.025949097207122573
3314.0,0.025856900097785074
3313.0,0.025949097207122573
3312.0,0.02613355016462182
3311.0,0.026271941311972746
3310.0,0.02617967564731627
3309.0,0.025949097207122573
3308.0,0.025672564576383117
3307.0,0.025488307262671706
3306.0,0.02539620791296726
3305.0,0.025350165561278004
3304.0,0.02539620791296726
3303.0,0.025488307262671706
3302.0,0.025672564576383117
3301.0,0.025810808881832736
3300.0,0.025856900097785074
3299.0,0.025902996205869
3298.0,0.025856900097785074
3297.0,0.025764722556973707
3296.0,0.02562649291857677
3295.0,0.025488307262671706
3294.0,0.02544225514642018
3293.0,0.02553436426275746
3292.0,0.025718641122169483
3291.0,0.025902996205869
3290.0,0.026041313893296225
3289.0,0.025995203102585407
3288.0,0.025949097207122573
3287.0,0.025856900097785074
3286.0,0.025764722556973707
3285.0,0.025672564576383117
3284.0,0.02558042614771394
3283.0,0.025488307262671706
3282.0,0.02544225514642018
3281.0,0.025350165561278004
3280.0,0.025258095499050004
3279.0,0.02512002699306959
3278.0,0.025028005701930978
3277.0,0.02498200236711723
3276.0,0.025028005701930978
3275.0,0.025074013910237447
3274.0,0.02516604495145991
3273.0,0.025258095499050004
3272.0,0.02544225514642018
3271.0,0.02562649291857677
3270.0,0.025764722556973707
3269.0,0.025810808881832736
3268.0,0.025764722556973707
3267.0,0.025810808881832736
3266.0,0.025902996205869
3265.0,0.026041313893296225
3264.0,0.026087429580295085
3263.0,0.025995203102585407
3262.0,0.025856900097785074
3261.0,0.025672564576383117
3260.0,0.02553436426275746
3259.0,0.02544225514642018
3258.0,0.02539620791296726
3257.0,0.02539620791296726
3256.0,0.02539620791296726
3255.0,0.02539620791296726
3254.0,0.025350165561278004
3253.0,0.02521206778644225
3252.0,0.02512002699306959
3251.0,0.02512002699306959
3250.0,0.02521206778644225
3249.0,0.025304128090317013
3248.0,0.025304128090317013
3247.0,0.025258095499050004
3246.0,0.025304128090317013
3245.0,0.025304128090317013
3244.0,0.025304128090317013
3243.0,0.02521206778644225
3242.0,0.02512002699306959
3241.0,0.025028005701930978
3240.0,0.025028005701930978
3239.0,0.02512002699306959
3238.0,0.025258095499050004
3237.0,0.02539620791296726
3236.0,0.025488307262671706
3235.0,0.02553436426275746
3234.0,0.025488307262671706
3233.0,0.02544225514642018
3232.0,0.02544225514642018
3231.0,0.025488307262671706
3230.0,0.02562649291857677
3229.0,0.025718641122169483
3228.0,0.025764722556973707
3227.0,0.025718641122169483
3226.0,0.02562649291857677
3225.0,0.02553436426275746
3224.0,0.025350165561278004
3223.0,0.02521206778644225
3222.0,0.02512002699306959
3221.0,0.025074013910237447
3220.0,0.025074013910237447
3219.0,0.02512002699306959
3218.0,0.02516604495145991
3217.0,0.02521206778644225
3216.0,0.025258095499050004
3215.0,0.02521206778644225
3214.0,0.02516604495145991
3213.0,0.025074013910237447
3212.0,0.025074013910237447
3211.0,0.02512002699306959
3210.0,0.02516604495145991
3209.0,0.025258095499050004
3208.0,0.025258095499050004
3207.0,0.025258095499050004
3206.0,0.02521206778644225
3205.0,0.02516604495145991
3204.0,0.02516604495145991
3203.0,0.02512002699306959
3202.0,0.025028005701930978
3201.0,0.02484402159331056
3200.0,0.02475205875931885
3199.0,0.024706084643793647
3198.0,0.024798037742147727
3197.0,0.02484402159331056
3196.0,0.024798037742147727
3195.0,0.02484402159331056
3194.0,0.024890010313838973
3193.0,0.025028005701930978
3192.0,0.02516604495145991
3191.0,0.02516604495145991
3190.0,0.02512002699306959
3189.0,0.025028005701930978
3188.0,0.024936003904763915
3187.0,0.02484402159331056
3186.0,0.024798037742147727
3185.0,0.024706084643793647
3184.0,0.024706084643793647
3183.0,0.024706084643793647
3182.0,0.024798037742147727
3181.0,0.02484402159331056
3180.0,0.024936003904763915
3179.0,0.02498200236711723
3178.0,0.02498200236711723
3177.0,0.02498200236711723
3176.0,0.02484402159331056
3175.0,0.024706084643793647
3174.0,0.024568191490736968
3173.0,0.024476287039668643
3172.0,0.024430342106337877
3171.0,0.024430342106337877
3170.0,0.024430342106337877
3169.0,0.024476287039668643
3168.0,0.024522236834125355
3167.0,0.024568191490736968
3166.0,0.02461415101053266
3165.0,0.024660115394541604
3164.0,0.024706084643793647
3163.0,0.02475205875931885
3162.0,0.024798037742147727
3161.0,0.024798037742147727
3160.0,0.024798037742147727
3159.0,0.024798037742147727
3158.0,0.024706084643793647
3157.0,0.024568191490736968
3156.0,0.024476287039668643
3155.0,0.024476287039668643
3154.0,0.024568191490736968
3153.0,0.02461415101053266
3152.0,0.02461415101053266
3151.0,0.024522236834125355
3150.0,0.02438440203310499
3149.0,0.024292536462819925
3148.0,0.024200690320592466
3147.0,0.024200690320592466
3146.0,0.024246610963712723
3145.0,0.024200690320592466
3144.0,0.024200690320592466
3143.0,0.024200690320592466
3142.0,0.024200690320592466
3141.0,0.024200690320592466
3140.0,0.024108863598207186
3139.0,0.024017056287453542
3138.0,0.023925268380126097
3137.0,0.023833499868024743
3136.0,0.023833499868024743
3135.0,0.023925268380126097
3134.0,0.02406295751688936
3133.0,0.024108863598207186
3132.0,0.024108863598207186
3131.0,0.024017056287453542
3130.0,0.024017056287453542
3129.0,0.024017056287453542
3128.0,0.02406295751688936
3127.0,0.024017056287453542
3126.0,0.023925268380126097
3125.0,0.023787622882622816
3124.0,0.023695883447997224
3123.0,0.02365002099672653
3122.0,0.02365002099672653
3121.0,0.023695883447997224
3120.0,0.023741750742954926
3119.0,0.023695883447997224
3118.0,0.023604163388120325
3117.0,0.02351246269481
3116.0,0.023466619608062178
3115.0,0.02355831062115543
3114.0,0.023741750742954926
3113.0,0.023925268380126097
3112.0,0.023971159908874107
3111.0,0.023971159908874107
3110.0,0.024017056287453542
3109.0,0.024154774532432866
3108.0,0.02438440203310499
3107.0,0.024706084643793647
3106.0,0.02498200236711723
3105.0,0.02512002699306959
3104.0,0.02516604495145991
3103.0,0.025074013910237447
3102.0,0.025028005701930978
3101.0,0.02498200236711723
3100.0,0.02498200236711723
3099.0,0.024890010313838973
3098.0,0.024798037742147727
3097.0,0.024660115394541604
3096.0,0.024522236834125355
3095.0,0.02438440203310499
3094.0,0.024292536462819925
3093.0,0.02438440203310499
3092.0,0.024660115394541604
3091.0,0.025074013910237447
3090.0,0.02553436426275746
3089.0,0.02613355016462182
3088.0,0.02682594731702781
3087.0,0.0277045713888604
3086.0,0.028677754757187035
3085.0,0.029513651152349718
3084.0,0.030164906924202484
3083.0,0.030537492025363155
3082.0,0.03067729388779794
3081.0,0.030537492025363155
3080.0,0.030211462585061133
3079.0,0.029746130405213123
3078.0,0.02932775731028059
3077.0,0.028956208163971375
3076.0,0.02863136320857662
3075.0,0.028306761050139073
3074.0,0.028028723600243666
3073.0,0.027843464140506313
3072.0,0.027889771597169544
3071.0,0.028075050815808744
3070.0,0.028353117935693284
3069.0,0.02872415126189476
3068.0,0.029141943003497595
3067.0,0.029746130405213123
3066.0,0.030537492025363155
3065.0,0.03147035562516054
3064.0,0.03249882527715853
3063.0,0.03343591590268957
3062.0,0.03423403581731388
3061.0,0.03479829897408804
3060.0,0.03512779136222477
3059.0,0.03517488211661135
3058.0,0.0349394793888016
3057.0,0.03442204208947208
3056.0,0.0338113190438627
3055.0,0.03310770413286357
3054.0,0.03240522732811035
3053.0,0.03175060589208267
3052.0,0.031190286087141805
3051.0,0.0307239045110681
3050.0,0.03030458888152676
3049.0,0.029885677714903025
3048.0,0.029374223311705583
3047.0,0.02890978686288448
3046.0,0.028538594975413334
3045.0,0.028306761050139073
3044.0,0.028214062120885508
3043.0,0.028167720075074953
3042.0,0.028214062120885508
3041.0,0.028353117935693284
3040.0,0.02858497661500481
3039.0,0.02890978686288448
3038.0,0.02932775731028059
3037.0,0.029839156962686353
3036.0,0.030537492025363155
3035.0,0.031563752288295444
3034.0,0.03282657704446046
3033.0,0.03442204208947208
3032.0,0.03625938114211591
3031.0,0.03829421599749461
3030.0,0.04043395336207234
3029.0,0.04268010314465909
3028.0,0.04474531717982
3027.0,0.04643358574299339
3026.0,0.047595060422975566
3025.0,0.04803141550708934
3024.0,0.04774046340917959
3023.0,0.04686877481655505
3022.0,0.04541983725624266
3021.0,0.04359142880416744
3020.0,0.04153168163305643
3019.0,0.03962436858984186
3018.0,0.03791491948264003
3017.0,0.03649550058570927
3016.0,0.03526907894637077
3015.0,0.03414006319292828
3014.0,0.033201453616638954
3013.0,0.03240522732811035
3012.0,0.03175060589208267
3011.0,0.031236951802751545
3010.0,0.03081714076773867
3009.0,0.030444315779156517
3008.0,0.030164906924202484
3007.0,0.03002526987828502
3006.0,0.03002526987828502
3005.0,0.030118356253500123
3004.0,0.030351159519274695
3003.0,0.030537492025363155
3002.0,0.03067729388779794
3001.0,0.03063068826647264
3000.0,0.030490901403433135
2999.0,0.030164906924202484
2998.0,0.029653123769906697
2997.0,0.029095501846216454
2996.0,0.02849221828874393
2995.0,0.027889771597169544
2994.0,0.027426919073445077
2993.0,0.027056991894431892
2992.0,0.026733563891471412
2991.0,0.026456531467510258
2990.0,0.02613355016462182
2989.0,0.025902996205869
2988.0,0.025718641122169483
2987.0,0.02558042614771394
2986.0,0.025488307262671706
2985.0,0.02539620791296726
2984.0,0.025350165561278004
2983.0,0.025304128090317013
2982.0,0.025258095499050004
2981.0,0.02521206778644225
2980.0,0.02512002699306959
2979.0,0.025028005701930978
2978.0,0.024890010313838973
2977.0,0.024798037742147727
2976.0,0.02475205875931885
2975.0,0.024706084643793647
2974.0,0.024798037742147727
2973.0,0.024890010313838973
2972.0,0.025028005701930978
2971.0,0.02516604495145991
2970.0,0.025350165561278004
2969.0,0.02553436426275746
2968.0,0.025672564576383117
2967.0,0.025856900097785074
2966.0,0.025995203102585407
2965.0,0.02617967564731627
2964.0,0.02636422658259252
2963.0,0.02664120011360227
2962.0,0.02691835039863255
2961.0,0.02724191609646076
2960.0,0.02747318213414429
2959.0,0.0277045713888604
2958.0,0.027843464140506313
2957.0,0.028028723600243666
2956.0,0.02826040911222183
2955.0,0.028538594975413334
2954.0,0.028816959143838528
2953.0,0.029095501846216454
2952.0,0.029374223311705583
2951.0,0.02969962459782227
2950.0,0.030118356253500123
2949.0,0.03058408764601861
2948.0,0.03105031901865729
2947.0,0.03147035562516054
2946.0,0.03193753992355086
2945.0,0.03245202378113787
2944.0,0.033154576345083564
2943.0,0.03399914237121604
2942.0,0.03484535401307465
2941.0,0.035740369803151095
2940.0,0.03663723389626394
2939.0,0.03767802727041558
2938.0,0.038911280232103884
2937.0,0.0402909757535701
2936.0,0.0417706858116178
2935.0,0.0433514207947967
2934.0,0.044937930324967956
2933.0,0.04657860031896477
2932.0,0.04817696468408794
2931.0,0.04978123335813667
2930.0,0.05139145012356372
2929.0,0.05300765925162776
2928.0,0.05448217792216048
2927.0,0.05586292684190197
2926.0,0.057000406633959555
2925.0,0.05794231615860479
2924.0,0.05868737463933793
2923.0,0.05923456436878238
2922.0,0.05968277842578207
2921.0,0.05993198626064755
2920.0,0.06003170944866376
2919.0,0.05998184499233683
2918.0,0.05973260855398799
2917.0,0.05938391766259232
2916.0,0.0588862729628985
2915.0,0.05824018618530458
2914.0,0.0575950591438934
2913.0,0.056950888991593285
2912.0,0.05620880107069848
2911.0,0.05531996611868961
2910.0,0.05433450056786593
2909.0,0.053351266093323746
2908.0,0.0525172634430815
2907.0,0.05178270644002936
2906.0,0.05114709380028648
2905.0,0.050463626623857394
2904.0,0.04973253198641148
2903.0,0.04900266601119507
2902.0,0.048225491918274965
2901.0,0.04749815213697639
2900.0,0.04686877481655505
2899.0,0.04633693625290869
2898.0,0.04575749056067524
2897.0,0.0451788169482068
2896.0,0.04450467081587295
2895.0,0.04387961360698034
2894.0,0.04325545471730896
2893.0,0.04268010314465909
2892.0,0.042201225070002124
2891.0,0.04181850243505214
2890.0,0.041483896576958834
2889.0,0.04124505013091051
2888.0,0.04091088563260792
2887.0,0.040529297924893015
2886.0,0.04010041213405646
2885.0,0.03957679292217042
2884.0,0.03914884628031379
2883.0,0.038721320914956836
2882.0,0.038436537637930535
2881.0,0.03824678581321739
2880.0,0.03810452633214956
2879.0,0.038057116858612794
2878.0,0.03796231343498735
2877.0,0.03777276864991497
2876.0,0.03763066432997886
2875.0,0.03744126420403626
2874.0,0.037299268295658994
2873.0,0.0371573187987575
2872.0,0.0371100126082089
2871.0,0.037062711569998186
2870.0,0.03701541568300293
2869.0,0.03701541568300293
2868.0,0.03692083935817303
2867.0,0.036873558918095295
2866.0,0.03692083935817303
2865.0,0.0371100126082089
2864.0,0.03744126420403626
2863.0,0.03800971255993524
2862.0,0.03862637240519895
2861.0,0.03924390909822728
2860.0,0.03986232513620536
2859.0,0.040529297924893015
2858.0,0.04129280891271536
2857.0,0.04224908912272074
2856.0,0.04320747962950522
2855.0,0.04402377775167454
2854.0,0.04460091336073302
2853.0,0.04503426894157925
2852.0,0.04537162249272897
2851.0,0.045660991397539874
2850.0,0.045902279520810385
2849.0,0.046047116768076934
2848.0,0.04595055323640551
2847.0,0.045660991397539874
2846.0,0.0451788169482068
2845.0,0.04450467081587295
2844.0,0.0437835307566099
2843.0,0.04301563225723992
2842.0,0.04224908912272074
2841.0,0.041436116778032606
2840.0,0.04062466342415694
2839.0,0.03981472339538916
2838.0,0.03905380426616856
2837.0,0.03829421599749461
2836.0,0.03763066432997886
2835.0,0.03701541568300293
2834.0,0.03649550058570927
2833.0,0.03597620715996652
2832.0,0.03555179208333925
2831.0,0.03517488211661135
2830.0,0.0349394793888016
2829.0,0.03470420418834386
2828.0,0.034469056377139484
2827.0,0.03428102975577918
2826.0,0.034046110897937076
2825.0,0.03385826726096752
2824.0,0.03367050483612166
2823.0,0.03357665405630694
2822.0,0.03352973627071565
2821.0,0.033482823553208085
2820.0,0.03338901331806565
2819.0,0.033295223342125535
2818.0,0.033154576345083564
2817.0,0.0329671178412978
2816.0,0.032873418923587305
2815.0,0.03273290844021437
2814.0,0.032686081712916426
2813.0,0.03263926003405038
2812.0,0.03263926003405038
2811.0,0.032686081712916426
2810.0,0.032686081712916426
2809.0,0.03263926003405038
2808.0,0.032545631817259224
2807.0,0.03249882527715853
2806.0,0.03245202378113787
2805.0,0.03240522732811035
2804.0,0.03226486821611996
2803.0,0.032124554451966825
2802.0,0.031984286006358165
2801.0,0.03184406285002961
2800.0,0.03184406285002961
2799.0,0.03189079887180224
2798.0,0.031984286006358165
2797.0,0.03207779326948268
2796.0,0.03207779326948268
2795.0,0.031984286006358165
2794.0,0.03189079887180224
2793.0,0.03179733185715028
2792.0,0.031657169041054534
2791.0,0.031563752288295444
2790.0,0.03147035562516054
2789.0,0.03142366482450232
2788.0,0.03147035562516054
2787.0,0.03151705144606498
2786.0,0.03151705144606498
2785.0,0.03147035562516054
2784.0,0.03142366482450232
2783.0,0.03142366482450232
2782.0,0.03137697904301118
2781.0,0.03128362253321426
2780.0,0.031190286087141805
2779.0,0.031096969696171817
2778.0,0.031003673351687855
2777.0,0.030957032694186815
2776.0,0.030910397045078586
2775.0,0.030863766403287585
2774.0,0.03081714076773867
2773.0,0.03081714076773867
2772.0,0.030863766403287585
2771.0,0.030910397045078586
2770.0,0.030957032694186815
2769.0,0.031003673351687855
2768.0,0.030957032694186815
2767.0,0.030910397045078586
2766.0,0.03081714076773867
2765.0,0.0307239045110681
2764.0,0.03063068826647264
2763.0,0.03058408764601861
2762.0,0.03058408764601861
2761.0,0.03063068826647264
2760.0,0.0307239045110681
2759.0,0.0307239045110681
2758.0,0.03067729388779794
2757.0,0.03063068826647264
2756.0,0.03058408764601861
2755.0,0.03058408764601861
2754.0,0.03063068826647264
2753.0,0.03067729388779794
2752.0,0.0307239045110681
2751.0,0.03067729388779794
2750.0,0.03058408764601861
2749.0,0.030490901403433135
2748.0,0.030397735151460825
2747.0,0.030397735151460825
2746.0,0.030490901403433135
2745.0,0.03058408764601861
2744.0,0.03063068826647264
2743.0,0.03063068826647264
2742.0,0.03058408764601861
2741.0,0.030537492025363155
2740.0,0.03058408764601861
2739.0,0.03058408764601861
2738.0,0.03058408764601861
2737.0,0.030490901403433135
2736.0,0.030397735151460825
2735.0,0.03030458888152676
2734.0,0.030211462585061133
2733.0,0.030118356253500123
2732.0,0.030071810571884017
2731.0,0.030118356253500123
2730.0,0.030211462585061133
2729.0,0.03025802323714588
2728.0,0.03030458888152676
2727.0,0.03030458888152676
2726.0,0.030351159519274695
2725.0,0.030397735151460825
2724.0,0.030397735151460825
2723.0,0.03030458888152676
2722.0,0.030211462585061133
2721.0,0.030118356253500123
2720.0,0.030071810571884017
2719.0,0.030118356253500123
2718.0,0.030211462585061133
2717.0,0.030351159519274695
2716.0,0.030397735151460825
2715.0,0.030397735151460825
2714.0,0.030351159519274695
2713.0,0.03030458888152676
2712.0,0.03030458888152676
2711.0,0.03030458888152676
2710.0,0.030351159519274695
2709.0,0.030397735151460825
2708.0,0.030397735151460825
2707.0,0.030397735151460825
2706.0,0.030351159519274695
2705.0,0.030351159519274695
2704.0,0.03030458888152676
2703.0,0.03025802323714588
2702.0,0.030211462585061133
2701.0,0.03025802323714588
2700.0,0.03025802323714588
2699.0,0.03030458888152676
2698.0,0.03025802323714588
2697.0,0.030211462585061133
2696.0,0.030164906924202484
2695.0,0.030164906924202484
2694.0,0.030164906924202484
2693.0,0.030164906924202484
2692.0,0.030164906924202484
2691.0,0.030164906924202484
2690.0,0.030164906924202484
2689.0,0.030211462585061133
2688.0,0.03025802323714588
2687.0,0.030351159519274695
2686.0,0.030397735151460825
2685.0,0.030397735151460825
2684.0,0.03030458888152676
2683.0,0.030164906924202484
2682.0,0.030071810571884017
2681.0,0.03002526987828502
2680.0,0.03002526987828502
2679.0,0.03002526987828502
2678.0,0.030071810571884017
2677.0,0.030071810571884017
2676.0,0.030118356253500123
2675.0,0.030211462585061133
2674.0,0.030211462585061133
2673.0,0.030211462585061133
2672.0,0.030211462585061133
2671.0,0.030211462585061133
2670.0,0.030211462585061133
2669.0,0.030118356253500123
2668.0,0.029978734171634214
2667.0,0.029932203450862893
2666.0,0.029932203450862893
2665.0,0.029932203450862893
2664.0,0.029932203450862893
2663.0,0.029932203450862893
2662.0,0.029932203450862893
2661.0,0.029932203450862893
2660.0,0.029932203450862893
2659.0,0.029885677714903025
2658.0,0.029792641193145286
2657.0,0.029746130405213123
2656.0,0.029746130405213123
2655.0,0.029792641193145286
2654.0,0.029792641193145286
2653.0,0.029839156962686353
2652.0,0.029932203450862893
2651.0,0.029978734171634214
2650.0,0.029978734171634214
2649.0,0.029932203450862893
2648.0,0.029839156962686353
2647.0,0.029746130405213123
2646.0,0.02969962459782227
2645.0,0.029653123769906697
2644.0,0.029653123769906697
2643.0,0.029746130405213123
2642.0,0.029839156962686353
2641.0,0.029932203450862893
2640.0,0.029932203450862893
2639.0,0.029885677714903025
2638.0,0.029839156962686353
2637.0,0.029792641193145286
2636.0,0.029885677714903025
2635.0,0.03002526987828502
2634.0,0.030118356253500123
2633.0,0.030164906924202484
2632.0,0.030118356253500123
2631.0,0.03002526987828502
2630.0,0.029978734171634214
2629.0,0.029932203450862893
2628.0,0.029885677714903025
2627.0,0.029885677714903025
2626.0,0.029932203450862893
2625.0,0.029978734171634214
2624.0,0.03002526987828502
2623.0,0.03002526987828502
2622.0,0.029932203450862893
2621.0,0.029839156962686353
2620.0,0.029746130405213123
2619.0,0.029653123769906697
2618.0,0.029513651152349718
2617.0,0.02942069428514915
2616.0,0.029374223311705583
2615.0,0.029374223311705583
2614.0,0.02942069428514915
2613.0,0.029467170231675777
2612.0,0.029513651152349718
2611.0,0.029513651152349718
2610.0,0.029560137048236124
2609.0,0.02960662792039992
2608.0,0.029653123769906697
2607.0,0.029746130405213123
2606.0,0.029746130405213123
2605.0,0.02969962459782227
2604.0,0.029653123769906697
2603.0,0.029653123769906697
2602.0,0.02969962459782227
2601.0,0.029746130405213123
2600.0,0.029746130405213123
2599.0,0.02969962459782227
2598.0,0.029653123769906697
2597.0,0.02960662792039992
2596.0,0.029653123769906697
2595.0,0.029653123769906697
2594.0,0.029653123769906697
2593.0,0.029653123769906697
2592.0,0.029653123769906697
2591.0,0.029653123769906697
2590.0,0.02969962459782227
2589.0,0.02969962459782227
2588.0,0.02969962459782227
2587.0,0.029653123769906697
2586.0,0.029560137048236124
2585.0,0.029513651152349718
2584.0,0.029513651152349718
2583.0,0.029560137048236124
2582.0,0.02960662792039992
2581.0,0.02960662792039992
2580.0,0.029513651152349718
2579.0,0.02942069428514915
2578.0,0.029374223311705583
2577.0,0.02932775731028059
2576.0,0.02932775731028059
2575.0,0.029374223311705583
2574.0,0.02942069428514915
2573.0,0.029467170231675777
2572.0,0.029560137048236124
2571.0,0.02960662792039992
2570.0,0.02960662792039992
2569.0,0.02960662792039992
2568.0,0.029560137048236124
2567.0,0.029560137048236124
2566.0,0.02960662792039992
2565.0,0.02960662792039992
2564.0,0.02960662792039992
2563.0,0.029560137048236124
2562.0,0.029467170231675777
2561.0,0.029374223311705583
2560.0,0.02932775731028059
2559.0,0.029374223311705583
2558.0,0.02942069428514915
2557.0,0.02942069428514915
2556.0,0.02942069428514915
2555.0,0.02942069428514915
2554.0,0.029467170231675777
2553.0,0.029560137048236124
2552.0,0.02960662792039992
2551.0,0.029653123769906697
2550.0,0.02960662792039992
2549.0,0.029513651152349718
2548.0,0.02942069428514915
2547.0,0.029374223311705583
2546.0,0.02932775731028059
2545.0,0.029281296279810798
2544.0,0.029281296279810798
2543.0,0.02932775731028059
2542.0,0.029374223311705583
2541.0,0.02942069428514915
2540.0,0.02942069428514915
2539.0,0.02942069428514915
2538.0,0.029374223311705583
2537.0,0.02932775731028059
2536.0,0.029281296279810798
2535.0,0.02932775731028059
2534.0,0.029374223311705583
2533.0,0.029374223311705583
2532.0,0.029374223311705583
2531.0,0.029374223311705583
2530.0,0.029281296279810798
2529.0,0.029234840219232394
2528.0,0.029234840219232394
2527.0,0.029281296279810798
2526.0,0.029374223311705583
2525.0,0.02942069428514915
2524.0,0.029513651152349718
2523.0,0.029513651152349718
2522.0,0.029513651152349718
2521.0,0.02942069428514915
2520.0,0.029281296279810798
2519.0,0.029141943003497595
2518.0,0.02904906565457588
2517.0,0.02904906565457588
2516.0,0.029141943003497595
2515.0,0.029234840219232394
2514.0,0.02932775731028059
2513.0,0.029374223311705583
2512.0,0.029374223311705583
2511.0,0.029374223311705583
2510.0,0.02942069428514915
2509.0,0.029467170231675777
2508.0,0.02942069428514915
2507.0,0.029374223311705583
2506.0,0.02932775731028059
2505.0,0.029281296279810798
2504.0,0.02932775731028059
2503.0,0.029374223311705583
2502.0,0.029374223311705583
2501.0,0.029374223311705583
2500.0,0.02932775731028059
2499.0,0.029281296279810798
2498.0,0.029234840219232394
2497.0,0.029234840219232394
2496.0,0.029234840219232394
2495.0,0.029281296279810798
2494.0,0.029281296279810798
2493.0,0.02932775731028059
2492.0,0.029374223311705583
2491.0,0.029374223311705583
2490.0,0.029374223311705583
2489.0,0.02932775731028059
2488.0,0.029281296279810798
2487.0,0.029281296279810798
2486.0,0.029234840219232394
2485.0,0.029234840219232394
2484.0,0.029281296279810798
2483.0,0.029281296279810798
2482.0,0.029234840219232394
2481.0,0.029188389127482228
2480.0,0.029141943003497595
2479.0,0.029188389127482228
2478.0,0.029234840219232394
2477.0,0.029234840219232394
2476.0,0.029234840219232394
2475.0,0.029141943003497595
2474.0,0.029002634427514717
2473.0,0.028956208163971375
2472.0,0.02890978686288448
2471.0,0.02890978686288448
2470.0,0.028956208163971375
2469.0,0.028956208163971375
2468.0,0.029002634427514717
2467.0,0.02904906565457588
2466.0,0.029095501846216454
2465.0,0.029141943003497595
2464.0,0.029188389127482228
2463.0,0.029188389127482228
2462.0,0.029234840219232394
2461.0,0.029234840219232394
2460.0,0.029188389127482228
2459.0,0.029095501846216454
2458.0,0.02904906565457588
2457.0,0.02904906565457588
2456.0,0.029095501846216454
2455.0,0.029188389127482228
2454.0,0.029234840219232394
2453.0,0.029281296279810798
2452.0,0.029281296279810798
2451.0,0.029234840219232394
2450.0,0.029234840219232394
2449.0,0.029141943003497595
2448.0,0.029095501846216454
2447.0,0.029002634427514717
2446.0,0.02890978686288448
2445.0,0.02890978686288448
2444.0,0.02890978686288448
2443.0,0.028956208163971375
2442.0,0.029002634427514717
2441.0,0.028956208163971375
2440.0,0.02890978686288448
2439.0,0.028863370523193765
2438.0,0.028863370523193765
2437.0,0.02890978686288448
2436.0,0.029002634427514717
2435.0,0.02904906565457588
2434.0,0.029095501846216454
2433.0,0.029095501846216454
2432.0,0.029141943003497595
2431.0,0.029188389127482228
2430.0,0.029281296279810798
2429.0,0.029281296279810798
2428.0,0.029234840219232394
2427.0,0.029141943003497595
2426.0,0.029141943003497595
2425.0,0.029188389127482228
2424.0,0.029188389127482228
2423.0,0.029188389127482228
2422.0,0.029095501846216454
2421.0,0.028956208163971375
2420.0,0.028863370523193765
2419.0,0.028816959143838528
2418.0,0.028816959143838528
2417.0,0.028863370523193765
2416.0,0.02890978686288448
2415.0,0.028956208163971375
2414.0,0.02904906565457588
2413.0,0.029095501846216454
2412.0,0.029095501846216454
2411.0,0.029002634427514717
2410.0,0.02890978686288448
2409.0,0.028816959143838528
2408.0,0.028816959143838528
2407.0,0.028863370523193765
2406.0,0.02890978686288448
2405.0,0.02890978686288448
2404.0,0.028956208163971375
2403.0,0.02904906565457588
2402.0,0.029141943003497595
2401.0,0.029234840219232394
2400.0,0.029188389127482228
2399.0,0.029141943003497595
2398.0,0.02904906565457588
2397.0,0.029002634427514717
2396.0,0.02890978686288448
2395.0,0.028863370523193765
2394.0,0.028816959143838528
2393.0,0.028770552723758724
2392.0,0.028770552723758724
2391.0,0.028816959143838528
2390.0,0.028863370523193765
2389.0,0.028863370523193765
2388.0,0.028863370523193765
2387.0,0.028770552723758724
2386.0,0.028677754757187035
2385.0,0.02863136320857662
2384.0,0.02863136320857662
2383.0,0.02858497661500481
2382.0,0.028538594975413334
2381.0,0.028353117935693284
2380.0,0.02812138297373412
2379.0,0.027936083991977778
2378.0,0.027889771597169544
2377.0,0.02812138297373412
2376.0,0.028538594975413334
2375.0,0.028863370523193765
2374.0,0.028956208163971375
2373.0,0.028863370523193765
2372.0,0.02872415126189476
2371.0,0.02858497661500481
2370.0,0.028353117935693284
2369.0,0.02812138297373412
2368.0,0.028028723600243666
2367.0,0.02812138297373412
2366.0,0.02812138297373412
2365.0,0.028075050815808744
2364.0,0.02798240132598462
2363.0,0.028028723600243666
2362.0,0.028167720075074953
2361.0,0.028445846553939003
2360.0,0.028863370523193765
2359.0,0.02942069428514915
2358.0,0.029978734171634214
2357.0,0.030490901403433135
2356.0,0.030863766403287585
2355.0,0.030957032694186815
2354.0,0.030863766403287585
2353.0,0.03058408764601861
2352.0,0.030211462585061133
2351.0,0.029653123769906697
2350.0,0.029188389127482228
2349.0,0.029188389127482228
2348.0,0.029374223311705583
2347.0,0.029281296279810798
2346.0,0.028770552723758724
2345.0,0.028167720075074953
2344.0,0.027843464140506313
2343.0,0.028028723600243666
2342.0,0.02863136320857662
2341.0,0.02890978686288448
2340.0,0.028816959143838528
2339.0,0.028863370523193765
2338.0,0.02942069428514915
2337.0,0.03030458888152676
2336.0,0.030770520137356927
2335.0,0.03067729388779794
2334.0,0.030211462585061133
2333.0,0.029792641193145286
2332.0,0.029653123769906697
2331.0,0.029653123769906697
2330.0,0.029653123769906697
2329.0,0.029792641193145286
2328.0,0.029932203450862893
2327.0,0.030164906924202484
2326.0,0.03025802323714588
2325.0,0.03025802323714588
2324.0,0.030211462585061133
2323.0,0.030164906924202484
2322.0,0.03025802323714588
2321.0,0.030444315779156517
2320.0,0.03058408764601861
2319.0,0.0307239045110681
2318.0,0.03081714076773867
2317.0,0.030910397045078586
2316.0,0.030957032694186815
2315.0,0.031003673351687855
2314.0,0.030957032694186815
2313.0,0.03081714076773867
2312.0,0.030490901403433135
2311.0,0.030164906924202484
2310.0,0.029839156962686353
2309.0,0.02969962459782227
2308.0,0.02969962459782227
2307.0,0.02969962459782227
2306.0,0.029653123769906697
2305.0,0.029513651152349718
2304.0,0.02932775731028059
2303.0,0.029141943003497595
2302.0,0.029002634427514717
2301.0,0.02890978686288448
2300.0,0.02890978686288448
2299.0,0.02890978686288448
2298.0,0.02890978686288448
2297.0,0.028956208163971375
2296.0,0.029002634427514717
2295.0,0.02904906565457588
2294.0,0.029095501846216454
2293.0,0.029141943003497595
2292.0,0.029234840219232394
2291.0,0.02932775731028059
2290.0,0.029374223311705583
2289.0,0.029374223311705583
2288.0,0.02932775731028059
2287.0,0.029281296279810798
2286.0,0.029188389127482228
2285.0,0.029095501846216454
2284.0,0.029002634427514717
2283.0,0.028863370523193765
2282.0,0.028770552723758724
2281.0,0.028816959143838528
2280.0,0.028863370523193765
2279.0,0.028956208163971375
2278.0,0.028956208163971375
2277.0,0.02890978686288448
2276.0,0.028816959143838528
2275.0,0.028770552723758724
2274.0,0.02872415126189476
2273.0,0.02872415126189476
2272.0,0.02872415126189476
2271.0,0.028770552723758724
2270.0,0.028770552723758724
2269.0,0.028770552723758724
2268.0,0.02872415126189476
2267.0,0.02872415126189476
2266.0,0.028677754757187035
2265.0,0.02863136320857662
2264.0,0.02863136320857662
2263.0,0.028677754757187035
2262.0,0.028816959143838528
2261.0,0.028956208163971375
2260.0,0.02904906565457588
2259.0,0.02904906565457588
2258.0,0.02904906565457588
2257.0,0.029002634427514717
2256.0,0.029002634427514717
2255.0,0.029002634427514717
2254.0,0.029002634427514717
2253.0,0.02904906565457588
2252.0,0.02904906565457588
2251.0,0.02904906565457588
2250.0,0.02904906565457588
2249.0,0.029095501846216454
2248.0,0.029141943003497595
2247.0,0.029141943003497595
2246.0,0.029095501846216454
2245.0,0.029002634427514717
2244.0,0.029002634427514717
2243.0,0.02904906565457588
2242.0,0.029141943003497595
2241.0,0.029141943003497595
2240.0,0.029095501846216454
2239.0,0.02904906565457588
2238.0,0.029002634427514717
2237.0,0.029002634427514717
2236.0,0.029002634427514717
2235.0,0.02904906565457588
2234.0,0.02904906565457588
2233.0,0.02904906565457588
2232.0,0.02904906565457588
2231.0,0.02904906565457588
2230.0,0.029002634427514717
2229.0,0.029002634427514717
2228.0,0.029002634427514717
2227.0,0.02904906565457588
2226.0,0.029095501846216454
2225.0,0.029095501846216454
2224.0,0.02904906565457588
2223.0,0.029002634427514717
2222.0,0.02890978686288448
2221.0,0.02890978686288448
2220.0,0.02890978686288448
2219.0,0.028956208163971375
2218.0,0.028956208163971375
2217.0,0.02890978686288448
2216.0,0.02890978686288448
2215.0,0.028956208163971375
2214.0,0.029002634427514717
2213.0,0.02904906565457588
2212.0,0.02904906565457588
2211.0,0.029002634427514717
2210.0,0.029002634427514717
2209.0,0.02904906565457588
2208.0,0.029141943003497595
2207.0,0.029188389127482228
2206.0,0.029188389127482228
2205.0,0.029141943003497595
2204.0,0.029141943003497595
2203.0,0.029141943003497595
2202.0,0.029141943003497595
2201.0,0.029141943003497595
2200.0,0.02904906565457588
2199.0,0.029002634427514717
2198.0,0.028956208163971375
2197.0,0.028956208163971375
2196.0,0.029002634427514717
2195.0,0.029002634427514717
2194.0,0.02904906565457588
2193.0,0.02904906565457588
2192.0,0.029095501846216454
2191.0,0.029141943003497595
2190.0,0.029188389127482228
2189.0,0.029234840219232394
2188.0,0.029234840219232394
2187.0,0.029188389127482228
2186.0,0.029095501846216454
2185.0,0.029002634427514717
2184.0,0.028956208163971375
2183.0,0.028956208163971375
2182.0,0.02904906565457588
2181.0,0.02904906565457588
2180.0,0.029002634427514717
2179.0,0.028956208163971375
2178.0,0.028863370523193765
2177.0,0.028816959143838528
2176.0,0.028863370523193765
2175.0,0.028956208163971375
2174.0,0.029002634427514717
2173.0,0.029002634427514717
2172.0,0.028956208163971375
2171.0,0.02890978686288448
2170.0,0.028816959143838528
2169.0,0.028770552723758724
2168.0,0.028770552723758724
2167.0,0.028816959143838528
2166.0,0.02890978686288448
2165.0,0.028956208163971375
2164.0,0.029002634427514717
2163.0,0.029002634427514717
2162.0,0.028956208163971375
2161.0,0.028863370523193765
2160.0,0.028816959143838528
2159.0,0.028816959143838528
2158.0,0.028863370523193765
2157.0,0.02890978686288448
2156.0,0.028956208163971375
2155.0,0.028956208163971375
2154.0,0.028956208163971375
2153.0,0.028956208163971375
2152.0,0.02890978686288448
2151.0,0.028863370523193765
2150.0,0.028816959143838528
2149.0,0.028816959143838528
2148.0,0.028816959143838528
2147.0,0.028816959143838528
2146.0,0.028770552723758724
2145.0,0.02872415126189476
2144.0,0.028677754757187035
2143.0,0.02872415126189476
2142.0,0.028863370523193765
2141.0,0.029002634427514717
2140.0,0.029141943003497595
2139.0,0.029188389127482228
2138.0,0.029141943003497595
2137.0,0.029095501846216454
2136.0,0.02904906565457588
2135.0,0.028956208163971375
2134.0,0.02890978686288448
2133.0,0.028863370523193765
2132.0,0.028863370523193765
2131.0,0.028863370523193765
2130.0,0.028863370523193765
2129.0,0.02890978686288448
2128.0,0.028956208163971375
2127.0,0.028956208163971375
2126.0,0.028956208163971375
2125.0,0.02890978686288448
2124.0,0.028863370523193765
2123.0,0.028863370523193765
2122.0,0.028863370523193765
2121.0,0.028956208163971375
2120.0,0.029002634427514717
2119.0,0.029002634427514717
2118.0,0.029002634427514717
2117.0,0.028956208163971375
2116.0,0.028863370523193765
2115.0,0.028770552723758724
2114.0,0.02863136320857662
2113.0,0.02858497661500481
2112.0,0.02863136320857662
2111.0,0.028677754757187035
2110.0,0.02872415126189476
2109.0,0.028770552723758724
2108.0,0.028816959143838528
2107.0,0.028863370523193765
2106.0,0.02890978686288448
2105.0,0.028863370523193765
2104.0,0.028863370523193765
2103.0,0.028816959143838528
2102.0,0.028770552723758724
2101.0,0.028816959143838528
2100.0,0.028816959143838528
2099.0,0.028863370523193765
2098.0,0.028863370523193765
2097.0,0.028863370523193765
2096.0,0.028863370523193765
2095.0,0.02890978686288448
2094.0,0.02890978686288448
2093.0,0.028956208163971375
2092.0,0.028956208163971375
2091.0,0.02890978686288448
2090.0,0.028816959143838528
2089.0,0.02872415126189476
2088.0,0.028677754757187035
2087.0,0.028677754757187035
2086.0,0.028677754757187035
2085.0,0.028677754757187035
2084.0,0.02872415126189476
2083.0,0.028770552723758724
2082.0,0.028816959143838528
2081.0,0.028816959143838528
2080.0,0.02872415126189476
2079.0,0.028677754757187035
2078.0,0.028677754757187035
2077.0,0.02872415126189476
2076.0,0.028770552723758724
2075.0,0.028816959143838528
2074.0,0.028863370523193765
2073.0,0.02890978686288448
2072.0,0.02890978686288448
2071.0,0.02890978686288448
2070.0,0.02890978686288448
2069.0,0.028863370523193765
2068.0,0.028863370523193765
2067.0,0.02890978686288448
2066.0,0.02890978686288448
2065.0,0.02890978686288448
2064.0,0.028816959143838528
2063.0,0.02872415126189476
2062.0,0.028677754757187035
2061.0,0.02863136320857662
2060.0,0.028677754757187035
2059.0,0.028677754757187035
2058.0,0.02872415126189476
2057.0,0.028770552723758724
2056.0,0.028816959143838528
2055.0,0.028816959143838528
2054.0,0.028816959143838528
2053.0,0.028816959143838528
2052.0,0.028816959143838528
2051.0,0.028816959143838528
2050.0,0.028816959143838528
2049.0,0.028770552723758724
2048.0,0.02872415126189476
2047.0,0.02863136320857662
2046.0,0.02858497661500481
2045.0,0.02858497661500481
2044.0,0.028538594975413334
2043.0,0.028538594975413334
2042.0,0.02858497661500481
2041.0,0.02863136320857662
2040.0,0.02872415126189476
2039.0,0.028770552723758724
2038.0,0.02872415126189476
2037.0,0.02872415126189476
2036.0,0.02872415126189476
2035.0,0.028677754757187035
2034.0,0.028677754757187035
2033.0,0.02858497661500481
2032.0,0.02849221828874393
2031.0,0.02839947976994095
2030.0,0.02839947976994095
2029.0,0.02849221828874393
2028.0,0.02858497661500481
2027.0,0.02863136320857662
2026.0,0.02863136320857662
2025.0,0.02863136320857662
2024.0,0.028677754757187035
2023.0,0.02872415126189476
2022.0,0.02872415126189476
2021.0,0.028677754757187035
2020.0,0.02858497661500481
2019.0,0.028538594975413334
2018.0,0.02858497661500481
2017.0,0.02863136320857662
2016.0,0.028677754757187035
2015.0,0.028677754757187035
2014.0,0.02872415126189476
2013.0,0.028677754757187035
2012.0,0.02863136320857662
2011.0,0.028538594975413334
2010.0,0.028445846553939003
2009.0,0.028445846553939003
2008.0,0.028445846553939003
2007.0,0.02849221828874393
2006.0,0.02849221828874393
2005.0,0.02849221828874393
2004.0,0.028445846553939003
2003.0,0.028445846553939003
2002.0,0.02839947976994095
2001.0,0.028353117935693284
2000.0,0.028353117935693284
1999.0,0.028353117935693284
1998.0,0.028353117935693284
1997.0,0.028353117935693284
1996.0,0.028353117935693284
1995.0,0.02839947976994095
1994.0,0.028445846553939003
1993.0,0.028538594975413334
1992.0,0.02858497661500481
1991.0,0.02858497661500481
1990.0,0.02863136320857662
1989.0,0.02872415126189476
1988.0,0.028816959143838528
1987.0,0.028863370523193765
1986.0,0.028863370523193765
1985.0,0.028863370523193765
1984.0,0.028816959143838528
1983.0,0.02872415126189476
1982.0,0.02858497661500481
1981.0,0.02849221828874393
1980.0,0.028445846553939003
1979.0,0.02849221828874393
1978.0,0.028538594975413334
1977.0,0.02858497661500481
1976.0,0.028677754757187035
1975.0,0.02872415126189476
1974.0,0.02872415126189476
1973.0,0.02872415126189476
1972.0,0.02872415126189476
1971.0,0.028677754757187035
1970.0,0.02872415126189476
1969.0,0.028770552723758724
1968.0,0.028863370523193765
1967.0,0.02904906565457588
1966.0,0.029141943003497595
1965.0,0.029281296279810798
1964.0,0.029467170231675777
1963.0,0.02960662792039992
1962.0,0.029746130405213123
1961.0,0.029839156962686353
1960.0,0.029932203450862893
1959.0,0.03002526987828502
1958.0,0.030118356253500123
1957.0,0.030164906924202484
1956.0,0.030211462585061133
1955.0,0.030211462585061133
1954.0,0.03025802323714588
1953.0,0.030351159519274695
1952.0,0.030537492025363155
1951.0,0.0307239045110681
1950.0,0.030910397045078586
1949.0,0.031096969696171817
1948.0,0.031236951802751545
1947.0,0.03137697904301118
1946.0,0.031563752288295444
1945.0,0.03175060589208267
1944.0,0.03189079887180224
1943.0,0.032031037121307726
1942.0,0.03217132066984485
1941.0,0.03217132066984485
1940.0,0.032218091924200776
1939.0,0.032218091924200776
1938.0,0.032124554451966825
1937.0,0.031984286006358165
1936.0,0.03170388495374454
1935.0,0.03142366482450232
1934.0,0.031143625385307683
1933.0,0.030910397045078586
1932.0,0.03067729388779794
1931.0,0.030444315779156517
1930.0,0.03025802323714588
1929.0,0.030071810571884017
1928.0,0.029885677714903025
1927.0,0.029792641193145286
1926.0,0.029746130405213123
1925.0,0.029653123769906697
1924.0,0.02960662792039992
1923.0,0.029513651152349718
1922.0,0.02942069428514915
1921.0,0.02932775731028059
1920.0,0.029234840219232394
1919.0,0.029141943003497595
1918.0,0.029095501846216454
1917.0,0.029095501846216454
1916.0,0.029141943003497595
1915.0,0.029095501846216454
1914.0,0.029002634427514717
1913.0,0.028816959143838528
1912.0,0.02863136320857662
1911.0,0.02858497661500481
1910.0,0.02863136320857662
1909.0,0.028677754757187035
1908.0,0.028677754757187035
1907.0,0.02863136320857662
1906.0,0.02858497661500481
1905.0,0.028538594975413334
1904.0,0.02849221828874393
1903.0,0.02849221828874393
1902.0,0.028538594975413334
1901.0,0.02863136320857662
1900.0,0.02863136320857662
1899.0,0.028677754757187035
1898.0,0.028677754757187035
1897.0,0.02872415126189476
1896.0,0.028816959143838528
1895.0,0.02890978686288448
1894.0,0.02904906565457588
1893.0,0.029188389127482228
1892.0,0.029281296279810798
1891.0,0.029374223311705583
1890.0,0.029467170231675777
1889.0,0.029653123769906697
1888.0,0.029792641193145286
1887.0,0.029885677714903025
1886.0,0.029978734171634214
1885.0,0.03002526987828502
1884.0,0.030071810571884017
1883.0,0.030164906924202484
1882.0,0.03030458888152676
1881.0,0.030397735151460825
1880.0,0.030490901403433135
1879.0,0.03058408764601861
1878.0,0.0307239045110681
1877.0,0.030863766403287585
1876.0,0.03105031901865729
1875.0,0.031143625385307683
1874.0,0.031143625385307683
1873.0,0.031096969696171817
1872.0,0.030957032694186815
1871.0,0.030910397045078586
1870.0,0.030910397045078586
1869.0,0.030957032694186815
1868.0,0.03105031901865729
1867.0,0.031096969696171817
1866.0,0.031143625385307683
1865.0,0.031143625385307683
1864.0,0.031003673351687855
1863.0,0.03081714076773867
1862.0,0.03063068826647264
1861.0,0.030490901403433135
1860.0,0.030351159519274695
1859.0,0.030164906924202484
1858.0,0.029932203450862893
1857.0,0.029653123769906697
1856.0,0.02942069428514915
1855.0,0.029281296279810798
1854.0,0.029234840219232394
1853.0,0.029188389127482228
1852.0,0.029095501846216454
1851.0,0.028956208163971375
1850.0,0.028770552723758724
1849.0,0.02858497661500481
1848.0,0.02849221828874393
1847.0,0.028538594975413334
1846.0,0.02863136320857662
1845.0,0.028677754757187035
1844.0,0.02863136320857662
1843.0,0.02849221828874393
1842.0,0.02839947976994095
1841.0,0.028353117935693284
1840.0,0.02826040911222183
1839.0,0.028167720075074953
1838.0,0.02812138297373412
1837.0,0.02812138297373412
1836.0,0.028214062120885508
1835.0,0.028214062120885508
1834.0,0.028214062120885508
1833.0,0.028167720075074953
1832.0,0.02812138297373412
1831.0,0.02812138297373412
1830.0,0.02812138297373412
1829.0,0.028075050815808744
1828.0,0.028075050815808744
1827.0,0.02812138297373412
1826.0,0.028214062120885508
1825.0,0.028306761050139073
1824.0,0.02839947976994095
1823.0,0.028538594975413334
1822.0,0.02872415126189476
1821.0,0.02890978686288448
1820.0,0.02904906565457588
1819.0,0.029141943003497595
1818.0,0.029234840219232394
1817.0,0.029374223311705583
1816.0,0.029467170231675777
1815.0,0.02960662792039992
1814.0,0.02969962459782227
1813.0,0.029792641193145286
1812.0,0.029885677714903025
1811.0,0.029885677714903025
1810.0,0.029932203450862893
1809.0,0.030164906924202484
1808.0,0.030397735151460825
1807.0,0.03067729388779794
1806.0,0.03081714076773867
1805.0,0.030910397045078586
1804.0,0.031003673351687855
1803.0,0.03105031901865729
1802.0,0.031096969696171817
1801.0,0.031143625385307683
1800.0,0.031143625385307683
1799.0,0.03105031901865729
1798.0,0.030863766403287585
1797.0,0.03063068826647264
1796.0,0.030397735151460825
1795.0,0.030164906924202484
1794.0,0.029932203450862893
1793.0,0.029792641193145286
1792.0,0.029653123769906697
1791.0,0.029467170231675777
1790.0,0.029281296279810798
1789.0,0.029234840219232394
1788.0,0.029141943003497595
1787.0,0.02904906565457588
1786.0,0.029002634427514717
1785.0,0.028956208163971375
1784.0,0.028816959143838528
1783.0,0.02872415126189476
1782.0,0.02858497661500481
1781.0,0.02849221828874393
1780.0,0.02849221828874393
1779.0,0.02849221828874393
1778.0,0.02849221828874393
1777.0,0.02839947976994095
1776.0,0.028353117935693284
1775.0,0.02826040911222183
1774.0,0.02812138297373412
1773.0,0.02798240132598462
1772.0,0.027889771597169544
1771.0,0.027843464140506313
1770.0,0.027936083991977778
1769.0,0.028167720075074953
1768.0,0.028353117935693284
1767.0,0.02839947976994095
1766.0,0.02839947976994095
1765.0,0.028353117935693284
1764.0,0.028353117935693284
1763.0,0.02839947976994095
1762.0,0.02849221828874393
1761.0,0.02858497661500481
1760.0,0.028677754757187035
1759.0,0.028816959143838528
1758.0,0.02890978686288448
1757.0,0.029002634427514717
1756.0,0.029141943003497595
1755.0,0.029374223311705583
1754.0,0.029653123769906697
1753.0,0.029932203450862893
1752.0,0.030211462585061133
1751.0,0.030444315779156517
1750.0,0.03058408764601861
1749.0,0.0307239045110681
1748.0,0.030957032694186815
1747.0,0.031236951802751545
1746.0,0.03137697904301118
1745.0,0.031563752288295444
1744.0,0.03175060589208267
1743.0,0.03184406285002961
1742.0,0.03189079887180224
1741.0,0.03193753992355086
1740.0,0.032031037121307726
1739.0,0.032031037121307726
1738.0,0.032031037121307726
1737.0,0.032031037121307726
1736.0,0.032031037121307726
1735.0,0.032031037121307726
1734.0,0.031984286006358165
1733.0,0.031657169041054534
1732.0,0.031236951802751545
1731.0,0.031003673351687855
1730.0,0.0307239045110681
1729.0,0.030490901403433135
1728.0,0.03030458888152676
1727.0,0.030164906924202484
1726.0,0.030071810571884017
1725.0,0.03002526987828502
1724.0,0.029932203450862893
1723.0,0.029792641193145286
1722.0,0.02960662792039992
1721.0,0.02942069428514915
1720.0,0.029141943003497595
1719.0,0.028863370523193765
1718.0,0.02872415126189476
1717.0,0.028677754757187035
1716.0,0.028677754757187035
1715.0,0.02872415126189476
1714.0,0.028816959143838528
1713.0,0.028770552723758724
1712.0,0.028677754757187035
1711.0,0.02849221828874393
1710.0,0.028353117935693284
1709.0,0.028214062120885508
1708.0,0.028028723600243666
1707.0,0.027843464140506313
1706.0,0.027797161620935595
1705.0,0.027889771597169544
1704.0,0.02812138297373412
1703.0,0.028353117935693284
1702.0,0.028538594975413334
1701.0,0.02863136320857662
1700.0,0.028538594975413334
1699.0,0.028306761050139073
1698.0,0.028445846553939003
1697.0,0.02872415126189476
1696.0,0.028770552723758724
1695.0,0.02839947976994095
1694.0,0.02812138297373412
1693.0,0.028075050815808744
1692.0,0.02798240132598462
1691.0,0.027889771597169544
1690.0,0.027843464140506313
1689.0,0.027889771597169544
1688.0,0.02798240132598462
1687.0,0.028028723600243666
1686.0,0.02798240132598462
1685.0,0.02798240132598462
1684.0,0.028167720075074953
1683.0,0.028167720075074953
1682.0,0.028306761050139073
1681.0,0.02849221828874393
1680.0,0.02849221828874393
1679.0,0.028445846553939003
1678.0,0.028353117935693284
1677.0,0.028353117935693284
1676.0,0.028538594975413334
1675.0,0.02872415126189476
1674.0,0.028816959143838528
1673.0,0.028770552723758724
1672.0,0.02872415126189476
1671.0,0.02872415126189476
1670.0,0.028816959143838528
1669.0,0.02890978686288448
1668.0,0.02890978686288448
1667.0,0.02890978686288448
1666.0,0.028863370523193765
1665.0,0.028770552723758724
1664.0,0.028677754757187035
1663.0,0.02858497661500481
1662.0,0.02858497661500481
1661.0,0.028538594975413334
1660.0,0.028538594975413334
1659.0,0.02849221828874393
1658.0,0.02839947976994095
1657.0,0.028306761050139073
1656.0,0.028306761050139073
1655.0,0.028306761050139073
1654.0,0.028538594975413334
1653.0,0.02863136320857662
1652.0,0.028028723600243666
1651.0,0.027843464140506313
1650.0,0.027843464140506313
1649.0,0.027750864037404455
1648.0,0.027612000892527133
1647.0,0.027658283674251827
1646.0,0.02747318213414429
1645.0,0.027288159452933503
1644.0,0.027195677663422346
1643.0,0.027149444152769986
1642.0,0.02710321556345563
1641.0,0.027056991894431892
1640.0,0.027010773144651168
1639.0,0.02696455931306696
1638.0,0.02691835039863255
1637.0,0.02691835039863255
1636.0,0.027010773144651168
1635.0,0.02691835039863255
1634.0,0.026733563891471412
1633.0,0.026687379547098322
1632.0,0.026687379547098322
1631.0,0.026687379547098322
1630.0,0.026687379547098322
1629.0,0.026733563891471412
1628.0,0.026733563891471412
1627.0,0.026687379547098322
1626.0,0.026502691267936695
1625.0,0.026318081496016443
1624.0,0.026087429580295085
1623.0,0.025995203102585407
1622.0,0.025995203102585407
1621.0,0.026041313893296225
1620.0,0.02613355016462182
1619.0,0.026271941311972746
1618.0,0.02636422658259252
1617.0,0.02636422658259252
1616.0,0.026271941311972746
1615.0,0.026271941311972746
1614.0,0.02636422658259252
1613.0,0.026595025589939425
1612.0,0.026872146400301444
1611.0,0.027334407733889066
1610.0,0.028214062120885508
1609.0,0.029560137048236124
1608.0,0.03151705144606498
1607.0,0.03414006319292828
1606.0,0.0371573187987575
1605.0,0.04057697805689475
1604.0,0.04421607108308856
1603.0,0.047691990337874746
1602.0,0.05026854768429301
1601.0,0.05144033789103841
1600.0,0.05114709380028648
1599.0,0.04958646063061889
1598.0,0.04725597598510167
1597.0,0.04460091336073302
1596.0,0.04215336629184985
1595.0,0.04010041213405646
1594.0,0.03838909190871931
1593.0,0.03701541568300293
1592.0,0.03588185684851508
1591.0,0.03489241415094413
1590.0,0.03409308450480819
1589.0,0.03357665405630694
1588.0,0.03352973627071565
1587.0,0.034046110897937076
1586.0,0.0349394793888016
1585.0,0.03597620715996652
1584.0,0.03682628362474838
1583.0,0.03720463014276687
1582.0,0.03682628362474838
1581.0,0.03578752703018084
1580.0,0.034516075754861264
1579.0,0.03338901331806565
1578.0,0.03235843591698884
1577.0,0.03151705144606498
1576.0,0.030863766403287585
1575.0,0.03030458888152676
1574.0,0.029885677714903025
1573.0,0.029513651152349718
1572.0,0.029095501846216454
1571.0,0.028677754757187035
1570.0,0.02839947976994095
1569.0,0.028214062120885508
1568.0,0.028075050815808744
1567.0,0.028028723600243666
1566.0,0.027936083991977778
1565.0,0.027750864037404455
1564.0,0.0277045713888604
1563.0,0.027750864037404455
1562.0,0.027797161620935595
1561.0,0.02751945012352408
1560.0,0.027056991894431892
1559.0,0.027195677663422346
1558.0,0.027010773144651168
1557.0,0.02691835039863255
1556.0,0.027149444152769986
1555.0,0.027426919073445077
1554.0,0.02751945012352408
1553.0,0.027565723042634938
1552.0,0.027565723042634938
1551.0,0.027612000892527133
1550.0,0.027658283674251827
1549.0,0.0277045713888604
1548.0,0.027797161620935595
1547.0,0.027843464140506313
1546.0,0.027843464140506313
1545.0,0.027797161620935595
1544.0,0.027750864037404455
1543.0,0.027750864037404455
1542.0,0.027750864037404455
1541.0,0.0277045713888604
1540.0,0.027612000892527133
1539.0,0.027288159452933503
1538.0,0.027056991894431892
1537.0,0.027149444152769986
1536.0,0.027149444152769986
1535.0,0.02696455931306696
1534.0,0.026733563891471412
1533.0,0.02654885597506529
1532.0,0.02636422658259252
1531.0,0.026271941311972746
1530.0,0.026041313893296225
1529.0,0.025718641122169483
1528.0,0.025488307262671706
1527.0,0.02539620791296726
1526.0,0.025304128090317013
1525.0,0.02512002699306959
1524.0,0.02484402159331056
1523.0,0.024568191490736968
1522.0,0.024430342106337877
1521.0,0.024430342106337877
1520.0,0.02438440203310499
1519.0,0.02438440203310499
1518.0,0.02438440203310499
1517.0,0.024292536462819925
1516.0,0.024200690320592466
1515.0,0.024108863598207186
1514.0,0.024017056287453542
1513.0,0.023833499868024743
1512.0,0.02355831062115543
1511.0,0.023329119375188556
1510.0,0.02314585342378117
1509.0,0.02296266477531872
1508.0,0.02300845469384938
1507.0,0.023237476732539397
1506.0,0.023100049017062307
1505.0,0.02296266477531872
1504.0,0.023054249440757957
1503.0,0.023283295636617574
1502.0,0.023604163388120325
1501.0,0.02438440203310499
1500.0,0.025995203102585407
1499.0,0.029188389127482228
1498.0,0.03541041251009669
1497.0,0.046143701775014145
1496.0,0.05998184499233683
1495.0,0.07273231918911849
1494.0,0.08202211740709164
1493.0,0.0872466963286771
1492.0,0.0877779434675845
1491.0,0.0830725338870073
1490.0,0.07432700607875953
1489.0,0.06519865825346338
1488.0,0.05804158346918653
1487.0,0.05261529831525902
1486.0,0.04837110616336182
1485.0,0.04503426894157925
1484.0,0.04229695845116854
1483.0,0.039909932095080425
1482.0,0.03782014709123227
1481.0,0.03616496929785207
1480.0,0.03489241415094413
1479.0,0.03385826726096752
1478.0,0.0329671178412978
1477.0,0.03226486821611996
1476.0,0.03170388495374454
1475.0,0.031190286087141805
1474.0,0.0307239045110681
1473.0,0.03058408764601861
1472.0,0.03058408764601861
1471.0,0.030490901403433135
1470.0,0.030397735151460825
1469.0,0.030444315779156517
1468.0,0.030397735151460825
1467.0,0.03030458888152676
1466.0,0.030164906924202484
1465.0,0.030164906924202484
1464.0,0.030211462585061133
1463.0,0.030118356253500123
1462.0,0.029978734171634214
1461.0,0.029978734171634214
1460.0,0.030397735151460825
1459.0,0.03189079887180224
1458.0,0.037346595106788616
1457.0,0.04875964967565971
1456.0,0.06163040254819374
1455.0,0.07211658966929302
1454.0,0.08071265949561734
1453.0,0.08745911720936239
1452.0,0.0910326995816122
1451.0,0.09076499663169257
1450.0,0.0877779434675845
1449.0,0.08359869639612438
1448.0,0.0794071379151915
1447.0,0.07587584681417514
1446.0,0.0729891310243489
1445.0,0.07032568205141221
1444.0,0.06752623532284674
1443.0,0.06469430971007495
1442.0,0.06198090252378963
1441.0,0.0595831353183347
1440.0,0.05744631966579017
1439.0,0.05531996611868961
1438.0,0.0531548860393769
1437.0,0.050902874887084115
1436.0,0.04866248120408234
1435.0,0.04672366333269573
1434.0,0.04508244626504121
1433.0,0.043495409683302455
1432.0,0.04200982159316968
1431.0,0.04062466342415694
1430.0,0.03943409718180235
1429.0,0.038436537637930535
1428.0,0.037583306554248797
1427.0,0.036873558918095295
1426.0,0.03621217265444465
1425.0,0.03559892883726867
1424.0,0.03512779136222477
1423.0,0.03484535401307465
1422.0,0.03465716443937783
1421.0,0.03437503289075727
1420.0,0.03414006319292828
1419.0,0.033905220553829274
1418.0,0.03362357691107709
1417.0,0.033295223342125535
1416.0,0.0329671178412978
1415.0,0.03263926003405038
1414.0,0.03226486821611996
1413.0,0.031984286006358165
1412.0,0.03175060589208267
1411.0,0.03161045815293173
1410.0,0.03151705144606498
1409.0,0.03137697904301118
1408.0,0.031236951802751545
1407.0,0.031096969696171817
1406.0,0.030910397045078586
1405.0,0.030770520137356927
1404.0,0.03063068826647264
1403.0,0.03058408764601861
1402.0,0.030537492025363155
1401.0,0.030444315779156517
1400.0,0.030397735151460825
1399.0,0.030444315779156517
1398.0,0.030444315779156517
1397.0,0.030444315779156517
1396.0,0.030397735151460825
1395.0,0.030537492025363155
1394.0,0.030770520137356927
1393.0,0.03105031901865729
1392.0,0.03128362253321426
1391.0,0.031563752288295444
1390.0,0.03193753992355086
1389.0,0.03235843591698884
1388.0,0.03301397488206215
1387.0,0.03371743783253667
1386.0,0.03432802877989327
1385.0,0.03479829897408804
1384.0,0.03517488211661135
1383.0,0.035646070707806565
1382.0,0.036117771071222604
1381.0,0.03658998431977123
1380.0,0.037062711569998186
1379.0,0.037583306554248797
1378.0,0.03810452633214956
1377.0,0.038531444649213764
1376.0,0.038958783046687984
1375.0,0.03938654235209116
1374.0,0.03986232513620536
1373.0,0.04014804520039483
1372.0,0.040243327009005014
1371.0,0.040243327009005014
1370.0,0.04014804520039483
1369.0,0.0400527842915015
1368.0,0.03995754427315856
1367.0,0.039909932095080425
1366.0,0.039767126871487646
1365.0,0.03967194946985697
1364.0,0.03952922246570112
1363.0,0.03948165721929198
1362.0,0.03943409718180235
1361.0,0.03929144831144349
1360.0,0.03905380426616856
1359.0,0.03876880295533702
1358.0,0.03848398855105106
1357.0,0.038199360808321536
1356.0,0.03800971255993524
1355.0,0.03786753070176463
1354.0,0.03777276864991497
1353.0,0.03763066432997886
1352.0,0.03753595394209874
1351.0,0.037488606492403154
1350.0,0.037488606492403154
1349.0,0.037488606492403154
1348.0,0.03744126420403626
1347.0,0.037346595106788616
1346.0,0.0371573187987575
1345.0,0.0369681249461018
1344.0,0.03668448861388862
1343.0,0.03635381351515665
1342.0,0.0360705779734416
1341.0,0.03583468937826462
1340.0,0.035646070707806565
1339.0,0.03559892883726867
1338.0,0.03559892883726867
1337.0,0.035646070707806565
1336.0,0.035740369803151095
1335.0,0.03588185684851508
1334.0,0.03616496929785207
1333.0,0.03644826642590382
1332.0,0.036779013477011624
1331.0,0.0371100126082089
1330.0,0.037346595106788616
1329.0,0.03753595394209874
1328.0,0.03767802727041558
1327.0,0.03772539537668518
1326.0,0.03763066432997886
1325.0,0.037488606492403154
1324.0,0.037299268295658994
1323.0,0.0371100126082089
1322.0,0.03692083935817303
1321.0,0.03682628362474838
1320.0,0.036779013477011624
1319.0,0.036779013477011624
1318.0,0.03682628362474838
1317.0,0.03692083935817303
1316.0,0.0371100126082089
1315.0,0.037346595106788616
1314.0,0.03763066432997886
1313.0,0.03782014709123227
1312.0,0.03796231343498735
1311.0,0.03796231343498735
1310.0,0.03786753070176463
1309.0,0.03767802727041558
1308.0,0.03739392707587297
1307.0,0.0371573187987575
1306.0,0.03692083935817303
1305.0,0.036731748473764814
1304.0,0.036542739883292485
1303.0,0.03635381351515665
1302.0,0.03616496929785207
1301.0,0.03597620715996652
1300.0,0.035740369803151095
1299.0,0.03555179208333925
1298.0,0.03541041251009669
1297.0,0.03526907894637077
1296.0,0.03517488211661135
1295.0,0.03508070571335731
1294.0,0.03498654972775217
1293.0,0.03484535401307465
1292.0,0.03470420418834386
1291.0,0.03461012978487776
1290.0,0.034516075754861264
1289.0,0.034469056377139484
1288.0,0.03432802877989327
1287.0,0.03423403581731388
1286.0,0.03414006319292828
1285.0,0.034046110897937076
1284.0,0.033952178923546183
1283.0,0.033905220553829274
1282.0,0.03385826726096752
1281.0,0.033905220553829274
1280.0,0.03385826726096752
1279.0,0.03376437590141812
1278.0,0.03357665405630694
1277.0,0.03338901331806565
1276.0,0.033154576345083564
1275.0,0.03301397488206215
1274.0,0.032873418923587305
1273.0,0.03273290844021437
1272.0,0.03263926003405038
1271.0,0.032545631817259224
1270.0,0.03245202378113787
1269.0,0.032311649546687526
1268.0,0.032124554451966825
1267.0,0.031984286006358165
1266.0,0.03189079887180224
1265.0,0.03175060589208267
1264.0,0.031657169041054534
1263.0,0.03151705144606498
1262.0,0.03142366482450232
1261.0,0.03133029827960798
1260.0,0.03133029827960798
1259.0,0.03133029827960798
1258.0,0.03133029827960798
1257.0,0.03128362253321426
1256.0,0.031143625385307683
1255.0,0.03105031901865729
1254.0,0.031003673351687855
1253.0,0.031003673351687855
1252.0,0.030957032694186815
1251.0,0.030957032694186815
1250.0,0.030957032694186815
1249.0,0.031003673351687855
1248.0,0.03105031901865729
1247.0,0.03105031901865729
1246.0,0.03105031901865729
1245.0,0.031003673351687855
1244.0,0.030957032694186815
1243.0,0.030863766403287585
1242.0,0.0307239045110681
1241.0,0.03063068826647264
1240.0,0.030490901403433135
1239.0,0.030444315779156517
1238.0,0.03030458888152676
1237.0,0.030211462585061133
1236.0,0.030118356253500123
1235.0,0.03002526987828502
1234.0,0.029978734171634214
1233.0,0.029932203450862893
1232.0,0.029932203450862893
1231.0,0.029885677714903025
1230.0,0.029932203450862893
1229.0,0.029978734171634214
1228.0,0.03002526987828502
1227.0,0.030071810571884017
1226.0,0.030118356253500123
1225.0,0.03002526987828502
1224.0,0.029932203450862893
1223.0,0.029839156962686353
1222.0,0.029792641193145286
1221.0,0.029792641193145286
1220.0,0.029792641193145286
1219.0,0.029839156962686353
1218.0,0.029792641193145286
1217.0,0.02969962459782227
1216.0,0.02960662792039992
1215.0,0.029653123769906697
1214.0,0.029746130405213123
1213.0,0.029885677714903025
1212.0,0.03002526987828502
1211.0,0.030118356253500123
1210.0,0.030211462585061133
1209.0,0.03025802323714588
1208.0,0.030397735151460825
1207.0,0.030537492025363155
1206.0,0.0307239045110681
1205.0,0.030910397045078586
1204.0,0.031096969696171817
1203.0,0.03133029827960798
1202.0,0.03170388495374454
1201.0,0.03207779326948268
1200.0,0.03240522732811035
1199.0,0.03263926003405038
1198.0,0.03282657704446046
1197.0,0.0329671178412978
1196.0,0.03310770413286357
1195.0,0.0332483359486222
1194.0,0.03334211579824231
1193.0,0.03343591590268957
1192.0,0.03352973627071565
1191.0,0.03357665405630694
1190.0,0.03367050483612166
1189.0,0.03385826726096752
1188.0,0.034046110897937076
1187.0,0.03442204208947208
1186.0,0.0349394793888016
1185.0,0.035646070707806565
1184.0,0.03649550058570927
1183.0,0.037299268295658994
1182.0,0.03796231343498735
1181.0,0.03829421599749461
1180.0,0.038199360808321536
1179.0,0.03777276864991497
1178.0,0.037062711569998186
1177.0,0.03630659476198117
1176.0,0.03555179208333925
1175.0,0.03479829897408804
1174.0,0.034187046963396917
1173.0,0.03367050483612166
1172.0,0.03334211579824231
1171.0,0.03310770413286357
1170.0,0.0329671178412978
1169.0,0.03282657704446046
1168.0,0.032686081712916426
1167.0,0.032545631817259224
1166.0,0.03240522732811035
1165.0,0.03235843591698884
1164.0,0.03235843591698884
1163.0,0.032545631817259224
1162.0,0.032873418923587305
1161.0,0.033295223342125535
1160.0,0.033905220553829274
1159.0,0.03475124903287918
1158.0,0.03578752703018084
1157.0,0.0369681249461018
1156.0,0.038057116858612794
1155.0,0.03886378261277468
1154.0,0.03910132267333921
1153.0,0.03876880295533702
1152.0,0.03786753070176463
1151.0,0.03668448861388862
1150.0,0.03550466044490741
1149.0,0.034469056377139484
1148.0,0.03357665405630694
1147.0,0.032873418923587305
1146.0,0.03226486821611996
1145.0,0.03170388495374454
1144.0,0.031236951802751545
1143.0,0.030770520137356927
1142.0,0.030397735151460825
1141.0,0.030071810571884017
1140.0,0.029792641193145286
1139.0,0.029560137048236124
1138.0,0.029281296279810798
1137.0,0.02904906565457588
1136.0,0.028863370523193765
1135.0,0.02872415126189476
1134.0,0.02858497661500481
1133.0,0.028538594975413334
1132.0,0.02849221828874393
1131.0,0.02849221828874393
1130.0,0.02849221828874393
1129.0,0.028538594975413334
1128.0,0.02858497661500481
1127.0,0.028538594975413334
1126.0,0.02849221828874393
1125.0,0.028445846553939003
1124.0,0.028445846553939003
1123.0,0.028445846553939003
1122.0,0.028538594975413334
1121.0,0.028677754757187035
1120.0,0.028816959143838528
1119.0,0.02904906565457588
1118.0,0.029281296279810798
1117.0,0.029513651152349718
1116.0,0.029746130405213123
1115.0,0.029978734171634214
1114.0,0.030164906924202484
1113.0,0.03030458888152676
1112.0,0.03030458888152676
1111.0,0.030211462585061133
1110.0,0.030071810571884017
1109.0,0.029932203450862893
1108.0,0.029839156962686353
1107.0,0.029792641193145286
1106.0,0.029792641193145286
1105.0,0.02969962459782227
1104.0,0.029560137048236124
1103.0,0.029374223311705583
1102.0,0.029234840219232394
1101.0,0.029188389127482228
1100.0,0.029234840219232394
1099.0,0.02942069428514915
1098.0,0.029560137048236124
1097.0,0.02969962459782227
1096.0,0.029792641193145286
1095.0,0.029839156962686353
1094.0,0.029839156962686353
1093.0,0.029746130405213123
1092.0,0.02960662792039992
1091.0,0.029513651152349718
1090.0,0.029467170231675777
1089.0,0.029467170231675777
1088.0,0.029374223311705583
1087.0,0.029374223311705583
1086.0,0.02942069428514915
1085.0,0.02960662792039992
1084.0,0.029932203450862893
1083.0,0.03030458888152676
1082.0,0.03067729388779794
1081.0,0.031003673351687855
1080.0,0.03142366482450232
1079.0,0.03184406285002961
1078.0,0.032311649546687526
1077.0,0.03277974021703267
1076.0,0.03334211579824231
1075.0,0.03409308450480819
1074.0,0.03503362516890207
1073.0,0.036117771071222604
1072.0,0.0371573187987575
1071.0,0.03800971255993524
1070.0,0.03862637240519895
1069.0,0.038911280232103884
1068.0,0.03886378261277468
1067.0,0.038531444649213764
1066.0,0.038057116858612794
1065.0,0.037488606492403154
1064.0,0.0369681249461018
1063.0,0.036401037402758574
1062.0,0.03578752703018084
1061.0,0.03517488211661135
1060.0,0.034516075754861264
1059.0,0.033952178923546183
1058.0,0.03343591590268957
1057.0,0.03301397488206215
1056.0,0.032545631817259224
1055.0,0.032124554451966825
1054.0,0.03170388495374454
1053.0,0.031236951802751545
1052.0,0.030863766403287585
1051.0,0.030490901403433135
1050.0,0.030118356253500123
1049.0,0.029839156962686353
1048.0,0.029653123769906697
1047.0,0.029467170231675777
1046.0,0.029234840219232394
1045.0,0.028956208163971375
1044.0,0.028677754757187035
1043.0,0.028538594975413334
1042.0,0.02849221828874393
1041.0,0.028445846553939003
1040.0,0.02849221828874393
1039.0,0.02863136320857662
1038.0,0.029095501846216454
1037.0,0.030071810571884017
1036.0,0.031657169041054534
1035.0,0.034046110897937076
1034.0,0.0371573187987575
1033.0,0.04076775094900409
1032.0,0.04460091336073302
1031.0,0.048128442871635535
1030.0,0.051098239029786274
1029.0,0.05310580489767336
1028.0,0.05403929642243144
1027.0,0.05389176956309405
1026.0,0.05281143447390635
1025.0,0.05100054597304693
1024.0,0.04885683989244738
1023.0,0.04682039893436585
1022.0,0.04508244626504121
1021.0,0.04359142880416744
1020.0,0.042344833056508824
1019.0,0.041149548320321694
1018.0,0.04010041213405646
1017.0,0.03914884628031379
1016.0,0.03829421599749461
1015.0,0.03753595394209874
1014.0,0.036873558918095295
1013.0,0.03625938114211591
1012.0,0.035646070707806565
1011.0,0.03508070571335731
1010.0,0.03461012978487776
1009.0,0.03442204208947208
1008.0,0.034469056377139484
1007.0,0.03479829897408804
1006.0,0.03531618502395939
1005.0,0.03578752703018084
1004.0,0.03616496929785207
1003.0,0.03625938114211591
1002.0,0.0360705779734416
1001.0,0.03559892883726867
1000.0,0.03484535401307465
999.0,0.03399914237121604
998.0,0.0332483359486222
997.0,0.03263926003405038
996.0,0.032218091924200776
995.0,0.03189079887180224
994.0,0.031657169041054534
993.0,0.03151705144606498
992.0,0.03151705144606498
991.0,0.031657169041054534
990.0,0.03184406285002961
989.0,0.032031037121307726
988.0,0.03217132066984485
987.0,0.03235843591698884
986.0,0.032545631817259224
985.0,0.032873418923587305
984.0,0.033201453616638954
983.0,0.03352973627071565
982.0,0.03376437590141812
981.0,0.033905220553829274
980.0,0.033952178923546183
979.0,0.03385826726096752
978.0,0.03357665405630694
977.0,0.0332483359486222
976.0,0.03282657704446046
975.0,0.03240522732811035
974.0,0.032124554451966825
973.0,0.031984286006358165
972.0,0.031984286006358165
971.0,0.03207779326948268
970.0,0.03235843591698884
969.0,0.03277974021703267
968.0,0.0332483359486222
967.0,0.03371743783253667
966.0,0.034187046963396917
965.0,0.03456310022373987
964.0,0.03475124903287918
963.0,0.03470420418834386
962.0,0.03437503289075727
961.0,0.03385826726096752
960.0,0.033154576345083564
959.0,0.03240522732811035
958.0,0.03170388495374454
957.0,0.03128362253321426
956.0,0.03105031901865729
955.0,0.031003673351687855
954.0,0.030957032694186815
953.0,0.03081714076773867
952.0,0.03063068826647264
951.0,0.030490901403433135
950.0,0.030490901403433135
949.0,0.03067729388779794
948.0,0.03105031901865729
947.0,0.03147035562516054
946.0,0.03189079887180224
945.0,0.03217132066984485
944.0,0.03245202378113787
943.0,0.032592443402527316
942.0,0.03263926003405038
941.0,0.032545631817259224
940.0,0.03235843591698884
939.0,0.03217132066984485
938.0,0.03193753992355086
937.0,0.03170388495374454
936.0,0.03147035562516054
935.0,0.031190286087141805
934.0,0.030863766403287585
933.0,0.030444315779156517
932.0,0.029978734171634214
931.0,0.029560137048236124
930.0,0.029234840219232394
929.0,0.02904906565457588
928.0,0.029002634427514717
927.0,0.029002634427514717
926.0,0.029002634427514717
925.0,0.02904906565457588
924.0,0.029141943003497595
923.0,0.029234840219232394
922.0,0.02932775731028059
921.0,0.029374223311705583
920.0,0.029513651152349718
919.0,0.029839156962686353
918.0,0.03030458888152676
917.0,0.031003673351687855
916.0,0.03184406285002961
915.0,0.032873418923587305
914.0,0.03414006319292828
913.0,0.035646070707806565
912.0,0.03739392707587297
911.0,0.03919637508823026
910.0,0.04105406750606355
909.0,0.04268010314465909
908.0,0.04402377775167454
907.0,0.04488976902944808
906.0,0.04527520902093718
905.0,0.0451788169482068
904.0,0.04455278942230456
903.0,0.0433514207947967
902.0,0.04172287445230238
901.0,0.039909932095080425
900.0,0.038057116858612794
899.0,0.03625938114211591
898.0,0.03456310022373987
897.0,0.033060836978886954
896.0,0.03189079887180224
895.0,0.031096969696171817
894.0,0.03067729388779794
893.0,0.030444315779156517
892.0,0.03025802323714588
891.0,0.03002526987828502
890.0,0.02969962459782227
889.0,0.029234840219232394
888.0,0.028770552723758724
887.0,0.028306761050139073
886.0,0.02798240132598462
885.0,0.027750864037404455
884.0,0.027658283674251827
883.0,0.027565723042634938
882.0,0.02747318213414429
881.0,0.027426919073445077
880.0,0.027334407733889066
879.0,0.027149444152769986
878.0,0.027010773144651168
877.0,0.02696455931306696
876.0,0.027056991894431892
875.0,0.027195677663422346
874.0,0.02724191609646076
873.0,0.02710321556345563
872.0,0.02696455931306696
871.0,0.02682594731702781
870.0,0.02682594731702781
869.0,0.026872146400301444
868.0,0.026872146400301444
867.0,0.026872146400301444
866.0,0.02677975314776626
865.0,0.026733563891471412
864.0,0.026687379547098322
863.0,0.026595025589939425
862.0,0.026410376572743033
861.0,0.02617967564731627
860.0,0.026041313893296225
859.0,0.025949097207122573
858.0,0.025949097207122573
857.0,0.025949097207122573
856.0,0.025949097207122573
855.0,0.025902996205869
854.0,0.025856900097785074
853.0,0.026041313893296225
852.0,0.026410376572743033
851.0,0.02696455931306696
850.0,0.027612000892527133
849.0,0.028306761050139073
848.0,0.028956208163971375
847.0,0.029467170231675777
846.0,0.029792641193145286
845.0,0.030118356253500123
844.0,0.030537492025363155
843.0,0.03105031901865729
842.0,0.03142366482450232
841.0,0.031657169041054534
840.0,0.031563752288295444
839.0,0.031190286087141805
838.0,0.030490901403433135
837.0,0.029653123769906697
836.0,0.028677754757187035
835.0,0.02751945012352408
834.0,0.02636422658259252
833.0,0.025350165561278004
832.0,0.024660115394541604
831.0,0.024338466818941473
830.0,0.024108863598207186
829.0,0.023879381700184332
828.0,0.023741750742954926
827.0,0.02365002099672653
826.0,0.023604163388120325
825.0,0.02355831062115543
824.0,0.023374947949272418
823.0,0.023237476732539397
822.0,0.023054249440757957
821.0,0.02282532397981263
820.0,0.02255077261765881
819.0,0.02245929405346514
818.0,0.02245929405346514
817.0,0.02255077261765881
816.0,0.022642270454698687
815.0,0.022642270454698687
814.0,0.02255077261765881
813.0,0.022413561996148967
812.0,0.02227639471115217
811.0,0.022230681908425698
810.0,0.022139270735302752
809.0,0.021956506090037076
808.0,0.02168250325324883
807.0,0.02140867317992523
806.0,0.02122621566987748
805.0,0.0211806132671577
804.0,0.0211806132671577
803.0,0.021271822861508305
802.0,0.021271822861508305
801.0,0.0211806132671577
800.0,0.0209982515252789
799.0,0.020861530453190058
798.0,0.02081596632558158
797.0,0.020861530453190058
796.0,0.020907099361673565
795.0,0.020861530453190058
794.0,0.02081596632558158
793.0,0.020907099361673565
792.0,0.021317434843055594
791.0,0.021865152601710403
790.0,0.022413561996148967
789.0,0.02282532397981263
788.0,0.023283295636617574
787.0,0.023833499868024743
786.0,0.024522236834125355
785.0,0.025304128090317013
784.0,0.02613355016462182
783.0,0.027056991894431892
782.0,0.028028723600243666
781.0,0.029141943003497595
780.0,0.030397735151460825
779.0,0.03207779326948268
778.0,0.034187046963396917
777.0,0.036779013477011624
776.0,0.03967194946985697
775.0,0.04272802000705722
774.0,0.04575749056067524
773.0,0.048905443158337114
772.0,0.052419250695677544
771.0,0.05635711724787096
770.0,0.06063052992534024
769.0,0.06514819703433927
768.0,0.06971335275448043
767.0,0.07437854520917098
766.0,0.0788860261633193
765.0,0.08328292240118751
764.0,0.0877779434675845
763.0,0.09253489323414388
762.0,0.09739886933346864
761.0,0.10226297465457268
760.0,0.10707101764479421
759.0,0.11159583226295333
758.0,0.11548784080960606
757.0,0.11850122038501709
756.0,0.12050271275057156
755.0,0.12176553132495593
754.0,0.12245589228405596
753.0,0.12268625668776156
752.0,0.12280148472821018
751.0,0.12291674334934943
750.0,0.1233203895807995
749.0,0.12383991517437187
748.0,0.12401322857151209
747.0,0.12314735239865637
746.0,0.1207320431753871
745.0,0.116736140415026
744.0,0.1114835389250548
743.0,0.10535169620648288
742.0,0.09865067458435761
741.0,0.09183679994445204
740.0,0.08533956941077814
739.0,0.0794071379151915
738.0,0.07401789967289685
737.0,0.06884736147670667
736.0,0.06373765809652254
735.0,0.05863766428823891
734.0,0.053596866100945384
733.0,0.04871106272232795
732.0,0.04440844959427559
731.0,0.040672354027829094
730.0,0.03739392707587297
729.0,0.03437503289075727
728.0,0.03170388495374454
727.0,0.029467170231675777
726.0,0.027565723042634938
725.0,0.025810808881832736
724.0,0.024246610963712723
723.0,0.022871099419317753
722.0,0.02159120737696063
721.0,0.02013307743509718
720.0,0.018679826740892747
719.0,0.017547848615010242
718.0,0.016734647433454652
717.0,0.01628352608625061
716.0,0.016013078034810446
715.0,0.016058141016111804
714.0,0.016554142658660398
713.0,0.01768353030793479
712.0,0.01990568621470623
711.0,0.023925268380126097
710.0,0.03002526987828502
709.0,0.03824678581321739
708.0,0.048565334467987054
707.0,0.06123017721688262
706.0,0.07654873036034848
705.0,0.09452793807529569
704.0,0.11509140583739286
703.0,0.13816700234205515
702.0,0.16361258067358908
701.0,0.191383964573008
700.0,0.22112552799726037
699.0,0.2525105077413272
698.0,0.2849163293050727
697.0,0.31605286924848786
696.0,0.3402739047622083
695.0,0.3495953301319683
694.0,0.339608901597533
693.0,0.3139002280040841
692.0,0.28058584029740663
691.0,0.24595761321456378
690.0,0.21339052735134012
689.0,0.18521985425419518
688.0,0.16354928627984533
687.0,0.1489251947711132
686.0,0.13978181533124334
685.0,0.13347637446715632
684.0,0.12819363554127072
683.0,0.12285911021517903
682.0,0.116736140415026
681.0,0.10935546370475246
680.0,0.10127481841050656
679.0,0.09415017335768128
678.0,0.08937559511079884
677.0,0.08687520961044104
676.0,0.08555105930144569
675.0,0.08423093401631587
674.0,0.08259953204474924
673.0,0.08076496207674921
672.0,0.079094395835976
671.0,0.07758597585436577
670.0,0.07556563645676939
669.0,0.07221915065262552
668.0,0.06956040523329987
667.0,0.06961138175567827
666.0,0.06966236426227002
665.0,0.06793230779927839
664.0,0.0653500770992892
663.0,0.06298389253518577
662.0,0.0611301784870133
661.0,0.05978244440026481
660.0,0.058936011780097886
659.0,0.0583891978463662
658.0,0.05779345772290467
657.0,0.0567528748621382
656.0,0.055270639696704205
655.0,0.053449489430144714
654.0,0.051098239029786274
653.0,0.04841965509660828
652.0,0.04633693625290869
651.0,0.045660991397539874
650.0,0.046192002334692894
649.0,0.04696554274964315
648.0,0.04725597598510167
647.0,0.04711073508906982
646.0,0.0469171560879138
645.0,0.04711073508906982
644.0,0.048225491918274965
643.0,0.05012229596312534
642.0,0.05188057561946402
641.0,0.05281143447390635
640.0,0.05325306496641513
639.0,0.05403929642243144
638.0,0.054876229877880656
637.0,0.055172003656783764
636.0,0.055172003656783764
635.0,0.05586292684190197
634.0,0.05709945885970602
633.0,0.0571489934456626
632.0,0.055566682299785564
631.0,0.05443294655761144
630.0,0.055122694036304765
629.0,0.056456022846545606
628.0,0.05655495097496965
627.0,0.05502409158795207
626.0,0.05310580489767336
625.0,0.05222329153526162
624.0,0.05295859474477971
623.0,0.05507339001378431
622.0,0.05779345772290467
621.0,0.05948351506743288
620.0,0.05868737463933793
619.0,0.05551732784983132
618.0,0.05192951848105887
617.0,0.05021979163799939
616.0,0.05095170768433621
615.0,0.05256627811294923
614.0,0.053449489430144714
613.0,0.053596866100945384
612.0,0.054088483180726676
611.0,0.055270639696704205
610.0,0.05620880107069848
609.0,0.05566540802921782
608.0,0.0534986094304124
607.0,0.050414848673348
606.0,0.04754660357696672
605.0,0.04541983725624266
604.0,0.04397571771932274
603.0,0.04272802000705722
602.0,0.04091088563260792
601.0,0.03876880295533702
600.0,0.03810452633214956
