cm-1,A
4000.0,0.0101
3999.0,0.0101
3998.0,0.0101
3997.0,0.0102
3996.0,0.0103
3995.0,0.0103
3994.0,0.0104
3993.0,0.0105
3992.0,0.0105
3991.0,0.0106
3990.0,0.0106
3989.0,0.0105
3988.0,0.0105
3987.0,0.0104
3986.0,0.0103
3985.0,0.0103
3984.0,0.0103
3983.0,0.0103
3982.0,0.0103
3981.0,0.0103
3980.0,0.0103
3979.0,0.0103
3978.0,0.0103
3977.0,0.0103
3976.0,0.0103
3975.0,0.0103
3974.0,0.0103
3973.0,0.0103
3972.0,0.0103
3971.0,0.0103
3970.0,0.0103
3969.0,0.0104
3968.0,0.0104
3967.0,0.0104
3966.0,0.0105
3965.0,0.0105
3964.0,0.0105
3963.0,0.0104
3962.0,0.0103
3961.0,0.0103
3960.0,0.0102
3959.0,0.0103
3958.0,0.0103
3957.0,0.0103
3956.0,0.0103
3955.0,0.0102
3954.0,0.0102
3953.0,0.0101
3952.0,0.0101
3951.0,0.0101
3950.0,0.0101
3949.0,0.01
3948.0,0.01
3947.0,0.0101
3946.0,0.0101
3945.0,0.0102
3944.0,0.0102
3943.0,0.0102
3942.0,0.0102
3941.0,0.0102
3940.0,0.0102
3939.0,0.0103
3938.0,0.0103
3937.0,0.0103
3936.0,0.0103
3935.0,0.0103
3934.0,0.0102
3933.0,0.0102
3932.0,0.0102
3931.0,0.0102
3930.0,0.0102
3929.0,0.0101
3928.0,0.0102
3927.0,0.0102
3926.0,0.0103
3925.0,0.0103
3924.0,0.0103
3923.0,0.0103
3922.0,0.0103
3921.0,0.0103
3920.0,0.0104
3919.0,0.0105
3918.0,0.0105
3917.0,0.0105
3916.0,0.0104
3915.0,0.0104
3914.0,0.0105
3913.0,0.0105
3912.0,0.0106
3911.0,0.0106
3910.0,0.0105
3909.0,0.0104
3908.0,0.0102
3907.0,0.01
3906.0,0.0098
3905.0,0.0098
3904.0,0.0099
3903.0,0.0099
3902.0,0.01
3901.0,0.01
3900.0,0.0099
3899.0,0.0099
3898.0,0.01
3897.0,0.01
3896.0,0.01
3895.0,0.0101
3894.0,0.0101
3893.0,0.0103
3892.0,0.0104
3891.0,0.0103
3890.0,0.0101
3889.0,0.01
3888.0,0.0099
3887.0,0.0099
3886.0,0.01
3885.0,0.0101
3884.0,0.0101
3883.0,0.0101
3882.0,0.0102
3881.0,0.0102
3880.0,0.0102
3879.0,0.0101
3878.0,0.01
3877.0,0.01
3876.0,0.01
3875.0,0.01
3874.0,0.01
3873.0,0.01
3872.0,0.01
3871.0,0.0099
3870.0,0.0099
3869.0,0.0098
3868.0,0.0098
3867.0,0.0099
3866.0,0.0101
3865.0,0.0102
3864.0,0.0103
3863.0,0.0103
3862.0,0.0103
3861.0,0.0103
3860.0,0.0102
3859.0,0.0102
3858.0,0.0101
3857.0,0.0099
3856.0,0.0098
3855.0,0.0098
3854.0,0.0099
3853.0,0.0098
3852.0,0.0097
3851.0,0.0098
3850.0,0.0101
3849.0,0.0104
3848.0,0.0105
3847.0,0.0105
3846.0,0.0104
3845.0,0.0103
3844.0,0.0103
3843.0,0.0102
3842.0,0.0102
3841.0,0.0101
3840.0,0.0101
3839.0,0.01
3838.0,0.0099
3837.0,0.0098
3836.0,0.0098
3835.0,0.0099
3834.0,0.0101
3833.0,0.0102
3832.0,0.0103
3831.0,0.0104
3830.0,0.0104
3829.0,0.0105
3828.0,0.0106
3827.0,0.0106
3826.0,0.0104
3825.0,0.0102
3824.0,0.01
3823.0,0.0099
3822.0,0.01
3821.0,0.01
3820.0,0.0099
3819.0,0.0099
3818.0,0.01
3817.0,0.0102
3816.0,0.0103
3815.0,0.0104
3814.0,0.0105
3813.0,0.0106
3812.0,0.0107
3811.0,0.0107
3810.0,0.0107
3809.0,0.0107
3808.0,0.0107
3807.0,0.0107
3806.0,0.0105
3805.0,0.0103
3804.0,0.0102
3803.0,0.0102
3802.0,0.0102
3801.0,0.0101
3800.0,0.0099
3799.0,0.0099
3798.0,0.0101
3797.0,0.0104
3796.0,0.0106
3795.0,0.0108
3794.0,0.0109
3793.0,0.011
3792.0,0.0111
3791.0,0.0112
3790.0,0.0112
3789.0,0.0112
3788.0,0.0111
3787.0,0.011
3786.0,0.0109
3785.0,0.0109
3784.0,0.0108
3783.0,0.0108
3782.0,0.0108
3781.0,0.0108
3780.0,0.0108
3779.0,0.0108
3778.0,0.0108
3777.0,0.0109
3776.0,0.011
3775.0,0.0111
3774.0,0.0111
3773.0,0.011
3772.0,0.011
3771.0,0.011
3770.0,0.011
3769.0,0.0109
3768.0,0.0108
3767.0,0.0108
3766.0,0.0108
3765.0,0.0108
3764.0,0.0108
3763.0,0.0108
3762.0,0.0108
3761.0,0.0108
3760.0,0.0108
3759.0,0.0107
3758.0,0.0106
3757.0,0.0106
3756.0,0.0105
3755.0,0.0104
3754.0,0.0103
3753.0,0.0102
3752.0,0.0103
3751.0,0.0104
3750.0,0.0104
3749.0,0.0103
3748.0,0.0104
3747.0,0.0105
3746.0,0.0107
3745.0,0.011
3744.0,0.0112
3743.0,0.0112
3742.0,0.0114
3741.0,0.0114
3740.0,0.0114
3739.0,0.0114
3738.0,0.0114
3737.0,0.0116
3736.0,0.0119
3735.0,0.0121
3734.0,0.0123
3733.0,0.0125
3732.0,0.0128
3731.0,0.0129
3730.0,0.013
3729.0,0.0131
3728.0,0.0131
3727.0,0.0131
3726.0,0.0131
3725.0,0.013
3724.0,0.013
3723.0,0.013
3722.0,0.0129
3721.0,0.0128
3720.0,0.0126
3719.0,0.0125
3718.0,0.0123
3717.0,0.0122
3716.0,0.012
3715.0,0.0119
3714.0,0.0118
3713.0,0.0118
3712.0,0.0119
3711.0,0.0121
3710.0,0.0122
3709.0,0.0124
3708.0,0.0126
3707.0,0.0127
3706.0,0.0128
3705.0,0.0129
3704.0,0.0129
3703.0,0.0128
3702.0,0.0128
3701.0,0.0127
3700.0,0.0127
3699.0,0.0128
3698.0,0.0129
3697.0,0.013
3696.0,0.013
3695.0,0.0129
3694.0,0.0127
3693.0,0.0125
3692.0,0.0122
3691.0,0.012
3690.0,0.0118
3689.0,0.0117
3688.0,0.0117
3687.0,0.0119
3686.0,0.0121
3685.0,0.0122
3684.0,0.0122
3683.0,0.0121
3682.0,0.012
3681.0,0.0119
3680.0,0.0117
3679.0,0.0115
3678.0,0.0112
3677.0,0.0109
3676.0,0.0108
3675.0,0.0106
3674.0,0.0105
3673.0,0.0106
3672.0,0.0108
3671.0,0.011
3670.0,0.0113
3669.0,0.0114
3668.0,0.0115
3667.0,0.0117
3666.0,0.0119
3665.0,0.012
3664.0,0.0121
3663.0,0.0121
3662.0,0.0121
3661.0,0.0121
3660.0,0.0121
3659.0,0.0121
3658.0,0.0122
3657.0,0.0123
3656.0,0.0123
3655.0,0.0121
3654.0,0.0119
3653.0,0.0117
3652.0,0.0116
3651.0,0.0118
3650.0,0.0122
3649.0,0.0122
3648.0,0.0119
3647.0,0.0118
3646.0,0.012
3645.0,0.0123
3644.0,0.0125
3643.0,0.0128
3642.0,0.013
3641.0,0.0133
3640.0,0.0135
3639.0,0.0136
3638.0,0.0137
3637.0,0.0138
3636.0,0.014
3635.0,0.0141
3634.0,0.0141
3633.0,0.014
3632.0,0.0138
3631.0,0.0138
3630.0,0.014
3629.0,0.0143
3628.0,0.0145
3627.0,0.0147
3626.0,0.0149
3625.0,0.0151
3624.0,0.0152
3623.0,0.0152
3622.0,0.0151
3621.0,0.0151
3620.0,0.015
3619.0,0.0149
3618.0,0.0147
3617.0,0.0146
3616.0,0.0145
3615.0,0.0145
3614.0,0.0145
3613.0,0.0145
3612.0,0.0146
3611.0,0.0148
3610.0,0.015
3609.0,0.0153
3608.0,0.0156
3607.0,0.0157
3606.0,0.0157
3605.0,0.0158
3604.0,0.0158
3603.0,0.0159
3602.0,0.0161
3601.0,0.0162
3600.0,0.0163
3599.0,0.0163
3598.0,0.0163
3597.0,0.0163
3596.0,0.0164
3595.0,0.0165
3594.0,0.0166
3593.0,0.0167
3592.0,0.0167
3591.0,0.0167
3590.0,0.0166
3589.0,0.0165
3588.0,0.0165
3587.0,0.0166
3586.0,0.0167
3585.0,0.0169
3584.0,0.0171
3583.0,0.0172
3582.0,0.0172
3581.0,0.0171
3580.0,0.0171
3579.0,0.0171
3578.0,0.0171
3577.0,0.0172
3576.0,0.0172
3575.0,0.0173
3574.0,0.0173
3573.0,0.0173
3572.0,0.0173
3571.0,0.0172
3570.0,0.0171
3569.0,0.017
3568.0,0.0171
3567.0,0.0173
3566.0,0.0175
3565.0,0.0176
3564.0,0.0177
3563.0,0.0179
3562.0,0.018
3561.0,0.0181
3560.0,0.0182
3559.0,0.0182
3558.0,0.0183
3557.0,0.0184
3556.0,0.0184
3555.0,0.0184
3554.0,0.0185
3553.0,0.0186
3552.0,0.0186
3551.0,0.0187
3550.0,0.0188
3549.0,0.0189
3548.0,0.019
3547.0,0.0192
3546.0,0.0193
3545.0,0.0193
3544.0,0.0193
3543.0,0.0194
3542.0,0.0195
3541.0,0.0196
3540.0,0.0197
3539.0,0.0198
3538.0,0.0199
3537.0,0.0199
3536.0,0.0199
3535.0,0.0199
3534.0,0.02
3533.0,0.02
3532.0,0.0201
3531.0,0.0201
3530.0,0.0202
3529.0,0.0203
3528.0,0.0204
3527.0,0.0205
3526.0,0.0206
3525.0,0.0206
3524.0,0.0206
3523.0,0.0207
3522.0,0.0208
3521.0,0.021
3520.0,0.0211
3519.0,0.0212
3518.0,0.0212
3517.0,0.0213
3516.0,0.0214
3515.0,0.0215
3514.0,0.0216
3513.0,0.0218
3512.0,0.0218
3511.0,0.0219
3510.0,0.0219
3509.0,0.0219
3508.0,0.022
3507.0,0.022
3506.0,0.022
3505.0,0.0219
3504.0,0.0219
3503.0,0.022
3502.0,0.0222
3501.0,0.0224
3500.0,0.0226
3499.0,0.0227
3498.0,0.0228
3497.0,0.0229
3496.0,0.023
3495.0,0.0231
3494.0,0.0232
3493.0,0.0233
3492.0,0.0233
3491.0,0.0234
3490.0,0.0234
3489.0,0.0235
3488.0,0.0235
3487.0,0.0236
3486.0,0.0236
3485.0,0.0236
3484.0,0.0237
3483.0,0.0237
3482.0,0.0238
3481.0,0.0238
3480.0,0.0239
3479.0,0.024
3478.0,0.024
3477.0,0.0241
3476.0,0.0242
3475.0,0.0243
3474.0,0.0244
3473.0,0.0245
3472.0,0.0246
3471.0,0.0246
3470.0,0.0246
3469.0,0.0247
3468.0,0.0248
3467.0,0.0249
3466.0,0.025
3465.0,0.025
3464.0,0.025
3463.0,0.025
3462.0,0.025
3461.0,0.0251
3460.0,0.0251
3459.0,0.0253
3458.0,0.0254
3457.0,0.0255
3456.0,0.0255
3455.0,0.0255
3454.0,0.0256
3453.0,0.0256
3452.0,0.0257
3451.0,0.0257
3450.0,0.0257
3449.0,0.0257
3448.0,0.0257
3447.0,0.0258
3446.0,0.0258
3445.0,0.0259
3444.0,0.026
3443.0,0.0261
3442.0,0.0262
3441.0,0.0263
3440.0,0.0264
3439.0,0.0264
3438.0,0.0264
3437.0,0.0264
3436.0,0.0265
3435.0,0.0266
3434.0,0.0267
3433.0,0.0268
3432.0,0.0268
3431.0,0.0268
3430.0,0.0268
3429.0,0.0268
3428.0,0.0269
3427.0,0.027
3426.0,0.027
3425.0,0.0271
3424.0,0.0271
3423.0,0.0271
3422.0,0.0272
3421.0,0.0272
3420.0,0.0273
3419.0,0.0274
3418.0,0.0275
3417.0,0.0276
3416.0,0.0277
3415.0,0.0277
3414.0,0.0277
3413.0,0.0276
3412.0,0.0276
3411.0,0.0276
3410.0,0.0276
3409.0,0.0276
3408.0,0.0276
3407.0,0.0277
3406.0,0.0277
3405.0,0.0278
3404.0,0.0278
3403.0,0.0278
3402.0,0.0278
3401.0,0.0277
3400.0,0.0277
3399.0,0.0277
3398.0,0.0278
3397.0,0.0278
3396.0,0.0278
3395.0,0.0278
3394.0,0.0278
3393.0,0.0277
3392.0,0.0278
3391.0,0.0278
3390.0,0.0279
3389.0,0.0279
3388.0,0.0279
3387.0,0.0279
3386.0,0.028
3385.0,0.028
3384.0,0.028
3383.0,0.0281
3382.0,0.0281
3381.0,0.0281
3380.0,0.028
3379.0,0.028
3378.0,0.028
3377.0,0.0279
3376.0,0.0279
3375.0,0.0279
3374.0,0.0279
3373.0,0.0279
3372.0,0.0279
3371.0,0.0279
3370.0,0.0279
3369.0,0.028
3368.0,0.0279
3367.0,0.0279
3366.0,0.0278
3365.0,0.0277
3364.0,0.0276
3363.0,0.0276
3362.0,0.0277
3361.0,0.0277
3360.0,0.0277
3359.0,0.0278
3358.0,0.0278
3357.0,0.0278
3356.0,0.0277
3355.0,0.0276
3354.0,0.0276
3353.0,0.0276
3352.0,0.0277
3351.0,0.0277
3350.0,0.0277
3349.0,0.0276
3348.0,0.0276
3347.0,0.0275
3346.0,0.0275
3345.0,0.0275
3344.0,0.0274
3343.0,0.0273
3342.0,0.0273
3341.0,0.0273
3340.0,0.0273
3339.0,0.0273
3338.0,0.0272
3337.0,0.0271
3336.0,0.0271
3335.0,0.0271
3334.0,0.0271
3333.0,0.027
3332.0,0.0269
3331.0,0.0269
3330.0,0.0269
3329.0,0.0269
3328.0,0.027
3327.0,0.0269
3326.0,0.0268
3325.0,0.0267
3324.0,0.0265
3323.0,0.0264
3322.0,0.0264
3321.0,0.0264
3320.0,0.0264
3319.0,0.0263
3318.0,0.0263
3317.0,0.0262
3316.0,0.0262
3315.0,0.0261
3314.0,0.0261
3313.0,0.0261
3312.0,0.0261
3311.0,0.0261
3310.0,0.0261
3309.0,0.026
3308.0,0.0258
3307.0,0.0257
3306.0,0.0255
3305.0,0.0255
3304.0,0.0255
3303.0,0.0255
3302.0,0.0255
3301.0,0.0256
3300.0,0.0256
3299.0,0.0257
3298.0,0.0257
3297.0,0.0257
3296.0,0.0256
3295.0,0.0254
3294.0,0.0253
3293.0,0.0252
3292.0,0.0252
3291.0,0.0252
3290.0,0.0252
3289.0,0.0252
3288.0,0.0252
3287.0,0.0251
3286.0,0.0251
3285.0,0.025
3284.0,0.0249
3283.0,0.0248
3282.0,0.0248
3281.0,0.0248
3280.0,0.0248
3279.0,0.0247
3278.0,0.0246
3277.0,0.0246
3276.0,0.0246
3275.0,0.0245
3274.0,0.0245
3273.0,0.0244
3272.0,0.0243
3271.0,0.0242
3270.0,0.0242
3269.0,0.0241
3268.0,0.0241
3267.0,0.024
3266.0,0.0241
3265.0,0.0242
3264.0,0.0242
3263.0,0.0242
3262.0,0.0241
3261.0,0.0239
3260.0,0.0238
3259.0,0.0236
3258.0,0.0236
3257.0,0.0235
3256.0,0.0236
3255.0,0.0236
3254.0,0.0236
3253.0,0.0236
3252.0,0.0235
3251.0,0.0234
3250.0,0.0234
3249.0,0.0234
3248.0,0.0235
3247.0,0.0234
3246.0,0.0234
3245.0,0.0233
3244.0,0.0233
3243.0,0.0232
3242.0,0.0232
3241.0,0.0232
3240.0,0.0231
3239.0,0.023
3238.0,0.023
3237.0,0.0229
3236.0,0.0229
3235.0,0.0229
3234.0,0.0229
3233.0,0.0229
3232.0,0.0229
3231.0,0.0228
3230.0,0.0227
3229.0,0.0226
3228.0,0.0225
3227.0,0.0224
3226.0,0.0223
3225.0,0.0222
3224.0,0.0222
3223.0,0.0222
3222.0,0.0221
3221.0,0.0221
3220.0,0.0221
3219.0,0.022
3218.0,0.022
3217.0,0.0221
3216.0,0.022
3215.0,0.022
3214.0,0.0219
3213.0,0.022
3212.0,0.022
3211.0,0.0221
3210.0,0.0221
3209.0,0.022
3208.0,0.0218
3207.0,0.0217
3206.0,0.0216
3205.0,0.0215
3204.0,0.0215
3203.0,0.0215
3202.0,0.0215
3201.0,0.0215
3200.0,0.0213
3199.0,0.0212
3198.0,0.0212
3197.0,0.0211
3196.0,0.0211
3195.0,0.021
3194.0,0.0209
3193.0,0.0208
3192.0,0.0207
3191.0,0.0207
3190.0,0.0207
3189.0,0.0207
3188.0,0.0206
3187.0,0.0206
3186.0,0.0205
3185.0,0.0204
3184.0,0.0203
3183.0,0.0203
3182.0,0.0203
3181.0,0.0203
3180.0,0.0203
3179.0,0.0202
3178.0,0.0201
3177.0,0.02
3176.0,0.0199
3175.0,0.0198
3174.0,0.0198
3173.0,0.0197
3172.0,0.0196
3171.0,0.0196
3170.0,0.0195
3169.0,0.0194
3168.0,0.0192
3167.0,0.0191
3166.0,0.0191
3165.0,0.0191
3164.0,0.0192
3163.0,0.0191
3162.0,0.019
3161.0,0.0189
3160.0,0.0188
3159.0,0.0187
3158.0,0.0187
3157.0,0.0187
3156.0,0.0186
3155.0,0.0186
3154.0,0.0185
3153.0,0.0184
3152.0,0.0183
3151.0,0.0182
3150.0,0.0182
3149.0,0.0182
3148.0,0.0181
3147.0,0.0181
3146.0,0.0182
3145.0,0.0181
3144.0,0.0181
3143.0,0.0179
3142.0,0.0178
3141.0,0.0177
3140.0,0.0176
3139.0,0.0175
3138.0,0.0174
3137.0,0.0173
3136.0,0.0173
3135.0,0.0173
3134.0,0.0172
3133.0,0.0171
3132.0,0.017
3131.0,0.017
3130.0,0.0169
3129.0,0.0168
3128.0,0.0167
3127.0,0.0167
3126.0,0.0165
3125.0,0.0164
3124.0,0.0163
3123.0,0.0163
3122.0,0.0163
3121.0,0.0163
3120.0,0.0163
3119.0,0.0162
3118.0,0.0161
3117.0,0.016
3116.0,0.016
3115.0,0.016
3114.0,0.0159
3113.0,0.0159
3112.0,0.0158
3111.0,0.0157
3110.0,0.0157
3109.0,0.0156
3108.0,0.0155
3107.0,0.0154
3106.0,0.0153
3105.0,0.0152
3104.0,0.0151
3103.0,0.0151
3102.0,0.015
3101.0,0.0149
3100.0,0.0148
3099.0,0.0147
3098.0,0.0146
3097.0,0.0145
3096.0,0.0145
3095.0,0.0144
3094.0,0.0144
3093.0,0.0143
3092.0,0.0143
3091.0,0.0143
3090.0,0.0143
3089.0,0.0143
3088.0,0.0142
3087.0,0.0141
3086.0,0.014
3085.0,0.0139
3084.0,0.0138
3083.0,0.0137
3082.0,0.0136
3081.0,0.0135
3080.0,0.0134
3079.0,0.0134
3078.0,0.0133
3077.0,0.0133
3076.0,0.0133
3075.0,0.0133
3074.0,0.0132
3073.0,0.0132
3072.0,0.0131
3071.0,0.013
3070.0,0.0129
3069.0,0.0127
3068.0,0.0127
3067.0,0.0126
3066.0,0.0126
3065.0,0.0126
3064.0,0.0125
3063.0,0.0124
3062.0,0.0123
3061.0,0.0122
3060.0,0.0121
3059.0,0.0119
3058.0,0.0118
3057.0,0.0116
3056.0,0.0116
3055.0,0.0115
3054.0,0.0115
3053.0,0.0115
3052.0,0.0115
3051.0,0.0115
3050.0,0.0114
3049.0,0.0113
3048.0,0.0112
3047.0,0.0111
3046.0,0.0111
3045.0,0.011
3044.0,0.0109
3043.0,0.0107
3042.0,0.0106
3041.0,0.0105
3040.0,0.0104
3039.0,0.0103
3038.0,0.0103
3037.0,0.0102
3036.0,0.0101
3035.0,0.01
3034.0,0.0098
3033.0,0.0097
3032.0,0.0096
3031.0,0.0095
3030.0,0.0094
3029.0,0.0093
3028.0,0.0093
3027.0,0.0092
3026.0,0.0091
3025.0,0.009
3024.0,0.0089
3023.0,0.0088
3022.0,0.0087
3021.0,0.0087
3020.0,0.0086
3019.0,0.0086
3018.0,0.0085
3017.0,0.0084
3016.0,0.0082
3015.0,0.008
3014.0,0.0078
3013.0,0.0077
3012.0,0.0076
3011.0,0.0076
3010.0,0.0075
3009.0,0.0073
3008.0,0.0072
3007.0,0.0071
3006.0,0.007
3005.0,0.0069
3004.0,0.0068
3003.0,0.0067
3002.0,0.0066
3001.0,0.0066
3000.0,0.0066
2999.0,0.0066
2998.0,0.0066
2997.0,0.0067
2996.0,0.0068
2995.0,0.0069
2994.0,0.007
2993.0,0.0071
2992.0,0.0072
2991.0,0.0073
2990.0,0.0074
2989.0,0.0076
2988.0,0.0078
2987.0,0.0082
2986.0,0.0087
2985.0,0.0092
2984.0,0.0099
2983.0,0.0107
2982.0,0.0117
2981.0,0.0128
2980.0,0.014
2979.0,0.0154
2978.0,0.017
2977.0,0.0188
2976.0,0.021
2975.0,0.0234
2974.0,0.0263
2973.0,0.0295
2972.0,0.0331
2971.0,0.0372
2970.0,0.0417
2969.0,0.0467
2968.0,0.0521
2967.0,0.058
2966.0,0.0641
2965.0,0.0703
2964.0,0.0763
2963.0,0.0818
2962.0,0.0866
2961.0,0.0903
2960.0,0.0932
2959.0,0.0953
2958.0,0.0971
2957.0,0.0988
2956.0,0.1008
2955.0,0.1032
2954.0,0.106
2953.0,0.1089
2952.0,0.1113
2951.0,0.1128
2950.0,0.1126
2949.0,0.1107
2948.0,0.1071
2947.0,0.1019
2946.0,0.0957
2945.0,0.089
2944.0,0.0824
2943.0,0.0763
2942.0,0.0713
2941.0,0.0675
2940.0,0.0648
2939.0,0.0632
2938.0,0.0626
2937.0,0.0631
2936.0,0.0644
2935.0,0.0666
2934.0,0.0696
2933.0,0.0733
2932.0,0.0775
2931.0,0.0822
2930.0,0.0873
2929.0,0.0924
2928.0,0.0976
2927.0,0.1025
2926.0,0.1072
2925.0,0.1117
2924.0,0.116
2923.0,0.1204
2922.0,0.1248
2921.0,0.1289
2920.0,0.1325
2919.0,0.1352
2918.0,0.1365
2917.0,0.1364
2916.0,0.135
2915.0,0.1326
2914.0,0.1295
2913.0,0.1263
2912.0,0.1234
2911.0,0.1208
2910.0,0.1185
2909.0,0.1164
2908.0,0.1143
2907.0,0.1122
2906.0,0.11
2905.0,0.1076
2904.0,0.105
2903.0,0.1022
2902.0,0.0994
2901.0,0.0965
2900.0,0.0936
2899.0,0.0907
2898.0,0.088
2897.0,0.0855
2896.0,0.0832
2895.0,0.0811
2894.0,0.0794
2893.0,0.078
2892.0,0.0769
2891.0,0.0761
2890.0,0.0755
2889.0,0.0752
2888.0,0.075
2887.0,0.0751
2886.0,0.0754
2885.0,0.0758
2884.0,0.0764
2883.0,0.0772
2882.0,0.0782
2881.0,0.0792
2880.0,0.0803
2879.0,0.0811
2878.0,0.0817
2877.0,0.0818
2876.0,0.0816
2875.0,0.0814
2874.0,0.0812
2873.0,0.0814
2872.0,0.0818
2871.0,0.0826
2870.0,0.0837
2869.0,0.0847
2868.0,0.0854
2867.0,0.0854
2866.0,0.0844
2865.0,0.082
2864.0,0.0786
2863.0,0.0745
2862.0,0.0701
2861.0,0.0659
2860.0,0.0622
2859.0,0.0592
2858.0,0.0568
2857.0,0.0551
2856.0,0.0539
2855.0,0.0531
2854.0,0.0528
2853.0,0.0528
2852.0,0.0531
2851.0,0.0537
2850.0,0.0546
2849.0,0.056
2848.0,0.0577
2847.0,0.0599
2846.0,0.0627
2845.0,0.066
2844.0,0.0697
2843.0,0.0736
2842.0,0.0775
2841.0,0.0812
2840.0,0.0843
2839.0,0.0864
2838.0,0.0872
2837.0,0.0865
2836.0,0.0843
2835.0,0.0808
2834.0,0.0765
2833.0,0.0718
2832.0,0.0673
2831.0,0.0631
2830.0,0.0595
2829.0,0.0565
2828.0,0.0539
2827.0,0.0517
2826.0,0.0498
2825.0,0.0482
2824.0,0.0469
2823.0,0.0458
2822.0,0.0448
2821.0,0.0439
2820.0,0.0431
2819.0,0.0424
2818.0,0.0417
2817.0,0.041
2816.0,0.0404
2815.0,0.0397
2814.0,0.0392
2813.0,0.0388
2812.0,0.0384
2811.0,0.038
2810.0,0.0376
2809.0,0.0372
2808.0,0.0368
2807.0,0.0363
2806.0,0.0358
2805.0,0.0354
2804.0,0.0349
2803.0,0.0345
2802.0,0.0341
2801.0,0.0337
2800.0,0.0333
2799.0,0.033
2798.0,0.0327
2797.0,0.0325
2796.0,0.0323
2795.0,0.0321
2794.0,0.0319
2793.0,0.0317
2792.0,0.0315
2791.0,0.0312
2790.0,0.0309
2789.0,0.0306
2788.0,0.0303
2787.0,0.03
2786.0,0.0297
2785.0,0.0295
2784.0,0.0292
2783.0,0.029
2782.0,0.0288
2781.0,0.0286
2780.0,0.0284
2779.0,0.0283
2778.0,0.0282
2777.0,0.0281
2776.0,0.0279
2775.0,0.0278
2774.0,0.0276
2773.0,0.0275
2772.0,0.0274
2771.0,0.0272
2770.0,0.0271
2769.0,0.0269
2768.0,0.0268
2767.0,0.0267
2766.0,0.0265
2765.0,0.0264
2764.0,0.0263
2763.0,0.0262
2762.0,0.026
2761.0,0.0259
2760.0,0.0258
2759.0,0.0258
2758.0,0.0257
2757.0,0.0256
2756.0,0.0256
2755.0,0.0255
2754.0,0.0254
2753.0,0.0253
2752.0,0.0253
2751.0,0.0252
2750.0,0.0252
2749.0,0.0251
2748.0,0.025
2747.0,0.025
2746.0,0.0249
2745.0,0.0249
2744.0,0.0249
2743.0,0.0249
2742.0,0.0249
2741.0,0.0249
2740.0,0.0249
2739.0,0.0249
2738.0,0.025
2737.0,0.025
2736.0,0.0251
2735.0,0.0252
2734.0,0.0252
2733.0,0.0252
2732.0,0.0252
2731.0,0.0252
2730.0,0.0253
2729.0,0.0255
2728.0,0.0257
2727.0,0.0259
2726.0,0.0261
2725.0,0.0263
2724.0,0.0264
2723.0,0.0264
2722.0,0.0263
2721.0,0.0263
2720.0,0.0261
2719.0,0.0259
2718.0,0.0258
2717.0,0.0256
2716.0,0.0254
2715.0,0.0253
2714.0,0.025
2713.0,0.0248
2712.0,0.0246
2711.0,0.0245
2710.0,0.0244
2709.0,0.0243
2708.0,0.0243
2707.0,0.0241
2706.0,0.024
2705.0,0.0238
2704.0,0.0236
2703.0,0.0235
2702.0,0.0234
2701.0,0.0233
2700.0,0.0232
2699.0,0.0231
2698.0,0.0231
2697.0,0.0231
2696.0,0.0231
2695.0,0.0231
2694.0,0.023
2693.0,0.023
2692.0,0.0229
2691.0,0.0229
2690.0,0.0229
2689.0,0.0229
2688.0,0.0229
2687.0,0.0228
2686.0,0.0227
2685.0,0.0227
2684.0,0.0227
2683.0,0.0227
2682.0,0.0227
2681.0,0.0227
2680.0,0.0226
2679.0,0.0226
2678.0,0.0226
2677.0,0.0226
2676.0,0.0226
2675.0,0.0225
2674.0,0.0225
2673.0,0.0225
2672.0,0.0225
2671.0,0.0225
2670.0,0.0225
2669.0,0.0224
2668.0,0.0223
2667.0,0.0223
2666.0,0.0222
2665.0,0.0222
2664.0,0.0223
2663.0,0.0223
2662.0,0.0222
2661.0,0.0222
2660.0,0.0221
2659.0,0.0221
2658.0,0.0221
2657.0,0.0221
2656.0,0.0221
2655.0,0.0221
2654.0,0.022
2653.0,0.0219
2652.0,0.0219
2651.0,0.0218
2650.0,0.0217
2649.0,0.0216
2648.0,0.0215
2647.0,0.0214
2646.0,0.0213
2645.0,0.0213
2644.0,0.0214
2643.0,0.0214
2642.0,0.0213
2641.0,0.0213
2640.0,0.0213
2639.0,0.0213
2638.0,0.0212
2637.0,0.0211
2636.0,0.021
2635.0,0.021
2634.0,0.0209
2633.0,0.0209
2632.0,0.0209
2631.0,0.021
2630.0,0.021
2629.0,0.021
2628.0,0.021
2627.0,0.021
2626.0,0.021
2625.0,0.021
2624.0,0.021
2623.0,0.021
2622.0,0.021
2621.0,0.021
2620.0,0.021
2619.0,0.0211
2618.0,0.021
2617.0,0.021
2616.0,0.0209
2615.0,0.0209
2614.0,0.0209
2613.0,0.021
2612.0,0.021
2611.0,0.021
2610.0,0.021
2609.0,0.0208
2608.0,0.0207
2607.0,0.0206
2606.0,0.0204
2605.0,0.0203
2604.0,0.0203
2603.0,0.0202
2602.0,0.0202
2601.0,0.0202
2600.0,0.0202
2599.0,0.0202
2598.0,0.0202
2597.0,0.0202
2596.0,0.0203
2595.0,0.0203
2594.0,0.0203
2593.0,0.0203
2592.0,0.0203
2591.0,0.0202
2590.0,0.0203
2589.0,0.0204
2588.0,0.0205
2587.0,0.0206
2586.0,0.0206
2585.0,0.0206
2584.0,0.0207
2583.0,0.0207
2582.0,0.0207
2581.0,0.0207
2580.0,0.0207
2579.0,0.0206
2578.0,0.0205
2577.0,0.0204
2576.0,0.0203
2575.0,0.0202
2574.0,0.0202
2573.0,0.0201
2572.0,0.0201
2571.0,0.02
2570.0,0.02
2569.0,0.0199
2568.0,0.0199
2567.0,0.0199
2566.0,0.0198
2565.0,0.0198
2564.0,0.0197
2563.0,0.0196
2562.0,0.0195
2561.0,0.0196
2560.0,0.0196
2559.0,0.0197
2558.0,0.0197
2557.0,0.0197
2556.0,0.0196
2555.0,0.0196
2554.0,0.0196
2553.0,0.0195
2552.0,0.0195
2551.0,0.0194
2550.0,0.0194
2549.0,0.0193
2548.0,0.0193
2547.0,0.0193
2546.0,0.0192
2545.0,0.0192
2544.0,0.0191
2543.0,0.0191
2542.0,0.0191
2541.0,0.019
2540.0,0.019
2539.0,0.019
2538.0,0.0191
2537.0,0.0191
2536.0,0.0191
2535.0,0.0191
2534.0,0.019
2533.0,0.019
2532.0,0.0189
2531.0,0.0189
2530.0,0.0188
2529.0,0.0188
2528.0,0.0188
2527.0,0.0188
2526.0,0.0188
2525.0,0.0188
2524.0,0.0188
2523.0,0.0187
2522.0,0.0187
2521.0,0.0187
2520.0,0.0187
2519.0,0.0187
2518.0,0.0186
2517.0,0.0185
2516.0,0.0184
2515.0,0.0183
2514.0,0.0183
2513.0,0.0183
2512.0,0.0183
2511.0,0.0184
2510.0,0.0185
2509.0,0.0185
2508.0,0.0185
2507.0,0.0184
2506.0,0.0184
2505.0,0.0183
2504.0,0.0183
2503.0,0.0183
2502.0,0.0183
2501.0,0.0182
2500.0,0.0182
2499.0,0.0181
2498.0,0.0181
2497.0,0.0182
2496.0,0.0182
2495.0,0.0183
2494.0,0.0183
2493.0,0.0183
2492.0,0.0183
2491.0,0.0183
2490.0,0.0183
2489.0,0.0183
2488.0,0.0183
2487.0,0.0183
2486.0,0.0182
2485.0,0.0181
2484.0,0.0181
2483.0,0.0181
2482.0,0.0181
2481.0,0.018
2480.0,0.018
2479.0,0.0179
2478.0,0.0179
2477.0,0.0179
2476.0,0.0179
2475.0,0.0179
2474.0,0.0179
2473.0,0.0179
2472.0,0.0179
2471.0,0.0179
2470.0,0.0179
2469.0,0.0179
2468.0,0.0178
2467.0,0.0178
2466.0,0.0178
2465.0,0.0177
2464.0,0.0177
2463.0,0.0177
2462.0,0.0177
2461.0,0.0177
2460.0,0.0178
2459.0,0.0178
2458.0,0.0179
2457.0,0.0179
2456.0,0.018
2455.0,0.018
2454.0,0.018
2453.0,0.0179
2452.0,0.0179
2451.0,0.0178
2450.0,0.0178
2449.0,0.0178
2448.0,0.0178
2447.0,0.0178
2446.0,0.0178
2445.0,0.0178
2444.0,0.0178
2443.0,0.0178
2442.0,0.0178
2441.0,0.0178
2440.0,0.0177
2439.0,0.0177
2438.0,0.0177
2437.0,0.0178
2436.0,0.0179
2435.0,0.0179
2434.0,0.018
2433.0,0.018
2432.0,0.018
2431.0,0.018
2430.0,0.018
2429.0,0.018
2428.0,0.0179
2427.0,0.0179
2426.0,0.0178
2425.0,0.0178
2424.0,0.0178
2423.0,0.0178
2422.0,0.0178
2421.0,0.0178
2420.0,0.0178
2419.0,0.0178
2418.0,0.0178
2417.0,0.0178
2416.0,0.0178
2415.0,0.0177
2414.0,0.0177
2413.0,0.0177
2412.0,0.0177
2411.0,0.0177
2410.0,0.0177
2409.0,0.0178
2408.0,0.0178
2407.0,0.0178
2406.0,0.0177
2405.0,0.0177
2404.0,0.0176
2403.0,0.0176
2402.0,0.0176
2401.0,0.0177
2400.0,0.0177
2399.0,0.0177
2398.0,0.0177
2397.0,0.0177
2396.0,0.0177
2395.0,0.0177
2394.0,0.0177
2393.0,0.0177
2392.0,0.0177
2391.0,0.0177
2390.0,0.0178
2389.0,0.0179
2388.0,0.0181
2387.0,0.0183
2386.0,0.0187
2385.0,0.0191
2384.0,0.0197
2383.0,0.0205
2382.0,0.0214
2381.0,0.0223
2380.0,0.0232
2379.0,0.0239
2378.0,0.0243
2377.0,0.0245
2376.0,0.0245
2375.0,0.0243
2374.0,0.0239
2373.0,0.0232
2372.0,0.0229
2371.0,0.0235
2370.0,0.0254
2369.0,0.0281
2368.0,0.0306
2367.0,0.0328
2366.0,0.0345
2365.0,0.0346
2364.0,0.0316
2363.0,0.0255
2362.0,0.0193
2361.0,0.0163
2360.0,0.0177
2359.0,0.0214
2358.0,0.0249
2357.0,0.0269
2356.0,0.0278
2355.0,0.0282
2354.0,0.0281
2353.0,0.028
2352.0,0.0284
2351.0,0.0295
2350.0,0.0308
2349.0,0.0315
2348.0,0.0311
2347.0,0.0296
2346.0,0.0281
2345.0,0.0277
2344.0,0.0282
2343.0,0.0289
2342.0,0.0292
2341.0,0.0289
2340.0,0.0282
2339.0,0.0276
2338.0,0.0277
2337.0,0.0283
2336.0,0.0289
2335.0,0.0291
2334.0,0.0286
2333.0,0.0281
2332.0,0.0278
2331.0,0.0279
2330.0,0.0279
2329.0,0.0276
2328.0,0.027
2327.0,0.0263
2326.0,0.0254
2325.0,0.0245
2324.0,0.0241
2323.0,0.0241
2322.0,0.0245
2321.0,0.0246
2320.0,0.0243
2319.0,0.0237
2318.0,0.0231
2317.0,0.0226
2316.0,0.0225
2315.0,0.0227
2314.0,0.0233
2313.0,0.0241
2312.0,0.0249
2311.0,0.0253
2310.0,0.0254
2309.0,0.0253
2308.0,0.025
2307.0,0.0247
2306.0,0.0244
2305.0,0.0239
2304.0,0.0235
2303.0,0.0232
2302.0,0.0228
2301.0,0.0225
2300.0,0.0222
2299.0,0.0218
2298.0,0.0215
2297.0,0.0213
2296.0,0.021
2295.0,0.0208
2294.0,0.0205
2293.0,0.0201
2292.0,0.0198
2291.0,0.0194
2290.0,0.0191
2289.0,0.0188
2288.0,0.0186
2287.0,0.0183
2286.0,0.0181
2285.0,0.0179
2284.0,0.0178
2283.0,0.0177
2282.0,0.0176
2281.0,0.0176
2280.0,0.0176
2279.0,0.0175
2278.0,0.0176
2277.0,0.0176
2276.0,0.0177
2275.0,0.0177
2274.0,0.0177
2273.0,0.0178
2272.0,0.0178
2271.0,0.0177
2270.0,0.0177
2269.0,0.0177
2268.0,0.0178
2267.0,0.0178
2266.0,0.0178
2265.0,0.0177
2264.0,0.0177
2263.0,0.0176
2262.0,0.0176
2261.0,0.0176
2260.0,0.0176
2259.0,0.0176
2258.0,0.0175
2257.0,0.0175
2256.0,0.0174
2255.0,0.0173
2254.0,0.0172
2253.0,0.0172
2252.0,0.0172
2251.0,0.0172
2250.0,0.0171
2249.0,0.017
2248.0,0.0169
2247.0,0.0168
2246.0,0.0167
2245.0,0.0167
2244.0,0.0167
2243.0,0.0167
2242.0,0.0167
2241.0,0.0167
2240.0,0.0167
2239.0,0.0167
2238.0,0.0167
2237.0,0.0167
2236.0,0.0167
2235.0,0.0167
2234.0,0.0166
2233.0,0.0166
2232.0,0.0166
2231.0,0.0167
2230.0,0.0166
2229.0,0.0166
2228.0,0.0166
2227.0,0.0165
2226.0,0.0165
2225.0,0.0165
2224.0,0.0165
2223.0,0.0165
2222.0,0.0165
2221.0,0.0165
2220.0,0.0165
2219.0,0.0164
2218.0,0.0164
2217.0,0.0164
2216.0,0.0165
2215.0,0.0164
2214.0,0.0164
2213.0,0.0164
2212.0,0.0164
2211.0,0.0164
2210.0,0.0165
2209.0,0.0165
2208.0,0.0164
2207.0,0.0164
2206.0,0.0163
2205.0,0.0164
2204.0,0.0164
2203.0,0.0164
2202.0,0.0164
2201.0,0.0164
2200.0,0.0164
2199.0,0.0164
2198.0,0.0164
2197.0,0.0165
2196.0,0.0165
2195.0,0.0165
2194.0,0.0165
2193.0,0.0165
2192.0,0.0165
2191.0,0.0165
2190.0,0.0165
2189.0,0.0165
2188.0,0.0165
2187.0,0.0165
2186.0,0.0165
2185.0,0.0165
2184.0,0.0165
2183.0,0.0165
2182.0,0.0165
2181.0,0.0165
2180.0,0.0165
2179.0,0.0164
2178.0,0.0164
2177.0,0.0164
2176.0,0.0164
2175.0,0.0164
2174.0,0.0165
2173.0,0.0165
2172.0,0.0165
2171.0,0.0165
2170.0,0.0164
2169.0,0.0164
2168.0,0.0164
2167.0,0.0164
2166.0,0.0164
2165.0,0.0164
2164.0,0.0163
2163.0,0.0163
2162.0,0.0163
2161.0,0.0162
2160.0,0.0162
2159.0,0.0161
2158.0,0.0162
2157.0,0.0162
2156.0,0.0163
2155.0,0.0163
2154.0,0.0162
2153.0,0.0162
2152.0,0.0162
2151.0,0.0162
2150.0,0.0162
2149.0,0.0162
2148.0,0.0162
2147.0,0.0162
2146.0,0.0162
2145.0,0.0162
2144.0,0.0161
2143.0,0.0161
2142.0,0.0161
2141.0,0.016
2140.0,0.016
2139.0,0.0161
2138.0,0.0161
2137.0,0.0161
2136.0,0.0161
2135.0,0.0161
2134.0,0.0161
2133.0,0.0161
2132.0,0.0162
2131.0,0.0162
2130.0,0.0162
2129.0,0.0162
2128.0,0.0162
2127.0,0.0161
2126.0,0.0161
2125.0,0.0161
2124.0,0.0161
2123.0,0.0161
2122.0,0.016
2121.0,0.016
2120.0,0.0159
2119.0,0.0159
2118.0,0.0158
2117.0,0.0158
2116.0,0.0158
2115.0,0.0158
2114.0,0.0158
2113.0,0.0158
2112.0,0.0158
2111.0,0.0159
2110.0,0.0159
2109.0,0.0159
2108.0,0.0158
2107.0,0.0158
2106.0,0.0157
2105.0,0.0157
2104.0,0.0156
2103.0,0.0157
2102.0,0.0157
2101.0,0.0158
2100.0,0.0158
2099.0,0.0158
2098.0,0.0158
2097.0,0.0158
2096.0,0.0157
2095.0,0.0157
2094.0,0.0157
2093.0,0.0157
2092.0,0.0157
2091.0,0.0157
2090.0,0.0157
2089.0,0.0158
2088.0,0.0157
2087.0,0.0157
2086.0,0.0156
2085.0,0.0156
2084.0,0.0157
2083.0,0.0157
2082.0,0.0157
2081.0,0.0158
2080.0,0.0158
2079.0,0.0157
2078.0,0.0157
2077.0,0.0157
2076.0,0.0157
2075.0,0.0156
2074.0,0.0156
2073.0,0.0155
2072.0,0.0156
2071.0,0.0156
2070.0,0.0156
2069.0,0.0157
2068.0,0.0156
2067.0,0.0156
2066.0,0.0155
2065.0,0.0155
2064.0,0.0155
2063.0,0.0155
2062.0,0.0155
2061.0,0.0155
2060.0,0.0155
2059.0,0.0155
2058.0,0.0155
2057.0,0.0156
2056.0,0.0156
2055.0,0.0156
2054.0,0.0156
2053.0,0.0155
2052.0,0.0155
2051.0,0.0154
2050.0,0.0154
2049.0,0.0153
2048.0,0.0153
2047.0,0.0153
2046.0,0.0153
2045.0,0.0153
2044.0,0.0153
2043.0,0.0154
2042.0,0.0154
2041.0,0.0155
2040.0,0.0155
2039.0,0.0155
2038.0,0.0155
2037.0,0.0155
2036.0,0.0154
2035.0,0.0154
2034.0,0.0154
2033.0,0.0153
2032.0,0.0153
2031.0,0.0154
2030.0,0.0154
2029.0,0.0155
2028.0,0.0155
2027.0,0.0154
2026.0,0.0154
2025.0,0.0154
2024.0,0.0154
2023.0,0.0154
2022.0,0.0154
2021.0,0.0154
2020.0,0.0153
2019.0,0.0153
2018.0,0.0153
2017.0,0.0153
2016.0,0.0153
2015.0,0.0153
2014.0,0.0153
2013.0,0.0153
2012.0,0.0152
2011.0,0.0152
2010.0,0.0152
2009.0,0.0152
2008.0,0.0152
2007.0,0.0152
2006.0,0.0153
2005.0,0.0153
2004.0,0.0153
2003.0,0.0153
2002.0,0.0153
2001.0,0.0152
2000.0,0.0152
1999.0,0.0152
1998.0,0.0152
1997.0,0.0152
1996.0,0.0152
1995.0,0.0152
1994.0,0.0152
1993.0,0.0152
1992.0,0.0153
1991.0,0.0153
1990.0,0.0153
1989.0,0.0152
1988.0,0.0152
1987.0,0.0152
1986.0,0.0152
1985.0,0.0152
1984.0,0.0152
1983.0,0.0152
1982.0,0.0152
1981.0,0.0152
1980.0,0.0152
1979.0,0.0152
1978.0,0.0152
1977.0,0.0152
1976.0,0.0152
1975.0,0.0152
1974.0,0.0152
1973.0,0.0152
1972.0,0.0151
1971.0,0.0151
1970.0,0.0151
1969.0,0.0151
1968.0,0.0152
1967.0,0.0152
1966.0,0.0152
1965.0,0.0151
1964.0,0.0151
1963.0,0.0152
1962.0,0.0152
1961.0,0.0151
1960.0,0.0151
1959.0,0.0151
1958.0,0.015
1957.0,0.015
1956.0,0.015
1955.0,0.015
1954.0,0.0151
1953.0,0.0151
1952.0,0.0151
1951.0,0.0151
1950.0,0.0151
1949.0,0.0151
1948.0,0.015
1947.0,0.015
1946.0,0.0149
1945.0,0.0149
1944.0,0.0149
1943.0,0.015
1942.0,0.015
1941.0,0.015
1940.0,0.015
1939.0,0.015
1938.0,0.015
1937.0,0.015
1936.0,0.015
1935.0,0.015
1934.0,0.015
1933.0,0.015
1932.0,0.015
1931.0,0.015
1930.0,0.015
1929.0,0.015
1928.0,0.015
1927.0,0.015
1926.0,0.0149
1925.0,0.015
1924.0,0.0151
1923.0,0.0151
1922.0,0.0151
1921.0,0.0151
1920.0,0.0151
1919.0,0.0151
1918.0,0.0151
1917.0,0.0151
1916.0,0.0151
1915.0,0.0151
1914.0,0.0151
1913.0,0.0151
1912.0,0.0151
1911.0,0.0151
1910.0,0.0151
1909.0,0.0151
1908.0,0.0152
1907.0,0.0152
1906.0,0.0151
1905.0,0.0151
1904.0,0.015
1903.0,0.015
1902.0,0.015
1901.0,0.015
1900.0,0.0151
1899.0,0.0151
1898.0,0.015
1897.0,0.015
1896.0,0.015
1895.0,0.015
1894.0,0.015
1893.0,0.015
1892.0,0.015
1891.0,0.015
1890.0,0.0151
1889.0,0.0151
1888.0,0.015
1887.0,0.015
1886.0,0.015
1885.0,0.015
1884.0,0.015
1883.0,0.015
1882.0,0.015
1881.0,0.0149
1880.0,0.0149
1879.0,0.0149
1878.0,0.0149
1877.0,0.0149
1876.0,0.0149
1875.0,0.0149
1874.0,0.0149
1873.0,0.015
1872.0,0.015
1871.0,0.015
1870.0,0.015
1869.0,0.015
1868.0,0.015
1867.0,0.0149
1866.0,0.0149
1865.0,0.0149
1864.0,0.0149
1863.0,0.0149
1862.0,0.0149
1861.0,0.0149
1860.0,0.015
1859.0,0.015
1858.0,0.015
1857.0,0.015
1856.0,0.015
1855.0,0.015
1854.0,0.015
1853.0,0.015
1852.0,0.0149
1851.0,0.0149
1850.0,0.0149
1849.0,0.015
1848.0,0.015
1847.0,0.0151
1846.0,0.0151
1845.0,0.0151
1844.0,0.0151
1843.0,0.0151
1842.0,0.0151
1841.0,0.0151
1840.0,0.015
1839.0,0.015
1838.0,0.015
1837.0,0.015
1836.0,0.015
1835.0,0.015
1834.0,0.015
1833.0,0.0149
1832.0,0.0149
1831.0,0.0149
1830.0,0.015
1829.0,0.015
1828.0,0.015
1827.0,0.015
1826.0,0.0149
1825.0,0.0149
1824.0,0.0149
1823.0,0.015
1822.0,0.015
1821.0,0.0149
1820.0,0.0149
1819.0,0.0148
1818.0,0.0148
1817.0,0.0148
1816.0,0.0148
1815.0,0.0148
1814.0,0.0148
1813.0,0.0148
1812.0,0.0149
1811.0,0.0149
1810.0,0.0149
1809.0,0.0149
1808.0,0.0149
1807.0,0.0149
1806.0,0.0148
1805.0,0.0148
1804.0,0.0149
1803.0,0.0149
1802.0,0.0149
1801.0,0.0149
1800.0,0.0149
1799.0,0.0149
1798.0,0.0148
1797.0,0.0149
1796.0,0.0149
1795.0,0.0149
1794.0,0.0149
1793.0,0.015
1792.0,0.015
1791.0,0.015
1790.0,0.015
1789.0,0.015
1788.0,0.0151
1787.0,0.0151
1786.0,0.0151
1785.0,0.0151
1784.0,0.0151
1783.0,0.015
1782.0,0.0149
1781.0,0.0148
1780.0,0.0148
1779.0,0.0148
1778.0,0.0149
1777.0,0.0149
1776.0,0.015
1775.0,0.015
1774.0,0.015
1773.0,0.015
1772.0,0.0151
1771.0,0.0151
1770.0,0.0152
1769.0,0.0152
1768.0,0.0152
1767.0,0.0152
1766.0,0.0152
1765.0,0.0152
1764.0,0.0152
1763.0,0.0153
1762.0,0.0153
1761.0,0.0153
1760.0,0.0153
1759.0,0.0154
1758.0,0.0154
1757.0,0.0155
1756.0,0.0155
1755.0,0.0155
1754.0,0.0155
1753.0,0.0156
1752.0,0.0156
1751.0,0.0158
1750.0,0.0159
1749.0,0.016
1748.0,0.0161
1747.0,0.0161
1746.0,0.016
1745.0,0.016
1744.0,0.0161
1743.0,0.0162
1742.0,0.0162
1741.0,0.0162
1740.0,0.0162
1739.0,0.0162
1738.0,0.0162
1737.0,0.0163
1736.0,0.0163
1735.0,0.0163
1734.0,0.0163
1733.0,0.0162
1732.0,0.0161
1731.0,0.0161
1730.0,0.0161
1729.0,0.0161
1728.0,0.0161
1727.0,0.0161
1726.0,0.0162
1725.0,0.0163
1724.0,0.0163
1723.0,0.0163
1722.0,0.0163
1721.0,0.0163
1720.0,0.0163
1719.0,0.0162
1718.0,0.0163
1717.0,0.0164
1716.0,0.0166
1715.0,0.0167
1714.0,0.0168
1713.0,0.0169
1712.0,0.0169
1711.0,0.0169
1710.0,0.0169
1709.0,0.0169
1708.0,0.017
1707.0,0.0171
1706.0,0.0171
1705.0,0.0173
1704.0,0.0174
1703.0,0.0176
1702.0,0.0177
1701.0,0.0177
1700.0,0.0177
1699.0,0.0177
1698.0,0.0178
1697.0,0.018
1696.0,0.0182
1695.0,0.0182
1694.0,0.0182
1693.0,0.0182
1692.0,0.0183
1691.0,0.0183
1690.0,0.0184
1689.0,0.0186
1688.0,0.0188
1687.0,0.0189
1686.0,0.019
1685.0,0.0191
1684.0,0.0193
1683.0,0.0194
1682.0,0.0195
1681.0,0.0197
1680.0,0.0198
1679.0,0.0198
1678.0,0.0199
1677.0,0.0199
1676.0,0.02
1675.0,0.0202
1674.0,0.0203
1673.0,0.0204
1672.0,0.0204
1671.0,0.0205
1670.0,0.0207
1669.0,0.0209
1668.0,0.021
1667.0,0.021
1666.0,0.021
1665.0,0.0211
1664.0,0.0211
1663.0,0.0213
1662.0,0.0215
1661.0,0.0216
1660.0,0.0218
1659.0,0.0219
1658.0,0.0219
1657.0,0.0219
1656.0,0.0218
1655.0,0.0217
1654.0,0.0217
1653.0,0.0221
1652.0,0.0222
1651.0,0.0222
1650.0,0.0223
1649.0,0.0222
1648.0,0.0223
1647.0,0.0224
1646.0,0.0225
1645.0,0.0225
1644.0,0.0225
1643.0,0.0225
1642.0,0.0225
1641.0,0.0225
1640.0,0.0224
1639.0,0.0223
1638.0,0.0223
1637.0,0.0223
1636.0,0.0224
1635.0,0.0225
1634.0,0.0224
1633.0,0.0223
1632.0,0.0223
1631.0,0.0222
1630.0,0.0221
1629.0,0.022
1628.0,0.022
1627.0,0.0219
1626.0,0.0218
1625.0,0.0218
1624.0,0.0218
1623.0,0.0217
1622.0,0.0217
1621.0,0.0216
1620.0,0.0216
1619.0,0.0215
1618.0,0.0214
1617.0,0.0213
1616.0,0.0211
1615.0,0.0211
1614.0,0.0211
1613.0,0.021
1612.0,0.021
1611.0,0.0209
1610.0,0.0208
1609.0,0.0208
1608.0,0.0207
1607.0,0.0207
1606.0,0.0207
1605.0,0.0206
1604.0,0.0206
1603.0,0.0206
1602.0,0.0205
1601.0,0.0205
1600.0,0.0204
1599.0,0.0203
1598.0,0.0203
1597.0,0.0202
1596.0,0.0201
1595.0,0.02
1594.0,0.02
1593.0,0.02
1592.0,0.0199
1591.0,0.0199
1590.0,0.0198
1589.0,0.0198
1588.0,0.0198
1587.0,0.0198
1586.0,0.0197
1585.0,0.0197
1584.0,0.0196
1583.0,0.0196
1582.0,0.0196
1581.0,0.0195
1580.0,0.0194
1579.0,0.0193
1578.0,0.0192
1577.0,0.0191
1576.0,0.019
1575.0,0.0189
1574.0,0.0188
1573.0,0.0188
1572.0,0.0188
1571.0,0.0187
1570.0,0.0186
1569.0,0.0185
1568.0,0.0184
1567.0,0.0183
1566.0,0.0182
1565.0,0.0181
1564.0,0.018
1563.0,0.018
1562.0,0.018
1561.0,0.0178
1560.0,0.0177
1559.0,0.0178
1558.0,0.0176
1557.0,0.0175
1556.0,0.0175
1555.0,0.0175
1554.0,0.0175
1553.0,0.0174
1552.0,0.0174
1551.0,0.0173
1550.0,0.0173
1549.0,0.0172
1548.0,0.0172
1547.0,0.0171
1546.0,0.017
1545.0,0.017
1544.0,0.0171
1543.0,0.017
1542.0,0.0167
1541.0,0.0166
1540.0,0.0165
1539.0,0.0164
1538.0,0.0163
1537.0,0.0164
1536.0,0.0164
1535.0,0.0162
1534.0,0.0161
1533.0,0.0161
1532.0,0.0161
1531.0,0.016
1530.0,0.0159
1529.0,0.0158
1528.0,0.0158
1527.0,0.0157
1526.0,0.0157
1525.0,0.0157
1524.0,0.0157
1523.0,0.0157
1522.0,0.0158
1521.0,0.0158
1520.0,0.0157
1519.0,0.0156
1518.0,0.0154
1517.0,0.0153
1516.0,0.0153
1515.0,0.0152
1514.0,0.0152
1513.0,0.0151
1512.0,0.0151
1511.0,0.015
1510.0,0.0149
1509.0,0.0149
1508.0,0.0151
1507.0,0.0153
1506.0,0.0151
1505.0,0.015
1504.0,0.015
1503.0,0.015
1502.0,0.015
1501.0,0.015
1500.0,0.0151
1499.0,0.0151
1498.0,0.015
1497.0,0.015
1496.0,0.015
1495.0,0.015
1494.0,0.0149
1493.0,0.015
1492.0,0.0151
1491.0,0.0151
1490.0,0.0152
1489.0,0.0153
1488.0,0.0155
1487.0,0.0155
1486.0,0.0156
1485.0,0.0158
1484.0,0.016
1483.0,0.0162
1482.0,0.0166
1481.0,0.017
1480.0,0.0175
1479.0,0.018
1478.0,0.0186
1477.0,0.0196
1476.0,0.0208
1475.0,0.0222
1474.0,0.0243
1473.0,0.0282
1472.0,0.0327
1471.0,0.0364
1470.0,0.0398
1469.0,0.0434
1468.0,0.0473
1467.0,0.0518
1466.0,0.0574
1465.0,0.0641
1464.0,0.0699
1463.0,0.0736
1462.0,0.076
1461.0,0.0778
1460.0,0.0792
1459.0,0.0805
1458.0,0.0828
1457.0,0.0857
1456.0,0.0874
1455.0,0.0878
1454.0,0.0879
1453.0,0.0879
1452.0,0.0874
1451.0,0.0862
1450.0,0.0843
1449.0,0.0811
1448.0,0.0764
1447.0,0.0713
1446.0,0.0665
1445.0,0.0622
1444.0,0.0582
1443.0,0.0546
1442.0,0.0518
1441.0,0.0497
1440.0,0.0483
1439.0,0.0475
1438.0,0.0474
1437.0,0.0476
1436.0,0.0473
1435.0,0.046
1434.0,0.044
1433.0,0.0414
1432.0,0.0385
1431.0,0.0358
1430.0,0.0336
1429.0,0.0319
1428.0,0.0307
1427.0,0.0298
1426.0,0.0291
1425.0,0.0284
1424.0,0.0277
1423.0,0.0273
1422.0,0.0269
1421.0,0.0265
1420.0,0.026
1419.0,0.0256
1418.0,0.0254
1417.0,0.0251
1416.0,0.0247
1415.0,0.0244
1414.0,0.0242
1413.0,0.0238
1412.0,0.0235
1411.0,0.0232
1410.0,0.023
1409.0,0.0227
1408.0,0.0224
1407.0,0.0222
1406.0,0.022
1405.0,0.0218
1404.0,0.0215
1403.0,0.0214
1402.0,0.0212
1401.0,0.021
1400.0,0.0207
1399.0,0.0206
1398.0,0.0205
1397.0,0.0204
1396.0,0.0201
1395.0,0.02
1394.0,0.0199
1393.0,0.0198
1392.0,0.0197
1391.0,0.0197
1390.0,0.0199
1389.0,0.0203
1388.0,0.0211
1387.0,0.0227
1386.0,0.0251
1385.0,0.0283
1384.0,0.0331
1383.0,0.0401
1382.0,0.0495
1381.0,0.0613
1380.0,0.0758
1379.0,0.092
1378.0,0.1074
1377.0,0.1189
1376.0,0.124
1375.0,0.1208
1374.0,0.1106
1373.0,0.0978
1372.0,0.086
1371.0,0.0758
1370.0,0.0666
1369.0,0.0589
1368.0,0.0532
1367.0,0.0494
1366.0,0.047
1365.0,0.0457
1364.0,0.0454
1363.0,0.046
1362.0,0.0472
1361.0,0.0485
1360.0,0.0495
1359.0,0.0498
1358.0,0.0492
1357.0,0.0478
1356.0,0.0458
1355.0,0.0434
1354.0,0.0411
1353.0,0.039
1352.0,0.0372
1351.0,0.0357
1350.0,0.0344
1349.0,0.0333
1348.0,0.0323
1347.0,0.0315
1346.0,0.0308
1345.0,0.0302
1344.0,0.0296
1343.0,0.0291
1342.0,0.0287
1341.0,0.0283
1340.0,0.0281
1339.0,0.0279
1338.0,0.0278
1337.0,0.0276
1336.0,0.0275
1335.0,0.0275
1334.0,0.0276
1333.0,0.0278
1332.0,0.0281
1331.0,0.0283
1330.0,0.0283
1329.0,0.0283
1328.0,0.028
1327.0,0.0278
1326.0,0.0275
1325.0,0.0271
1324.0,0.0268
1323.0,0.0264
1322.0,0.0261
1321.0,0.0258
1320.0,0.0256
1319.0,0.0255
1318.0,0.0253
1317.0,0.0251
1316.0,0.0249
1315.0,0.0247
1314.0,0.0246
1313.0,0.0245
1312.0,0.0245
1311.0,0.0245
1310.0,0.0247
1309.0,0.025
1308.0,0.0256
1307.0,0.0263
1306.0,0.0271
1305.0,0.0277
1304.0,0.028
1303.0,0.0279
1302.0,0.0275
1301.0,0.0272
1300.0,0.027
1299.0,0.0269
1298.0,0.0269
1297.0,0.0269
1296.0,0.0269
1295.0,0.0267
1294.0,0.0265
1293.0,0.0262
1292.0,0.0259
1291.0,0.0256
1290.0,0.0253
1289.0,0.025
1288.0,0.0248
1287.0,0.0246
1286.0,0.0244
1285.0,0.0243
1284.0,0.0242
1283.0,0.0241
1282.0,0.024
1281.0,0.0238
1280.0,0.0237
1279.0,0.0237
1278.0,0.0236
1277.0,0.0236
1276.0,0.0235
1275.0,0.0235
1274.0,0.0234
1273.0,0.0233
1272.0,0.0233
1271.0,0.0233
1270.0,0.0234
1269.0,0.0234
1268.0,0.0234
1267.0,0.0234
1266.0,0.0235
1265.0,0.0236
1264.0,0.0237
1263.0,0.0239
1262.0,0.0242
1261.0,0.0245
1260.0,0.0249
1259.0,0.0254
1258.0,0.026
1257.0,0.0266
1256.0,0.027
1255.0,0.027
1254.0,0.0267
1253.0,0.0261
1252.0,0.0255
1251.0,0.025
1250.0,0.0246
1249.0,0.0243
1248.0,0.0241
1247.0,0.0239
1246.0,0.0238
1245.0,0.0238
1244.0,0.0237
1243.0,0.0236
1242.0,0.0235
1241.0,0.0234
1240.0,0.0233
1239.0,0.0232
1238.0,0.0232
1237.0,0.0232
1236.0,0.0232
1235.0,0.0232
1234.0,0.0232
1233.0,0.0231
1232.0,0.0231
1231.0,0.0231
1230.0,0.0231
1229.0,0.0231
1228.0,0.0231
1227.0,0.0232
1226.0,0.0234
1225.0,0.0235
1224.0,0.0237
1223.0,0.0239
1222.0,0.0242
1221.0,0.0243
1220.0,0.0244
1219.0,0.0244
1218.0,0.0244
1217.0,0.0243
1216.0,0.0243
1215.0,0.0242
1214.0,0.0241
1213.0,0.0239
1212.0,0.0238
1211.0,0.0237
1210.0,0.0236
1209.0,0.0235
1208.0,0.0235
1207.0,0.0235
1206.0,0.0235
1205.0,0.0235
1204.0,0.0234
1203.0,0.0234
1202.0,0.0235
1201.0,0.0235
1200.0,0.0236
1199.0,0.0236
1198.0,0.0236
1197.0,0.0237
1196.0,0.0237
1195.0,0.0237
1194.0,0.0237
1193.0,0.0237
1192.0,0.0237
1191.0,0.0237
1190.0,0.0237
1189.0,0.0237
1188.0,0.0238
1187.0,0.0239
1186.0,0.024
1185.0,0.0241
1184.0,0.0241
1183.0,0.0242
1182.0,0.0244
1181.0,0.0246
1180.0,0.0249
1179.0,0.0253
1178.0,0.0259
1177.0,0.0265
1176.0,0.0274
1175.0,0.0286
1174.0,0.0302
1173.0,0.0321
1172.0,0.0345
1171.0,0.0372
1170.0,0.0397
1169.0,0.0419
1168.0,0.0433
1167.0,0.0438
1166.0,0.0436
1165.0,0.0429
1164.0,0.0419
1163.0,0.0408
1162.0,0.0399
1161.0,0.039
1160.0,0.0384
1159.0,0.038
1158.0,0.0377
1157.0,0.0375
1156.0,0.0373
1155.0,0.0373
1154.0,0.0372
1153.0,0.0372
1152.0,0.037
1151.0,0.0367
1150.0,0.0362
1149.0,0.0356
1148.0,0.035
1147.0,0.0343
1146.0,0.0337
1145.0,0.0332
1144.0,0.0328
1143.0,0.0323
1142.0,0.0319
1141.0,0.0315
1140.0,0.0311
1139.0,0.0309
1138.0,0.0307
1137.0,0.0305
1136.0,0.0303
1135.0,0.0301
1134.0,0.0299
1133.0,0.0298
1132.0,0.0296
1131.0,0.0295
1130.0,0.0295
1129.0,0.0294
1128.0,0.0293
1127.0,0.0292
1126.0,0.0292
1125.0,0.0292
1124.0,0.0292
1123.0,0.0292
1122.0,0.0292
1121.0,0.029
1120.0,0.0289
1119.0,0.0288
1118.0,0.0288
1117.0,0.0288
1116.0,0.0288
1115.0,0.0289
1114.0,0.0289
1113.0,0.0289
1112.0,0.029
1111.0,0.029
1110.0,0.0291
1109.0,0.0293
1108.0,0.0295
1107.0,0.0299
1106.0,0.0303
1105.0,0.0307
1104.0,0.031
1103.0,0.0311
1102.0,0.0311
1101.0,0.0309
1100.0,0.0307
1099.0,0.0303
1098.0,0.0299
1097.0,0.0295
1096.0,0.0292
1095.0,0.0289
1094.0,0.0286
1093.0,0.0284
1092.0,0.0281
1091.0,0.0278
1090.0,0.0276
1089.0,0.0274
1088.0,0.0273
1087.0,0.0271
1086.0,0.027
1085.0,0.0269
1084.0,0.0268
1083.0,0.0268
1082.0,0.0267
1081.0,0.0265
1080.0,0.0263
1079.0,0.0261
1078.0,0.026
1077.0,0.0259
1076.0,0.0258
1075.0,0.0257
1074.0,0.0257
1073.0,0.0256
1072.0,0.0256
1071.0,0.0256
1070.0,0.0255
1069.0,0.0253
1068.0,0.0251
1067.0,0.0249
1066.0,0.0248
1065.0,0.0248
1064.0,0.0247
1063.0,0.0247
1062.0,0.0247
1061.0,0.0247
1060.0,0.0247
1059.0,0.0247
1058.0,0.0246
1057.0,0.0247
1056.0,0.0247
1055.0,0.0247
1054.0,0.0247
1053.0,0.0246
1052.0,0.0246
1051.0,0.0247
1050.0,0.0249
1049.0,0.0251
1048.0,0.0253
1047.0,0.0255
1046.0,0.0257
1045.0,0.0259
1044.0,0.0259
1043.0,0.0258
1042.0,0.0256
1041.0,0.0254
1040.0,0.0252
1039.0,0.0251
1038.0,0.025
1037.0,0.025
1036.0,0.025
1035.0,0.025
1034.0,0.025
1033.0,0.025
1032.0,0.0249
1031.0,0.0249
1030.0,0.0249
1029.0,0.0248
1028.0,0.0248
1027.0,0.0247
1026.0,0.0248
1025.0,0.0248
1024.0,0.0249
1023.0,0.0249
1022.0,0.0249
1021.0,0.0248
1020.0,0.0248
1019.0,0.0247
1018.0,0.0246
1017.0,0.0246
1016.0,0.0247
1015.0,0.0248
1014.0,0.025
1013.0,0.0251
1012.0,0.0252
1011.0,0.0253
1010.0,0.0254
1009.0,0.0257
1008.0,0.026
1007.0,0.0264
1006.0,0.027
1005.0,0.0279
1004.0,0.0291
1003.0,0.0309
1002.0,0.0333
1001.0,0.0365
1000.0,0.04
999.0,0.043
998.0,0.0449
997.0,0.045
996.0,0.0436
995.0,0.0411
994.0,0.0383
993.0,0.0357
992.0,0.0336
991.0,0.032
990.0,0.0308
989.0,0.0299
988.0,0.0292
987.0,0.0286
986.0,0.0283
985.0,0.0282
984.0,0.0283
983.0,0.0286
982.0,0.0292
981.0,0.0302
980.0,0.0318
979.0,0.0342
978.0,0.0372
977.0,0.0407
976.0,0.0445
975.0,0.0481
974.0,0.0509
973.0,0.0524
972.0,0.052
971.0,0.0498
970.0,0.0464
969.0,0.0429
968.0,0.0398
967.0,0.0374
966.0,0.0356
965.0,0.0343
964.0,0.0332
963.0,0.0324
962.0,0.0317
961.0,0.0312
960.0,0.0307
959.0,0.0303
958.0,0.03
957.0,0.0296
956.0,0.0293
955.0,0.0291
954.0,0.0289
953.0,0.0287
952.0,0.0285
951.0,0.0284
950.0,0.0283
949.0,0.0282
948.0,0.0281
947.0,0.0281
946.0,0.0281
945.0,0.0282
944.0,0.0285
943.0,0.0288
942.0,0.0291
941.0,0.0293
940.0,0.0293
939.0,0.0292
938.0,0.029
937.0,0.0287
936.0,0.0284
935.0,0.0281
934.0,0.0278
933.0,0.0276
932.0,0.0275
931.0,0.0274
930.0,0.0273
929.0,0.0272
928.0,0.0272
927.0,0.0272
926.0,0.0273
925.0,0.0273
924.0,0.0272
923.0,0.027
922.0,0.0269
921.0,0.0268
920.0,0.0268
919.0,0.0269
918.0,0.0269
917.0,0.027
916.0,0.027
915.0,0.027
914.0,0.027
913.0,0.0271
912.0,0.0272
911.0,0.0272
910.0,0.0273
909.0,0.0275
908.0,0.0277
907.0,0.028
906.0,0.0284
905.0,0.0291
904.0,0.0302
903.0,0.0316
902.0,0.0333
901.0,0.0348
900.0,0.0359
899.0,0.0364
898.0,0.0362
897.0,0.0355
896.0,0.0344
895.0,0.0332
894.0,0.0322
893.0,0.0314
892.0,0.0308
891.0,0.0305
890.0,0.0302
889.0,0.0299
888.0,0.0298
887.0,0.0296
886.0,0.0296
885.0,0.0296
884.0,0.0296
883.0,0.0295
882.0,0.0294
881.0,0.0293
880.0,0.0292
879.0,0.0292
878.0,0.0292
877.0,0.0292
876.0,0.0293
875.0,0.0294
874.0,0.0294
873.0,0.0293
872.0,0.0293
871.0,0.0294
870.0,0.0295
869.0,0.0296
868.0,0.0296
867.0,0.0296
866.0,0.0297
865.0,0.0298
864.0,0.0299
863.0,0.03
862.0,0.0301
861.0,0.0302
860.0,0.0303
859.0,0.0304
858.0,0.0306
857.0,0.0306
856.0,0.0306
855.0,0.0304
854.0,0.0304
853.0,0.0305
852.0,0.0307
851.0,0.0309
850.0,0.0312
849.0,0.0316
848.0,0.0321
847.0,0.0329
846.0,0.0343
845.0,0.0366
844.0,0.04
843.0,0.0441
842.0,0.0477
841.0,0.0494
840.0,0.0486
839.0,0.0458
838.0,0.0425
837.0,0.0397
836.0,0.0377
835.0,0.0364
834.0,0.0356
833.0,0.035
832.0,0.0345
831.0,0.0342
830.0,0.0339
829.0,0.0338
828.0,0.0337
827.0,0.0335
826.0,0.0332
825.0,0.033
824.0,0.0329
823.0,0.0328
822.0,0.0328
821.0,0.0329
820.0,0.0329
819.0,0.0331
818.0,0.0333
817.0,0.0336
816.0,0.0342
815.0,0.0349
814.0,0.036
813.0,0.0374
812.0,0.0389
811.0,0.0404
810.0,0.0415
809.0,0.0421
808.0,0.0421
807.0,0.0415
806.0,0.0405
805.0,0.0395
804.0,0.0385
803.0,0.0376
802.0,0.0369
801.0,0.0363
800.0,0.0359
799.0,0.0356
798.0,0.0354
797.0,0.0352
796.0,0.0351
795.0,0.035
794.0,0.0348
793.0,0.0346
792.0,0.0343
791.0,0.0342
790.0,0.0341
789.0,0.0341
788.0,0.034
787.0,0.0338
786.0,0.0336
785.0,0.0335
784.0,0.0334
783.0,0.0333
782.0,0.0333
781.0,0.0333
780.0,0.0333
779.0,0.0333
778.0,0.0333
777.0,0.0331
776.0,0.0329
775.0,0.0328
774.0,0.0327
773.0,0.0328
772.0,0.0329
771.0,0.033
770.0,0.033
769.0,0.033
768.0,0.0331
767.0,0.0332
766.0,0.0334
765.0,0.0335
764.0,0.0335
763.0,0.0334
762.0,0.0332
761.0,0.0332
760.0,0.0332
759.0,0.0332
758.0,0.0331
757.0,0.033
756.0,0.0329
755.0,0.0329
754.0,0.0331
753.0,0.0333
752.0,0.0335
751.0,0.0336
750.0,0.0335
749.0,0.0334
748.0,0.0334
747.0,0.0336
746.0,0.0338
745.0,0.0339
744.0,0.034
743.0,0.034
742.0,0.034
741.0,0.0341
740.0,0.0342
739.0,0.0343
738.0,0.0344
737.0,0.0343
736.0,0.0342
735.0,0.0342
734.0,0.0343
733.0,0.0346
732.0,0.0348
731.0,0.035
730.0,0.035
729.0,0.035
728.0,0.035
727.0,0.035
726.0,0.035
725.0,0.0352
724.0,0.0354
723.0,0.0357
722.0,0.0361
721.0,0.0363
720.0,0.0362
719.0,0.0357
718.0,0.0351
717.0,0.0349
716.0,0.0349
715.0,0.0351
714.0,0.0353
713.0,0.0356
712.0,0.0358
711.0,0.0357
710.0,0.0355
709.0,0.0353
708.0,0.0352
707.0,0.0353
706.0,0.0357
705.0,0.0363
704.0,0.0368
703.0,0.0369
702.0,0.0368
701.0,0.0367
700.0,0.0368
699.0,0.0368
698.0,0.0367
697.0,0.0367
696.0,0.0367
695.0,0.0369
694.0,0.0372
693.0,0.0373
692.0,0.0374
691.0,0.0373
690.0,0.0374
689.0,0.0378
688.0,0.0384
687.0,0.039
686.0,0.0394
685.0,0.0395
684.0,0.0396
683.0,0.0397
682.0,0.04
681.0,0.0405
680.0,0.0409
679.0,0.041
678.0,0.0408
677.0,0.0402
676.0,0.0395
675.0,0.039
674.0,0.0387
673.0,0.0388
672.0,0.0392
671.0,0.0389
670.0,0.037
669.0,0.0337
668.0,0.0282
667.0,0.0241
666.0,0.0266
665.0,0.0326
664.0,0.0367
663.0,0.0372
662.0,0.0374
661.0,0.0373
660.0,0.0387
659.0,0.0387
658.0,0.0387
657.0,0.0392
656.0,0.0398
655.0,0.0401
654.0,0.0399
653.0,0.0393
652.0,0.0384
651.0,0.0378
650.0,0.0378
649.0,0.0384
648.0,0.0389
647.0,0.0388
646.0,0.0383
645.0,0.038
644.0,0.0379
643.0,0.0374
642.0,0.0367
641.0,0.036
640.0,0.0358
639.0,0.0365
638.0,0.0378
637.0,0.0394
636.0,0.0408
635.0,0.0416
634.0,0.0416
633.0,0.0409
632.0,0.0399
631.0,0.0387
630.0,0.0377
629.0,0.0371
628.0,0.0367
627.0,0.0363
626.0,0.0361
625.0,0.0363
624.0,0.0368
623.0,0.0374
622.0,0.038
621.0,0.0385
620.0,0.0392
619.0,0.0401
618.0,0.0405
617.0,0.0401
616.0,0.0389
615.0,0.0378
614.0,0.0379
613.0,0.039
612.0,0.0403
611.0,0.0408
610.0,0.0405
609.0,0.0402
608.0,0.0403
607.0,0.0407
606.0,0.0411
605.0,0.0409
604.0,0.0399
603.0,0.0383
602.0,0.037
601.0,0.0369
600.0,0.0379
