cm-1,A
4000.0,0.01809082990920774
3999.0,0.018181392829336396
3998.0,0.018226681372252695
3997.0,0.01831727262871463
3996.0,0.01831727262871463
3995.0,0.018271974638383703
3994.0,0.018136109008649592
3993.0,0.018045555530026514
3992.0,0.018045555530026514
3991.0,0.01809082990920774
3990.0,0.018136109008649592
3989.0,0.018181392829336396
3988.0,0.018181392829336396
3987.0,0.018181392829336396
3986.0,0.018226681372252695
3985.0,0.018226681372252695
3984.0,0.018226681372252695
3983.0,0.018226681372252695
3982.0,0.018181392829336396
3981.0,0.018181392829336396
3980.0,0.018226681372252695
3979.0,0.018226681372252695
3978.0,0.018226681372252695
3977.0,0.018181392829336396
3976.0,0.018136109008649592
3975.0,0.018136109008649592
3974.0,0.018181392829336396
3973.0,0.018181392829336396
3972.0,0.018181392829336396
3971.0,0.018181392829336396
3970.0,0.018181392829336396
3969.0,0.018181392829336396
3968.0,0.018226681372252695
3967.0,0.018271974638383703
3966.0,0.018226681372252695
3965.0,0.018226681372252695
3964.0,0.018181392829336396
3963.0,0.018181392829336396
3962.0,0.018226681372252695
3961.0,0.018271974638383703
3960.0,0.01831727262871463
3959.0,0.01840788278591865
3958.0,0.01845319495476394
3957.0,0.018498511851753108
3956.0,0.01845319495476394
3955.0,0.01840788278591865
3954.0,0.01831727262871463
3953.0,0.018181392829336396
3952.0,0.01809082990920774
3951.0,0.018045555530026514
3950.0,0.018045555530026514
3949.0,0.01809082990920774
3948.0,0.018136109008649592
3947.0,0.018136109008649592
3946.0,0.018136109008649592
3945.0,0.018181392829336396
3944.0,0.018226681372252695
3943.0,0.018226681372252695
3942.0,0.018181392829336396
3941.0,0.018181392829336396
3940.0,0.018271974638383703
3939.0,0.01840788278591865
3938.0,0.01845319495476394
3937.0,0.018362575344230914
3936.0,0.018271974638383703
3935.0,0.018181392829336396
3934.0,0.018181392829336396
3933.0,0.018226681372252695
3932.0,0.01831727262871463
3931.0,0.01831727262871463
3930.0,0.018271974638383703
3929.0,0.01809082990920774
3928.0,0.01800028587012159
3927.0,0.01800028587012159
3926.0,0.018045555530026514
3925.0,0.018136109008649592
3924.0,0.018181392829336396
3923.0,0.018181392829336396
3922.0,0.018226681372252695
3921.0,0.01831727262871463
3920.0,0.018498511851753108
3919.0,0.018679826740892747
3918.0,0.018815862601645694
3917.0,0.018815862601645694
3916.0,0.018679826740892747
3915.0,0.018498511851753108
3914.0,0.01845319495476394
3913.0,0.01845319495476394
3912.0,0.018543833477873584
3911.0,0.01858915983411169
3910.0,0.01858915983411169
3909.0,0.01845319495476394
3908.0,0.01831727262871463
3907.0,0.01809082990920774
3906.0,0.017955020928509757
3905.0,0.01781925440359733
3904.0,0.017728766960431575
3903.0,0.01759307113620534
3902.0,0.017638298366853045
3901.0,0.017774008325325275
3900.0,0.017955020928509757
3899.0,0.01800028587012159
3898.0,0.01809082990920774
3897.0,0.018271974638383703
3896.0,0.01845319495476394
3895.0,0.018498511851753108
3894.0,0.018498511851753108
3893.0,0.018543833477873584
3892.0,0.018634490921455527
3891.0,0.01845319495476394
3890.0,0.018136109008649592
3889.0,0.01800028587012159
3888.0,0.018136109008649592
3887.0,0.01831727262871463
3886.0,0.01831727262871463
3885.0,0.01809082990920774
3884.0,0.017955020928509757
3883.0,0.01809082990920774
3882.0,0.01840788278591865
3881.0,0.018543833477873584
3880.0,0.01845319495476394
3879.0,0.018226681372252695
3878.0,0.018181392829336396
3877.0,0.018362575344230914
3876.0,0.01845319495476394
3875.0,0.018362575344230914
3874.0,0.01800028587012159
3873.0,0.01768353030793479
3872.0,0.01768353030793479
3871.0,0.01781925440359733
3870.0,0.017728766960431575
3869.0,0.017412209298337533
3868.0,0.017321806616515723
3867.0,0.017638298366853045
3866.0,0.01800028587012159
3865.0,0.018181392829336396
3864.0,0.018226681372252695
3863.0,0.01831727262871463
3862.0,0.01840788278591865
3861.0,0.018498511851753108
3860.0,0.018498511851753108
3859.0,0.01845319495476394
3858.0,0.018271974638383703
3857.0,0.01800028587012159
3856.0,0.017774008325325275
3855.0,0.017864505196230507
3854.0,0.018271974638383703
3853.0,0.018181392829336396
3852.0,0.017728766960431575
3851.0,0.017955020928509757
3850.0,0.018543833477873584
3849.0,0.018906576854070378
3848.0,0.018951941086827073
3847.0,0.018906576854070378
3846.0,0.018770512579999288
3845.0,0.018679826740892747
3844.0,0.018498511851753108
3843.0,0.018226681372252695
3842.0,0.017955020928509757
3841.0,0.01781925440359733
3840.0,0.017955020928509757
3839.0,0.018181392829336396
3838.0,0.01831727262871463
3837.0,0.018226681372252695
3836.0,0.018226681372252695
3835.0,0.01840788278591865
3834.0,0.018634490921455527
3833.0,0.018725167293411005
3832.0,0.018634490921455527
3831.0,0.01845319495476394
3830.0,0.01831727262871463
3829.0,0.01840788278591865
3828.0,0.018498511851753108
3827.0,0.018498511851753108
3826.0,0.018226681372252695
3825.0,0.017955020928509757
3824.0,0.017909760704207134
3823.0,0.018181392829336396
3822.0,0.018634490921455527
3821.0,0.018679826740892747
3820.0,0.018271974638383703
3819.0,0.01809082990920774
3818.0,0.01845319495476394
3817.0,0.018861217359339655
3816.0,0.018951941086827073
3815.0,0.018861217359339655
3814.0,0.018906576854070378
3813.0,0.019269623464054586
3812.0,0.019451260640229506
3811.0,0.019360432556262852
3810.0,0.019178833355664393
3809.0,0.0192242260373785
3808.0,0.01940584422377989
3807.0,0.019315025636685412
3806.0,0.018906576854070378
3805.0,0.018634490921455527
3804.0,0.018634490921455527
3803.0,0.018815862601645694
3802.0,0.018861217359339655
3801.0,0.018543833477873584
3800.0,0.01809082990920774
3799.0,0.018136109008649592
3798.0,0.01858915983411169
3797.0,0.018951941086827073
3796.0,0.019178833355664393
3795.0,0.019315025636685412
3794.0,0.01958753839310856
3793.0,0.01990568621470623
3792.0,0.020087589665283012
3791.0,0.020087589665283012
3790.0,0.019996628416253603
3789.0,0.019860222254245663
3788.0,0.019769308608968306
3787.0,0.019769308608968306
3786.0,0.019723858922159776
3785.0,0.01958753839310856
3784.0,0.019315025636685412
3783.0,0.0190880622231564
3782.0,0.019042683770379876
3781.0,0.019178833355664393
3780.0,0.019360432556262852
3779.0,0.01940584422377989
3778.0,0.01940584422377989
3777.0,0.01949668180660491
3776.0,0.019678413991243593
3775.0,0.019814763052665052
3774.0,0.019769308608968306
3773.0,0.019723858922159776
3772.0,0.019723858922159776
3771.0,0.019723858922159776
3770.0,0.019678413991243593
3769.0,0.01954210772389997
3768.0,0.01954210772389997
3767.0,0.019678413991243593
3766.0,0.019814763052665052
3765.0,0.019678413991243593
3764.0,0.01949668180660491
3763.0,0.019451260640229506
3762.0,0.01949668180660491
3761.0,0.01949668180660491
3760.0,0.01949668180660491
3759.0,0.01949668180660491
3758.0,0.019360432556262852
3757.0,0.019178833355664393
3756.0,0.01899731005860028
3755.0,0.018770512579999288
3754.0,0.018543833477873584
3753.0,0.018362575344230914
3752.0,0.018498511851753108
3751.0,0.018861217359339655
3750.0,0.018906576854070378
3749.0,0.018634490921455527
3748.0,0.018543833477873584
3747.0,0.018861217359339655
3746.0,0.01940584422377989
3745.0,0.019769308608968306
3744.0,0.01949668180660491
3743.0,0.01899731005860028
3742.0,0.0190880622231564
3741.0,0.019451260640229506
3740.0,0.019451260640229506
3739.0,0.0190880622231564
3738.0,0.018679826740892747
3737.0,0.018498511851753108
3736.0,0.018543833477873584
3735.0,0.018679826740892747
3734.0,0.018906576854070378
3733.0,0.019178833355664393
3732.0,0.01940584422377989
3731.0,0.01958753839310856
3730.0,0.019814763052665052
3729.0,0.020087589665283012
3728.0,0.02026956933771462
3727.0,0.020315076172974234
3726.0,0.02022406727031445
3725.0,0.02013307743509718
3724.0,0.02013307743509718
3723.0,0.020178569969774962
3722.0,0.02013307743509718
3721.0,0.02004210665933459
3720.0,0.02004210665933459
3719.0,0.02004210665933459
3718.0,0.02004210665933459
3717.0,0.019860222254245663
3716.0,0.019632973815224997
3715.0,0.01940584422377989
3714.0,0.0190880622231564
3713.0,0.018861217359339655
3712.0,0.018906576854070378
3711.0,0.019133445417920836
3710.0,0.01940584422377989
3709.0,0.019723858922159776
3708.0,0.02004210665933459
3707.0,0.02026956933771462
3706.0,0.020315076172974234
3705.0,0.02022406727031445
3704.0,0.02013307743509718
3703.0,0.020087589665283012
3702.0,0.02004210665933459
3701.0,0.019996628416253603
3700.0,0.01995115493504329
3699.0,0.02004210665933459
3698.0,0.020178569969774962
3697.0,0.02022406727031445
3696.0,0.020087589665283012
3695.0,0.019860222254245663
3694.0,0.01958753839310856
3693.0,0.019269623464054586
3692.0,0.019042683770379876
3691.0,0.01899731005860028
3690.0,0.019269623464054586
3689.0,0.01940584422377989
3688.0,0.019360432556262852
3687.0,0.01940584422377989
3686.0,0.019723858922159776
3685.0,0.02004210665933459
3684.0,0.020087589665283012
3683.0,0.01995115493504329
3682.0,0.019769308608968306
3681.0,0.01954210772389997
3680.0,0.019178833355664393
3679.0,0.018725167293411005
3678.0,0.018498511851753108
3677.0,0.018815862601645694
3676.0,0.01940584422377989
3675.0,0.019360432556262852
3674.0,0.018951941086827073
3673.0,0.01899731005860028
3672.0,0.019315025636685412
3671.0,0.01958753839310856
3670.0,0.019723858922159776
3669.0,0.01958753839310856
3668.0,0.01954210772389997
3667.0,0.019814763052665052
3666.0,0.02013307743509718
3665.0,0.020315076172974234
3664.0,0.02026956933771462
3663.0,0.020178569969774962
3662.0,0.020087589665283012
3661.0,0.01995115493504329
3660.0,0.019860222254245663
3659.0,0.01990568621470623
3658.0,0.02004210665933459
3657.0,0.02026956933771462
3656.0,0.02026956933771462
3655.0,0.02004210665933459
3654.0,0.019769308608968306
3653.0,0.01949668180660491
3652.0,0.01899731005860028
3651.0,0.018634490921455527
3650.0,0.018725167293411005
3649.0,0.019133445417920836
3648.0,0.01940584422377989
3647.0,0.019678413991243593
3646.0,0.020087589665283012
3645.0,0.020542681902151694
3644.0,0.020861530453190058
3643.0,0.021043834782408455
3642.0,0.021089422824428272
3641.0,0.021089422824428272
3640.0,0.021089422824428272
3639.0,0.021089422824428272
3638.0,0.021089422824428272
3637.0,0.021089422824428272
3636.0,0.0211806132671577
3635.0,0.02122621566987748
3634.0,0.021089422824428272
3633.0,0.02081596632558158
3632.0,0.02058821736556471
3631.0,0.020542681902151694
3630.0,0.020861530453190058
3629.0,0.021271822861508305
3628.0,0.021271822861508305
3627.0,0.021271822861508305
3626.0,0.02159120737696063
3625.0,0.021910826943857264
3624.0,0.021956506090037076
3623.0,0.021865152601710403
3622.0,0.021773818325474092
3621.0,0.021728158389364705
3620.0,0.021636852916117055
3619.0,0.02140867317992523
3618.0,0.021043834782408455
3617.0,0.020861530453190058
3616.0,0.020861530453190058
3615.0,0.0209982515252789
3614.0,0.0209982515252789
3613.0,0.020907099361673565
3612.0,0.020861530453190058
3611.0,0.020952673052035298
3610.0,0.02122621566987748
3609.0,0.02159120737696063
3608.0,0.021819483062586187
3607.0,0.021956506090037076
3606.0,0.02200219004126036
3605.0,0.02200219004126036
3604.0,0.02204787879853809
3603.0,0.02204787879853809
3602.0,0.02204787879853809
3601.0,0.02200219004126036
3600.0,0.021865152601710403
3599.0,0.021773818325474092
3598.0,0.021773818325474092
3597.0,0.021819483062586187
3596.0,0.021865152601710403
3595.0,0.021865152601710403
3594.0,0.021819483062586187
3593.0,0.021773818325474092
3592.0,0.021819483062586187
3591.0,0.021865152601710403
3590.0,0.021910826943857264
3589.0,0.02200219004126036
3588.0,0.022139270735302752
3587.0,0.022139270735302752
3586.0,0.02204787879853809
3585.0,0.022093572362881675
3584.0,0.022322112326006227
3583.0,0.02259651912656535
3582.0,0.022688026603074007
3581.0,0.022733787572707387
3580.0,0.022688026603074007
3579.0,0.022688026603074007
3578.0,0.02277955336461468
3577.0,0.022871099419317753
3576.0,0.02300845469384938
3575.0,0.02300845469384938
3574.0,0.02296266477531872
3573.0,0.02282532397981263
3572.0,0.022642270454698687
3571.0,0.02245929405346514
3570.0,0.022322112326006227
3569.0,0.022322112326006227
3568.0,0.02245929405346514
3567.0,0.02255077261765881
3566.0,0.022505030926963654
3565.0,0.022413561996148967
3564.0,0.022505030926963654
3563.0,0.022642270454698687
3562.0,0.022733787572707387
3561.0,0.02277955336461468
3560.0,0.02277955336461468
3559.0,0.02282532397981263
3558.0,0.02291687968414724
3557.0,0.02300845469384938
3556.0,0.02300845469384938
3555.0,0.02300845469384938
3554.0,0.022871099419317753
3553.0,0.02277955336461468
3552.0,0.022642270454698687
3551.0,0.02259651912656535
3550.0,0.022642270454698687
3549.0,0.022733787572707387
3548.0,0.022871099419317753
3547.0,0.02296266477531872
3546.0,0.023054249440757957
3545.0,0.023100049017062307
3544.0,0.023191662661933732
3543.0,0.023283295636617574
3542.0,0.023329119375188556
3541.0,0.023374947949272418
3540.0,0.02342078135989012
3539.0,0.02355831062115543
3538.0,0.023741750742954926
3537.0,0.023833499868024743
3536.0,0.023787622882622816
3535.0,0.02365002099672653
3534.0,0.02351246269481
3533.0,0.02342078135989012
3532.0,0.02342078135989012
3531.0,0.023466619608062178
3530.0,0.02351246269481
3529.0,0.02351246269481
3528.0,0.02351246269481
3527.0,0.02351246269481
3526.0,0.02351246269481
3525.0,0.02355831062115543
3524.0,0.02365002099672653
3523.0,0.023741750742954926
3522.0,0.023787622882622816
3521.0,0.023787622882622816
3520.0,0.023741750742954926
3519.0,0.023741750742954926
3518.0,0.023741750742954926
3517.0,0.023741750742954926
3516.0,0.023741750742954926
3515.0,0.023787622882622816
3514.0,0.023787622882622816
3513.0,0.023787622882622816
3512.0,0.023787622882622816
3511.0,0.023833499868024743
3510.0,0.023925268380126097
3509.0,0.023925268380126097
3508.0,0.023879381700184332
3507.0,0.023787622882622816
3506.0,0.023741750742954926
3505.0,0.023695883447997224
3504.0,0.023741750742954926
3503.0,0.023833499868024743
3502.0,0.023925268380126097
3501.0,0.024017056287453542
3500.0,0.02406295751688936
3499.0,0.024154774532432866
3498.0,0.024246610963712723
3497.0,0.024338466818941473
3496.0,0.024430342106337877
3495.0,0.024476287039668643
3494.0,0.024522236834125355
3493.0,0.024522236834125355
3492.0,0.024476287039668643
3491.0,0.024430342106337877
3490.0,0.024476287039668643
3489.0,0.024522236834125355
3488.0,0.024476287039668643
3487.0,0.024430342106337877
3486.0,0.024292536462819925
3485.0,0.024246610963712723
3484.0,0.024292536462819925
3483.0,0.02438440203310499
3482.0,0.024476287039668643
3481.0,0.024476287039668643
3480.0,0.024430342106337877
3479.0,0.024292536462819925
3478.0,0.024108863598207186
3477.0,0.023971159908874107
3476.0,0.023879381700184332
3475.0,0.023925268380126097
3474.0,0.023971159908874107
3473.0,0.024017056287453542
3472.0,0.024108863598207186
3471.0,0.024154774532432866
3470.0,0.024246610963712723
3469.0,0.024246610963712723
3468.0,0.024246610963712723
3467.0,0.024246610963712723
3466.0,0.024292536462819925
3465.0,0.02438440203310499
3464.0,0.024476287039668643
3463.0,0.024568191490736968
3462.0,0.024568191490736968
3461.0,0.024522236834125355
3460.0,0.024522236834125355
3459.0,0.024568191490736968
3458.0,0.02461415101053266
3457.0,0.024660115394541604
3456.0,0.024660115394541604
3455.0,0.024660115394541604
3454.0,0.02461415101053266
3453.0,0.024568191490736968
3452.0,0.024568191490736968
3451.0,0.02461415101053266
3450.0,0.024706084643793647
3449.0,0.024798037742147727
3448.0,0.02484402159331056
3447.0,0.02484402159331056
3446.0,0.024706084643793647
3445.0,0.024568191490736968
3444.0,0.024430342106337877
3443.0,0.024476287039668643
3442.0,0.024568191490736968
3441.0,0.024706084643793647
3440.0,0.024798037742147727
3439.0,0.024798037742147727
3438.0,0.02475205875931885
3437.0,0.02475205875931885
3436.0,0.024798037742147727
3435.0,0.02484402159331056
3434.0,0.024890010313838973
3433.0,0.024936003904763915
3432.0,0.024936003904763915
3431.0,0.02498200236711723
3430.0,0.02498200236711723
3429.0,0.025028005701930978
3428.0,0.02512002699306959
3427.0,0.02512002699306959
3426.0,0.025074013910237447
3425.0,0.024936003904763915
3424.0,0.024798037742147727
3423.0,0.024706084643793647
3422.0,0.024706084643793647
3421.0,0.024706084643793647
3420.0,0.02475205875931885
3419.0,0.02475205875931885
3418.0,0.024798037742147727
3417.0,0.02484402159331056
3416.0,0.024936003904763915
3415.0,0.024936003904763915
3414.0,0.024936003904763915
3413.0,0.024798037742147727
3412.0,0.02475205875931885
3411.0,0.024706084643793647
3410.0,0.02475205875931885
3409.0,0.02484402159331056
3408.0,0.024890010313838973
3407.0,0.024890010313838973
3406.0,0.02484402159331056
3405.0,0.024798037742147727
3404.0,0.024798037742147727
3403.0,0.02475205875931885
3402.0,0.02475205875931885
3401.0,0.024798037742147727
3400.0,0.024936003904763915
3399.0,0.025074013910237447
3398.0,0.02516604495145991
3397.0,0.02512002699306959
3396.0,0.02498200236711723
3395.0,0.02484402159331056
3394.0,0.024798037742147727
3393.0,0.02475205875931885
3392.0,0.024798037742147727
3391.0,0.02484402159331056
3390.0,0.024890010313838973
3389.0,0.024936003904763915
3388.0,0.02498200236711723
3387.0,0.025074013910237447
3386.0,0.02512002699306959
3385.0,0.02521206778644225
3384.0,0.025258095499050004
3383.0,0.025304128090317013
3382.0,0.025304128090317013
3381.0,0.025258095499050004
3380.0,0.02512002699306959
3379.0,0.025028005701930978
3378.0,0.024936003904763915
3377.0,0.024890010313838973
3376.0,0.024936003904763915
3375.0,0.02498200236711723
3374.0,0.025074013910237447
3373.0,0.02512002699306959
3372.0,0.025074013910237447
3371.0,0.025074013910237447
3370.0,0.025074013910237447
3369.0,0.02512002699306959
3368.0,0.02516604495145991
3367.0,0.02516604495145991
3366.0,0.02516604495145991
3365.0,0.025074013910237447
3364.0,0.025074013910237447
3363.0,0.025074013910237447
3362.0,0.025074013910237447
3361.0,0.025074013910237447
3360.0,0.02498200236711723
3359.0,0.024936003904763915
3358.0,0.02484402159331056
3357.0,0.024798037742147727
3356.0,0.02475205875931885
3355.0,0.024706084643793647
3354.0,0.024706084643793647
3353.0,0.024798037742147727
3352.0,0.024890010313838973
3351.0,0.024936003904763915
3350.0,0.02498200236711723
3349.0,0.025028005701930978
3348.0,0.025028005701930978
3347.0,0.02498200236711723
3346.0,0.024890010313838973
3345.0,0.024798037742147727
3344.0,0.02475205875931885
3343.0,0.02484402159331056
3342.0,0.02498200236711723
3341.0,0.02512002699306959
3340.0,0.025258095499050004
3339.0,0.025304128090317013
3338.0,0.025350165561278004
3337.0,0.025350165561278004
3336.0,0.025304128090317013
3335.0,0.025258095499050004
3334.0,0.025258095499050004
3333.0,0.025304128090317013
3332.0,0.02539620791296726
3331.0,0.02544225514642018
3330.0,0.02539620791296726
3329.0,0.025304128090317013
3328.0,0.02521206778644225
3327.0,0.02516604495145991
3326.0,0.025074013910237447
3325.0,0.025028005701930978
3324.0,0.024936003904763915
3323.0,0.024890010313838973
3322.0,0.02484402159331056
3321.0,0.024798037742147727
3320.0,0.024798037742147727
3319.0,0.024890010313838973
3318.0,0.025028005701930978
3317.0,0.02516604495145991
3316.0,0.02521206778644225
3315.0,0.02521206778644225
3314.0,0.02516604495145991
3313.0,0.02521206778644225
3312.0,0.025258095499050004
3311.0,0.025258095499050004
3310.0,0.025258095499050004
3309.0,0.02521206778644225
3308.0,0.02516604495145991
3307.0,0.02512002699306959
3306.0,0.02516604495145991
3305.0,0.02516604495145991
3304.0,0.02521206778644225
3303.0,0.02521206778644225
3302.0,0.02521206778644225
3301.0,0.025258095499050004
3300.0,0.02521206778644225
3299.0,0.02516604495145991
3298.0,0.025028005701930978
3297.0,0.02498200236711723
3296.0,0.024936003904763915
3295.0,0.024890010313838973
3294.0,0.024890010313838973
3293.0,0.024798037742147727
3292.0,0.02475205875931885
3291.0,0.02475205875931885
3290.0,0.024798037742147727
3289.0,0.02484402159331056
3288.0,0.024936003904763915
3287.0,0.02498200236711723
3286.0,0.02498200236711723
3285.0,0.024936003904763915
3284.0,0.024890010313838973
3283.0,0.024936003904763915
3282.0,0.024936003904763915
3281.0,0.024936003904763915
3280.0,0.024936003904763915
3279.0,0.024936003904763915
3278.0,0.02498200236711723
3277.0,0.025028005701930978
3276.0,0.025028005701930978
3275.0,0.025074013910237447
3274.0,0.025074013910237447
3273.0,0.02516604495145991
3272.0,0.02516604495145991
3271.0,0.02512002699306959
3270.0,0.02498200236711723
3269.0,0.02484402159331056
3268.0,0.02475205875931885
3267.0,0.024706084643793647
3266.0,0.02475205875931885
3265.0,0.02484402159331056
3264.0,0.024936003904763915
3263.0,0.025028005701930978
3262.0,0.02512002699306959
3261.0,0.025074013910237447
3260.0,0.02498200236711723
3259.0,0.02484402159331056
3258.0,0.024798037742147727
3257.0,0.02484402159331056
3256.0,0.02498200236711723
3255.0,0.02512002699306959
3254.0,0.02516604495145991
3253.0,0.02516604495145991
3252.0,0.02512002699306959
3251.0,0.02512002699306959
3250.0,0.02516604495145991
3249.0,0.02516604495145991
3248.0,0.025074013910237447
3247.0,0.02498200236711723
3246.0,0.024890010313838973
3245.0,0.02484402159331056
3244.0,0.024798037742147727
3243.0,0.024798037742147727
3242.0,0.024798037742147727
3241.0,0.02484402159331056
3240.0,0.02484402159331056
3239.0,0.02484402159331056
3238.0,0.024798037742147727
3237.0,0.02475205875931885
3236.0,0.024660115394541604
3235.0,0.024522236834125355
3234.0,0.024430342106337877
3233.0,0.024338466818941473
3232.0,0.024338466818941473
3231.0,0.02438440203310499
3230.0,0.024522236834125355
3229.0,0.02461415101053266
3228.0,0.024706084643793647
3227.0,0.024706084643793647
3226.0,0.024660115394541604
3225.0,0.024568191490736968
3224.0,0.024430342106337877
3223.0,0.02438440203310499
3222.0,0.02438440203310499
3221.0,0.024430342106337877
3220.0,0.024522236834125355
3219.0,0.02461415101053266
3218.0,0.024706084643793647
3217.0,0.02475205875931885
3216.0,0.024798037742147727
3215.0,0.024798037742147727
3214.0,0.02475205875931885
3213.0,0.024706084643793647
3212.0,0.02461415101053266
3211.0,0.02461415101053266
3210.0,0.024706084643793647
3209.0,0.024798037742147727
3208.0,0.02484402159331056
3207.0,0.024936003904763915
3206.0,0.025074013910237447
3205.0,0.02512002699306959
3204.0,0.02516604495145991
3203.0,0.025074013910237447
3202.0,0.024936003904763915
3201.0,0.024798037742147727
3200.0,0.024706084643793647
3199.0,0.024660115394541604
3198.0,0.024660115394541604
3197.0,0.02461415101053266
3196.0,0.02461415101053266
3195.0,0.024568191490736968
3194.0,0.024568191490736968
3193.0,0.02461415101053266
3192.0,0.02461415101053266
3191.0,0.02461415101053266
3190.0,0.02461415101053266
3189.0,0.02461415101053266
3188.0,0.024568191490736968
3187.0,0.024568191490736968
3186.0,0.024568191490736968
3185.0,0.024568191490736968
3184.0,0.024568191490736968
3183.0,0.024522236834125355
3182.0,0.024430342106337877
3181.0,0.02438440203310499
3180.0,0.024292536462819925
3179.0,0.024154774532432866
3178.0,0.02406295751688936
3177.0,0.024017056287453542
3176.0,0.024108863598207186
3175.0,0.024246610963712723
3174.0,0.024338466818941473
3173.0,0.02438440203310499
3172.0,0.024338466818941473
3171.0,0.024292536462819925
3170.0,0.024292536462819925
3169.0,0.024292536462819925
3168.0,0.02438440203310499
3167.0,0.024430342106337877
3166.0,0.024476287039668643
3165.0,0.024476287039668643
3164.0,0.024430342106337877
3163.0,0.024338466818941473
3162.0,0.024292536462819925
3161.0,0.024246610963712723
3160.0,0.024292536462819925
3159.0,0.024338466818941473
3158.0,0.024338466818941473
3157.0,0.024246610963712723
3156.0,0.024108863598207186
3155.0,0.024017056287453542
3154.0,0.024017056287453542
3153.0,0.024108863598207186
3152.0,0.024154774532432866
3151.0,0.024200690320592466
3150.0,0.024200690320592466
3149.0,0.024200690320592466
3148.0,0.024200690320592466
3147.0,0.024200690320592466
3146.0,0.024154774532432866
3145.0,0.024108863598207186
3144.0,0.024017056287453542
3143.0,0.023971159908874107
3142.0,0.023971159908874107
3141.0,0.024017056287453542
3140.0,0.024108863598207186
3139.0,0.024154774532432866
3138.0,0.024200690320592466
3137.0,0.024200690320592466
3136.0,0.02406295751688936
3135.0,0.023925268380126097
3134.0,0.023787622882622816
3133.0,0.023741750742954926
3132.0,0.023741750742954926
3131.0,0.023787622882622816
3130.0,0.023787622882622816
3129.0,0.023787622882622816
3128.0,0.023833499868024743
3127.0,0.023833499868024743
3126.0,0.023833499868024743
3125.0,0.023879381700184332
3124.0,0.023925268380126097
3123.0,0.023925268380126097
3122.0,0.023879381700184332
3121.0,0.023833499868024743
3120.0,0.023787622882622816
3119.0,0.023741750742954926
3118.0,0.023741750742954926
3117.0,0.023741750742954926
3116.0,0.023787622882622816
3115.0,0.023833499868024743
3114.0,0.023925268380126097
3113.0,0.02406295751688936
3112.0,0.024200690320592466
3111.0,0.024430342106337877
3110.0,0.02461415101053266
3109.0,0.024798037742147727
3108.0,0.024890010313838973
3107.0,0.02498200236711723
3106.0,0.025028005701930978
3105.0,0.025074013910237447
3104.0,0.02512002699306959
3103.0,0.02512002699306959
3102.0,0.025074013910237447
3101.0,0.025028005701930978
3100.0,0.024936003904763915
3099.0,0.024890010313838973
3098.0,0.02484402159331056
3097.0,0.02475205875931885
3096.0,0.024706084643793647
3095.0,0.02475205875931885
3094.0,0.024936003904763915
3093.0,0.02521206778644225
3092.0,0.02553436426275746
3091.0,0.025949097207122573
3090.0,0.026410376572743033
3089.0,0.02691835039863255
3088.0,0.02751945012352408
3087.0,0.02812138297373412
3086.0,0.02872415126189476
3085.0,0.02932775731028059
3084.0,0.029746130405213123
3083.0,0.029978734171634214
3082.0,0.029978734171634214
3081.0,0.029792641193145286
3080.0,0.029467170231675777
3079.0,0.029095501846216454
3078.0,0.028770552723758724
3077.0,0.028445846553939003
3076.0,0.02826040911222183
3075.0,0.02812138297373412
3074.0,0.028075050815808744
3073.0,0.028028723600243666
3072.0,0.028028723600243666
3071.0,0.028028723600243666
3070.0,0.028214062120885508
3069.0,0.028538594975413334
3068.0,0.029002634427514717
3067.0,0.02960662792039992
3066.0,0.03030458888152676
3065.0,0.031003673351687855
3064.0,0.03170388495374454
3063.0,0.032311649546687526
3062.0,0.03277974021703267
3061.0,0.033154576345083564
3060.0,0.03334211579824231
3059.0,0.03334211579824231
3058.0,0.033154576345083564
3057.0,0.03282657704446046
3056.0,0.03235843591698884
3055.0,0.03179733185715028
3054.0,0.031143625385307683
3053.0,0.030537492025363155
3052.0,0.03002526987828502
3051.0,0.029653123769906697
3050.0,0.02942069428514915
3049.0,0.029141943003497595
3048.0,0.028863370523193765
3047.0,0.028538594975413334
3046.0,0.028306761050139073
3045.0,0.028167720075074953
3044.0,0.02812138297373412
3043.0,0.028075050815808744
3042.0,0.02812138297373412
3041.0,0.02826040911222183
3040.0,0.02849221828874393
3039.0,0.028770552723758724
3038.0,0.029141943003497595
3037.0,0.02969962459782227
3036.0,0.030397735151460825
3035.0,0.03133029827960798
3034.0,0.03249882527715853
3033.0,0.03385826726096752
3032.0,0.03550466044490741
3031.0,0.037299268295658994
3030.0,0.03910132267333921
3029.0,0.04076775094900409
3028.0,0.04224908912272074
3027.0,0.04344740808260106
3026.0,0.044167989767578186
3025.0,0.04426415772233416
3024.0,0.04383156952463674
3023.0,0.04282386959515394
3022.0,0.041483896576958834
3021.0,0.039909932095080425
3020.0,0.03824678581321739
3019.0,0.03668448861388862
3018.0,0.03526907894637077
3017.0,0.03399914237121604
3016.0,0.032920265855503006
3015.0,0.032031037121307726
3014.0,0.03128362253321426
3013.0,0.0307239045110681
3012.0,0.030211462585061133
3011.0,0.029792641193145286
3010.0,0.02942069428514915
3009.0,0.029141943003497595
3008.0,0.028956208163971375
3007.0,0.02890978686288448
3006.0,0.029002634427514717
3005.0,0.029188389127482228
3004.0,0.029374223311705583
3003.0,0.02942069428514915
3002.0,0.029374223311705583
3001.0,0.029141943003497595
3000.0,0.028770552723758724
2999.0,0.028353117935693284
2998.0,0.027936083991977778
2997.0,0.02751945012352408
2996.0,0.027149444152769986
2995.0,0.026733563891471412
2994.0,0.026318081496016443
2993.0,0.025902996205869
2992.0,0.02544225514642018
2991.0,0.025028005701930978
2990.0,0.02475205875931885
2989.0,0.024568191490736968
2988.0,0.024568191490736968
2987.0,0.024568191490736968
2986.0,0.024568191490736968
2985.0,0.024476287039668643
2984.0,0.02438440203310499
2983.0,0.024292536462819925
2982.0,0.024292536462819925
2981.0,0.024292536462819925
2980.0,0.02438440203310499
2979.0,0.024522236834125355
2978.0,0.024660115394541604
2977.0,0.024798037742147727
2976.0,0.02484402159331056
2975.0,0.02484402159331056
2974.0,0.02484402159331056
2973.0,0.024798037742147727
2972.0,0.02484402159331056
2971.0,0.024890010313838973
2970.0,0.025028005701930978
2969.0,0.02512002699306959
2968.0,0.025258095499050004
2967.0,0.025350165561278004
2966.0,0.02553436426275746
2965.0,0.025810808881832736
2964.0,0.02613355016462182
2963.0,0.026502691267936695
2962.0,0.02682594731702781
2961.0,0.02710321556345563
2960.0,0.027334407733889066
2959.0,0.02751945012352408
2958.0,0.027750864037404455
2957.0,0.02798240132598462
2956.0,0.028306761050139073
2955.0,0.02863136320857662
2954.0,0.02890978686288448
2953.0,0.029141943003497595
2952.0,0.02942069428514915
2951.0,0.02969962459782227
2950.0,0.03002526987828502
2949.0,0.030397735151460825
2948.0,0.030770520137356927
2947.0,0.031190286087141805
2946.0,0.03161045815293173
2945.0,0.032124554451966825
2944.0,0.03277974021703267
2943.0,0.033482823553208085
2942.0,0.03432802877989327
2941.0,0.03526907894637077
2940.0,0.03625938114211591
2939.0,0.037346595106788616
2938.0,0.03848398855105106
2937.0,0.03962436858984186
2936.0,0.04086316882962593
2935.0,0.04215336629184985
2934.0,0.043495409683302455
2933.0,0.04484161307420642
2932.0,0.04624030826677128
2931.0,0.04754660357696672
2930.0,0.04871106272232795
2929.0,0.04978123335813667
2928.0,0.050707598587974356
2927.0,0.05163594401163074
2926.0,0.05256627811294923
2925.0,0.05340037498486727
2924.0,0.05413767551038262
2923.0,0.054728418492290265
2922.0,0.05507339001378431
2921.0,0.055270639696704205
2920.0,0.055270639696704205
2919.0,0.055122694036304765
2918.0,0.0549255115212699
2917.0,0.05462990550969615
2916.0,0.05423607688882637
2915.0,0.053842605077627725
2914.0,0.05330216275425803
2913.0,0.05266432405126009
2912.0,0.052027420754219955
2911.0,0.05134256785867963
2910.0,0.05075640943173498
2909.0,0.05021979163799939
2908.0,0.04968383607539972
2907.0,0.049148541111453614
2906.0,0.04851676924770687
2905.0,0.04778894189133087
2904.0,0.047062332249019345
2903.0,0.04633693625290869
2902.0,0.045660991397539874
2901.0,0.04513062893352182
2900.0,0.04469717723830824
2899.0,0.04426415772233416
2898.0,0.043735497301724546
2897.0,0.0431115453499229
2896.0,0.04244059810252043
2895.0,0.04181850243505214
2894.0,0.041340572947066834
2893.0,0.04091088563260792
2892.0,0.04057697805689475
2891.0,0.040243327009005014
2890.0,0.03995754427315856
2889.0,0.03962436858984186
2888.0,0.03924390909822728
2887.0,0.03886378261277468
2886.0,0.038531444649213764
2885.0,0.03824678581321739
2884.0,0.03791491948264003
2883.0,0.03767802727041558
2882.0,0.03744126420403626
2881.0,0.037299268295658994
2880.0,0.0371573187987575
2879.0,0.037062711569998186
2878.0,0.03692083935817303
2877.0,0.03682628362474838
2876.0,0.03668448861388862
2875.0,0.03663723389626394
2874.0,0.03658998431977123
2873.0,0.036542739883292485
2872.0,0.03644826642590382
2871.0,0.036401037402758574
2870.0,0.036401037402758574
2869.0,0.03644826642590382
2868.0,0.036542739883292485
2867.0,0.03663723389626394
2866.0,0.036779013477011624
2865.0,0.0369681249461018
2864.0,0.03720463014276687
2863.0,0.03753595394209874
2862.0,0.03796231343498735
2861.0,0.03848398855105106
2860.0,0.03910132267333921
2859.0,0.039767126871487646
2858.0,0.040481623027001756
2857.0,0.04124505013091051
2856.0,0.04200982159316968
2855.0,0.04272802000705722
2854.0,0.0433514207947967
2853.0,0.04383156952463674
2852.0,0.044167989767578186
2851.0,0.044456557540257124
2850.0,0.04460091336073302
2849.0,0.04455278942230456
2848.0,0.044360346976747955
2847.0,0.04402377775167454
2846.0,0.0435434165901003
2845.0,0.043063586155803746
2844.0,0.04248848854552012
2843.0,0.04186632432376469
2842.0,0.041149548320321694
2841.0,0.04038628892895613
2840.0,0.03962436858984186
2839.0,0.038958783046687984
2838.0,0.038341651362284734
2837.0,0.03782014709123227
2836.0,0.037299268295658994
2835.0,0.03682628362474838
2834.0,0.036401037402758574
2833.0,0.03602339000339416
2832.0,0.035693217696063595
2831.0,0.03541041251009669
2830.0,0.03508070571335731
2829.0,0.03484535401307465
2828.0,0.03461012978487776
2827.0,0.03442204208947208
2826.0,0.03432802877989327
2825.0,0.034187046963396917
2824.0,0.03409308450480819
2823.0,0.03399914237121604
2822.0,0.033905220553829274
2821.0,0.0338113190438627
2820.0,0.03371743783253667
2819.0,0.03362357691107709
2818.0,0.033482823553208085
2817.0,0.03338901331806565
2816.0,0.033295223342125535
2815.0,0.033201453616638954
2814.0,0.033154576345083564
2813.0,0.03310770413286357
2812.0,0.03310770413286357
2811.0,0.033060836978886954
2810.0,0.033060836978886954
2809.0,0.03301397488206215
2808.0,0.032920265855503006
2807.0,0.03277974021703267
2806.0,0.032686081712916426
2805.0,0.032592443402527316
2804.0,0.032592443402527316
2803.0,0.032592443402527316
2802.0,0.03263926003405038
2801.0,0.032686081712916426
2800.0,0.03263926003405038
2799.0,0.032592443402527316
2798.0,0.03249882527715853
2797.0,0.03240522732811035
2796.0,0.03235843591698884
2795.0,0.03235843591698884
2794.0,0.032311649546687526
2793.0,0.032311649546687526
2792.0,0.032311649546687526
2791.0,0.032311649546687526
2790.0,0.03235843591698884
2789.0,0.03235843591698884
2788.0,0.032311649546687526
2787.0,0.032218091924200776
2786.0,0.032124554451966825
2785.0,0.032031037121307726
2784.0,0.031984286006358165
2783.0,0.032031037121307726
2782.0,0.03207779326948268
2781.0,0.032124554451966825
2780.0,0.032124554451966825
2779.0,0.032124554451966825
2778.0,0.03217132066984485
2777.0,0.032218091924200776
2776.0,0.032311649546687526
2775.0,0.032311649546687526
2774.0,0.03226486821611996
2773.0,0.03217132066984485
2772.0,0.03207779326948268
2771.0,0.03207779326948268
2770.0,0.032124554451966825
2769.0,0.032218091924200776
2768.0,0.032218091924200776
2767.0,0.03217132066984485
2766.0,0.032031037121307726
2765.0,0.03189079887180224
2764.0,0.03184406285002961
2763.0,0.03179733185715028
2762.0,0.03175060589208267
2761.0,0.03170388495374454
2760.0,0.031657169041054534
2759.0,0.03161045815293173
2758.0,0.03151705144606498
2757.0,0.03142366482450232
2756.0,0.03137697904301118
2755.0,0.03147035562516054
2754.0,0.03161045815293173
2753.0,0.03170388495374454
2752.0,0.03170388495374454
2751.0,0.031657169041054534
2750.0,0.03161045815293173
2749.0,0.031657169041054534
2748.0,0.03170388495374454
2747.0,0.03175060589208267
2746.0,0.03175060589208267
2745.0,0.03170388495374454
2744.0,0.03161045815293173
2743.0,0.03151705144606498
2742.0,0.03142366482450232
2741.0,0.03133029827960798
2740.0,0.03128362253321426
2739.0,0.03128362253321426
2738.0,0.03137697904301118
2737.0,0.03151705144606498
2736.0,0.03161045815293173
2735.0,0.031657169041054534
2734.0,0.03170388495374454
2733.0,0.03170388495374454
2732.0,0.03175060589208267
2731.0,0.03179733185715028
2730.0,0.03184406285002961
2729.0,0.03189079887180224
2728.0,0.03193753992355086
2727.0,0.03189079887180224
2726.0,0.03179733185715028
2725.0,0.03170388495374454
2724.0,0.031657169041054534
2723.0,0.031657169041054534
2722.0,0.03161045815293173
2721.0,0.03161045815293173
2720.0,0.031563752288295444
2719.0,0.03151705144606498
2718.0,0.03151705144606498
2717.0,0.031563752288295444
2716.0,0.03161045815293173
2715.0,0.03161045815293173
2714.0,0.031563752288295444
2713.0,0.03151705144606498
2712.0,0.03147035562516054
2711.0,0.03151705144606498
2710.0,0.031563752288295444
2709.0,0.031657169041054534
2708.0,0.03175060589208267
2707.0,0.03179733185715028
2706.0,0.03170388495374454
2705.0,0.03151705144606498
2704.0,0.03142366482450232
2703.0,0.03142366482450232
2702.0,0.03151705144606498
2701.0,0.03161045815293173
2700.0,0.03170388495374454
2699.0,0.031657169041054534
2698.0,0.031657169041054534
2697.0,0.031657169041054534
2696.0,0.03170388495374454
2695.0,0.03175060589208267
2694.0,0.03175060589208267
2693.0,0.03179733185715028
2692.0,0.03175060589208267
2691.0,0.03170388495374454
2690.0,0.03161045815293173
2689.0,0.03151705144606498
2688.0,0.03151705144606498
2687.0,0.031563752288295444
2686.0,0.03161045815293173
2685.0,0.031657169041054534
2684.0,0.03170388495374454
2683.0,0.03179733185715028
2682.0,0.03184406285002961
2681.0,0.03184406285002961
2680.0,0.03175060589208267
2679.0,0.031657169041054534
2678.0,0.03161045815293173
2677.0,0.03161045815293173
2676.0,0.03161045815293173
2675.0,0.03170388495374454
2674.0,0.03175060589208267
2673.0,0.03179733185715028
2672.0,0.03179733185715028
2671.0,0.03179733185715028
2670.0,0.03175060589208267
2669.0,0.03179733185715028
2668.0,0.03175060589208267
2667.0,0.03175060589208267
2666.0,0.03175060589208267
2665.0,0.03175060589208267
2664.0,0.03184406285002961
2663.0,0.03189079887180224
2662.0,0.03189079887180224
2661.0,0.03179733185715028
2660.0,0.03170388495374454
2659.0,0.031657169041054534
2658.0,0.03161045815293173
2657.0,0.031657169041054534
2656.0,0.03175060589208267
2655.0,0.03189079887180224
2654.0,0.03193753992355086
2653.0,0.03193753992355086
2652.0,0.03193753992355086
2651.0,0.03189079887180224
2650.0,0.03179733185715028
2649.0,0.03170388495374454
2648.0,0.03170388495374454
2647.0,0.031657169041054534
2646.0,0.03170388495374454
2645.0,0.03170388495374454
2644.0,0.03170388495374454
2643.0,0.03170388495374454
2642.0,0.03175060589208267
2641.0,0.03175060589208267
2640.0,0.03175060589208267
2639.0,0.03170388495374454
2638.0,0.031657169041054534
2637.0,0.03161045815293173
2636.0,0.031657169041054534
2635.0,0.03175060589208267
2634.0,0.03189079887180224
2633.0,0.03193753992355086
2632.0,0.03193753992355086
2631.0,0.03193753992355086
2630.0,0.03189079887180224
2629.0,0.03189079887180224
2628.0,0.03184406285002961
2627.0,0.03179733185715028
2626.0,0.03175060589208267
2625.0,0.03170388495374454
2624.0,0.03170388495374454
2623.0,0.03175060589208267
2622.0,0.03179733185715028
2621.0,0.03189079887180224
2620.0,0.03193753992355086
2619.0,0.03189079887180224
2618.0,0.03184406285002961
2617.0,0.03179733185715028
2616.0,0.03179733185715028
2615.0,0.03179733185715028
2614.0,0.03175060589208267
2613.0,0.03170388495374454
2612.0,0.03170388495374454
2611.0,0.03179733185715028
2610.0,0.03193753992355086
2609.0,0.032031037121307726
2608.0,0.03207779326948268
2607.0,0.03207779326948268
2606.0,0.032031037121307726
2605.0,0.031984286006358165
2604.0,0.031984286006358165
2603.0,0.03193753992355086
2602.0,0.03193753992355086
2601.0,0.03193753992355086
2600.0,0.03193753992355086
2599.0,0.03193753992355086
2598.0,0.03193753992355086
2597.0,0.03189079887180224
2596.0,0.03184406285002961
2595.0,0.03184406285002961
2594.0,0.03184406285002961
2593.0,0.03189079887180224
2592.0,0.03193753992355086
2591.0,0.03193753992355086
2590.0,0.03189079887180224
2589.0,0.03184406285002961
2588.0,0.03179733185715028
2587.0,0.03175060589208267
2586.0,0.03170388495374454
2585.0,0.03170388495374454
2584.0,0.03175060589208267
2583.0,0.03184406285002961
2582.0,0.03189079887180224
2581.0,0.031984286006358165
2580.0,0.032031037121307726
2579.0,0.03207779326948268
2578.0,0.032031037121307726
2577.0,0.031984286006358165
2576.0,0.03189079887180224
2575.0,0.03179733185715028
2574.0,0.03175060589208267
2573.0,0.03175060589208267
2572.0,0.03179733185715028
2571.0,0.03189079887180224
2570.0,0.031984286006358165
2569.0,0.032031037121307726
2568.0,0.03207779326948268
2567.0,0.032124554451966825
2566.0,0.032124554451966825
2565.0,0.032124554451966825
2564.0,0.03207779326948268
2563.0,0.031984286006358165
2562.0,0.03193753992355086
2561.0,0.03193753992355086
2560.0,0.03193753992355086
2559.0,0.03193753992355086
2558.0,0.03193753992355086
2557.0,0.03189079887180224
2556.0,0.03189079887180224
2555.0,0.03184406285002961
2554.0,0.03179733185715028
2553.0,0.03184406285002961
2552.0,0.03189079887180224
2551.0,0.03193753992355086
2550.0,0.03193753992355086
2549.0,0.03193753992355086
2548.0,0.03189079887180224
2547.0,0.03189079887180224
2546.0,0.03193753992355086
2545.0,0.032031037121307726
2544.0,0.032124554451966825
2543.0,0.032124554451966825
2542.0,0.032124554451966825
2541.0,0.03207779326948268
2540.0,0.032031037121307726
2539.0,0.031984286006358165
2538.0,0.03189079887180224
2537.0,0.03175060589208267
2536.0,0.03175060589208267
2535.0,0.03175060589208267
2534.0,0.03184406285002961
2533.0,0.03193753992355086
2532.0,0.03193753992355086
2531.0,0.03193753992355086
2530.0,0.03193753992355086
2529.0,0.03193753992355086
2528.0,0.03193753992355086
2527.0,0.031984286006358165
2526.0,0.031984286006358165
2525.0,0.031984286006358165
2524.0,0.031984286006358165
2523.0,0.03193753992355086
2522.0,0.03189079887180224
2521.0,0.03184406285002961
2520.0,0.03189079887180224
2519.0,0.03193753992355086
2518.0,0.03193753992355086
2517.0,0.031984286006358165
2516.0,0.031984286006358165
2515.0,0.032031037121307726
2514.0,0.03207779326948268
2513.0,0.03207779326948268
2512.0,0.032031037121307726
2511.0,0.03193753992355086
2510.0,0.03184406285002961
2509.0,0.03184406285002961
2508.0,0.03189079887180224
2507.0,0.03193753992355086
2506.0,0.031984286006358165
2505.0,0.03193753992355086
2504.0,0.03193753992355086
2503.0,0.032031037121307726
2502.0,0.03217132066984485
2501.0,0.03226486821611996
2500.0,0.03226486821611996
2499.0,0.03217132066984485
2498.0,0.032124554451966825
2497.0,0.03217132066984485
2496.0,0.032218091924200776
2495.0,0.03226486821611996
2494.0,0.032311649546687526
2493.0,0.032311649546687526
2492.0,0.03235843591698884
2491.0,0.03235843591698884
2490.0,0.03240522732811035
2489.0,0.03240522732811035
2488.0,0.03245202378113787
2487.0,0.03245202378113787
2486.0,0.03245202378113787
2485.0,0.03240522732811035
2484.0,0.03240522732811035
2483.0,0.03235843591698884
2482.0,0.032311649546687526
2481.0,0.03226486821611996
2480.0,0.032218091924200776
2479.0,0.03217132066984485
2478.0,0.03217132066984485
2477.0,0.032218091924200776
2476.0,0.03226486821611996
2475.0,0.032311649546687526
2474.0,0.03226486821611996
2473.0,0.032218091924200776
2472.0,0.032218091924200776
2471.0,0.032218091924200776
2470.0,0.03226486821611996
2469.0,0.03235843591698884
2468.0,0.03235843591698884
2467.0,0.03235843591698884
2466.0,0.03235843591698884
2465.0,0.03235843591698884
2464.0,0.03240522732811035
2463.0,0.03245202378113787
2462.0,0.032545631817259224
2461.0,0.032545631817259224
2460.0,0.032545631817259224
2459.0,0.032545631817259224
2458.0,0.03249882527715853
2457.0,0.03245202378113787
2456.0,0.03245202378113787
2455.0,0.03249882527715853
2454.0,0.032545631817259224
2453.0,0.032592443402527316
2452.0,0.03263926003405038
2451.0,0.03263926003405038
2450.0,0.032686081712916426
2449.0,0.032686081712916426
2448.0,0.032686081712916426
2447.0,0.03263926003405038
2446.0,0.032592443402527316
2445.0,0.032545631817259224
2444.0,0.03249882527715853
2443.0,0.03245202378113787
2442.0,0.03240522732811035
2441.0,0.03240522732811035
2440.0,0.03235843591698884
2439.0,0.03235843591698884
2438.0,0.03235843591698884
2437.0,0.03245202378113787
2436.0,0.03249882527715853
2435.0,0.03249882527715853
2434.0,0.03249882527715853
2433.0,0.03245202378113787
2432.0,0.03245202378113787
2431.0,0.03245202378113787
2430.0,0.032545631817259224
2429.0,0.03263926003405038
2428.0,0.032686081712916426
2427.0,0.032686081712916426
2426.0,0.032592443402527316
2425.0,0.03249882527715853
2424.0,0.03245202378113787
2423.0,0.03249882527715853
2422.0,0.032545631817259224
2421.0,0.032545631817259224
2420.0,0.03249882527715853
2419.0,0.03245202378113787
2418.0,0.03240522732811035
2417.0,0.03245202378113787
2416.0,0.03245202378113787
2415.0,0.03249882527715853
2414.0,0.03249882527715853
2413.0,0.032545631817259224
2412.0,0.032592443402527316
2411.0,0.032592443402527316
2410.0,0.032592443402527316
2409.0,0.032592443402527316
2408.0,0.03263926003405038
2407.0,0.032686081712916426
2406.0,0.03273290844021437
2405.0,0.03277974021703267
2404.0,0.03273290844021437
2403.0,0.03273290844021437
2402.0,0.032686081712916426
2401.0,0.032686081712916426
2400.0,0.03273290844021437
2399.0,0.03277974021703267
2398.0,0.032873418923587305
2397.0,0.032920265855503006
2396.0,0.032920265855503006
2395.0,0.032920265855503006
2394.0,0.0329671178412978
2393.0,0.03301397488206215
2392.0,0.03310770413286357
2391.0,0.03310770413286357
2390.0,0.033060836978886954
2389.0,0.0329671178412978
2388.0,0.032920265855503006
2387.0,0.032873418923587305
2386.0,0.032873418923587305
2385.0,0.032873418923587305
2384.0,0.032873418923587305
2383.0,0.032920265855503006
2382.0,0.03301397488206215
2381.0,0.033154576345083564
2380.0,0.0332483359486222
2379.0,0.033295223342125535
2378.0,0.033295223342125535
2377.0,0.033295223342125535
2376.0,0.03310770413286357
2375.0,0.03277974021703267
2374.0,0.032592443402527316
2373.0,0.03273290844021437
2372.0,0.033154576345083564
2371.0,0.03343591590268957
2370.0,0.033482823553208085
2369.0,0.03352973627071565
2368.0,0.0338113190438627
2367.0,0.03428102975577918
2366.0,0.03461012978487776
2365.0,0.03465716443937783
2364.0,0.03442204208947208
2363.0,0.03409308450480819
2362.0,0.03376437590141812
2361.0,0.03334211579824231
2360.0,0.032920265855503006
2359.0,0.032920265855503006
2358.0,0.03362357691107709
2357.0,0.03442204208947208
2356.0,0.03465716443937783
2355.0,0.03423403581731388
2354.0,0.03376437590141812
2353.0,0.03362357691107709
2352.0,0.03376437590141812
2351.0,0.03385826726096752
2350.0,0.03399914237121604
2349.0,0.03409308450480819
2348.0,0.03409308450480819
2347.0,0.034046110897937076
2346.0,0.03414006319292828
2345.0,0.03428102975577918
2344.0,0.03414006319292828
2343.0,0.033905220553829274
2342.0,0.03399914237121604
2341.0,0.034469056377139484
2340.0,0.03484535401307465
2339.0,0.03479829897408804
2338.0,0.03442204208947208
2337.0,0.033952178923546183
2336.0,0.03385826726096752
2335.0,0.034046110897937076
2334.0,0.03432802877989327
2333.0,0.03423403581731388
2332.0,0.033905220553829274
2331.0,0.03362357691107709
2330.0,0.03385826726096752
2329.0,0.03432802877989327
2328.0,0.03461012978487776
2327.0,0.03442204208947208
2326.0,0.03399914237121604
2325.0,0.03367050483612166
2324.0,0.03357665405630694
2323.0,0.03371743783253667
2322.0,0.033952178923546183
2321.0,0.034187046963396917
2320.0,0.03437503289075727
2319.0,0.034516075754861264
2318.0,0.03456310022373987
2317.0,0.034516075754861264
2316.0,0.034469056377139484
2315.0,0.034469056377139484
2314.0,0.03461012978487776
2313.0,0.03484535401307465
2312.0,0.03503362516890207
2311.0,0.03503362516890207
2310.0,0.03498654972775217
2309.0,0.0349394793888016
2308.0,0.0349394793888016
2307.0,0.0349394793888016
2306.0,0.03489241415094413
2305.0,0.03475124903287918
2304.0,0.03470420418834386
2303.0,0.03465716443937783
2302.0,0.03470420418834386
2301.0,0.03470420418834386
2300.0,0.03470420418834386
2299.0,0.03465716443937783
2298.0,0.03456310022373987
2297.0,0.034516075754861264
2296.0,0.034469056377139484
2295.0,0.03442204208947208
2294.0,0.03442204208947208
2293.0,0.03442204208947208
2292.0,0.03442204208947208
2291.0,0.03442204208947208
2290.0,0.034469056377139484
2289.0,0.034516075754861264
2288.0,0.034516075754861264
2287.0,0.03442204208947208
2286.0,0.03428102975577918
2285.0,0.03414006319292828
2284.0,0.03409308450480819
2283.0,0.034046110897937076
2282.0,0.034046110897937076
2281.0,0.034046110897937076
2280.0,0.03409308450480819
2279.0,0.034046110897937076
2278.0,0.033952178923546183
2277.0,0.033905220553829274
2276.0,0.033952178923546183
2275.0,0.034046110897937076
2274.0,0.03409308450480819
2273.0,0.03414006319292828
2272.0,0.03409308450480819
2271.0,0.034046110897937076
2270.0,0.034046110897937076
2269.0,0.03399914237121604
2268.0,0.03399914237121604
2267.0,0.034046110897937076
2266.0,0.03409308450480819
2265.0,0.034187046963396917
2264.0,0.03423403581731388
2263.0,0.03428102975577918
2262.0,0.03432802877989327
2261.0,0.03428102975577918
2260.0,0.03423403581731388
2259.0,0.03423403581731388
2258.0,0.03428102975577918
2257.0,0.03428102975577918
2256.0,0.03428102975577918
2255.0,0.03423403581731388
2254.0,0.03428102975577918
2253.0,0.03432802877989327
2252.0,0.03432802877989327
2251.0,0.03432802877989327
2250.0,0.03428102975577918
2249.0,0.034187046963396917
2248.0,0.034187046963396917
2247.0,0.034187046963396917
2246.0,0.03423403581731388
2245.0,0.03428102975577918
2244.0,0.03432802877989327
2243.0,0.03432802877989327
2242.0,0.03428102975577918
2241.0,0.03428102975577918
2240.0,0.03428102975577918
2239.0,0.03428102975577918
2238.0,0.03432802877989327
2237.0,0.03437503289075727
2236.0,0.03437503289075727
2235.0,0.03437503289075727
2234.0,0.03432802877989327
2233.0,0.03428102975577918
2232.0,0.03423403581731388
2231.0,0.03428102975577918
2230.0,0.03432802877989327
2229.0,0.034469056377139484
2228.0,0.03456310022373987
2227.0,0.03465716443937783
2226.0,0.03465716443937783
2225.0,0.03465716443937783
2224.0,0.03461012978487776
2223.0,0.03456310022373987
2222.0,0.034516075754861264
2221.0,0.03456310022373987
2220.0,0.03461012978487776
2219.0,0.03461012978487776
2218.0,0.03456310022373987
2217.0,0.03456310022373987
2216.0,0.03456310022373987
2215.0,0.03461012978487776
2214.0,0.03465716443937783
2213.0,0.03470420418834386
2212.0,0.03465716443937783
2211.0,0.03456310022373987
2210.0,0.034469056377139484
2209.0,0.03442204208947208
2208.0,0.034469056377139484
2207.0,0.034516075754861264
2206.0,0.03461012978487776
2205.0,0.03465716443937783
2204.0,0.03470420418834386
2203.0,0.03470420418834386
2202.0,0.03470420418834386
2201.0,0.03475124903287918
2200.0,0.03479829897408804
2199.0,0.03484535401307465
2198.0,0.03484535401307465
2197.0,0.03479829897408804
2196.0,0.03475124903287918
2195.0,0.03475124903287918
2194.0,0.03475124903287918
2193.0,0.03475124903287918
2192.0,0.03475124903287918
2191.0,0.03475124903287918
2190.0,0.03475124903287918
2189.0,0.03475124903287918
2188.0,0.03475124903287918
2187.0,0.03470420418834386
2186.0,0.03470420418834386
2185.0,0.03479829897408804
2184.0,0.03484535401307465
2183.0,0.0349394793888016
2182.0,0.0349394793888016
2181.0,0.03498654972775217
2180.0,0.0349394793888016
2179.0,0.03489241415094413
2178.0,0.03484535401307465
2177.0,0.03479829897408804
2176.0,0.03479829897408804
2175.0,0.03479829897408804
2174.0,0.03484535401307465
2173.0,0.0349394793888016
2172.0,0.03498654972775217
2171.0,0.03498654972775217
2170.0,0.03498654972775217
2169.0,0.0349394793888016
2168.0,0.0349394793888016
2167.0,0.03498654972775217
2166.0,0.03498654972775217
2165.0,0.03508070571335731
2164.0,0.03508070571335731
2163.0,0.03512779136222477
2162.0,0.03508070571335731
2161.0,0.03503362516890207
2160.0,0.03498654972775217
2159.0,0.03503362516890207
2158.0,0.03503362516890207
2157.0,0.03508070571335731
2156.0,0.03503362516890207
2155.0,0.03498654972775217
2154.0,0.03498654972775217
2153.0,0.03503362516890207
2152.0,0.03512779136222477
2151.0,0.03517488211661135
2150.0,0.03522197797762394
2149.0,0.03522197797762394
2148.0,0.03517488211661135
2147.0,0.03512779136222477
2146.0,0.03508070571335731
2145.0,0.03512779136222477
2144.0,0.03517488211661135
2143.0,0.03522197797762394
2142.0,0.03522197797762394
2141.0,0.03522197797762394
2140.0,0.03522197797762394
2139.0,0.03526907894637077
2138.0,0.03526907894637077
2137.0,0.03531618502395939
2136.0,0.035363296211498474
2135.0,0.03541041251009669
2134.0,0.03541041251009669
2133.0,0.03541041251009669
2132.0,0.035363296211498474
2131.0,0.035363296211498474
2130.0,0.03531618502395939
2129.0,0.03526907894637077
2128.0,0.03522197797762394
2127.0,0.03517488211661135
2126.0,0.03522197797762394
2125.0,0.03531618502395939
2124.0,0.035363296211498474
2123.0,0.03531618502395939
2122.0,0.03526907894637077
2121.0,0.03517488211661135
2120.0,0.03512779136222477
2119.0,0.03512779136222477
2118.0,0.03517488211661135
2117.0,0.03526907894637077
2116.0,0.035363296211498474
2115.0,0.03541041251009669
2114.0,0.035363296211498474
2113.0,0.035363296211498474
2112.0,0.035363296211498474
2111.0,0.03541041251009669
2110.0,0.03550466044490741
2109.0,0.03550466044490741
2108.0,0.03545753392086315
2107.0,0.035363296211498474
2106.0,0.03526907894637077
2105.0,0.03531618502395939
2104.0,0.035363296211498474
2103.0,0.03545753392086315
2102.0,0.03550466044490741
2101.0,0.03550466044490741
2100.0,0.03550466044490741
2099.0,0.03545753392086315
2098.0,0.03545753392086315
2097.0,0.03545753392086315
2096.0,0.03550466044490741
2095.0,0.03545753392086315
2094.0,0.035363296211498474
2093.0,0.03531618502395939
2092.0,0.03526907894637077
2091.0,0.03526907894637077
2090.0,0.03526907894637077
2089.0,0.03531618502395939
2088.0,0.03531618502395939
2087.0,0.035363296211498474
2086.0,0.03541041251009669
2085.0,0.03541041251009669
2084.0,0.03545753392086315
2083.0,0.03550466044490741
2082.0,0.03550466044490741
2081.0,0.03555179208333925
2080.0,0.03555179208333925
2079.0,0.03555179208333925
2078.0,0.03555179208333925
2077.0,0.03559892883726867
2076.0,0.035646070707806565
2075.0,0.035693217696063595
2074.0,0.03578752703018084
2073.0,0.03583468937826462
2072.0,0.03578752703018084
2071.0,0.035693217696063595
2070.0,0.035646070707806565
2069.0,0.03559892883726867
2068.0,0.03559892883726867
2067.0,0.035646070707806565
2066.0,0.035646070707806565
2065.0,0.035693217696063595
2064.0,0.035693217696063595
2063.0,0.035693217696063595
2062.0,0.035693217696063595
2061.0,0.035740369803151095
2060.0,0.03578752703018084
2059.0,0.03578752703018084
2058.0,0.03578752703018084
2057.0,0.035740369803151095
2056.0,0.035693217696063595
2055.0,0.035693217696063595
2054.0,0.035693217696063595
2053.0,0.03578752703018084
2052.0,0.03588185684851508
2051.0,0.03597620715996652
2050.0,0.03597620715996652
2049.0,0.03602339000339416
2048.0,0.03602339000339416
2047.0,0.03597620715996652
2046.0,0.03597620715996652
2045.0,0.03597620715996652
2044.0,0.03602339000339416
2043.0,0.03597620715996652
2042.0,0.03597620715996652
2041.0,0.03597620715996652
2040.0,0.03597620715996652
2039.0,0.03602339000339416
2038.0,0.03602339000339416
2037.0,0.0360705779734416
2036.0,0.0360705779734416
2035.0,0.0360705779734416
2034.0,0.0360705779734416
2033.0,0.03602339000339416
2032.0,0.03602339000339416
2031.0,0.03602339000339416
2030.0,0.03602339000339416
2029.0,0.03602339000339416
2028.0,0.03597620715996652
2027.0,0.03597620715996652
2026.0,0.03597620715996652
2025.0,0.03597620715996652
2024.0,0.03597620715996652
2023.0,0.03597620715996652
2022.0,0.03597620715996652
2021.0,0.03602339000339416
2020.0,0.0360705779734416
2019.0,0.0360705779734416
2018.0,0.0360705779734416
2017.0,0.03602339000339416
2016.0,0.03602339000339416
2015.0,0.03597620715996652
2014.0,0.03592902944204468
2013.0,0.03588185684851508
2012.0,0.03588185684851508
2011.0,0.03592902944204468
2010.0,0.03597620715996652
2009.0,0.03597620715996652
2008.0,0.03597620715996652
2007.0,0.03597620715996652
2006.0,0.03597620715996652
2005.0,0.0360705779734416
2004.0,0.0360705779734416
2003.0,0.03602339000339416
2002.0,0.03602339000339416
2001.0,0.03602339000339416
2000.0,0.036117771071222604
1999.0,0.036117771071222604
1998.0,0.036117771071222604
1997.0,0.0360705779734416
1996.0,0.0360705779734416
1995.0,0.036117771071222604
1994.0,0.036117771071222604
1993.0,0.03621217265444465
1992.0,0.03630659476198117
1991.0,0.036401037402758574
1990.0,0.03649550058570927
1989.0,0.03649550058570927
1988.0,0.03644826642590382
1987.0,0.03635381351515665
1986.0,0.03630659476198117
1985.0,0.03630659476198117
1984.0,0.03635381351515665
1983.0,0.036401037402758574
1982.0,0.036401037402758574
1981.0,0.036401037402758574
1980.0,0.03635381351515665
1979.0,0.03635381351515665
1978.0,0.03635381351515665
1977.0,0.03630659476198117
1976.0,0.03635381351515665
1975.0,0.03635381351515665
1974.0,0.03635381351515665
1973.0,0.03635381351515665
1972.0,0.03635381351515665
1971.0,0.03635381351515665
1970.0,0.03635381351515665
1969.0,0.03635381351515665
1968.0,0.036401037402758574
1967.0,0.036542739883292485
1966.0,0.03668448861388862
1965.0,0.036873558918095295
1964.0,0.03701541568300293
1963.0,0.0371100126082089
1962.0,0.0371100126082089
1961.0,0.0371573187987575
1960.0,0.03720463014276687
1959.0,0.037299268295658994
1958.0,0.03739392707587297
1957.0,0.03753595394209874
1956.0,0.03763066432997886
1955.0,0.03767802727041558
1954.0,0.03772539537668518
1953.0,0.03777276864991497
1952.0,0.03782014709123227
1951.0,0.03796231343498735
1950.0,0.038151940981675736
1949.0,0.03829421599749461
1948.0,0.03838909190871931
1947.0,0.03848398855105106
1946.0,0.03857890593355173
1945.0,0.03862637240519895
1944.0,0.038673844065289176
1943.0,0.03876880295533702
1942.0,0.038911280232103884
1941.0,0.039006291057664066
1940.0,0.03910132267333921
1939.0,0.03910132267333921
1938.0,0.03905380426616856
1937.0,0.038958783046687984
1936.0,0.03876880295533702
1935.0,0.038673844065289176
1934.0,0.038531444649213764
1933.0,0.038436537637930535
1932.0,0.038341651362284734
1931.0,0.038151940981675736
1930.0,0.03800971255993524
1929.0,0.03786753070176463
1928.0,0.03782014709123227
1927.0,0.03777276864991497
1926.0,0.03777276864991497
1925.0,0.03772539537668518
1924.0,0.03767802727041558
1923.0,0.03753595394209874
1922.0,0.03744126420403626
1921.0,0.03739392707587297
1920.0,0.037346595106788616
1919.0,0.037251946641359446
1918.0,0.0371573187987575
1917.0,0.0371100126082089
1916.0,0.0371573187987575
1915.0,0.03720463014276687
1914.0,0.0371573187987575
1913.0,0.03701541568300293
1912.0,0.036873558918095295
1911.0,0.036731748473764814
1910.0,0.03668448861388862
1909.0,0.036731748473764814
1908.0,0.03682628362474838
1907.0,0.03692083935817303
1906.0,0.0369681249461018
1905.0,0.037062711569998186
1904.0,0.037062711569998186
1903.0,0.037062711569998186
1902.0,0.0371100126082089
1901.0,0.0371100126082089
1900.0,0.0371100126082089
1899.0,0.037062711569998186
1898.0,0.03701541568300293
1897.0,0.0369681249461018
1896.0,0.037062711569998186
1895.0,0.0371573187987575
1894.0,0.037251946641359446
1893.0,0.037346595106788616
1892.0,0.03739392707587297
1891.0,0.03744126420403626
1890.0,0.03753595394209874
1889.0,0.03767802727041558
1888.0,0.03777276864991497
1887.0,0.03782014709123227
1886.0,0.03786753070176463
1885.0,0.03791491948264003
1884.0,0.038057116858612794
1883.0,0.038151940981675736
1882.0,0.03829421599749461
1881.0,0.03838909190871931
1880.0,0.03848398855105106
1879.0,0.03857890593355173
1878.0,0.038673844065289176
1877.0,0.038673844065289176
1876.0,0.038673844065289176
1875.0,0.03862637240519895
1874.0,0.038673844065289176
1873.0,0.038721320914956836
1872.0,0.038721320914956836
1871.0,0.038673844065289176
1870.0,0.038721320914956836
1869.0,0.03886378261277468
1868.0,0.039006291057664066
1867.0,0.03905380426616856
1866.0,0.03905380426616856
1865.0,0.03905380426616856
1864.0,0.039006291057664066
1863.0,0.039006291057664066
1862.0,0.038958783046687984
1861.0,0.038911280232103884
1860.0,0.03876880295533702
1859.0,0.03857890593355173
1858.0,0.038436537637930535
1857.0,0.038341651362284734
1856.0,0.03824678581321739
1855.0,0.038199360808321536
1854.0,0.038151940981675736
1853.0,0.03810452633214956
1852.0,0.03800971255993524
1851.0,0.03786753070176463
1850.0,0.03772539537668518
1849.0,0.037583306554248797
1848.0,0.037488606492403154
1847.0,0.03753595394209874
1846.0,0.03763066432997886
1845.0,0.03767802727041558
1844.0,0.03767802727041558
1843.0,0.03753595394209874
1842.0,0.03744126420403626
1841.0,0.03744126420403626
1840.0,0.03739392707587297
1839.0,0.037346595106788616
1838.0,0.037299268295658994
1837.0,0.037299268295658994
1836.0,0.037346595106788616
1835.0,0.03739392707587297
1834.0,0.03739392707587297
1833.0,0.03739392707587297
1832.0,0.037346595106788616
1831.0,0.037251946641359446
1830.0,0.03720463014276687
1829.0,0.037251946641359446
1828.0,0.037346595106788616
1827.0,0.037488606492403154
1826.0,0.037488606492403154
1825.0,0.03753595394209874
1824.0,0.03753595394209874
1823.0,0.037583306554248797
1822.0,0.03767802727041558
1821.0,0.03782014709123227
1820.0,0.03796231343498735
1819.0,0.038057116858612794
1818.0,0.038057116858612794
1817.0,0.038151940981675736
1816.0,0.038199360808321536
1815.0,0.03824678581321739
1814.0,0.03824678581321739
1813.0,0.03824678581321739
1812.0,0.038341651362284734
1811.0,0.038436537637930535
1810.0,0.03862637240519895
1809.0,0.038816290187564384
1808.0,0.039006291057664066
1807.0,0.03914884628031379
1806.0,0.03924390909822728
1805.0,0.03943409718180235
1804.0,0.03957679292217042
1803.0,0.03962436858984186
1802.0,0.03962436858984186
1801.0,0.03967194946985697
1800.0,0.039719535563357944
1799.0,0.03967194946985697
1798.0,0.03957679292217042
1797.0,0.03948165721929198
1796.0,0.03938654235209116
1795.0,0.03919637508823026
1794.0,0.039006291057664066
1793.0,0.038911280232103884
1792.0,0.03886378261277468
1791.0,0.038816290187564384
1790.0,0.038721320914956836
1789.0,0.038673844065289176
1788.0,0.038673844065289176
1787.0,0.03857890593355173
1786.0,0.038436537637930535
1785.0,0.03829421599749461
1784.0,0.038151940981675736
1783.0,0.038057116858612794
1782.0,0.038057116858612794
1781.0,0.03810452633214956
1780.0,0.038199360808321536
1779.0,0.038199360808321536
1778.0,0.038151940981675736
1777.0,0.03810452633214956
1776.0,0.038057116858612794
1775.0,0.03810452633214956
1774.0,0.038199360808321536
1773.0,0.03829421599749461
1772.0,0.038341651362284734
1771.0,0.03829421599749461
1770.0,0.038341651362284734
1769.0,0.03838909190871931
1768.0,0.038436537637930535
1767.0,0.038341651362284734
1766.0,0.03824678581321739
1765.0,0.038199360808321536
1764.0,0.038199360808321536
1763.0,0.038199360808321536
1762.0,0.03824678581321739
1761.0,0.03829421599749461
1760.0,0.038341651362284734
1759.0,0.03848398855105106
1758.0,0.038673844065289176
1757.0,0.038911280232103884
1756.0,0.03910132267333921
1755.0,0.039338992729018196
1754.0,0.03948165721929198
1753.0,0.03957679292217042
1752.0,0.03957679292217042
1751.0,0.03962436858984186
1750.0,0.03967194946985697
1749.0,0.039767126871487646
1748.0,0.040005161671583744
1747.0,0.04019568349166214
1746.0,0.040338629726504704
1745.0,0.040481623027001756
1744.0,0.04062466342415694
1743.0,0.04081545726880842
1742.0,0.040958607678906356
1741.0,0.041149548320321694
1740.0,0.041340572947066834
1739.0,0.041436116778032606
1738.0,0.04153168163305643
1737.0,0.041579471947481794
1736.0,0.04153168163305643
1735.0,0.041579471947481794
1734.0,0.04172287445230238
1733.0,0.041627267521392675
1732.0,0.041436116778032606
1731.0,0.041340572947066834
1730.0,0.04129280891271536
1729.0,0.041149548320321694
1728.0,0.04105406750606355
1727.0,0.040958607678906356
1726.0,0.04081545726880842
1725.0,0.040672354027829094
1724.0,0.04057697805689475
1723.0,0.04043395336207234
1722.0,0.040338629726504704
1721.0,0.0402909757535701
1720.0,0.04014804520039483
1719.0,0.03986232513620536
1718.0,0.03967194946985697
1717.0,0.03967194946985697
1716.0,0.03962436858984186
1715.0,0.03962436858984186
1714.0,0.03967194946985697
1713.0,0.039719535563357944
1712.0,0.039767126871487646
1711.0,0.03967194946985697
1710.0,0.03957679292217042
1709.0,0.03948165721929198
1708.0,0.039338992729018196
1707.0,0.03924390909822728
1706.0,0.03919637508823026
1705.0,0.03924390909822728
1704.0,0.03938654235209116
1703.0,0.03957679292217042
1702.0,0.03967194946985697
1701.0,0.03967194946985697
1700.0,0.03957679292217042
1699.0,0.03943409718180235
1698.0,0.03957679292217042
1697.0,0.039909932095080425
1696.0,0.040005161671583744
1695.0,0.03986232513620536
1694.0,0.039767126871487646
1693.0,0.039909932095080425
1692.0,0.040005161671583744
1691.0,0.039909932095080425
1690.0,0.03981472339538916
1689.0,0.039767126871487646
1688.0,0.039909932095080425
1687.0,0.040005161671583744
1686.0,0.03986232513620536
1685.0,0.03981472339538916
1684.0,0.03995754427315856
1683.0,0.039909932095080425
1682.0,0.04010041213405646
1681.0,0.0402909757535701
1680.0,0.04038628892895613
1679.0,0.04043395336207234
1678.0,0.040481623027001756
1677.0,0.040529297924893015
1676.0,0.04057697805689475
1675.0,0.040672354027829094
1674.0,0.040672354027829094
1673.0,0.04057697805689475
1672.0,0.040481623027001756
1671.0,0.040481623027001756
1670.0,0.04062466342415694
1669.0,0.04081545726880842
1668.0,0.04086316882962593
1667.0,0.04091088563260792
1666.0,0.041006334969674096
1665.0,0.040958607678906356
1664.0,0.04086316882962593
1663.0,0.04081545726880842
1662.0,0.04081545726880842
1661.0,0.04081545726880842
1660.0,0.04086316882962593
1659.0,0.04086316882962593
1658.0,0.04081545726880842
1657.0,0.04076775094900409
1656.0,0.04072004986906119
1655.0,0.04057697805689475
1654.0,0.04072004986906119
1653.0,0.04105406750606355
1652.0,0.04062466342415694
1651.0,0.04043395336207234
1650.0,0.040481623027001756
1649.0,0.04038628892895613
1648.0,0.0402909757535701
1647.0,0.040529297924893015
1646.0,0.040672354027829094
1645.0,0.04062466342415694
1644.0,0.040529297924893015
1643.0,0.040481623027001756
1642.0,0.04038628892895613
1641.0,0.040243327009005014
1640.0,0.04010041213405646
1639.0,0.03995754427315856
1638.0,0.039909932095080425
1637.0,0.040005161671583744
1636.0,0.040243327009005014
1635.0,0.040243327009005014
1634.0,0.0400527842915015
1633.0,0.040005161671583744
1632.0,0.03995754427315856
1631.0,0.03986232513620536
1630.0,0.039719535563357944
1629.0,0.03962436858984186
1628.0,0.03952922246570112
1627.0,0.03948165721929198
1626.0,0.03943409718180235
1625.0,0.03924390909822728
1624.0,0.03910132267333921
1623.0,0.03905380426616856
1622.0,0.03905380426616856
1621.0,0.03910132267333921
1620.0,0.03919637508823026
1619.0,0.03919637508823026
1618.0,0.03910132267333921
1617.0,0.038911280232103884
1616.0,0.03857890593355173
1615.0,0.038436537637930535
1614.0,0.038531444649213764
1613.0,0.03862637240519895
1612.0,0.038721320914956836
1611.0,0.038911280232103884
1610.0,0.03938654235209116
1609.0,0.04014804520039483
1608.0,0.04138834223512067
1607.0,0.043063586155803746
1606.0,0.04513062893352182
1605.0,0.04740126547022694
1604.0,0.04987865248862655
1603.0,0.05227227303668425
1602.0,0.054088483180726676
1601.0,0.0549255115212699
1600.0,0.05482695382609992
1599.0,0.05394093961487645
1598.0,0.0525172634430815
1597.0,0.050902874887084115
1596.0,0.04944043838819989
1595.0,0.04827402457540786
1594.0,0.047352830241056854
1593.0,0.04653025674659861
1592.0,0.04580574818413763
1591.0,0.04522701031028298
1590.0,0.044793462458058375
1589.0,0.04455278942230456
1588.0,0.04460091336073302
1587.0,0.044937930324967956
1586.0,0.045516282844447975
1585.0,0.046192002334692894
1584.0,0.04677202844014605
1583.0,0.04711073508906982
1582.0,0.0469171560879138
1581.0,0.04638525830935958
1580.0,0.045660991397539874
1579.0,0.04508244626504121
1578.0,0.044456557540257124
1577.0,0.04397571771932274
1576.0,0.04359142880416744
1575.0,0.04320747962950522
1574.0,0.04287180232318688
1573.0,0.04268010314465909
1572.0,0.042344833056508824
1571.0,0.04196198390166317
1570.0,0.04172287445230238
1569.0,0.04167506835594681
1568.0,0.04167506835594681
1567.0,0.04167506835594681
1566.0,0.041579471947481794
1565.0,0.04138834223512067
1564.0,0.04129280891271536
1563.0,0.04138834223512067
1562.0,0.041436116778032606
1561.0,0.04105406750606355
1560.0,0.040672354027829094
1559.0,0.04129280891271536
1558.0,0.04138834223512067
1557.0,0.041197296600497646
1556.0,0.04129280891271536
1555.0,0.041340572947066834
1554.0,0.04129280891271536
1553.0,0.041149548320321694
1552.0,0.041101805289228244
1551.0,0.04105406750606355
1550.0,0.04105406750606355
1549.0,0.04105406750606355
1548.0,0.04105406750606355
1547.0,0.041101805289228244
1546.0,0.04105406750606355
1545.0,0.04105406750606355
1544.0,0.041101805289228244
1543.0,0.041149548320321694
1542.0,0.041197296600497646
1541.0,0.041436116778032606
1540.0,0.04167506835594681
1539.0,0.041340572947066834
1538.0,0.041006334969674096
1537.0,0.040958607678906356
1536.0,0.04091088563260792
1535.0,0.04072004986906119
1534.0,0.04057697805689475
1533.0,0.04043395336207234
1532.0,0.040338629726504704
1531.0,0.040243327009005014
1530.0,0.04010041213405646
1529.0,0.03986232513620536
1528.0,0.039719535563357944
1527.0,0.03957679292217042
1526.0,0.03938654235209116
1525.0,0.03919637508823026
1524.0,0.03905380426616856
1523.0,0.038911280232103884
1522.0,0.038911280232103884
1521.0,0.03886378261277468
1520.0,0.038673844065289176
1519.0,0.038531444649213764
1518.0,0.038341651362284734
1517.0,0.03824678581321739
1516.0,0.03824678581321739
1515.0,0.03824678581321739
1514.0,0.038199360808321536
1513.0,0.03800971255993524
1512.0,0.03772539537668518
1511.0,0.037346595106788616
1510.0,0.03692083935817303
1509.0,0.03644826642590382
1508.0,0.03621217265444465
1507.0,0.03630659476198117
1506.0,0.0360705779734416
1505.0,0.03578752703018084
1504.0,0.03578752703018084
1503.0,0.03578752703018084
1502.0,0.03578752703018084
1501.0,0.03597620715996652
1500.0,0.036779013477011624
1499.0,0.038673844065289176
1498.0,0.04282386959515394
1497.0,0.05036607620073763
1496.0,0.060081579630943294
1495.0,0.0688982543673613
1494.0,0.07530729697981409
1493.0,0.07904229404455076
1492.0,0.07992887570247587
1491.0,0.07758597585436577
1490.0,0.07262963696097646
1489.0,0.0671712330991534
1488.0,0.0627329277885873
1487.0,0.05933412752417122
1486.0,0.05665390164340933
1485.0,0.05448217792216048
1484.0,0.05256627811294923
1483.0,0.050902874887084115
1482.0,0.04939177521576932
1481.0,0.048225491918274965
1480.0,0.04740126547022694
1479.0,0.04657860031896477
1478.0,0.04580574818413763
1477.0,0.0451788169482068
1476.0,0.04464904263234004
1475.0,0.04426415772233416
1474.0,0.04397571771932274
1473.0,0.0439276630048171
1472.0,0.0439276630048171
1471.0,0.04368746915880539
1470.0,0.043495409683302455
1469.0,0.04339941178682327
1468.0,0.043303435105349175
1467.0,0.04315950984076644
1466.0,0.042967683653061695
1465.0,0.042775942156833
1464.0,0.042584285277331047
1463.0,0.04224908912272074
1462.0,0.041914151478914974
1461.0,0.041627267521392675
1460.0,0.041579471947481794
1459.0,0.04229695845116854
1458.0,0.04580574818413763
1457.0,0.053596866100945384
1456.0,0.06223143295006417
1455.0,0.0691018855898955
1454.0,0.07489427319033615
1453.0,0.07972010536705154
1452.0,0.08275714209253371
1451.0,0.08344078069888616
1450.0,0.08223199755224364
1449.0,0.08013774644446192
1448.0,0.07789763319239285
1447.0,0.07592757008963713
1446.0,0.07422394616325367
1445.0,0.07262963696097646
1444.0,0.0709900145060387
1443.0,0.06925467168888666
1442.0,0.0676277178520861
1441.0,0.06620911585658007
1440.0,0.06494641076893504
1439.0,0.06378795567975115
1438.0,0.06258241852286206
1437.0,0.06133019897732073
1436.0,0.06003170944866376
1435.0,0.058737090681050264
1434.0,0.0575950591438934
1433.0,0.05655495097496965
1432.0,0.05551732784983132
1431.0,0.05458065739693696
1430.0,0.05374429280060267
1429.0,0.05305672930217464
1428.0,0.052419250695677544
1427.0,0.05188057561946402
1426.0,0.05134256785867963
1425.0,0.05085404758005607
1424.0,0.05051241005349638
1423.0,0.05026854768429301
1422.0,0.050073556332087765
1421.0,0.04968383607539972
1420.0,0.04934311749548925
1419.0,0.04905128560059957
1418.0,0.04885683989244738
1417.0,0.04866248120408234
1416.0,0.048468209457651845
1415.0,0.04827402457540786
1414.0,0.04803141550708934
1413.0,0.0478374257855374
1412.0,0.047595060422975566
1411.0,0.04740126547022694
1410.0,0.04720755695590784
1409.0,0.04701393480294458
1408.0,0.04682039893436585
1407.0,0.04667530361081473
1406.0,0.04653025674659861
1405.0,0.04643358574299339
1404.0,0.04643358574299339
1403.0,0.04638525830935958
1402.0,0.04633693625290869
1401.0,0.04624030826677128
1400.0,0.046192002334692894
1399.0,0.04624030826677128
1398.0,0.046192002334692894
1397.0,0.04609540658654021
1396.0,0.04595055323640551
1395.0,0.04599883231842972
1394.0,0.046192002334692894
1393.0,0.04633693625290869
1392.0,0.046481918555007384
1391.0,0.04667530361081473
1390.0,0.04682039893436585
1389.0,0.047062332249019345
1388.0,0.04744970610179822
1387.0,0.047934409814949674
1386.0,0.048225491918274965
1385.0,0.04841965509660828
1384.0,0.0486139051197072
1383.0,0.04885683989244738
1382.0,0.04919717703534143
1381.0,0.04953778109440221
1380.0,0.04987865248862655
1379.0,0.05021979163799939
1378.0,0.05051241005349638
1377.0,0.050805225762017736
1376.0,0.051049389754451946
1375.0,0.05139145012356372
1374.0,0.0518316382728683
1373.0,0.05212534510230182
1372.0,0.05227227303668425
1371.0,0.05227227303668425
1370.0,0.05232126006306337
1369.0,0.052419250695677544
1368.0,0.0525172634430815
1367.0,0.05256627811294923
1366.0,0.0525172634430815
1365.0,0.052419250695677544
1364.0,0.05232126006306337
1363.0,0.052419250695677544
1362.0,0.05256627811294923
1361.0,0.05261529831525902
1360.0,0.05256627811294923
1359.0,0.052468254304406825
1358.0,0.05227227303668425
1357.0,0.05212534510230182
1356.0,0.052027420754219955
1355.0,0.05197846685889629
1354.0,0.052027420754219955
1353.0,0.05207638016827354
1352.0,0.05212534510230182
1351.0,0.05212534510230182
1350.0,0.05212534510230182
1349.0,0.05212534510230182
1348.0,0.05207638016827354
1347.0,0.052027420754219955
1346.0,0.05197846685889629
1345.0,0.05188057561946402
1344.0,0.05173378011970464
1343.0,0.05148923116234294
1342.0,0.05129369109514803
1341.0,0.051098239029786274
1340.0,0.05100054597304693
1339.0,0.051049389754451946
1338.0,0.05114709380028648
1337.0,0.05114709380028648
1336.0,0.05114709380028648
1335.0,0.051244819831730126
1334.0,0.05139145012356372
1333.0,0.0515870342213991
1332.0,0.05173378011970464
1331.0,0.05188057561946402
1330.0,0.05207638016827354
1329.0,0.05232126006306337
1328.0,0.052468254304406825
1327.0,0.0525172634430815
1326.0,0.052468254304406825
1325.0,0.05237025261564554
1324.0,0.05232126006306337
1323.0,0.05222329153526162
1322.0,0.05212534510230182
1321.0,0.052027420754219955
1320.0,0.05197846685889629
1319.0,0.05207638016827354
1318.0,0.05222329153526162
1317.0,0.05237025261564554
1316.0,0.052468254304406825
1315.0,0.05261529831525902
1314.0,0.05271335532220167
1313.0,0.05281143447390635
1312.0,0.05286048235717078
1311.0,0.05290953578037816
1310.0,0.05286048235717078
1309.0,0.05286048235717078
1308.0,0.05286048235717078
1307.0,0.05281143447390635
1306.0,0.05281143447390635
1305.0,0.05271335532220167
1304.0,0.05271335532220167
1303.0,0.05266432405126009
1302.0,0.05256627811294923
1301.0,0.052468254304406825
1300.0,0.05232126006306337
1299.0,0.05217431555754937
1298.0,0.05207638016827354
1297.0,0.052027420754219955
1296.0,0.052027420754219955
1295.0,0.05207638016827354
1294.0,0.05207638016827354
1293.0,0.052027420754219955
1292.0,0.052027420754219955
1291.0,0.05197846685889629
1290.0,0.05192951848105887
1289.0,0.05188057561946402
1288.0,0.05178270644002936
1287.0,0.05173378011970464
1286.0,0.051684859310652254
1285.0,0.05173378011970464
1284.0,0.05173378011970464
1283.0,0.05178270644002936
1282.0,0.05178270644002936
1281.0,0.05178270644002936
1280.0,0.05173378011970464
1279.0,0.05163594401163074
1278.0,0.05148923116234294
1277.0,0.05139145012356372
1276.0,0.05129369109514803
1275.0,0.051244819831730126
1274.0,0.05114709380028648
1273.0,0.051049389754451946
1272.0,0.050902874887084115
1271.0,0.05085404758005607
1270.0,0.050805225762017736
1269.0,0.05075640943173498
1268.0,0.05065879322950262
1267.0,0.05056119896349576
1266.0,0.050414848673348
1265.0,0.05036607620073763
1264.0,0.05036607620073763
1263.0,0.050414848673348
1262.0,0.050463626623857394
1261.0,0.050463626623857394
1260.0,0.050414848673348
1259.0,0.05036607620073763
1258.0,0.050317309204795935
1257.0,0.05026854768429301
1256.0,0.05021979163799939
1255.0,0.050171041064686284
1254.0,0.050171041064686284
1253.0,0.050171041064686284
1252.0,0.050171041064686284
1251.0,0.05021979163799939
1250.0,0.05026854768429301
1249.0,0.05036607620073763
1248.0,0.050463626623857394
1247.0,0.05056119896349576
1246.0,0.05056119896349576
1245.0,0.05056119896349576
1244.0,0.05051241005349638
1243.0,0.050414848673348
1242.0,0.050414848673348
1241.0,0.050414848673348
1240.0,0.05056119896349576
1239.0,0.05065879322950262
1238.0,0.050707598587974356
1237.0,0.050707598587974356
1236.0,0.0506099933550872
1235.0,0.05051241005349638
1234.0,0.050463626623857394
1233.0,0.05036607620073763
1232.0,0.050317309204795935
1231.0,0.05026854768429301
1230.0,0.05026854768429301
1229.0,0.05021979163799939
1228.0,0.050171041064686284
1227.0,0.05012229596312534
1226.0,0.05012229596312534
1225.0,0.050171041064686284
1224.0,0.050171041064686284
1223.0,0.050171041064686284
1222.0,0.05012229596312534
1221.0,0.050073556332087765
1220.0,0.05002482217034632
1219.0,0.05002482217034632
1218.0,0.05002482217034632
1217.0,0.05002482217034632
1216.0,0.05002482217034632
1215.0,0.05012229596312534
1214.0,0.050171041064686284
1213.0,0.05021979163799939
1212.0,0.05026854768429301
1211.0,0.05026854768429301
1210.0,0.05026854768429301
1209.0,0.05026854768429301
1208.0,0.050317309204795935
1207.0,0.050414848673348
1206.0,0.05051241005349638
1205.0,0.05065879322950262
1204.0,0.05085404758005607
1203.0,0.051049389754451946
1202.0,0.05129369109514803
1201.0,0.05144033789103841
1200.0,0.0515870342213991
1199.0,0.05178270644002936
1198.0,0.05192951848105887
1197.0,0.05212534510230182
1196.0,0.05222329153526162
1195.0,0.05227227303668425
1194.0,0.05232126006306337
1193.0,0.05232126006306337
1192.0,0.05237025261564554
1191.0,0.052419250695677544
1190.0,0.0525172634430815
1189.0,0.05266432405126009
1188.0,0.05286048235717078
1187.0,0.0531548860393769
1186.0,0.0534986094304124
1185.0,0.05399011523423525
1184.0,0.05453141486818014
1183.0,0.055122694036304765
1182.0,0.05566540802921782
1181.0,0.05606053552778367
1180.0,0.05625823416868636
1179.0,0.05630767289398331
1178.0,0.056159373598738904
1177.0,0.05581353871631256
1176.0,0.05536929814372171
1175.0,0.0549255115212699
1174.0,0.05458065739693696
1173.0,0.05433450056786593
1172.0,0.05413767551038262
1171.0,0.05403929642243144
1170.0,0.05394093961487645
1169.0,0.053842605077627725
1168.0,0.05374429280060267
1167.0,0.053646002773725554
1166.0,0.053646002773725554
1165.0,0.053646002773725554
1164.0,0.053646002773725554
1163.0,0.053596866100945384
1162.0,0.053646002773725554
1161.0,0.053842605077627725
1160.0,0.054186873412661596
1159.0,0.05462990550969615
1158.0,0.055270639696704205
1157.0,0.055961719945581745
1156.0,0.0567528748621382
1155.0,0.05734718830678798
1154.0,0.0575950591438934
1153.0,0.05754547365752294
1152.0,0.0571489934456626
1151.0,0.05655495097496965
1150.0,0.055912320584565744
1149.0,0.05531996611868961
1148.0,0.054728418492290265
1147.0,0.054186873412661596
1146.0,0.05379344615721715
1145.0,0.053449489430144714
1144.0,0.05330216275425803
1143.0,0.0531548860393769
1142.0,0.05300765925162776
1141.0,0.05281143447390635
1140.0,0.05256627811294923
1139.0,0.05237025261564554
1138.0,0.05217431555754937
1137.0,0.05207638016827354
1136.0,0.05197846685889629
1135.0,0.05188057561946402
1134.0,0.05173378011970464
1133.0,0.0515870342213991
1132.0,0.05148923116234294
1131.0,0.05139145012356372
1130.0,0.05134256785867963
1129.0,0.05134256785867963
1128.0,0.05134256785867963
1127.0,0.05129369109514803
1126.0,0.05119595406718891
1125.0,0.051098239029786274
1124.0,0.051098239029786274
1123.0,0.05119595406718891
1122.0,0.051244819831730126
1121.0,0.05129369109514803
1120.0,0.05134256785867963
1119.0,0.05144033789103841
1118.0,0.05153812993871654
1117.0,0.051684859310652254
1116.0,0.05178270644002936
1115.0,0.0518316382728683
1114.0,0.05188057561946402
1113.0,0.05192951848105887
1112.0,0.05197846685889629
1111.0,0.05197846685889629
1110.0,0.05192951848105887
1109.0,0.05192951848105887
1108.0,0.05188057561946402
1107.0,0.05188057561946402
1106.0,0.0518316382728683
1105.0,0.05173378011970464
1104.0,0.05163594401163074
1103.0,0.05144033789103841
1102.0,0.05129369109514803
1101.0,0.05119595406718891
1100.0,0.05119595406718891
1099.0,0.051098239029786274
1098.0,0.05100054597304693
1097.0,0.05085404758005607
1096.0,0.050805225762017736
1095.0,0.050805225762017736
1094.0,0.05085404758005607
1093.0,0.050805225762017736
1092.0,0.0506099933550872
1091.0,0.050414848673348
1090.0,0.050171041064686284
1089.0,0.05002482217034632
1088.0,0.04997609347667353
1087.0,0.050073556332087765
1086.0,0.05012229596312534
1085.0,0.05012229596312534
1084.0,0.050073556332087765
1083.0,0.049927370249842395
1082.0,0.04978123335813667
1081.0,0.04978123335813667
1080.0,0.04987865248862655
1079.0,0.050073556332087765
1078.0,0.050317309204795935
1077.0,0.050707598587974356
1076.0,0.05114709380028648
1075.0,0.05173378011970464
1074.0,0.05237025261564554
1073.0,0.05305672930217464
1072.0,0.05374429280060267
1071.0,0.05443294655761144
1070.0,0.0549255115212699
1069.0,0.055172003656783764
1068.0,0.055172003656783764
1067.0,0.055172003656783764
1066.0,0.055172003656783764
1065.0,0.05522131887649295
1064.0,0.055172003656783764
1063.0,0.0549747987575373
1062.0,0.054728418492290265
1061.0,0.05438372077326825
1060.0,0.05399011523423525
1059.0,0.05354773498692689
1058.0,0.053203972728539606
1057.0,0.05290953578037816
1056.0,0.052762392129333646
1055.0,0.05261529831525902
1054.0,0.052419250695677544
1053.0,0.05217431555754937
1052.0,0.05188057561946402
1051.0,0.05163594401163074
1050.0,0.05134256785867963
1049.0,0.051049389754451946
1048.0,0.050805225762017736
1047.0,0.0506099933550872
1046.0,0.050414848673348
1045.0,0.050171041064686284
1044.0,0.04997609347667353
1043.0,0.04982994019179987
1042.0,0.04963514562387683
1041.0,0.04944043838819989
1040.0,0.04934311749548925
1039.0,0.04934311749548925
1038.0,0.04958646063061889
1037.0,0.050073556332087765
1036.0,0.05095170768433621
1035.0,0.05232126006306337
1034.0,0.054186873412661596
1033.0,0.056406567231630955
1032.0,0.058737090681050264
1031.0,0.06093025007657582
1030.0,0.06278310913729457
1029.0,0.06424089625468832
1028.0,0.06524912533642091
1027.0,0.06570359318059427
1026.0,0.06560255921901192
1025.0,0.06499684854634524
1024.0,0.06414020196211956
1023.0,0.06313454102437754
1022.0,0.06223143295006417
1021.0,0.06143024377893891
1020.0,0.06083032037482261
1019.0,0.06038092104330195
1018.0,0.06003170944866376
1017.0,0.05968277842578207
1016.0,0.05923456436878238
1015.0,0.058836539841526925
1014.0,0.0583891978463662
1013.0,0.05804158346918653
1012.0,0.05779345772290467
1011.0,0.05764465029232335
1010.0,0.05754547365752294
1009.0,0.05749589383191922
1008.0,0.05749589383191922
1007.0,0.05754547365752294
1006.0,0.05779345772290467
1005.0,0.058190526991161784
1004.0,0.05858795962645047
1003.0,0.058836539841526925
1002.0,0.058836539841526925
1001.0,0.05863766428823891
1000.0,0.0583395216116076
999.0,0.05799194697768684
998.0,0.05754547365752294
997.0,0.0571489934456626
996.0,0.05685187064143715
995.0,0.05670338543334519
994.0,0.05670338543334519
993.0,0.05665390164340933
992.0,0.05655495097496965
991.0,0.056456022846545606
990.0,0.05635711724787096
989.0,0.056406567231630955
988.0,0.056456022846545606
987.0,0.05655495097496965
986.0,0.05660442349104544
985.0,0.05665390164340933
984.0,0.0567528748621382
983.0,0.057000406633959555
982.0,0.05724807957018618
981.0,0.057396751157843484
980.0,0.057396751157843484
979.0,0.057396751157843484
978.0,0.05729763111133224
977.0,0.0571489934456626
976.0,0.05685187064143715
975.0,0.05650548409389744
974.0,0.05620880107069848
973.0,0.05610995175152733
972.0,0.05606053552778367
971.0,0.05601112492622806
970.0,0.05601112492622806
969.0,0.05610995175152733
968.0,0.05625823416868636
967.0,0.05650548409389744
966.0,0.05680236993107379
965.0,0.057049929922901255
964.0,0.05724807957018618
963.0,0.05734718830678798
962.0,0.05744631966579017
961.0,0.057396751157843484
960.0,0.057198533682059516
959.0,0.05690137699451481
958.0,0.05650548409389744
957.0,0.056159373598738904
956.0,0.05581353871631256
955.0,0.05561604235915585
954.0,0.05541863577307371
953.0,0.05531996611868961
952.0,0.05536929814372171
951.0,0.05551732784983132
950.0,0.05566540802921782
949.0,0.055764156206519866
948.0,0.055912320584565744
947.0,0.05606053552778367
946.0,0.056159373598738904
945.0,0.05625823416868636
944.0,0.05635711724787096
943.0,0.05650548409389744
942.0,0.05665390164340933
941.0,0.0567528748621382
940.0,0.0567528748621382
939.0,0.0567528748621382
938.0,0.05670338543334519
937.0,0.05665390164340933
936.0,0.05650548409389744
935.0,0.05630767289398331
934.0,0.05610995175152733
933.0,0.055912320584565744
932.0,0.05566540802921782
931.0,0.05541863577307371
930.0,0.055172003656783764
929.0,0.0549255115212699
928.0,0.05477768336465916
927.0,0.05462990550969615
926.0,0.05458065739693696
925.0,0.05453141486818014
924.0,0.05443294655761144
923.0,0.05438372077326825
922.0,0.05433450056786593
921.0,0.05433450056786593
920.0,0.05423607688882637
919.0,0.05423607688882637
918.0,0.05423607688882637
917.0,0.05438372077326825
916.0,0.054728418492290265
915.0,0.055172003656783764
914.0,0.055764156206519866
913.0,0.056456022846545606
912.0,0.05734718830678798
911.0,0.0583395216116076
910.0,0.05933412752417122
909.0,0.06033101647767336
908.0,0.06133019897732073
907.0,0.06223143295006417
906.0,0.06283329628496737
905.0,0.06298389253518577
904.0,0.06283329628496737
903.0,0.062331685600995
902.0,0.061580354206806964
901.0,0.060730413661268745
900.0,0.05983228596592505
899.0,0.05908526241971446
898.0,0.0583891978463662
897.0,0.057743849580535134
896.0,0.057000406633959555
895.0,0.05630767289398331
894.0,0.055764156206519866
893.0,0.05541863577307371
892.0,0.05522131887649295
891.0,0.055122694036304765
890.0,0.05502409158795207
889.0,0.0549747987575373
888.0,0.054876229877880656
887.0,0.05482695382609992
886.0,0.054728418492290265
885.0,0.05458065739693696
884.0,0.05433450056786593
883.0,0.05403929642243144
882.0,0.05389176956309405
881.0,0.053842605077627725
880.0,0.05389176956309405
879.0,0.05399011523423525
878.0,0.05403929642243144
877.0,0.05394093961487645
876.0,0.05379344615721715
875.0,0.053646002773725554
874.0,0.05354773498692689
873.0,0.053351266093323746
872.0,0.0531548860393769
871.0,0.05295859474477971
870.0,0.05281143447390635
869.0,0.052762392129333646
868.0,0.05271335532220167
867.0,0.05271335532220167
866.0,0.05266432405126009
865.0,0.0525172634430815
864.0,0.052419250695677544
863.0,0.052468254304406825
862.0,0.05266432405126009
861.0,0.05281143447390635
860.0,0.05281143447390635
859.0,0.05256627811294923
858.0,0.05227227303668425
857.0,0.05192951848105887
856.0,0.05163594401163074
855.0,0.05148923116234294
854.0,0.05139145012356372
853.0,0.05148923116234294
852.0,0.05163594401163074
851.0,0.0518316382728683
850.0,0.05212534510230182
849.0,0.05256627811294923
848.0,0.05310580489767336
847.0,0.05369514500652506
846.0,0.054088483180726676
845.0,0.05438372077326825
844.0,0.054679159207724926
843.0,0.05502409158795207
842.0,0.05536929814372171
841.0,0.055566682299785564
840.0,0.05551732784983132
839.0,0.055270639696704205
838.0,0.0549255115212699
837.0,0.05458065739693696
836.0,0.05423607688882637
835.0,0.053842605077627725
834.0,0.053351266093323746
833.0,0.05290953578037816
832.0,0.0525172634430815
831.0,0.05222329153526162
830.0,0.052027420754219955
829.0,0.05192951848105887
828.0,0.05178270644002936
827.0,0.051684859310652254
826.0,0.05163594401163074
825.0,0.0515870342213991
824.0,0.05148923116234294
823.0,0.05134256785867963
822.0,0.051098239029786274
821.0,0.05085404758005607
820.0,0.050707598587974356
819.0,0.05051241005349638
818.0,0.05036607620073763
817.0,0.050073556332087765
816.0,0.04973253198641148
815.0,0.04948910701400333
814.0,0.049294465226138895
813.0,0.04905128560059957
812.0,0.048808242065293994
811.0,0.0486139051197072
810.0,0.048565334467987054
809.0,0.04851676924770687
808.0,0.04841965509660828
807.0,0.04827402457540786
806.0,0.048128442871635535
805.0,0.047885915093007325
804.0,0.047595060422975566
803.0,0.04725597598510167
802.0,0.04696554274964315
801.0,0.04682039893436585
800.0,0.04672366333269573
799.0,0.04653025674659861
798.0,0.046192002334692894
797.0,0.04570923829887308
796.0,0.04527520902093718
795.0,0.04503426894157925
794.0,0.04488976902944808
793.0,0.04488976902944808
792.0,0.04503426894157925
791.0,0.04522701031028298
790.0,0.0454680573730859
789.0,0.045564513671517703
788.0,0.04537162249272897
787.0,0.044986096961949995
786.0,0.04464904263234004
785.0,0.04455278942230456
784.0,0.04469717723830824
783.0,0.04488976902944808
782.0,0.044986096961949995
781.0,0.0451788169482068
780.0,0.045564513671517703
779.0,0.04633693625290869
778.0,0.04740126547022694
777.0,0.04866248120408234
776.0,0.050073556332087765
775.0,0.0515870342213991
774.0,0.053203972728539606
773.0,0.0549747987575373
772.0,0.05690137699451481
771.0,0.059135024033278416
770.0,0.061580354206806964
769.0,0.06434161389936577
768.0,0.06742477650170953
767.0,0.07058107428570715
766.0,0.07355465218161061
765.0,0.07618627890881036
764.0,0.07883394936226118
763.0,0.08175990977858505
762.0,0.08507535179485148
761.0,0.08857603462370545
760.0,0.09205147838772776
759.0,0.09517630019905599
758.0,0.09794268919153337
757.0,0.10039834085387778
756.0,0.10259286033841963
755.0,0.10435649517592083
754.0,0.10557316203581202
753.0,0.10623823794205656
752.0,0.10668218838388821
751.0,0.10701544928928342
750.0,0.10757145305477
749.0,0.10823959854332843
748.0,0.10896458468468917
747.0,0.10941133229451272
746.0,0.10907622851098608
745.0,0.10757145305477
744.0,0.10490910306560064
743.0,0.1014393550602879
742.0,0.09783387072894878
741.0,0.09447395156495153
740.0,0.09130056764777605
739.0,0.08804381092731295
738.0,0.08465293767580806
737.0,0.0812883346176787
736.0,0.07810552907089763
735.0,0.07499749231902242
734.0,0.0718090519612431
733.0,0.0684912781333824
732.0,0.06519865825346338
731.0,0.06208109735221967
730.0,0.05938391766259232
729.0,0.057049929922901255
728.0,0.055122694036304765
727.0,0.053351266093323746
726.0,0.05153812993871654
725.0,0.04968383607539972
724.0,0.0478374257855374
723.0,0.046192002334692894
722.0,0.04455278942230456
721.0,0.04282386959515394
720.0,0.040958607678906356
719.0,0.039006291057664066
718.0,0.0371100126082089
717.0,0.03531618502395939
716.0,0.03385826726096752
715.0,0.03273290844021437
714.0,0.032031037121307726
713.0,0.03161045815293173
712.0,0.03161045815293173
711.0,0.03235843591698884
710.0,0.03442204208947208
709.0,0.03824678581321739
708.0,0.04411991377462465
707.0,0.05207638016827354
706.0,0.06193081377661436
705.0,0.07370901311513656
704.0,0.08761850108119962
703.0,0.1038045895457893
702.0,0.12222565000860186
701.0,0.14242629585250421
700.0,0.16411926818260536
699.0,0.1867526991023949
698.0,0.20957408260888943
697.0,0.2312139530919859
696.0,0.24864390027460637
695.0,0.25790359769675564
694.0,0.25656863485331627
693.0,0.24565166428898122
692.0,0.22870655737094037
691.0,0.20971483596675822
690.0,0.19165396425960513
689.0,0.1765909851074554
688.0,0.16513442009996204
687.0,0.1565180569600424
686.0,0.14953756723848333
685.0,0.1430899396992138
684.0,0.13655817138629134
683.0,0.12977172098820566
682.0,0.12360893818081231
681.0,0.11912926746757657
680.0,0.11684980031672243
679.0,0.11605480496572018
678.0,0.11560117444331386
677.0,0.1145256971708426
676.0,0.11243895906999102
675.0,0.10952309103982927
674.0,0.10640466618011679
673.0,0.10352889952072264
672.0,0.10083635852278117
671.0,0.09772507952549825
670.0,0.0935033402006471
669.0,0.08905559425002108
668.0,0.0867691288864394
667.0,0.08682216600953208
666.0,0.08767164203958999
665.0,0.08820340956274775
664.0,0.08830984124613894
663.0,0.08825662214406838
662.0,0.0885227828938977
661.0,0.08900228368935714
660.0,0.08937559511079884
659.0,0.08900228368935714
658.0,0.08740600224789441
657.0,0.08496970974083906
656.0,0.08254700807033655
655.0,0.08092190762392604
654.0,0.08018997982980403
653.0,0.08003329851661278
652.0,0.08013774644446192
651.0,0.08034671768963575
650.0,0.08076496207674921
649.0,0.0812883346176787
648.0,0.08160266115629988
647.0,0.08107890990866418
646.0,0.0794071379151915
645.0,0.0772226580712021
644.0,0.07582412969807906
643.0,0.0759792995259323
642.0,0.07753405470158659
641.0,0.07972010536705154
640.0,0.08170748724464438
639.0,0.0830725338870073
638.0,0.0839147001562972
637.0,0.08460016478773014
636.0,0.08555105930144569
635.0,0.08666307406737683
634.0,0.0872997918091396
633.0,0.0870343792958963
632.0,0.08608023504853413
631.0,0.08481129482684358
630.0,0.08333553545860273
629.0,0.08175990977858505
628.0,0.08008551934056851
627.0,0.07836553894629472
626.0,0.07675598136972361
625.0,0.0756173227980268
624.0,0.07525564752005143
623.0,0.07582412969807906
622.0,0.07701518429111709
621.0,0.07846958649875768
620.0,0.07998108397108505
619.0,0.0812359689720008
618.0,0.08175990977858505
617.0,0.08118360963962057
616.0,0.07987667370927598
615.0,0.07831352451639795
614.0,0.07696333132921396
613.0,0.07582412969807906
612.0,0.0748426728241014
611.0,0.07406940213152868
610.0,0.07376047895413773
609.0,0.07370901311513656
608.0,0.07376047895413773
607.0,0.07376047895413773
606.0,0.07386342893255127
605.0,0.07417242537525759
604.0,0.07448164182257
603.0,0.07422394616325367
602.0,0.07304051161972436
601.0,0.07073438174693436
600.0,0.06772922410050963
