cm-1,A
4000.0,-0.00030389978481260016
3999.0,-0.0002604985473904087
3998.0,-0.00021709297223004853
3997.0,-0.00021709297223004853
3996.0,-0.00021709297223004853
3995.0,-0.00021709297223004853
3994.0,-0.0002604985473904087
3993.0,-0.0002604985473904087
3992.0,-0.00021709297223004853
3991.0,-0.00017368305846510168
3990.0,-0.00013026880522692963
3989.0,-8.685021164911433e-05
3988.0,-8.685021164911433e-05
3987.0,-0.00013026880522692963
3986.0,-0.00017368305846510168
3985.0,-0.00017368305846510168
3984.0,-0.00017368305846510168
3983.0,-0.00013026880522692963
3982.0,-0.00013026880522692963
3981.0,-0.00017368305846510168
3980.0,-0.00021709297223004853
3979.0,-0.0002604985473904087
3978.0,-0.0002604985473904087
3977.0,-0.0002604985473904087
3976.0,-0.0002604985473904087
3975.0,-0.00030389978481260016
3974.0,-0.0003472966853634851
3973.0,-0.0003906892499099257
3972.0,-0.0003472966853634851
3971.0,-0.0003472966853634851
3970.0,-0.00030389978481260016
3969.0,-0.0002604985473904087
3968.0,-0.00021709297223004853
3967.0,-0.00021709297223004853
3966.0,-0.00021709297223004853
3965.0,-0.00030389978481260016
3964.0,-0.0003906892499099257
3963.0,-0.00043407747931878404
3962.0,-0.0003906892499099257
3961.0,-0.0003472966853634851
3960.0,-0.0002604985473904087
3959.0,-0.00021709297223004853
3958.0,-0.00017368305846510168
3957.0,-0.00017368305846510168
3956.0,-0.00017368305846510168
3955.0,-0.00017368305846510168
3954.0,-0.00013026880522692963
3953.0,-8.685021164911433e-05
3952.0,-8.685021164911433e-05
3951.0,-0.00013026880522692963
3950.0,-0.00021709297223004853
3949.0,-0.00030389978481260016
3948.0,-0.0003906892499099257
3947.0,-0.0004774613744551459
3946.0,-0.0005208409361854294
3945.0,-0.0005208409361854294
3944.0,-0.0004774613744551459
3943.0,-0.0003906892499099257
3942.0,-0.00030389978481260016
3941.0,-0.0002604985473904087
3940.0,-0.00013026880522692963
3939.0,-4.3427276862573194e-05
3938.0,4.343161980746579e-05
3937.0,0.0
3936.0,-8.685021164911433e-05
3935.0,-0.00021709297223004853
3934.0,-0.0003906892499099257
3933.0,-0.0004774613744551459
3932.0,-0.0005208409361854294
3931.0,-0.0005642161653756084
3930.0,-0.0005208409361854294
3929.0,-0.00043407747931878404
3928.0,-0.0003906892499099257
3927.0,-0.00030389978481260016
3926.0,-0.0002604985473904087
3925.0,-0.0002604985473904087
3924.0,-0.00030389978481260016
3923.0,-0.00043407747931878404
3922.0,-0.0005208409361854294
3921.0,-0.0006075870628903246
3920.0,-0.0006509536295951079
3919.0,-0.0005642161653756084
3918.0,-0.00043407747931878404
3917.0,-0.00030389978481260016
3916.0,-0.00021709297223004853
3915.0,-0.00021709297223004853
3914.0,-0.00017368305846510168
3913.0,-8.685021164911433e-05
3912.0,4.343161980746579e-05
3911.0,8.686758342868472e-05
3910.0,4.343161980746579e-05
3909.0,-0.00013026880522692963
3908.0,-0.00030389978481260016
3907.0,-0.0003906892499099257
3906.0,-0.0003472966853634851
3905.0,-0.00017368305846510168
3904.0,-8.685021164911433e-05
3903.0,-0.00013026880522692963
3902.0,-0.0003472966853634851
3901.0,-0.0005642161653756084
3900.0,-0.0006943158663546001
3899.0,-0.0006943158663546001
3898.0,-0.0006075870628903246
3897.0,-0.0005208409361854294
3896.0,-0.0003906892499099257
3895.0,-0.0003472966853634851
3894.0,-0.00030389978481260016
3893.0,-0.0002604985473904087
3892.0,-0.00017368305846510168
3891.0,-0.00013026880522692963
3890.0,-0.00021709297223004853
3889.0,-0.0003472966853634851
3888.0,-0.0005208409361854294
3887.0,-0.0006509536295951079
3886.0,-0.0006509536295951079
3885.0,-0.0006943158663546001
3884.0,-0.0007376737740329986
3883.0,-0.0007810273534953893
3882.0,-0.0007376737740329986
3881.0,-0.0004774613744551459
3880.0,-0.0002604985473904087
3879.0,-0.00013026880522692963
3878.0,-0.00013026880522692963
3877.0,-0.00021709297223004853
3876.0,-0.00030389978481260016
3875.0,-0.00043407747931878404
3874.0,-0.0006075870628903246
3873.0,-0.0007810273534953893
3872.0,-0.0009977303577937136
3871.0,-0.0010843812922201046
3870.0,-0.001041057986093552
3869.0,-0.0009977303577937136
3868.0,-0.0009110621312231615
3867.0,-0.0007376737740329986
3866.0,-0.0005642161653756084
3865.0,-0.00043407747931878404
3864.0,-0.0004774613744551459
3863.0,-0.0005642161653756084
3862.0,-0.0006075870628903246
3861.0,-0.0005642161653756084
3860.0,-0.0005208409361854294
3859.0,-0.0004774613744551459
3858.0,-0.0005642161653756084
3857.0,-0.0007376737740329986
3856.0,-0.0009110621312231615
3855.0,-0.0009543984064577238
3854.0,-0.0008677215312267172
3853.0,-0.0009977303577937136
3852.0,-0.001344230411601366
3851.0,-0.001474096691732818
3850.0,-0.001257631312230778
3849.0,-0.0008677215312267172
3848.0,-0.0005208409361854294
3847.0,-0.00030389978481260016
3846.0,-0.00021709297223004853
3845.0,-0.00021709297223004853
3844.0,-0.00030389978481260016
3843.0,-0.00043407747931878404
3842.0,-0.0006075870628903246
3841.0,-0.0007376737740329986
3840.0,-0.0008677215312267172
3839.0,-0.0008677215312267172
3838.0,-0.0008677215312267172
3837.0,-0.0009110621312231615
3836.0,-0.0009977303577937136
3835.0,-0.0009543984064577238
3834.0,-0.0007810273534953893
3833.0,-0.0005208409361854294
3832.0,-0.0003472966853634851
3831.0,-0.00030389978481260016
3830.0,-0.0003906892499099257
3829.0,-0.0004774613744551459
3828.0,-0.0005208409361854294
3827.0,-0.0003906892499099257
3826.0,-0.0002604985473904087
3825.0,-0.0002604985473904087
3824.0,-0.0003472966853634851
3823.0,-0.0004774613744551459
3822.0,-0.0004774613744551459
3821.0,-0.0003906892499099257
3820.0,-0.0004774613744551459
3819.0,-0.0006075870628903246
3818.0,-0.0006943158663546001
3817.0,-0.0006509536295951079
3816.0,-0.0004774613744551459
3815.0,-0.0003906892499099257
3814.0,-0.0003906892499099257
3813.0,-0.0003472966853634851
3812.0,-0.00030389978481260016
3811.0,-0.0002604985473904087
3810.0,-0.00030389978481260016
3809.0,-0.00030389978481260016
3808.0,-0.00017368305846510168
3807.0,-8.685021164911433e-05
3806.0,-0.00013026880522692963
3805.0,-0.0003472966853634851
3804.0,-0.0005642161653756084
3803.0,-0.0006509536295951079
3802.0,-0.0005208409361854294
3801.0,-0.0003906892499099257
3800.0,-0.00043407747931878404
3799.0,-0.0004774613744551459
3798.0,-0.00043407747931878404
3797.0,-0.0002604985473904087
3796.0,-0.00013026880522692963
3795.0,-4.3427276862573194e-05
3794.0,-8.685021164911433e-05
3793.0,-8.685021164911433e-05
3792.0,-4.3427276862573194e-05
3791.0,4.343161980746579e-05
3790.0,0.00017375254558760211
3789.0,0.00026065489343207737
3788.0,0.00026065489343207737
3787.0,0.00021720154586435392
3786.0,0.00017375254558760211
3785.0,0.0001303078917322953
3784.0,0.0001303078917322953
3783.0,8.686758342868472e-05
3782.0,8.686758342868472e-05
3781.0,8.686758342868472e-05
3780.0,0.0001303078917322953
3779.0,0.00017375254558760211
3778.0,0.0001303078917322953
3777.0,4.343161980746579e-05
3776.0,0.0
3775.0,-4.3427276862573194e-05
3774.0,-0.00013026880522692963
3773.0,-0.00030389978481260016
3772.0,-0.0003906892499099257
3771.0,-0.0003906892499099257
3770.0,-0.00030389978481260016
3769.0,-0.00017368305846510168
3768.0,-0.00013026880522692963
3767.0,-8.685021164911433e-05
3766.0,0.0
3765.0,8.686758342868472e-05
3764.0,4.343161980746579e-05
3763.0,0.0
3762.0,-4.3427276862573194e-05
3761.0,-0.00013026880522692963
3760.0,-0.00017368305846510168
3759.0,-0.00021709297223004853
3758.0,-0.00030389978481260016
3757.0,-0.00043407747931878404
3756.0,-0.0006075870628903246
3755.0,-0.0006943158663546001
3754.0,-0.0006943158663546001
3753.0,-0.0004774613744551459
3752.0,-0.00013026880522692963
3751.0,8.686758342868472e-05
3750.0,-0.00013026880522692963
3749.0,-0.0005642161653756084
3748.0,-0.0009543984064577238
3747.0,-0.0011277002770349043
3746.0,-0.0010843812922201046
3745.0,-0.0009543984064577238
3744.0,-0.0008677215312267172
3743.0,-0.0009977303577937136
3742.0,-0.0010843812922201046
3741.0,-0.001041057986093552
3740.0,-0.0009977303577937136
3739.0,-0.0009977303577937136
3738.0,-0.0010843812922201046
3737.0,-0.0011277002770349043
3736.0,-0.0011277002770349043
3735.0,-0.0010843812922201046
3734.0,-0.001041057986093552
3733.0,-0.0008677215312267172
3732.0,-0.0006509536295951079
3731.0,-0.0004774613744551459
3730.0,-0.00043407747931878404
3729.0,-0.0003906892499099257
3728.0,-0.0003472966853634851
3727.0,-0.00021709297223004853
3726.0,-8.685021164911433e-05
3725.0,-0.00013026880522692963
3724.0,-0.0002604985473904087
3723.0,-0.0003472966853634851
3722.0,-0.0003472966853634851
3721.0,-0.0002604985473904087
3720.0,-0.00013026880522692963
3719.0,0.0
3718.0,8.686758342868472e-05
3717.0,8.686758342868472e-05
3716.0,-4.3427276862573194e-05
3715.0,-0.00021709297223004853
3714.0,-0.0003472966853634851
3713.0,-0.00043407747931878404
3712.0,-0.00043407747931878404
3711.0,-0.00043407747931878404
3710.0,-0.00043407747931878404
3709.0,-0.00043407747931878404
3708.0,-0.0002604985473904087
3707.0,-0.00013026880522692963
3706.0,-4.3427276862573194e-05
3705.0,-4.3427276862573194e-05
3704.0,-4.3427276862573194e-05
3703.0,4.343161980746579e-05
3702.0,0.00017375254558760211
3701.0,0.00030411258916074324
3700.0,0.00030411258916074324
3699.0,0.00026065489343207737
3698.0,0.00021720154586435392
3697.0,0.00026065489343207737
3696.0,0.00026065489343207737
3695.0,0.00021720154586435392
3694.0,8.686758342868472e-05
3693.0,-8.685021164911433e-05
3692.0,-0.00030389978481260016
3691.0,-0.0004774613744551459
3690.0,-0.0004774613744551459
3689.0,-0.00043407747931878404
3688.0,-0.00043407747931878404
3687.0,-0.0004774613744551459
3686.0,-0.0003906892499099257
3685.0,-0.00021709297223004853
3684.0,4.343161980746579e-05
3683.0,0.00026065489343207737
3682.0,0.0004779868710962365
3681.0,0.0005649501236701937
3680.0,0.0004779868710962365
3679.0,0.00021720154586435392
3678.0,-0.00017368305846510168
3677.0,-0.00043407747931878404
3676.0,-0.0003906892499099257
3675.0,-0.00021709297223004853
3674.0,-0.00017368305846510168
3673.0,-0.00017368305846510168
3672.0,0.0
3671.0,0.00030411258916074324
3670.0,0.0006084382809090627
3669.0,0.0007389288868995258
3668.0,0.0006954276616513155
3667.0,0.0006519307932786322
3666.0,0.0006519307932786322
3665.0,0.0006519307932786322
3664.0,0.0006519307932786322
3663.0,0.0006519307932786322
3662.0,0.0007389288868995258
3661.0,0.0007824344698965646
3660.0,0.0007824344698965646
3659.0,0.0007389288868995258
3658.0,0.0007389288868995258
3657.0,0.0008259444115150671
3656.0,0.000869458712629001
3655.0,0.0007824344698965646
3654.0,0.0005649501236701937
3653.0,0.00030411258916074324
3652.0,8.686758342868472e-05
3651.0,0.0
3650.0,0.0001303078917322953
3649.0,0.0003475746339209884
3648.0,0.0003910410285830057
3647.0,0.0003910410285830057
3646.0,0.000521466320689834
3645.0,0.0007389288868995258
3644.0,0.0010000277816797354
3643.0,0.0011741809597138886
3642.0,0.001304841688344327
3641.0,0.001348404001626502
3640.0,0.001348404001626502
3639.0,0.0014355417390583547
3638.0,0.0014791171649619628
3637.0,0.0015226969634936083
3636.0,0.0014791171649619628
3635.0,0.0014355417390583547
3634.0,0.001348404001626502
3633.0,0.001304841688344327
3632.0,0.0011741809597138886
3631.0,0.0010870956412141197
3630.0,0.0011741809597138886
3629.0,0.001348404001626502
3628.0,0.001348404001626502
3627.0,0.0012612837441823288
3626.0,0.0012612837441823288
3625.0,0.0013919706849057079
3624.0,0.0014791171649619628
3623.0,0.0014355417390583547
3622.0,0.001348404001626502
3621.0,0.0012612837441823288
3620.0,0.0012612837441823288
3619.0,0.001348404001626502
3618.0,0.0013919706849057079
3617.0,0.0014355417390583547
3616.0,0.0015662811355310335
3615.0,0.0017842676290416026
3614.0,0.001915112063444413
3613.0,0.0019587356365717845
3612.0,0.0018278780605593958
3611.0,0.0016970599014589638
3610.0,0.001609869681952425
3609.0,0.001609869681952425
3608.0,0.0016534626036355249
3607.0,0.001609869681952425
3606.0,0.0015226969634936083
3605.0,0.0014355417390583547
3604.0,0.0013919706849057079
3603.0,0.0014791171649619628
3602.0,0.001609869681952425
3601.0,0.0017842676290416026
3600.0,0.0018278780605593958
3599.0,0.0017406615763013722
3598.0,0.001609869681952425
3597.0,0.0016534626036355249
3596.0,0.0018278780605593958
3595.0,0.0020023635919956817
3594.0,0.002089632653256679
3593.0,0.0019587356365717845
3592.0,0.0017842676290416026
3591.0,0.001609869681952425
3590.0,0.0015226969634936083
3589.0,0.0016534626036355249
3588.0,0.0018714928717336043
3587.0,0.0020023635919956817
3586.0,0.0019587356365717845
3585.0,0.0018278780605593958
3584.0,0.0018714928717336043
3583.0,0.0020023635919956817
3582.0,0.0021332737608552588
3581.0,0.0022642234021015284
3580.0,0.0022642234021015284
3579.0,0.0022205691343961664
3578.0,0.0022205691343961664
3577.0,0.0022205691343961664
3576.0,0.0023078820582733695
3575.0,0.0024388843664115978
3574.0,0.0025262411970197185
3573.0,0.002569926202528716
3572.0,0.0025262411970197185
3571.0,0.0024388843664115978
3570.0,0.0022205691343961664
3569.0,0.0020023635919956817
3568.0,0.0018714928717336043
3567.0,0.001915112063444413
3566.0,0.0020459959305969555
3565.0,0.0021332737608552588
3564.0,0.0022205691343961664
3563.0,0.002351545103793873
3562.0,0.0024388843664115978
3561.0,0.002482560585275184
3560.0,0.002569926202528716
3559.0,0.002701007590486082
3558.0,0.0028758443407954637
3557.0,0.003050751504618754
3556.0,0.0031382315093266833
3555.0,0.0030944893043338695
3554.0,0.003050751504618754
3553.0,0.0030070181092942683
3552.0,0.0029632891174733444
3551.0,0.0029195645282691363
3550.0,0.0028321285541661467
3549.0,0.0027884171674950053
3548.0,0.0028321285541661467
3547.0,0.0029195645282691363
3546.0,0.003050751504618754
3545.0,0.0031819781204844855
3544.0,0.0032694845648473247
3543.0,0.0034007772998332353
3542.0,0.0035321097382827737
3541.0,0.003619686766589858
3540.0,0.0036634819042162814
3539.0,0.003619686766589858
3538.0,0.0035321097382827737
3537.0,0.003488327845821315
3536.0,0.003488327845821315
3535.0,0.003488327845821315
3534.0,0.003488327845821315
3533.0,0.0034445503666347133
3532.0,0.0033570086445275926
3531.0,0.0032694845648473247
3530.0,0.0031819781204844855
3529.0,0.0031819781204844855
3528.0,0.0032694845648473247
3527.0,0.0034007772998332353
3526.0,0.0034445503666347133
3525.0,0.003488327845821315
3524.0,0.0034007772998332353
3523.0,0.0033570086445275926
3522.0,0.0032694845648473247
3521.0,0.0032694845648473247
3520.0,0.0033132443998284966
3519.0,0.0033570086445275926
3518.0,0.0034445503666347133
3517.0,0.003488327845821315
3516.0,0.003488327845821315
3515.0,0.003488327845821315
3514.0,0.0035321097382827737
3513.0,0.003619686766589858
3512.0,0.003707281458678491
3511.0,0.003707281458678491
3510.0,0.0036634819042162814
3509.0,0.003619686766589858
3508.0,0.0036634819042162814
3507.0,0.003707281458678491
3506.0,0.0037510854308679953
3505.0,0.003707281458678491
3504.0,0.003619686766589858
3503.0,0.003488327845821315
3502.0,0.0034007772998332353
3501.0,0.0033570086445275926
3500.0,0.0034007772998332353
3499.0,0.003488327845821315
3498.0,0.003707281458678491
3497.0,0.003926345514724705
3496.0,0.004145520125434121
3495.0,0.004233220950025984
3494.0,0.004233220950025984
3493.0,0.004189368323957332
3492.0,0.004145520125434121
3491.0,0.0040578370074493275
3490.0,0.003970171588923321
3489.0,0.003794893821675638
3488.0,0.003619686766589858
3487.0,0.0035321097382827737
3486.0,0.003488327845821315
3485.0,0.0035758960449088217
3484.0,0.003707281458678491
3483.0,0.0038387066319929275
3482.0,0.003970171588923321
3481.0,0.004101676353562844
3480.0,0.004145520125434121
3479.0,0.004145520125434121
3478.0,0.004101676353562844
3477.0,0.0040578370074493275
3476.0,0.0040578370074493275
3475.0,0.004101676353562844
3474.0,0.004233220950025984
3473.0,0.004320939488377862
3472.0,0.004320939488377862
3471.0,0.004277078004534696
3470.0,0.004189368323957332
3469.0,0.004145520125434121
3468.0,0.0040578370074493275
3467.0,0.003970171588923321
3466.0,0.0038825238627120395
3465.0,0.0038387066319929275
3464.0,0.0038825238627120395
3463.0,0.00401400208620073
3462.0,0.004101676353562844
3461.0,0.004145520125434121
3460.0,0.004233220950025984
3459.0,0.0043648054024501
3458.0,0.004452550524862486
3457.0,0.0044964297349936455
3456.0,0.004452550524862486
3455.0,0.0043648054024501
3454.0,0.004408675747646695
3453.0,0.004540313378935901
3452.0,0.004715892310740433
3451.0,0.004803708402820517
3450.0,0.004759798137184523
3449.0,0.004628093971837721
3448.0,0.004452550524862486
3447.0,0.004408675747646695
3446.0,0.0044964297349936455
3445.0,0.004671990922590297
3444.0,0.00484762310854614
3443.0,0.004979393875242044
3442.0,0.005023326350308999
3441.0,0.005111204635089406
3440.0,0.0052870145684298375
3439.0,0.00541891874010525
3438.0,0.005462895701502157
3437.0,0.0052870145684298375
3436.0,0.005023326350308999
3435.0,0.004935465843858511
3434.0,0.005023326350308999
3433.0,0.0052870145684298375
3432.0,0.005506877116487674
3431.0,0.005638848091999105
3430.0,0.005638848091999105
3429.0,0.005594853310833647
3428.0,0.005550862985963967
3427.0,0.005550862985963967
3426.0,0.005594853310833647
3425.0,0.005638848091999105
3424.0,0.005638848091999105
3423.0,0.005550862985963967
3422.0,0.00537494623139545
3421.0,0.005199100705396198
3420.0,0.005023326350308999
3419.0,0.00489154225525934
3418.0,0.004803708402820517
3417.0,0.004759798137184523
3416.0,0.004803708402820517
3415.0,0.00484762310854614
3414.0,0.004935465843858511
3413.0,0.005067263269958211
3412.0,0.005199100705396198
3411.0,0.0052870145684298375
3410.0,0.0052870145684298375
3409.0,0.005199100705396198
3408.0,0.005067263269958211
3407.0,0.004979393875242044
3406.0,0.00489154225525934
3405.0,0.00489154225525934
3404.0,0.00484762310854614
3403.0,0.00484762310854614
3402.0,0.004803708402820517
3401.0,0.004803708402820517
3400.0,0.004803708402820517
3399.0,0.00489154225525934
3398.0,0.004979393875242044
3397.0,0.004979393875242044
3396.0,0.00489154225525934
3395.0,0.004715892310740433
3394.0,0.00458420145758498
3393.0,0.004540313378935901
3392.0,0.004628093971837721
3391.0,0.004715892310740433
3390.0,0.00484762310854614
3389.0,0.00489154225525934
3388.0,0.00484762310854614
3387.0,0.004803708402820517
3386.0,0.004759798137184523
3385.0,0.004759798137184523
3384.0,0.004803708402820517
3383.0,0.00484762310854614
3382.0,0.004803708402820517
3381.0,0.004671990922590297
3380.0,0.004628093971837721
3379.0,0.004671990922590297
3378.0,0.004759798137184523
3377.0,0.00484762310854614
3376.0,0.004935465843858511
3375.0,0.005023326350308999
3374.0,0.005111204635089406
3373.0,0.005199100705396198
3372.0,0.005199100705396198
3371.0,0.005111204635089406
3370.0,0.005023326350308999
3369.0,0.004979393875242044
3368.0,0.005023326350308999
3367.0,0.005155150446602086
3366.0,0.005243055412371911
3365.0,0.0052870145684298375
3364.0,0.005155150446602086
3363.0,0.005023326350308999
3362.0,0.00489154225525934
3361.0,0.004803708402820517
3360.0,0.004803708402820517
3359.0,0.00484762310854614
3358.0,0.00489154225525934
3357.0,0.004935465843858511
3356.0,0.005023326350308999
3355.0,0.005067263269958211
3354.0,0.005111204635089406
3353.0,0.005111204635089406
3352.0,0.005023326350308999
3351.0,0.00489154225525934
3350.0,0.004759798137184523
3349.0,0.004759798137184523
3348.0,0.004803708402820517
3347.0,0.004935465843858511
3346.0,0.005023326350308999
3345.0,0.005111204635089406
3344.0,0.005155150446602086
3343.0,0.005199100705396198
3342.0,0.005199100705396198
3341.0,0.005199100705396198
3340.0,0.005155150446602086
3339.0,0.005111204635089406
3338.0,0.005111204635089406
3337.0,0.005111204635089406
3336.0,0.005155150446602086
3335.0,0.005199100705396198
3334.0,0.005243055412371911
3333.0,0.005243055412371911
3332.0,0.0052870145684298375
3331.0,0.005330978174470591
3330.0,0.00537494623139545
3329.0,0.00537494623139545
3328.0,0.00541891874010525
3327.0,0.00541891874010525
3326.0,0.00537494623139545
3325.0,0.0052870145684298375
3324.0,0.005199100705396198
3323.0,0.005199100705396198
3322.0,0.0052870145684298375
3321.0,0.00541891874010525
3320.0,0.005506877116487674
3319.0,0.005506877116487674
3318.0,0.005506877116487674
3317.0,0.005550862985963967
3316.0,0.005594853310833647
3315.0,0.005638848091999105
3314.0,0.005682847330363394
3313.0,0.005682847330363394
3312.0,0.005638848091999105
3311.0,0.005594853310833647
3310.0,0.005594853310833647
3309.0,0.005506877116487674
3308.0,0.00541891874010525
3307.0,0.0052870145684298375
3306.0,0.005199100705396198
3305.0,0.005155150446602086
3304.0,0.005199100705396198
3303.0,0.005243055412371911
3302.0,0.005330978174470591
3301.0,0.00537494623139545
3300.0,0.00541891874010525
3299.0,0.00541891874010525
3298.0,0.00541891874010525
3297.0,0.00541891874010525
3296.0,0.00541891874010525
3295.0,0.005462895701502157
3294.0,0.005462895701502157
3293.0,0.005506877116487674
3292.0,0.005462895701502157
3291.0,0.005462895701502157
3290.0,0.00541891874010525
3289.0,0.00537494623139545
3288.0,0.00541891874010525
3287.0,0.005506877116487674
3286.0,0.005550862985963967
3285.0,0.005550862985963967
3284.0,0.005506877116487674
3283.0,0.00541891874010525
3282.0,0.005330978174470591
3281.0,0.005243055412371911
3280.0,0.005199100705396198
3279.0,0.005199100705396198
3278.0,0.005243055412371911
3277.0,0.0052870145684298375
3276.0,0.0052870145684298375
3275.0,0.005243055412371911
3274.0,0.0052870145684298375
3273.0,0.005330978174470591
3272.0,0.00541891874010525
3271.0,0.005506877116487674
3270.0,0.005550862985963967
3269.0,0.005594853310833647
3268.0,0.005638848091999105
3267.0,0.005638848091999105
3266.0,0.005638848091999105
3265.0,0.005638848091999105
3264.0,0.005594853310833647
3263.0,0.005594853310833647
3262.0,0.005506877116487674
3261.0,0.00537494623139545
3260.0,0.0052870145684298375
3259.0,0.005330978174470591
3258.0,0.00541891874010525
3257.0,0.005550862985963967
3256.0,0.005638848091999105
3255.0,0.005682847330363394
3254.0,0.005726851026829571
3253.0,0.005682847330363394
3252.0,0.005638848091999105
3251.0,0.005594853310833647
3250.0,0.005594853310833647
3249.0,0.005638848091999105
3248.0,0.005682847330363394
3247.0,0.005682847330363394
3246.0,0.005638848091999105
3245.0,0.005594853310833647
3244.0,0.005594853310833647
3243.0,0.005594853310833647
3242.0,0.005638848091999105
3241.0,0.005682847330363394
3240.0,0.005726851026829571
3239.0,0.005682847330363394
3238.0,0.005594853310833647
3237.0,0.005506877116487674
3236.0,0.005506877116487674
3235.0,0.005638848091999105
3234.0,0.005858888873877532
3233.0,0.005990966876386672
3232.0,0.006035001804881146
3231.0,0.005990966876386672
3230.0,0.00590291041179003
3229.0,0.005814871797682919
3228.0,0.00577085918230158
3227.0,0.005726851026829571
3226.0,0.005726851026829571
3225.0,0.005682847330363394
3224.0,0.005682847330363394
3223.0,0.005726851026829571
3222.0,0.00577085918230158
3221.0,0.005858888873877532
3220.0,0.005858888873877532
3219.0,0.00577085918230158
3218.0,0.005682847330363394
3217.0,0.005638848091999105
3216.0,0.005638848091999105
3215.0,0.005638848091999105
3214.0,0.005726851026829571
3213.0,0.005726851026829571
3212.0,0.005726851026829571
3211.0,0.005726851026829571
3210.0,0.005682847330363394
3209.0,0.005638848091999105
3208.0,0.005594853310833647
3207.0,0.005594853310833647
3206.0,0.005638848091999105
3205.0,0.005682847330363394
3204.0,0.00577085918230158
3203.0,0.005814871797682919
3202.0,0.00577085918230158
3201.0,0.005726851026829571
3200.0,0.005638848091999105
3199.0,0.005594853310833647
3198.0,0.005506877116487674
3197.0,0.005462895701502157
3196.0,0.005506877116487674
3195.0,0.005638848091999105
3194.0,0.00577085918230158
3193.0,0.00577085918230158
3192.0,0.005682847330363394
3191.0,0.005550862985963967
3190.0,0.00541891874010525
3189.0,0.005462895701502157
3188.0,0.005506877116487674
3187.0,0.005594853310833647
3186.0,0.005638848091999105
3185.0,0.005638848091999105
3184.0,0.005594853310833647
3183.0,0.005506877116487674
3182.0,0.00541891874010525
3181.0,0.00537494623139545
3180.0,0.00537494623139545
3179.0,0.005462895701502157
3178.0,0.005550862985963967
3177.0,0.005638848091999105
3176.0,0.005638848091999105
3175.0,0.005638848091999105
3174.0,0.005594853310833647
3173.0,0.005594853310833647
3172.0,0.005594853310833647
3171.0,0.005638848091999105
3170.0,0.005638848091999105
3169.0,0.005638848091999105
3168.0,0.005594853310833647
3167.0,0.005550862985963967
3166.0,0.005462895701502157
3165.0,0.00537494623139545
3164.0,0.0052870145684298375
3163.0,0.0052870145684298375
3162.0,0.0052870145684298375
3161.0,0.005330978174470591
3160.0,0.00541891874010525
3159.0,0.005550862985963967
3158.0,0.005638848091999105
3157.0,0.005682847330363394
3156.0,0.005638848091999105
3155.0,0.005462895701502157
3154.0,0.005243055412371911
3153.0,0.005155150446602086
3152.0,0.005199100705396198
3151.0,0.0052870145684298375
3150.0,0.00537494623139545
3149.0,0.00537494623139545
3148.0,0.005330978174470591
3147.0,0.005330978174470591
3146.0,0.00537494623139545
3145.0,0.00541891874010525
3144.0,0.005506877116487674
3143.0,0.005462895701502157
3142.0,0.005330978174470591
3141.0,0.005199100705396198
3140.0,0.005155150446602086
3139.0,0.005199100705396198
3138.0,0.005330978174470591
3137.0,0.005462895701502157
3136.0,0.005506877116487674
3135.0,0.005506877116487674
3134.0,0.00541891874010525
3133.0,0.005330978174470591
3132.0,0.005199100705396198
3131.0,0.005155150446602086
3130.0,0.005155150446602086
3129.0,0.005199100705396198
3128.0,0.0052870145684298375
3127.0,0.00537494623139545
3126.0,0.005462895701502157
3125.0,0.005506877116487674
3124.0,0.005550862985963967
3123.0,0.005462895701502157
3122.0,0.005330978174470591
3121.0,0.005199100705396198
3120.0,0.005155150446602086
3119.0,0.005243055412371911
3118.0,0.00537494623139545
3117.0,0.005462895701502157
3116.0,0.00541891874010525
3115.0,0.005330978174470591
3114.0,0.005243055412371911
3113.0,0.005243055412371911
3112.0,0.0052870145684298375
3111.0,0.00537494623139545
3110.0,0.005462895701502157
3109.0,0.005550862985963967
3108.0,0.005594853310833647
3107.0,0.005594853310833647
3106.0,0.005594853310833647
3105.0,0.005594853310833647
3104.0,0.005638848091999105
3103.0,0.005638848091999105
3102.0,0.005594853310833647
3101.0,0.005506877116487674
3100.0,0.00541891874010525
3099.0,0.00537494623139545
3098.0,0.00537494623139545
3097.0,0.00537494623139545
3096.0,0.00537494623139545
3095.0,0.00537494623139545
3094.0,0.00537494623139545
3093.0,0.00541891874010525
3092.0,0.005506877116487674
3091.0,0.005594853310833647
3090.0,0.005638848091999105
3089.0,0.005594853310833647
3088.0,0.005506877116487674
3087.0,0.005462895701502157
3086.0,0.005550862985963967
3085.0,0.005682847330363394
3084.0,0.005814871797682919
3083.0,0.00590291041179003
3082.0,0.005858888873877532
3081.0,0.00577085918230158
3080.0,0.005726851026829571
3079.0,0.00577085918230158
3078.0,0.005858888873877532
3077.0,0.00590291041179003
3076.0,0.005858888873877532
3075.0,0.00577085918230158
3074.0,0.005682847330363394
3073.0,0.005682847330363394
3072.0,0.005726851026829571
3071.0,0.005814871797682919
3070.0,0.005814871797682919
3069.0,0.005858888873877532
3068.0,0.005858888873877532
3067.0,0.00590291041179003
3066.0,0.005946936412324799
3065.0,0.005990966876386672
3064.0,0.005946936412324799
3063.0,0.005814871797682919
3062.0,0.005682847330363394
3061.0,0.005638848091999105
3060.0,0.005638848091999105
3059.0,0.005682847330363394
3058.0,0.005726851026829571
3057.0,0.00577085918230158
3056.0,0.00577085918230158
3055.0,0.005726851026829571
3054.0,0.005682847330363394
3053.0,0.005682847330363394
3052.0,0.005726851026829571
3051.0,0.005726851026829571
3050.0,0.005682847330363394
3049.0,0.005550862985963967
3048.0,0.005330978174470591
3047.0,0.005199100705396198
3046.0,0.005155150446602086
3045.0,0.005155150446602086
3044.0,0.005111204635089406
3043.0,0.005067263269958211
3042.0,0.004979393875242044
3041.0,0.00489154225525934
3040.0,0.00489154225525934
3039.0,0.00489154225525934
3038.0,0.00489154225525934
3037.0,0.00484762310854614
3036.0,0.004715892310740433
3035.0,0.00458420145758498
3034.0,0.0044964297349936455
3033.0,0.004408675747646695
3032.0,0.004408675747646695
3031.0,0.004452550524862486
3030.0,0.0044964297349936455
3029.0,0.00458420145758498
3028.0,0.004671990922590297
3027.0,0.004803708402820517
3026.0,0.00489154225525934
3025.0,0.004935465843858511
3024.0,0.00484762310854614
3023.0,0.004715892310740433
3022.0,0.004671990922590297
3021.0,0.004671990922590297
3020.0,0.004671990922590297
3019.0,0.004671990922590297
3018.0,0.00458420145758498
3017.0,0.004540313378935901
3016.0,0.004540313378935901
3015.0,0.004628093971837721
3014.0,0.004715892310740433
3013.0,0.00484762310854614
3012.0,0.00489154225525934
3011.0,0.004979393875242044
3010.0,0.005111204635089406
3009.0,0.005243055412371911
3008.0,0.005330978174470591
3007.0,0.00537494623139545
3006.0,0.0052870145684298375
3005.0,0.005199100705396198
3004.0,0.005199100705396198
3003.0,0.005243055412371911
3002.0,0.0052870145684298375
3001.0,0.0052870145684298375
3000.0,0.0052870145684298375
2999.0,0.0052870145684298375
2998.0,0.005243055412371911
2997.0,0.005243055412371911
2996.0,0.0052870145684298375
2995.0,0.00537494623139545
2994.0,0.005462895701502157
2993.0,0.005506877116487674
2992.0,0.005550862985963967
2991.0,0.005594853310833647
2990.0,0.005726851026829571
2989.0,0.005814871797682919
2988.0,0.00590291041179003
2987.0,0.00590291041179003
2986.0,0.005946936412324799
2985.0,0.006035001804881146
2984.0,0.006167133386013823
2983.0,0.006387442061109638
2982.0,0.006519680930003435
2981.0,0.006651960076740071
2980.0,0.006696062080525422
2979.0,0.006740168563263094
2978.0,0.006828394969235152
2977.0,0.00696076819309055
2976.0,0.007137328610972382
2975.0,0.007358130121602358
2974.0,0.007490664932224611
2973.0,0.0075790439479759275
2972.0,0.007711646202907652
2971.0,0.007800070204414977
2970.0,0.007976972236149349
2969.0,0.008153946355103248
2968.0,0.008330992620051436
2967.0,0.00850811108984062
2966.0,0.008640997362049818
2965.0,0.008862564879688284
2964.0,0.00908424549391551
2963.0,0.009261671492462709
2962.0,0.009439170005980158
2961.0,0.009527946474380489
2960.0,0.009527946474380489
2959.0,0.009527946474380489
2958.0,0.009527946474380489
2957.0,0.009572341514736404
2956.0,0.009616741093766423
2955.0,0.00966114521239847
2954.0,0.00966114521239847
2953.0,0.009572341514736404
2952.0,0.00939478857608056
2951.0,0.009172949432521227
2950.0,0.008951223547323472
2949.0,0.008773924307505121
2948.0,0.008685301823389224
2947.0,0.00850811108984062
2946.0,0.008242460465651913
2945.0,0.007932739972333236
2944.0,0.007711646202907652
2943.0,0.007534852191956709
2942.0,0.007402303897961815
2941.0,0.007225635744644521
2940.0,0.007093181776687496
2939.0,0.00696076819309055
2938.0,0.006828394969235152
2937.0,0.006696062080525422
2936.0,0.00656376950238835
2935.0,0.006431517210272464
2934.0,0.006387442061109638
2933.0,0.006299305179649828
2932.0,0.006167133386013823
2931.0,0.006035001804881146
2930.0,0.00590291041179003
2929.0,0.005858888873877532
2928.0,0.005946936412324799
2927.0,0.006035001804881146
2926.0,0.006079041198713275
2925.0,0.006079041198713275
2924.0,0.006079041198713275
2923.0,0.006035001804881146
2922.0,0.005946936412324799
2921.0,0.005814871797682919
2920.0,0.005682847330363394
2919.0,0.005594853310833647
2918.0,0.005506877116487674
2917.0,0.005462895701502157
2916.0,0.005506877116487674
2915.0,0.005594853310833647
2914.0,0.005682847330363394
2913.0,0.00577085918230158
2912.0,0.005814871797682919
2911.0,0.00590291041179003
2910.0,0.00590291041179003
2909.0,0.00590291041179003
2908.0,0.005814871797682919
2907.0,0.005726851026829571
2906.0,0.005682847330363394
2905.0,0.005594853310833647
2904.0,0.005594853310833647
2903.0,0.005594853310833647
2902.0,0.005550862985963967
2901.0,0.005550862985963967
2900.0,0.005506877116487674
2899.0,0.005506877116487674
2898.0,0.005550862985963967
2897.0,0.005594853310833647
2896.0,0.005638848091999105
2895.0,0.00577085918230158
2894.0,0.005858888873877532
2893.0,0.00590291041179003
2892.0,0.005946936412324799
2891.0,0.005946936412324799
2890.0,0.00590291041179003
2889.0,0.005858888873877532
2888.0,0.005814871797682919
2887.0,0.00577085918230158
2886.0,0.005726851026829571
2885.0,0.005682847330363394
2884.0,0.005638848091999105
2883.0,0.005594853310833647
2882.0,0.005550862985963967
2881.0,0.005506877116487674
2880.0,0.005462895701502157
2879.0,0.00541891874010525
2878.0,0.005462895701502157
2877.0,0.005506877116487674
2876.0,0.005550862985963967
2875.0,0.005594853310833647
2874.0,0.005638848091999105
2873.0,0.005638848091999105
2872.0,0.005638848091999105
2871.0,0.005550862985963967
2870.0,0.00541891874010525
2869.0,0.005330978174470591
2868.0,0.005243055412371911
2867.0,0.005243055412371911
2866.0,0.0052870145684298375
2865.0,0.0052870145684298375
2864.0,0.0052870145684298375
2863.0,0.005243055412371911
2862.0,0.005199100705396198
2861.0,0.005155150446602086
2860.0,0.005155150446602086
2859.0,0.005111204635089406
2858.0,0.005067263269958211
2857.0,0.005023326350308999
2856.0,0.005023326350308999
2855.0,0.005067263269958211
2854.0,0.005067263269958211
2853.0,0.005067263269958211
2852.0,0.005023326350308999
2851.0,0.004979393875242044
2850.0,0.004979393875242044
2849.0,0.005023326350308999
2848.0,0.005067263269958211
2847.0,0.005067263269958211
2846.0,0.005023326350308999
2845.0,0.004935465843858511
2844.0,0.004803708402820517
2843.0,0.004671990922590297
2842.0,0.00458420145758498
2841.0,0.0044964297349936455
2840.0,0.004452550524862486
2839.0,0.004452550524862486
2838.0,0.004408675747646695
2837.0,0.0043648054024501
2836.0,0.0043648054024501
2835.0,0.004320939488377862
2834.0,0.004277078004534696
2833.0,0.004233220950025984
2832.0,0.004189368323957332
2831.0,0.004145520125434121
2830.0,0.004101676353562844
2829.0,0.00401400208620073
2828.0,0.003970171588923321
2827.0,0.00401400208620073
2826.0,0.00401400208620073
2825.0,0.0040578370074493275
2824.0,0.00401400208620073
2823.0,0.003970171588923321
2822.0,0.003926345514724705
2821.0,0.003926345514724705
2820.0,0.0038825238627120395
2819.0,0.0038387066319929275
2818.0,0.0038387066319929275
2817.0,0.003794893821675638
2816.0,0.003794893821675638
2815.0,0.003794893821675638
2814.0,0.003794893821675638
2813.0,0.0037510854308679953
2812.0,0.0037510854308679953
2811.0,0.003707281458678491
2810.0,0.0036634819042162814
2809.0,0.0036634819042162814
2808.0,0.0036634819042162814
2807.0,0.003707281458678491
2806.0,0.003707281458678491
2805.0,0.003707281458678491
2804.0,0.003707281458678491
2803.0,0.0036634819042162814
2802.0,0.003619686766589858
2801.0,0.0035321097382827737
2800.0,0.0034445503666347133
2799.0,0.0034445503666347133
2798.0,0.003488327845821315
2797.0,0.0035321097382827737
2796.0,0.0035321097382827737
2795.0,0.0035758960449088217
2794.0,0.0035758960449088217
2793.0,0.0035321097382827737
2792.0,0.0035321097382827737
2791.0,0.0035758960449088217
2790.0,0.003619686766589858
2789.0,0.0036634819042162814
2788.0,0.0036634819042162814
2787.0,0.003619686766589858
2786.0,0.0035321097382827737
2785.0,0.003488327845821315
2784.0,0.0034445503666347133
2783.0,0.0034007772998332353
2782.0,0.0034007772998332353
2781.0,0.0034007772998332353
2780.0,0.003488327845821315
2779.0,0.0035321097382827737
2778.0,0.0035758960449088217
2777.0,0.0035758960449088217
2776.0,0.003619686766589858
2775.0,0.0036634819042162814
2774.0,0.003619686766589858
2773.0,0.0035321097382827737
2772.0,0.003488327845821315
2771.0,0.003488327845821315
2770.0,0.0035321097382827737
2769.0,0.003619686766589858
2768.0,0.003619686766589858
2767.0,0.0035321097382827737
2766.0,0.0034445503666347133
2765.0,0.0033570086445275926
2764.0,0.0032694845648473247
2763.0,0.0032694845648473247
2762.0,0.0033132443998284966
2761.0,0.0033132443998284966
2760.0,0.0032694845648473247
2759.0,0.0031819781204844855
2758.0,0.0030944893043338695
2757.0,0.0030070181092942683
2756.0,0.0029195645282691363
2755.0,0.0029632891174733444
2754.0,0.0030070181092942683
2753.0,0.003050751504618754
2752.0,0.0030944893043338695
2751.0,0.003050751504618754
2750.0,0.003050751504618754
2749.0,0.0030944893043338695
2748.0,0.0030944893043338695
2747.0,0.0030944893043338695
2746.0,0.0030944893043338695
2745.0,0.003050751504618754
2744.0,0.0030070181092942683
2743.0,0.0029632891174733444
2742.0,0.0029195645282691363
2741.0,0.0029195645282691363
2740.0,0.0029195645282691363
2739.0,0.0028758443407954637
2738.0,0.0028758443407954637
2737.0,0.0028758443407954637
2736.0,0.0029195645282691363
2735.0,0.0030070181092942683
2734.0,0.0030944893043338695
2733.0,0.0030944893043338695
2732.0,0.003050751504618754
2731.0,0.0029632891174733444
2730.0,0.0029195645282691363
2729.0,0.0029195645282691363
2728.0,0.0029195645282691363
2727.0,0.0029195645282691363
2726.0,0.0028758443407954637
2725.0,0.0028321285541661467
2724.0,0.0027447101798967477
2723.0,0.002701007590486082
2722.0,0.0026573093983774942
2721.0,0.002701007590486082
2720.0,0.0027447101798967477
2719.0,0.0027884171674950053
2718.0,0.0027884171674950053
2717.0,0.0027884171674950053
2716.0,0.0027884171674950053
2715.0,0.002701007590486082
2714.0,0.002613615602686581
2713.0,0.002569926202528716
2712.0,0.002569926202528716
2711.0,0.002613615602686581
2710.0,0.002701007590486082
2709.0,0.0027447101798967477
2708.0,0.002701007590486082
2707.0,0.0026573093983774942
2706.0,0.002613615602686581
2705.0,0.002569926202528716
2704.0,0.0025262411970197185
2703.0,0.0025262411970197185
2702.0,0.0025262411970197185
2701.0,0.002482560585275184
2700.0,0.002482560585275184
2699.0,0.002482560585275184
2698.0,0.002482560585275184
2697.0,0.002482560585275184
2696.0,0.002482560585275184
2695.0,0.0024388843664115978
2694.0,0.002395212539545666
2693.0,0.002351545103793873
2692.0,0.0023078820582733695
2691.0,0.0023078820582733695
2690.0,0.0023078820582733695
2689.0,0.0023078820582733695
2688.0,0.0023078820582733695
2687.0,0.0023078820582733695
2686.0,0.0023078820582733695
2685.0,0.002351545103793873
2684.0,0.002395212539545666
2683.0,0.002395212539545666
2682.0,0.002395212539545666
2681.0,0.002351545103793873
2680.0,0.002351545103793873
2679.0,0.002351545103793873
2678.0,0.0024388843664115978
2677.0,0.002482560585275184
2676.0,0.002482560585275184
2675.0,0.002482560585275184
2674.0,0.0024388843664115978
2673.0,0.0024388843664115978
2672.0,0.002395212539545666
2671.0,0.002395212539545666
2670.0,0.002395212539545666
2669.0,0.0023078820582733695
2668.0,0.0022205691343961664
2667.0,0.0021332737608552588
2666.0,0.0020459959305969555
2665.0,0.002089632653256679
2664.0,0.0021332737608552588
2663.0,0.0022205691343961664
2662.0,0.0023078820582733695
2661.0,0.002351545103793873
2660.0,0.002395212539545666
2659.0,0.0023078820582733695
2658.0,0.0022642234021015284
2657.0,0.0021769192542746563
2656.0,0.0021332737608552588
2655.0,0.0021332737608552588
2654.0,0.0021769192542746563
2653.0,0.0021769192542746563
2652.0,0.0021332737608552588
2651.0,0.002089632653256679
2650.0,0.0020023635919956817
2649.0,0.0019587356365717845
2648.0,0.0019587356365717845
2647.0,0.0019587356365717845
2646.0,0.0020023635919956817
2645.0,0.0020023635919956817
2644.0,0.0020023635919956817
2643.0,0.0019587356365717845
2642.0,0.001915112063444413
2641.0,0.001915112063444413
2640.0,0.0018714928717336043
2639.0,0.0018714928717336043
2638.0,0.0018714928717336043
2637.0,0.0018714928717336043
2636.0,0.0020023635919956817
2635.0,0.0021332737608552588
2634.0,0.0022205691343961664
2633.0,0.0022642234021015284
2632.0,0.0022205691343961664
2631.0,0.0021332737608552588
2630.0,0.002089632653256679
2629.0,0.0020459959305969555
2628.0,0.0020459959305969555
2627.0,0.0020459959305969555
2626.0,0.0020459959305969555
2625.0,0.0020459959305969555
2624.0,0.0020459959305969555
2623.0,0.0020023635919956817
2622.0,0.0019587356365717845
2621.0,0.001915112063444413
2620.0,0.001915112063444413
2619.0,0.001915112063444413
2618.0,0.0019587356365717845
2617.0,0.0019587356365717845
2616.0,0.0020023635919956817
2615.0,0.0020023635919956817
2614.0,0.001915112063444413
2613.0,0.0018714928717336043
2612.0,0.0017842676290416026
2611.0,0.0017842676290416026
2610.0,0.0018278780605593958
2609.0,0.001915112063444413
2608.0,0.0019587356365717845
2607.0,0.0020023635919956817
2606.0,0.0020023635919956817
2605.0,0.0020023635919956817
2604.0,0.0020023635919956817
2603.0,0.0020023635919956817
2602.0,0.0019587356365717845
2601.0,0.0018714928717336043
2600.0,0.0018278780605593958
2599.0,0.0017842676290416026
2598.0,0.0018278780605593958
2597.0,0.0018278780605593958
2596.0,0.001915112063444413
2595.0,0.001915112063444413
2594.0,0.001915112063444413
2593.0,0.001915112063444413
2592.0,0.0018714928717336043
2591.0,0.0018714928717336043
2590.0,0.0018714928717336043
2589.0,0.0018278780605593958
2588.0,0.0018714928717336043
2587.0,0.001915112063444413
2586.0,0.0020023635919956817
2585.0,0.0020459959305969555
2584.0,0.0020459959305969555
2583.0,0.0019587356365717845
2582.0,0.0018714928717336043
2581.0,0.0018278780605593958
2580.0,0.0018278780605593958
2579.0,0.0018714928717336043
2578.0,0.001915112063444413
2577.0,0.0018714928717336043
2576.0,0.0018278780605593958
2575.0,0.0018278780605593958
2574.0,0.0018278780605593958
2573.0,0.001915112063444413
2572.0,0.0020023635919956817
2571.0,0.0020023635919956817
2570.0,0.0019587356365717845
2569.0,0.001915112063444413
2568.0,0.0018714928717336043
2567.0,0.0018714928717336043
2566.0,0.0018714928717336043
2565.0,0.0018714928717336043
2564.0,0.0018278780605593958
2563.0,0.0017842676290416026
2562.0,0.0017406615763013722
2561.0,0.0017842676290416026
2560.0,0.0018278780605593958
2559.0,0.0018714928717336043
2558.0,0.001915112063444413
2557.0,0.0018714928717336043
2556.0,0.0018278780605593958
2555.0,0.0017842676290416026
2554.0,0.0018278780605593958
2553.0,0.0018714928717336043
2552.0,0.001915112063444413
2551.0,0.001915112063444413
2550.0,0.0018714928717336043
2549.0,0.0018278780605593958
2548.0,0.0017842676290416026
2547.0,0.0017406615763013722
2546.0,0.0016534626036355249
2545.0,0.0015662811355310335
2544.0,0.0015226969634936083
2543.0,0.0015226969634936083
2542.0,0.0015662811355310335
2541.0,0.0016534626036355249
2540.0,0.0017406615763013722
2539.0,0.0017842676290416026
2538.0,0.0017842676290416026
2537.0,0.0017406615763013722
2536.0,0.0016970599014589638
2535.0,0.0016534626036355249
2534.0,0.0016534626036355249
2533.0,0.0016534626036355249
2532.0,0.0016970599014589638
2531.0,0.0016970599014589638
2530.0,0.0017406615763013722
2529.0,0.0017406615763013722
2528.0,0.0017406615763013722
2527.0,0.0016970599014589638
2526.0,0.0016970599014589638
2525.0,0.0016534626036355249
2524.0,0.0016970599014589638
2523.0,0.0016970599014589638
2522.0,0.0016970599014589638
2521.0,0.0016970599014589638
2520.0,0.0016970599014589638
2519.0,0.0017406615763013722
2518.0,0.0017406615763013722
2517.0,0.0017406615763013722
2516.0,0.0017406615763013722
2515.0,0.0016970599014589638
2514.0,0.0016970599014589638
2513.0,0.0016534626036355249
2512.0,0.0016970599014589638
2511.0,0.0017406615763013722
2510.0,0.0017842676290416026
2509.0,0.0017842676290416026
2508.0,0.0016970599014589638
2507.0,0.001609869681952425
2506.0,0.0015226969634936083
2505.0,0.0014791171649619628
2504.0,0.0014791171649619628
2503.0,0.0014791171649619628
2502.0,0.0014791171649619628
2501.0,0.0014791171649619628
2500.0,0.0015226969634936083
2499.0,0.0015226969634936083
2498.0,0.0015226969634936083
2497.0,0.0014791171649619628
2496.0,0.0014355417390583547
2495.0,0.0014355417390583547
2494.0,0.0014355417390583547
2493.0,0.0014791171649619628
2492.0,0.0015226969634936083
2491.0,0.0015226969634936083
2490.0,0.0014791171649619628
2489.0,0.0014355417390583547
2488.0,0.0013919706849057079
2487.0,0.001304841688344327
2486.0,0.0011741809597138886
2485.0,0.0011306361176557367
2484.0,0.0010870956412141197
2483.0,0.0011306361176557367
2482.0,0.0011741809597138886
2481.0,0.0011741809597138886
2480.0,0.0011741809597138886
2479.0,0.0011306361176557367
2478.0,0.0010870956412141197
2477.0,0.0010870956412141197
2476.0,0.0010870956412141197
2475.0,0.0011741809597138886
2474.0,0.0012612837441823288
2473.0,0.001348404001626502
2472.0,0.001348404001626502
2471.0,0.001348404001626502
2470.0,0.001304841688344327
2469.0,0.0012612837441823288
2468.0,0.0012177301682640973
2467.0,0.0011741809597138886
2466.0,0.0011741809597138886
2465.0,0.0011306361176557367
2464.0,0.0010435595295137379
2463.0,0.0009565003968372565
2462.0,0.0009129773741116676
2461.0,0.0009129773741116676
2460.0,0.0010000277816797354
2459.0,0.0010000277816797354
2458.0,0.0010000277816797354
2457.0,0.0010000277816797354
2456.0,0.0010000277816797354
2455.0,0.0010000277816797354
2454.0,0.0010435595295137379
2453.0,0.0010870956412141197
2452.0,0.0010870956412141197
2451.0,0.0010870956412141197
2450.0,0.0010000277816797354
2449.0,0.0009129773741116676
2448.0,0.000869458712629001
2447.0,0.000869458712629001
2446.0,0.000869458712629001
2445.0,0.0009129773741116676
2444.0,0.0009565003968372565
2443.0,0.0010000277816797354
2442.0,0.0010870956412141197
2441.0,0.0010435595295137379
2440.0,0.0009565003968372565
2439.0,0.0008259444115150671
2438.0,0.0007824344698965646
2437.0,0.0008259444115150671
2436.0,0.0009129773741116676
2435.0,0.0010000277816797354
2434.0,0.0010435595295137379
2433.0,0.0010435595295137379
2432.0,0.0010435595295137379
2431.0,0.0010870956412141197
2430.0,0.0010870956412141197
2429.0,0.0010870956412141197
2428.0,0.0010435595295137379
2427.0,0.0010000277816797354
2426.0,0.0009565003968372565
2425.0,0.0009565003968372565
2424.0,0.0009565003968372565
2423.0,0.0009565003968372565
2422.0,0.0009565003968372565
2421.0,0.0009565003968372565
2420.0,0.0009129773741116676
2419.0,0.0009129773741116676
2418.0,0.0009565003968372565
2417.0,0.0009565003968372565
2416.0,0.0009565003968372565
2415.0,0.0009565003968372565
2414.0,0.0009565003968372565
2413.0,0.0009565003968372565
2412.0,0.0009565003968372565
2411.0,0.0010000277816797354
2410.0,0.0010435595295137379
2409.0,0.0010870956412141197
2408.0,0.0010870956412141197
2407.0,0.0010870956412141197
2406.0,0.0010435595295137379
2405.0,0.0010000277816797354
2404.0,0.0009565003968372565
2403.0,0.0009129773741116676
2402.0,0.0009129773741116676
2401.0,0.0009129773741116676
2400.0,0.0009129773741116676
2399.0,0.0009565003968372565
2398.0,0.0010000277816797354
2397.0,0.0010000277816797354
2396.0,0.0010000277816797354
2395.0,0.0010000277816797354
2394.0,0.0010000277816797354
2393.0,0.0010435595295137379
2392.0,0.0010000277816797354
2391.0,0.0009565003968372565
2390.0,0.0009129773741116676
2389.0,0.000869458712629001
2388.0,0.000869458712629001
2387.0,0.0009129773741116676
2386.0,0.0009565003968372565
2385.0,0.0010000277816797354
2384.0,0.0010000277816797354
2383.0,0.0010000277816797354
2382.0,0.0010000277816797354
2381.0,0.0010870956412141197
2380.0,0.0012177301682640973
2379.0,0.001304841688344327
2378.0,0.0012177301682640973
2377.0,0.0010000277816797354
2376.0,0.0007389288868995258
2375.0,0.0006084382809090627
2374.0,0.0006519307932786322
2373.0,0.0007824344698965646
2372.0,0.0009565003968372565
2371.0,0.0010435595295137379
2370.0,0.0011741809597138886
2369.0,0.0014791171649619628
2368.0,0.0019587356365717845
2367.0,0.0021332737608552588
2366.0,0.0015226969634936083
2365.0,0.0004779868710962365
2364.0,0.0
2363.0,0.0005649501236701937
2362.0,0.0015662811355310335
2361.0,0.0022205691343961664
2360.0,0.0023078820582733695
2359.0,0.0020459959305969555
2358.0,0.0015662811355310335
2357.0,0.0011306361176557367
2356.0,0.0010000277816797354
2355.0,0.0011741809597138886
2354.0,0.0012612837441823288
2353.0,0.0011306361176557367
2352.0,0.000869458712629001
2351.0,0.0006954276616513155
2350.0,0.0006954276616513155
2349.0,0.0008259444115150671
2348.0,0.0008259444115150671
2347.0,0.0006084382809090627
2346.0,0.00017375254558760211
2345.0,-0.0002604985473904087
2344.0,-0.0003472966853634851
2343.0,8.686758342868472e-05
2342.0,0.0008259444115150671
2341.0,0.0012177301682640973
2340.0,0.0010435595295137379
2339.0,0.0004779868710962365
2338.0,-4.3427276862573194e-05
2337.0,-0.00017368305846510168
2336.0,4.343161980746579e-05
2335.0,0.0003910410285830057
2334.0,0.000521466320689834
2333.0,0.00043451177401765406
2332.0,0.00026065489343207737
2331.0,0.00017375254558760211
2330.0,0.00026065489343207737
2329.0,0.00030411258916074324
2328.0,0.00030411258916074324
2327.0,0.00030411258916074324
2326.0,0.0004779868710962365
2325.0,0.0008259444115150671
2324.0,0.0010435595295137379
2323.0,0.0011306361176557367
2322.0,0.0010000277816797354
2321.0,0.0007824344698965646
2320.0,0.0006084382809090627
2319.0,0.00043451177401765406
2318.0,0.00030411258916074324
2317.0,0.00021720154586435392
2316.0,0.00026065489343207737
2315.0,0.00043451177401765406
2314.0,0.0005649501236701937
2313.0,0.0006084382809090627
2312.0,0.000521466320689834
2311.0,0.0003475746339209884
2310.0,0.00021720154586435392
2309.0,0.00021720154586435392
2308.0,0.00026065489343207737
2307.0,0.0003475746339209884
2306.0,0.00043451177401765406
2305.0,0.00043451177401765406
2304.0,0.0003910410285830057
2303.0,0.00043451177401765406
2302.0,0.0004779868710962365
2301.0,0.000521466320689834
2300.0,0.0006084382809090627
2299.0,0.0006084382809090627
2298.0,0.000521466320689834
2297.0,0.00043451177401765406
2296.0,0.0003475746339209884
2295.0,0.00030411258916074324
2294.0,0.00026065489343207737
2293.0,0.00026065489343207737
2292.0,0.00030411258916074324
2291.0,0.0003475746339209884
2290.0,0.0003910410285830057
2289.0,0.0003910410285830057
2288.0,0.00043451177401765406
2287.0,0.000521466320689834
2286.0,0.0006084382809090627
2285.0,0.0006519307932786322
2284.0,0.0006519307932786322
2283.0,0.0005649501236701937
2282.0,0.0004779868710962365
2281.0,0.0003475746339209884
2280.0,0.00021720154586435392
2279.0,0.00017375254558760211
2278.0,0.00017375254558760211
2277.0,0.00021720154586435392
2276.0,0.00026065489343207737
2275.0,0.00030411258916074324
2274.0,0.00030411258916074324
2273.0,0.00026065489343207737
2272.0,0.00021720154586435392
2271.0,0.00017375254558760211
2270.0,8.686758342868472e-05
2269.0,8.686758342868472e-05
2268.0,8.686758342868472e-05
2267.0,0.0001303078917322953
2266.0,0.00017375254558760211
2265.0,0.00017375254558760211
2264.0,8.686758342868472e-05
2263.0,4.343161980746579e-05
2262.0,0.0
2261.0,-4.3427276862573194e-05
2260.0,-4.3427276862573194e-05
2259.0,0.0
2258.0,4.343161980746579e-05
2257.0,4.343161980746579e-05
2256.0,4.343161980746579e-05
2255.0,0.0
2254.0,-4.3427276862573194e-05
2253.0,-8.685021164911433e-05
2252.0,-8.685021164911433e-05
2251.0,-4.3427276862573194e-05
2250.0,0.0
2249.0,0.0
2248.0,0.0
2247.0,-4.3427276862573194e-05
2246.0,-4.3427276862573194e-05
2245.0,-4.3427276862573194e-05
2244.0,0.0
2243.0,0.0001303078917322953
2242.0,0.00017375254558760211
2241.0,0.00017375254558760211
2240.0,8.686758342868472e-05
2239.0,4.343161980746579e-05
2238.0,0.0
2237.0,0.0
2236.0,0.0
2235.0,-4.3427276862573194e-05
2234.0,-0.00013026880522692963
2233.0,-0.00013026880522692963
2232.0,-8.685021164911433e-05
2231.0,-4.3427276862573194e-05
2230.0,4.343161980746579e-05
2229.0,8.686758342868472e-05
2228.0,8.686758342868472e-05
2227.0,8.686758342868472e-05
2226.0,0.0
2225.0,-8.685021164911433e-05
2224.0,-0.00013026880522692963
2223.0,-0.00013026880522692963
2222.0,-8.685021164911433e-05
2221.0,-4.3427276862573194e-05
2220.0,-4.3427276862573194e-05
2219.0,-8.685021164911433e-05
2218.0,-0.00017368305846510168
2217.0,-0.0002604985473904087
2216.0,-0.00030389978481260016
2215.0,-0.00030389978481260016
2214.0,-0.00030389978481260016
2213.0,-0.0002604985473904087
2212.0,-0.0002604985473904087
2211.0,-0.0002604985473904087
2210.0,-0.00021709297223004853
2209.0,-0.0002604985473904087
2208.0,-0.0002604985473904087
2207.0,-0.00021709297223004853
2206.0,-0.00017368305846510168
2205.0,-0.00017368305846510168
2204.0,-0.00017368305846510168
2203.0,-0.00021709297223004853
2202.0,-0.0002604985473904087
2201.0,-0.00030389978481260016
2200.0,-0.0003906892499099257
2199.0,-0.0003906892499099257
2198.0,-0.0003906892499099257
2197.0,-0.0003472966853634851
2196.0,-0.00030389978481260016
2195.0,-0.0002604985473904087
2194.0,-0.0002604985473904087
2193.0,-0.0003906892499099257
2192.0,-0.0005208409361854294
2191.0,-0.0006509536295951079
2190.0,-0.0006943158663546001
2189.0,-0.0007376737740329986
2188.0,-0.0007376737740329986
2187.0,-0.0007376737740329986
2186.0,-0.0007376737740329986
2185.0,-0.0006943158663546001
2184.0,-0.0006075870628903246
2183.0,-0.0004774613744551459
2182.0,-0.00043407747931878404
2181.0,-0.0003906892499099257
2180.0,-0.0003906892499099257
2179.0,-0.0003906892499099257
2178.0,-0.0003906892499099257
2177.0,-0.00043407747931878404
2176.0,-0.0005208409361854294
2175.0,-0.0005642161653756084
2174.0,-0.0006075870628903246
2173.0,-0.0006075870628903246
2172.0,-0.0006075870628903246
2171.0,-0.0005642161653756084
2170.0,-0.0005642161653756084
2169.0,-0.0005642161653756084
2168.0,-0.0005642161653756084
2167.0,-0.0005642161653756084
2166.0,-0.0005208409361854294
2165.0,-0.0004774613744551459
2164.0,-0.00043407747931878404
2163.0,-0.0003472966853634851
2162.0,-0.0003472966853634851
2161.0,-0.0003472966853634851
2160.0,-0.0003906892499099257
2159.0,-0.00043407747931878404
2158.0,-0.00043407747931878404
2157.0,-0.0004774613744551459
2156.0,-0.0004774613744551459
2155.0,-0.0005208409361854294
2154.0,-0.0005208409361854294
2153.0,-0.0004774613744551459
2152.0,-0.0004774613744551459
2151.0,-0.0004774613744551459
2150.0,-0.0005642161653756084
2149.0,-0.0006075870628903246
2148.0,-0.0006075870628903246
2147.0,-0.0005642161653756084
2146.0,-0.0004774613744551459
2145.0,-0.0004774613744551459
2144.0,-0.0005208409361854294
2143.0,-0.0006075870628903246
2142.0,-0.0006075870628903246
2141.0,-0.0006075870628903246
2140.0,-0.0006075870628903246
2139.0,-0.0005642161653756084
2138.0,-0.0005642161653756084
2137.0,-0.0005642161653756084
2136.0,-0.0006075870628903246
2135.0,-0.0006075870628903246
2134.0,-0.0006075870628903246
2133.0,-0.0005642161653756084
2132.0,-0.0005642161653756084
2131.0,-0.0005208409361854294
2130.0,-0.0004774613744551459
2129.0,-0.0004774613744551459
2128.0,-0.0004774613744551459
2127.0,-0.0004774613744551459
2126.0,-0.0005208409361854294
2125.0,-0.0005642161653756084
2124.0,-0.0006075870628903246
2123.0,-0.0006509536295951079
2122.0,-0.0006509536295951079
2121.0,-0.0006509536295951079
2120.0,-0.0006509536295951079
2119.0,-0.0006509536295951079
2118.0,-0.0006509536295951079
2117.0,-0.0006075870628903246
2116.0,-0.0005642161653756084
2115.0,-0.0005642161653756084
2114.0,-0.0005642161653756084
2113.0,-0.0006075870628903246
2112.0,-0.0006509536295951079
2111.0,-0.0006075870628903246
2110.0,-0.0005642161653756084
2109.0,-0.0004774613744551459
2108.0,-0.0004774613744551459
2107.0,-0.0004774613744551459
2106.0,-0.0005642161653756084
2105.0,-0.0006509536295951079
2104.0,-0.0007376737740329986
2103.0,-0.0007376737740329986
2102.0,-0.0007810273534953893
2101.0,-0.0007376737740329986
2100.0,-0.0006943158663546001
2099.0,-0.0006509536295951079
2098.0,-0.0006075870628903246
2097.0,-0.0006509536295951079
2096.0,-0.0006943158663546001
2095.0,-0.0007810273534953893
2094.0,-0.0008677215312267172
2093.0,-0.0009110621312231615
2092.0,-0.0008677215312267172
2091.0,-0.0008243766056055257
2090.0,-0.0008243766056055257
2089.0,-0.0008677215312267172
2088.0,-0.0009543984064577238
2087.0,-0.001041057986093552
2086.0,-0.0010843812922201046
2085.0,-0.0011277002770349043
2084.0,-0.0011710149414008164
2083.0,-0.0011277002770349043
2082.0,-0.0011277002770349043
2081.0,-0.0010843812922201046
2080.0,-0.0010843812922201046
2079.0,-0.001041057986093552
2078.0,-0.0010843812922201046
2077.0,-0.0010843812922201046
2076.0,-0.0010843812922201046
2075.0,-0.001041057986093552
2074.0,-0.0010843812922201046
2073.0,-0.0011710149414008164
2072.0,-0.0013009330204178937
2071.0,-0.001344230411601366
2070.0,-0.001344230411601366
2069.0,-0.001344230411601366
2068.0,-0.0013009330204178937
2067.0,-0.001257631312230778
2066.0,-0.001257631312230778
2065.0,-0.00121432528617893
2064.0,-0.001257631312230778
2063.0,-0.0013009330204178937
2062.0,-0.0014308122463981832
2061.0,-0.0015606526425728795
2060.0,-0.0016039241497978196
2059.0,-0.0016471913460383014
2058.0,-0.0016039241497978196
2057.0,-0.0015606526425728795
2056.0,-0.0015173768235041685
2055.0,-0.0015173768235041685
2054.0,-0.0015173768235041685
2053.0,-0.0015606526425728795
2052.0,-0.0016039241497978196
2051.0,-0.0016904542321527494
2050.0,-0.001733712809000476
2049.0,-0.0018202170383281313
2048.0,-0.0018202170383281313
2047.0,-0.0018202170383281313
2046.0,-0.0018202170383281313
2045.0,-0.0019067040408846658
2044.0,-0.0019931738235303698
2043.0,-0.0020364022595291686
2042.0,-0.0019931738235303698
2041.0,-0.0019499410842680476
2040.0,-0.0018634626925240205
2039.0,-0.0018634626925240205
2038.0,-0.0018634626925240205
2037.0,-0.0018634626925240205
2036.0,-0.0018634626925240205
2035.0,-0.0019067040408846658
2034.0,-0.0019499410842680476
2033.0,-0.0019931738235303698
2032.0,-0.0020364022595291686
2031.0,-0.0020796263931210923
2030.0,-0.0021228462251614566
2029.0,-0.0021660617565077978
2028.0,-0.0022092729880145434
2027.0,-0.0022524799205383417
2026.0,-0.0022524799205383417
2025.0,-0.0022524799205383417
2024.0,-0.0022524799205383417
2023.0,-0.0022524799205383417
2022.0,-0.0022092729880145434
2021.0,-0.0022092729880145434
2020.0,-0.0022092729880145434
2019.0,-0.0021660617565077978
2018.0,-0.0021228462251614566
2017.0,-0.0021228462251614566
2016.0,-0.0021660617565077978
2015.0,-0.0022524799205383417
2014.0,-0.0022956825549340643
2013.0,-0.0022956825549340643
2012.0,-0.0022524799205383417
2011.0,-0.0021660617565077978
2010.0,-0.0021228462251614566
2009.0,-0.0020796263931210923
2008.0,-0.0020796263931210923
2007.0,-0.0020364022595291686
2006.0,-0.0020364022595291686
2005.0,-0.0020364022595291686
2004.0,-0.0020364022595291686
2003.0,-0.0020364022595291686
2002.0,-0.0020796263931210923
2001.0,-0.0020796263931210923
2000.0,-0.0021228462251614566
1999.0,-0.0021660617565077978
1998.0,-0.0021660617565077978
1997.0,-0.0021660617565077978
1996.0,-0.0022092729880145434
1995.0,-0.0021660617565077978
1994.0,-0.0021228462251614566
1993.0,-0.0020796263931210923
1992.0,-0.0019931738235303698
1991.0,-0.0019067040408846658
1990.0,-0.0019067040408846658
1989.0,-0.0019067040408846658
1988.0,-0.0019499410842680476
1987.0,-0.0019931738235303698
1986.0,-0.0019931738235303698
1985.0,-0.0019931738235303698
1984.0,-0.0019499410842680476
1983.0,-0.0018634626925240205
1982.0,-0.0018634626925240205
1981.0,-0.0019067040408846658
1980.0,-0.0019067040408846658
1979.0,-0.0018634626925240205
1978.0,-0.0018634626925240205
1977.0,-0.0019067040408846658
1976.0,-0.0019499410842680476
1975.0,-0.0019931738235303698
1974.0,-0.0019931738235303698
1973.0,-0.0019499410842680476
1972.0,-0.0019067040408846658
1971.0,-0.001776967077439462
1970.0,-0.0016904542321527494
1969.0,-0.0016471913460383014
1968.0,-0.0016039241497978196
1967.0,-0.0016039241497978196
1966.0,-0.0016471913460383014
1965.0,-0.0016904542321527494
1964.0,-0.0016904542321527494
1963.0,-0.0016471913460383014
1962.0,-0.0015606526425728795
1961.0,-0.0015173768235041685
1960.0,-0.0015173768235041685
1959.0,-0.0015173768235041685
1958.0,-0.0015173768235041685
1957.0,-0.001474096691732818
1956.0,-0.0013875234866409514
1955.0,-0.0013009330204178937
1954.0,-0.001257631312230778
1953.0,-0.001257631312230778
1952.0,-0.001257631312230778
1951.0,-0.0013009330204178937
1950.0,-0.001257631312230778
1949.0,-0.001257631312230778
1948.0,-0.001257631312230778
1947.0,-0.001257631312230778
1946.0,-0.0013009330204178937
1945.0,-0.0013009330204178937
1944.0,-0.001257631312230778
1943.0,-0.0013009330204178937
1942.0,-0.001344230411601366
1941.0,-0.0015173768235041685
1940.0,-0.0016471913460383014
1939.0,-0.001776967077439462
1938.0,-0.0019067040408846658
1937.0,-0.0020796263931210923
1936.0,-0.0022092729880145434
1935.0,-0.0022524799205383417
1934.0,-0.002338880892056583
1933.0,-0.0023820749327607693
1932.0,-0.0024252646779014952
1931.0,-0.0024684501283323
1930.0,-0.0025116312849080558
1929.0,-0.002597980719908577
1928.0,-0.002684312989729598
1927.0,-0.0027706281011936618
1926.0,-0.0028137792246734072
1925.0,-0.002856926061120646
1924.0,-0.002900068611387585
1923.0,-0.002900068611387585
1922.0,-0.002900068611387585
1921.0,-0.0029432068763250996
1920.0,-0.0029432068763250996
1919.0,-0.0029863408567849525
1918.0,-0.0030725959676747294
1917.0,-0.003201946521692367
1916.0,-0.0033312585613267665
1915.0,-0.0033743540197499478
1914.0,-0.0034174452021935586
1913.0,-0.0034605321095062536
1912.0,-0.003503614742536687
1911.0,-0.003503614742536687
1910.0,-0.003546693102131737
1909.0,-0.003632837004408529
1908.0,-0.0037189638231147626
1907.0,-0.003805073565025019
1906.0,-0.0038481220342978517
1905.0,-0.003891166236910326
1904.0,-0.003891166236910326
1903.0,-0.003934206173708432
1902.0,-0.0039772418455368275
1901.0,-0.004020273253241502
1900.0,-0.004106323279658319
1899.0,-0.004106323279658319
1898.0,-0.004149341900058889
1897.0,-0.004149341900058889
1896.0,-0.004149341900058889
1895.0,-0.004192356259714369
1894.0,-0.0042783722001624724
1893.0,-0.004364371107751008
1892.0,-0.00445035298922436
1891.0,-0.00445035298922436
1890.0,-0.00445035298922436
1889.0,-0.004493337547274212
1888.0,-0.004536317851322913
1887.0,-0.0045792939022115675
1886.0,-0.004622265700782613
1885.0,-0.004708196544336296
1884.0,-0.004751155591001144
1883.0,-0.004794110388711914
1882.0,-0.004794110388711914
1881.0,-0.004837060938309712
1880.0,-0.00488000724063431
1879.0,-0.004922949296525481
1878.0,-0.004922949296525481
1877.0,-0.004965887106823441
1876.0,-0.005008820672367076
1875.0,-0.005051749993995713
1874.0,-0.005137595908863979
1873.0,-0.005180512503780488
1872.0,-0.005137595908863979
1871.0,-0.005051749993995713
1870.0,-0.004965887106823441
1869.0,-0.004965887106823441
1868.0,-0.005008820672367076
1867.0,-0.005094675072548682
1866.0,-0.005137595908863979
1865.0,-0.005223424858135761
1864.0,-0.005309236848516363
1863.0,-0.005352136486216796
1862.0,-0.005352136486216796
1861.0,-0.005395031886706203
1860.0,-0.005395031886706203
1859.0,-0.0054379230508221355
1858.0,-0.005480809979401258
1857.0,-0.005480809979401258
1856.0,-0.00552369267327979
1855.0,-0.005480809979401258
1854.0,-0.0054379230508221355
1853.0,-0.005395031886706203
1852.0,-0.005395031886706203
1851.0,-0.005395031886706203
1850.0,-0.005352136486216796
1849.0,-0.005395031886706203
1848.0,-0.0054379230508221355
1847.0,-0.005395031886706203
1846.0,-0.005309236848516363
1845.0,-0.005266332972768684
1844.0,-0.005309236848516363
1843.0,-0.005352136486216796
1842.0,-0.005395031886706203
1841.0,-0.005395031886706203
1840.0,-0.005352136486216796
1839.0,-0.005352136486216796
1838.0,-0.005309236848516363
1837.0,-0.005309236848516363
1836.0,-0.005266332972768684
1835.0,-0.005266332972768684
1834.0,-0.005223424858135761
1833.0,-0.005223424858135761
1832.0,-0.005137595908863979
1831.0,-0.005094675072548682
1830.0,-0.005008820672367076
1829.0,-0.005051749993995713
1828.0,-0.005051749993995713
1827.0,-0.005008820672367076
1826.0,-0.004965887106823441
1825.0,-0.004965887106823441
1824.0,-0.005051749993995713
1823.0,-0.005094675072548682
1822.0,-0.005137595908863979
1821.0,-0.005223424858135761
1820.0,-0.005352136486216796
1819.0,-0.005395031886706203
1818.0,-0.0054379230508221355
1817.0,-0.005395031886706203
1816.0,-0.005395031886706203
1815.0,-0.005395031886706203
1814.0,-0.0054379230508221355
1813.0,-0.005480809979401258
1812.0,-0.005566571133294396
1811.0,-0.005652315355074045
1810.0,-0.005695181118510195
1809.0,-0.005780899954652252
1808.0,-0.005780899954652252
1807.0,-0.005780899954652252
1806.0,-0.005780899954652252
1805.0,-0.00582375302902749
1804.0,-0.0058666018753847915
1803.0,-0.0058666018753847915
1802.0,-0.0058666018753847915
1801.0,-0.005909446494558601
1800.0,-0.006037954997317296
1799.0,-0.006080782716094024
1798.0,-0.006123606211854593
1797.0,-0.006123606211854593
1796.0,-0.006080782716094024
1795.0,-0.005952286887382918
1794.0,-0.0058666018753847915
1793.0,-0.005952286887382918
1792.0,-0.006037954997317296
1791.0,-0.006080782716094024
1790.0,-0.006080782716094024
1789.0,-0.006123606211854593
1788.0,-0.006123606211854593
1787.0,-0.006037954997317296
1786.0,-0.005952286887382918
1785.0,-0.0058666018753847915
1784.0,-0.0058666018753847915
1783.0,-0.00582375302902749
1782.0,-0.005738042651424635
1781.0,-0.005695181118510195
1780.0,-0.005609445360280407
1779.0,-0.0054379230508221355
1778.0,-0.005309236848516363
1777.0,-0.005223424858135761
1776.0,-0.005137595908863979
1775.0,-0.004965887106823441
1774.0,-0.004794110388711914
1773.0,-0.004665233247877154
1772.0,-0.0045792939022115675
1771.0,-0.004364371107751008
1770.0,-0.004063300397667113
1769.0,-0.003805073565025019
1768.0,-0.0035897671891400584
1767.0,-0.0033743540197499478
1766.0,-0.003201946521692367
1765.0,-0.0030725959676747294
1764.0,-0.0028137792246734072
1763.0,-0.0023820749327607693
1762.0,-0.0019067040408846658
1761.0,-0.0015173768235041685
1760.0,-0.0011277002770349043
1759.0,-0.0005208409361854294
1758.0,0.00026065489343207737
1757.0,0.0010000277816797354
1756.0,0.0016970599014589638
1755.0,0.0024388843664115978
1754.0,0.0032257291386954545
1753.0,0.004189368323957332
1752.0,0.005462895701502157
1751.0,0.007358130121602358
1750.0,0.009705553871561357
1749.0,0.012110390002254778
1748.0,0.014753209197138295
1747.0,0.017638298366853045
1746.0,0.020770406977844713
1745.0,0.024292536462819925
1744.0,0.028538594975413334
1743.0,0.0332483359486222
1742.0,0.03810452633214956
1741.0,0.04368746915880539
1740.0,0.05056119896349576
1739.0,0.05764465029232335
1738.0,0.06278310913729457
1737.0,0.06615853710127872
1736.0,0.07012147634321675
1735.0,0.07831352451639795
1734.0,0.09071147583774919
1733.0,0.1005625457138224
1732.0,0.1063491830140364
1731.0,0.11159583226295333
1730.0,0.11793105556385153
1729.0,0.12453358413361437
1728.0,0.13035765534840538
1727.0,0.13542959314656988
1726.0,0.1404414273739465
1725.0,0.14605855411951008
1724.0,0.1523039792658345
1723.0,0.15814019022493886
1722.0,0.16228533171508874
1721.0,0.16418264570652719
1720.0,0.16513442009996204
1719.0,0.16800232276410365
1718.0,0.17470373556903995
1717.0,0.1818401136028147
1716.0,0.18508681872492616
1715.0,0.18541948398968144
1714.0,0.1842894602110372
1713.0,0.1812464095022832
1712.0,0.176525770829699
1711.0,0.17082492608291244
1710.0,0.16475346000368907
1709.0,0.15807768832054925
1708.0,0.15051916275601385
1707.0,0.14230574221345038
1706.0,0.13406733180681396
1705.0,0.12638880300353272
1704.0,0.11941504393502012
1703.0,0.11277666863747693
1702.0,0.10601643278815298
1701.0,0.0989778267519208
1700.0,0.09274991711867164
1699.0,0.08788427092114603
1698.0,0.08380934001946239
1697.0,0.07987667370927598
1696.0,0.0760310351245288
1695.0,0.07237303755504598
1694.0,0.0692037370166998
1693.0,0.06641148980334699
1692.0,0.06373765809652254
1691.0,0.06118017497378969
1690.0,0.058936011780097886
1689.0,0.0571489934456626
1688.0,0.05551732784983132
1687.0,0.053646002773725554
1686.0,0.051684859310652254
1685.0,0.050463626623857394
1684.0,0.050171041064686284
1683.0,0.04939177521576932
1682.0,0.04807992647970649
1681.0,0.04667530361081473
1680.0,0.045323413081356456
1679.0,0.04387961360698034
1678.0,0.04244059810252043
1677.0,0.041149548320321694
1676.0,0.0400527842915015
1675.0,0.03910132267333921
1674.0,0.03810452633214956
1673.0,0.036873558918095295
1672.0,0.035646070707806565
1671.0,0.034469056377139484
1670.0,0.03367050483612166
1669.0,0.03310770413286357
1668.0,0.03240522732811035
1667.0,0.03147035562516054
1666.0,0.030444315779156517
1665.0,0.02942069428514915
1664.0,0.02839947976994095
1663.0,0.027565723042634938
1662.0,0.02696455931306696
1661.0,0.02636422658259252
1660.0,0.025718641122169483
1659.0,0.02498200236711723
1658.0,0.024200690320592466
1657.0,0.02351246269481
1656.0,0.02277955336461468
1655.0,0.02204787879853809
1654.0,0.021728158389364705
1653.0,0.021956506090037076
1652.0,0.021499930688540836
1651.0,0.020724852408976924
1650.0,0.02022406727031445
1649.0,0.019860222254245663
1648.0,0.019451260640229506
1647.0,0.0190880622231564
1646.0,0.018815862601645694
1645.0,0.01845319495476394
1644.0,0.01809082990920774
1643.0,0.01768353030793479
1642.0,0.017321806616515723
1641.0,0.017005545341335804
1640.0,0.016599261819461697
1639.0,0.016238439713835096
1638.0,0.015877917138889863
1637.0,0.015742798294583915
1636.0,0.015832872853011715
1635.0,0.015697768020096703
1634.0,0.015292705517326866
1633.0,0.014888020460646079
1632.0,0.01452861671041239
1631.0,0.014124642691606404
1630.0,0.01381070026317599
1629.0,0.013586594534531482
1628.0,0.013452186585275916
1627.0,0.013273040668781544
1626.0,0.013049212141483357
1625.0,0.012825498912458322
1624.0,0.012780770091995297
1623.0,0.012780770091995297
1622.0,0.012736045877764557
1621.0,0.01260190086298274
1620.0,0.012467797270160563
1619.0,0.012378417874516323
1618.0,0.01260190086298274
1617.0,0.01322826573375524
1616.0,0.01372104409400876
1615.0,0.01385553528947936
1614.0,0.01381070026317599
1613.0,0.013676222949234651
1612.0,0.013407393177789162
1611.0,0.013093968619278806
1610.0,0.012736045877764557
1609.0,0.012378417874516323
1608.0,0.0119764380713403
1607.0,0.011530229790124524
1606.0,0.011084479487313281
1605.0,0.010683695010048622
1604.0,0.010283280051895272
1603.0,0.009838807101520963
1602.0,0.009439170005980158
1601.0,0.009039900317800775
1600.0,0.008640997362049818
1599.0,0.008286724286910463
1598.0,0.007888512213050314
1597.0,0.00762324020119709
1596.0,0.007358130121602358
1595.0,0.007225635744644521
1594.0,0.007137328610972382
1593.0,0.007093181776687496
1592.0,0.007049039429553483
1591.0,0.00696076819309055
1590.0,0.006916639301937977
1589.0,0.006916639301937977
1588.0,0.00696076819309055
1587.0,0.007049039429553483
1586.0,0.007402303897961815
1585.0,0.008109696063975047
1584.0,0.009128595198514056
1583.0,0.01037222925484893
1582.0,0.011753276624621556
1581.0,0.013004460275618523
1580.0,0.01403492169512921
1579.0,0.014618439768003144
1578.0,0.014753209197138295
1577.0,0.014349026309051105
1576.0,0.013452186585275916
1575.0,0.012378417874516323
1574.0,0.011485634166333858
1573.0,0.01077272626946324
1572.0,0.010105436281226954
1571.0,0.009306039320248427
1570.0,0.00850811108984062
1569.0,0.007932739972333236
1568.0,0.007490664932224611
1567.0,0.007093181776687496
1566.0,0.006696062080525422
1565.0,0.006343371384537999
1564.0,0.006035001804881146
1563.0,0.005858888873877532
1562.0,0.00577085918230158
1561.0,0.005550862985963967
1560.0,0.005330978174470591
1559.0,0.005199100705396198
1558.0,0.004979393875242044
1557.0,0.004715892310740433
1556.0,0.004628093971837721
1555.0,0.0044964297349936455
1554.0,0.004233220950025984
1553.0,0.003926345514724705
1552.0,0.0036634819042162814
1551.0,0.0035321097382827737
1550.0,0.0034445503666347133
1549.0,0.0033132443998284966
1548.0,0.0031382315093266833
1547.0,0.0029195645282691363
1546.0,0.0027447101798967477
1545.0,0.0026573093983774942
1544.0,0.002569926202528716
1543.0,0.002395212539545666
1542.0,0.0021332737608552588
1541.0,0.0019587356365717845
1540.0,0.001915112063444413
1539.0,0.0017406615763013722
1538.0,0.0015226969634936083
1537.0,0.0015662811355310335
1536.0,0.0016970599014589638
1535.0,0.0018278780605593958
1534.0,0.0020459959305969555
1533.0,0.0021769192542746563
1532.0,0.0022205691343961664
1531.0,0.0021332737608552588
1530.0,0.002089632653256679
1529.0,0.0021332737608552588
1528.0,0.0022205691343961664
1527.0,0.0022642234021015284
1526.0,0.0022205691343961664
1525.0,0.002089632653256679
1524.0,0.0019587356365717845
1523.0,0.0018278780605593958
1522.0,0.0016534626036355249
1521.0,0.001609869681952425
1520.0,0.0014791171649619628
1519.0,0.0013919706849057079
1518.0,0.001348404001626502
1517.0,0.001348404001626502
1516.0,0.001304841688344327
1515.0,0.0012612837441823288
1514.0,0.001304841688344327
1513.0,0.0014791171649619628
1512.0,0.0018714928717336043
1511.0,0.002482560585275184
1510.0,0.0033132443998284966
1509.0,0.004671990922590297
1508.0,0.007490664932224611
1507.0,0.012110390002254778
1506.0,0.014977917890464765
1505.0,0.014932966849499074
1504.0,0.013631406429727155
1503.0,0.011842527443247208
1502.0,0.009794384815193347
1501.0,0.007711646202907652
1500.0,0.00577085918230158
1499.0,0.004101676353562844
1498.0,0.0027447101798967477
1497.0,0.001609869681952425
1496.0,0.0006954276616513155
1495.0,-4.3427276862573194e-05
1494.0,-0.0004774613744551459
1493.0,-0.0006943158663546001
1492.0,-0.0007810273534953893
1491.0,-0.0008677215312267172
1490.0,-0.0009977303577937136
1489.0,-0.0009543984064577238
1488.0,-0.0008677215312267172
1487.0,-0.0008677215312267172
1486.0,-0.0009110621312231615
1485.0,-0.0009110621312231615
1484.0,-0.0008243766056055257
1483.0,-0.0006943158663546001
1482.0,-0.0004774613744551459
1481.0,-0.00013026880522692963
1480.0,0.00017375254558760211
1479.0,0.0003910410285830057
1478.0,0.0005649501236701937
1477.0,0.0007824344698965646
1476.0,0.0010870956412141197
1475.0,0.001348404001626502
1474.0,0.0015226969634936083
1473.0,0.0018714928717336043
1472.0,0.0023078820582733695
1471.0,0.0025262411970197185
1470.0,0.002701007590486082
1469.0,0.0030070181092942683
1468.0,0.0034445503666347133
1467.0,0.004101676353562844
1466.0,0.005067263269958211
1465.0,0.006431517210272464
1464.0,0.007844288957383316
1463.0,0.008951223547323472
1462.0,0.009794384815193347
1461.0,0.010639186223752484
1460.0,0.011574829993696856
1459.0,0.012780770091995297
1458.0,0.014663358264387139
1457.0,0.016915227262211507
1456.0,0.018226681372252695
1455.0,0.01845319495476394
1454.0,0.01845319495476394
1453.0,0.01840788278591865
1452.0,0.01831727262871463
1451.0,0.01809082990920774
1450.0,0.01781925440359733
1449.0,0.017638298366853045
1448.0,0.017547848615010242
1447.0,0.017457417697056554
1446.0,0.017367005605150476
1445.0,0.01727661233145472
1444.0,0.017095882207371904
1443.0,0.016915227262211507
1442.0,0.016689514205884493
1441.0,0.016418813294209356
1440.0,0.016148281008528276
1439.0,0.015742798294583915
1438.0,0.015157768594724175
1437.0,0.014259258949925524
1436.0,0.013004460275618523
1435.0,0.011574829993696856
1434.0,0.010194349063173958
1433.0,0.008862564879688284
1432.0,0.007490664932224611
1431.0,0.006167133386013823
1430.0,0.004935465843858511
1429.0,0.0038825238627120395
1428.0,0.0030070181092942683
1427.0,0.002351545103793873
1426.0,0.001915112063444413
1425.0,0.0016970599014589638
1424.0,0.0016970599014589638
1423.0,0.001915112063444413
1422.0,0.0023078820582733695
1421.0,0.003050751504618754
1420.0,0.004628093971837721
1419.0,0.007225635744644521
1418.0,0.010327752376126709
1417.0,0.01372104409400876
1416.0,0.017728766960431575
1415.0,0.022733787572707387
1414.0,0.028770552723758724
1413.0,0.03583468937826462
1412.0,0.0433514207947967
1411.0,0.049927370249842395
1410.0,0.05433450056786593
1409.0,0.056159373598738904
1408.0,0.05551732784983132
1407.0,0.05261529831525902
1406.0,0.048128442871635535
1405.0,0.0431115453499229
1404.0,0.038436537637930535
1403.0,0.034516075754861264
1402.0,0.03137697904301118
1401.0,0.028677754757187035
1400.0,0.026225806029419818
1399.0,0.023971159908874107
1398.0,0.02204787879853809
1397.0,0.020497151212598652
1396.0,0.0190880622231564
1395.0,0.01768353030793479
1394.0,0.01628352608625061
1393.0,0.015067833932588037
1392.0,0.013990068146738865
1391.0,0.013049212141483357
1390.0,0.012244383261476699
1389.0,0.011574829993696856
1388.0,0.010995384301463185
1387.0,0.010639186223752484
1386.0,0.010416710688994968
1385.0,0.01037222925484893
1384.0,0.01046119667949763
1383.0,0.010728208358306901
1382.0,0.01117359295472431
1381.0,0.011842527443247208
1380.0,0.012691326268817527
1379.0,0.013676222949234651
1378.0,0.014708281407112
1377.0,0.015832872853011715
1376.0,0.017095882207371904
1375.0,0.018634490921455527
1374.0,0.02022406727031445
1373.0,0.0214542995372613
1372.0,0.02204787879853809
1371.0,0.0221849739168134
1370.0,0.021910826943857264
1369.0,0.0211806132671577
1368.0,0.01995115493504329
1367.0,0.018226681372252695
1366.0,0.016193358021584725
1365.0,0.013990068146738865
1364.0,0.011664044143949504
1363.0,0.009350411681145587
1362.0,0.007358130121602358
1361.0,0.005858888873877532
1360.0,0.004759798137184523
1359.0,0.0038825238627120395
1358.0,0.0032257291386954545
1357.0,0.0027884171674950053
1356.0,0.002569926202528716
1355.0,0.002482560585275184
1354.0,0.002613615602686581
1353.0,0.0028321285541661467
1352.0,0.0032694845648473247
1351.0,0.003926345514724705
1350.0,0.00484762310854614
1349.0,0.005946936412324799
1348.0,0.007225635744644521
1347.0,0.008596697419959609
1346.0,0.010105436281226954
1345.0,0.011664044143949504
1344.0,0.013273040668781544
1343.0,0.014663358264387139
1342.0,0.015832872853011715
1341.0,0.016734647433454652
1340.0,0.017231422748988034
1339.0,0.017005545341335804
1338.0,0.01596801972881945
1337.0,0.014349026309051105
1336.0,0.012467797270160563
1335.0,0.010594681998483901
1334.0,0.008906891951112605
1333.0,0.0075790439479759275
1332.0,0.006696062080525422
1331.0,0.006167133386013823
1330.0,0.006079041198713275
1329.0,0.006299305179649828
1328.0,0.006784279525863024
1327.0,0.007490664932224611
1326.0,0.008419542825660153
1325.0,0.009483555971770974
1324.0,0.010639186223752484
1323.0,0.011842527443247208
1322.0,0.013049212141483357
1321.0,0.014393916947563534
1320.0,0.01578783323856614
1319.0,0.017231422748988034
1318.0,0.01858915983411169
1317.0,0.01990568621470623
1316.0,0.02122621566987748
1315.0,0.022642270454698687
1314.0,0.024200690320592466
1313.0,0.025949097207122573
1312.0,0.027797161620935595
1311.0,0.029653123769906697
1310.0,0.03147035562516054
1309.0,0.03338901331806565
1308.0,0.035363296211498474
1307.0,0.037346595106788616
1306.0,0.03929144831144349
1305.0,0.041340572947066834
1304.0,0.043495409683302455
1303.0,0.04585401117045196
1302.0,0.048565334467987054
1301.0,0.05178270644002936
1300.0,0.05551732784983132
1299.0,0.0595831353183347
1298.0,0.06388856832514578
1297.0,0.068389593637038
1296.0,0.0729891310243489
1295.0,0.07748213975538865
1294.0,0.08186477383364066
1293.0,0.0861331881037608
1292.0,0.09033701484598189
1291.0,0.09431203228814788
1290.0,0.09805153492691598
1289.0,0.10165883427249067
1288.0,0.10507502264045665
1287.0,0.1081838804751396
1286.0,0.11092250734993603
1285.0,0.1133401021387972
1284.0,0.11554450392951199
1283.0,0.1174754620451195
1282.0,0.11907213473291511
1281.0,0.12050271275057156
1280.0,0.12188051530283239
1279.0,0.12314735239865637
1278.0,0.12441789567211425
1277.0,0.12592425477696523
1276.0,0.12778543660241448
1275.0,0.13000599987825812
1274.0,0.13270933014511588
1273.0,0.136142038116027
1272.0,0.1405014418122239
1271.0,0.14551177495556966
1270.0,0.1509493094304879
1269.0,0.1567049172634929
1268.0,0.16266413198498508
1267.0,0.1685141607513425
1266.0,0.17411970106382046
1265.0,0.17953580942231584
1264.0,0.18448866263723573
1263.0,0.18869315991866387
1262.0,0.1921268679966679
1261.0,0.19497515557019485
1260.0,0.19715788726092565
1259.0,0.19845909380968174
1258.0,0.1990081387398286
1257.0,0.19921420967223735
1256.0,0.19955787866374353
1255.0,0.20003947259401644
1254.0,0.20072839165012724
1253.0,0.20190206793751408
1252.0,0.2036338450224786
1251.0,0.20572113427860006
1250.0,0.20795868928791772
1249.0,0.2104897959097456
1248.0,0.21324857785443885
1247.0,0.2160964207272651
1246.0,0.21881927906273835
1245.0,0.22170400891116615
1244.0,0.2243895519936392
1243.0,0.22665245801917688
1242.0,0.22819212100089437
1241.0,0.22914798835785577
1240.0,0.22951619056889205
1239.0,0.22892721677880523
1238.0,0.22723835285596783
1237.0,0.224608028303388
1236.0,0.22112552799726037
1235.0,0.21659671887743648
1234.0,0.21119550695535172
1233.0,0.20516354218543853
1232.0,0.1987335295103798
1231.0,0.19192413190869306
1230.0,0.1849538239353694
1229.0,0.17809362264767703
1228.0,0.1713401034646802
1227.0,0.16462654752999129
1226.0,0.15789023655938994
1225.0,0.15125681810431635
1224.0,0.14484442282300614
1223.0,0.13858508136400327
1222.0,0.1325325121409484
1221.0,0.12685384867174432
1220.0,0.12147820449879343
1219.0,0.11628179803604044
1218.0,0.11125903931710734
1217.0,0.10646015643533868
1216.0,0.10204318999304807
1215.0,0.09794268919153337
1214.0,0.09415017335768128
1213.0,0.09065796163869155
1212.0,0.08740600224789441
1211.0,0.08433639649422697
1210.0,0.08134070657817682
1209.0,0.07852161962430992
1208.0,0.07587584681417514
1207.0,0.07340034609297241
1206.0,0.0709900145060387
1205.0,0.06874559358358656
1204.0,0.06661395809694559
1203.0,0.06454311928839007
1202.0,0.06253226035662252
1201.0,0.06063052992534024
1200.0,0.058786812414678646
1199.0,0.056950888991593285
1198.0,0.055172003656783764
1197.0,0.05340037498486727
1196.0,0.05178270644002936
1195.0,0.050171041064686284
1194.0,0.0486139051197072
1193.0,0.04711073508906982
1192.0,0.045612749855485024
1191.0,0.044167989767578186
1190.0,0.04287180232318688
1189.0,0.04172287445230238
1188.0,0.04076775094900409
1187.0,0.039909932095080425
1186.0,0.03924390909822728
1185.0,0.03886378261277468
1184.0,0.038816290187564384
1183.0,0.03905380426616856
1182.0,0.03943409718180235
1181.0,0.0400527842915015
1180.0,0.04081545726880842
1179.0,0.04172287445230238
1178.0,0.042584285277331047
1177.0,0.04339941178682327
1176.0,0.04402377775167454
1175.0,0.04440844959427559
1174.0,0.044456557540257124
1173.0,0.044071843103049346
1172.0,0.04320747962950522
1171.0,0.04181850243505214
1170.0,0.0400527842915015
1169.0,0.038151940981675736
1168.0,0.03621217265444465
1167.0,0.03437503289075727
1166.0,0.032686081712916426
1165.0,0.03128362253321426
1164.0,0.030164906924202484
1163.0,0.029281296279810798
1162.0,0.02858497661500481
1161.0,0.028075050815808744
1160.0,0.027612000892527133
1159.0,0.027288159452933503
1158.0,0.027195677663422346
1157.0,0.027334407733889066
1156.0,0.027797161620935595
1155.0,0.02863136320857662
1154.0,0.029792641193145286
1153.0,0.03128362253321426
1152.0,0.033154576345083564
1151.0,0.03522197797762394
1150.0,0.037488606492403154
1149.0,0.04010041213405646
1148.0,0.04301563225723992
1147.0,0.046192002334692894
1146.0,0.04958646063061889
1145.0,0.0531548860393769
1144.0,0.05690137699451481
1143.0,0.06063052992534024
1142.0,0.06419054619006714
1141.0,0.0676277178520861
1140.0,0.0709900145060387
1139.0,0.07417242537525759
1138.0,0.07717078033335123
1137.0,0.07998108397108505
1136.0,0.08265206237222844
1135.0,0.08523386307414738
1134.0,0.0877779434675845
1133.0,0.09033701484598189
1132.0,0.09312646527792956
1131.0,0.0960964733098364
1130.0,0.09930522554760213
1129.0,0.1028679566179056
1128.0,0.10684878687013422
1127.0,0.11120293254331926
1126.0,0.11588463798833115
1125.0,0.12090412049992727
1124.0,0.12621453918179926
1123.0,0.1314731132317961
1122.0,0.13649869935854997
1121.0,0.14116214857141451
1120.0,0.14514763758216587
1119.0,0.1480693213597324
1118.0,0.14978275820161047
1117.0,0.1503963419175529
1116.0,0.15002808767114995
1115.0,0.14880282382583943
1114.0,0.14697138528701026
1113.0,0.14526898278605782
1112.0,0.1441175699639643
1111.0,0.14405705376768396
1110.0,0.14539036190420496
1109.0,0.14855818532794496
1108.0,0.1534154971019539
1107.0,0.159517512786558
1106.0,0.16640670600154372
1105.0,0.17386038206408516
1104.0,0.18170810920000413
1103.0,0.18956584407732735
1102.0,0.19729467292564795
1101.0,0.20474581741911724
1100.0,0.21183162885883222
1099.0,0.2182446253475312
1098.0,0.22366209037982476
1097.0,0.22826557461323072
1096.0,0.2321023839819094
1095.0,0.23492779889720805
1094.0,0.2366468912517845
1093.0,0.2376215706880358
1092.0,0.2379219126653609
1091.0,0.23732143627256375
1090.0,0.23582386760966934
1089.0,0.23381030668984004
1088.0,0.23150989482875484
1087.0,0.2287800980504664
1086.0,0.22555603107503486
1085.0,0.22221081256513253
1084.0,0.2187474057515435
1083.0,0.2148838049780799
1082.0,0.21041928783557462
1081.0,0.20558166912585896
1080.0,0.20038379551850105
1079.0,0.1946350925335547
1078.0,0.18849202005467336
1077.0,0.1821703002543944
1076.0,0.17580905934741686
1075.0,0.1693471862025755
1074.0,0.16291684917681404
1073.0,0.15689185800039307
1072.0,0.15125681810431635
1071.0,0.1459369881335788
1070.0,0.1407415825326932
1069.0,0.13572630319562085
1068.0,0.13100309751286465
1067.0,0.126621263590859
1066.0,0.12257105921178035
1065.0,0.1190150095132465
1064.0,0.11594135290606156
1063.0,0.1130019543289007
1062.0,0.11019424813191447
1061.0,0.10773839308446487
1060.0,0.10568393731556158
1059.0,0.10391491457671487
1058.0,0.10242788617426934
1057.0,0.10132965703447017
1056.0,0.10061729446673495
1055.0,0.10017949757290379
1054.0,0.10007011727213588
1053.0,0.10034361969436434
1052.0,0.10111034407341357
1051.0,0.10215306842042837
1050.0,0.10352889952072264
1049.0,0.10507502264045665
1048.0,0.10690433390377163
1047.0,0.10862982530385179
1046.0,0.11025022473596224
1045.0,0.11159583226295333
1044.0,0.11266406960083297
1043.0,0.11339648571328764
1042.0,0.1137349409702435
1041.0,0.1137349409702435
1040.0,0.11345287660889425
1039.0,0.1128329791052256
1038.0,0.11198908775497118
1037.0,0.11103465569966264
1036.0,0.10997041383658313
1035.0,0.10879717273970457
1034.0,0.10746019534136453
1033.0,0.1061827760325369
1032.0,0.10490910306560064
1031.0,0.10363915453068362
1030.0,0.10231793820358015
1029.0,0.10094593200182911
1028.0,0.09963287134352972
1027.0,0.09859617317474823
1026.0,0.09805153492691598
1025.0,0.09870518283443275
1024.0,0.10105553313349058
1023.0,0.10573933555301185
1022.0,0.11317099532301778
1021.0,0.12343578601615435
1020.0,0.13578566953867033
1019.0,0.14868048735125483
1018.0,0.1600822243213189
1017.0,0.16787445746599094
1016.0,0.1705032502798176
1015.0,0.16742722515382025
1014.0,0.15976840504189105
1013.0,0.1495988520028415
1012.0,0.13918303613546223
1011.0,0.12971317100740865
1010.0,0.12165057778222454
1009.0,0.11492161585077598
1008.0,0.10929960230112479
1007.0,0.10441172433373724
1006.0,0.10012480397898926
1005.0,0.0964759355287379
1004.0,0.0935033402006471
1003.0,0.09092559859909577
1002.0,0.08862929288386212
1001.0,0.08650404038287651
1000.0,0.08460016478773014
999.0,0.08280969148843575
998.0,0.08107890990866418
997.0,0.0794592834975203
996.0,0.07794959783282618
995.0,0.07649693305789551
994.0,0.07515236702446293
993.0,0.07401789967289685
992.0,0.07309189829456408
991.0,0.07221915065262552
990.0,0.07139934015547578
989.0,0.07073438174693436
988.0,0.07017251876930874
987.0,0.06966236426227002
986.0,0.06915280831750303
985.0,0.06864384953207203
984.0,0.0681862960408608
983.0,0.06777998612288094
982.0,0.06747550294945781
981.0,0.0671712330991534
980.0,0.06681652082538614
979.0,0.06641148980334699
978.0,0.06605739725873905
977.0,0.06580465065211571
976.0,0.06565307326174441
975.0,0.06550154875643233
974.0,0.06529959828457499
973.0,0.06504729218214189
972.0,0.06469430971007495
971.0,0.06414020196211956
970.0,0.06348625752110681
969.0,0.06268275223750575
968.0,0.061880730805688344
967.0,0.06098022355133348
966.0,0.05998184499233683
965.0,0.05898575629443026
964.0,0.05804158346918653
963.0,0.0571489934456626
962.0,0.05620880107069848
961.0,0.05531996611868961
960.0,0.05443294655761144
959.0,0.05354773498692689
958.0,0.05271335532220167
957.0,0.05197846685889629
956.0,0.05134256785867963
955.0,0.050707598587974356
954.0,0.050073556332087765
953.0,0.04948910701400333
952.0,0.048954051864180226
951.0,0.048468209457651845
950.0,0.04807992647970649
949.0,0.04774046340917959
948.0,0.04744970610179822
947.0,0.04720755695590784
946.0,0.04696554274964315
945.0,0.04667530361081473
944.0,0.04633693625290869
943.0,0.045902279520810385
942.0,0.0454680573730859
941.0,0.0451788169482068
940.0,0.044937930324967956
939.0,0.044793462458058375
938.0,0.04460091336073302
937.0,0.04440844959427559
936.0,0.044167989767578186
935.0,0.04387961360698034
934.0,0.0435434165901003
933.0,0.04320747962950522
932.0,0.042967683653061695
931.0,0.04282386959515394
930.0,0.04272802000705722
929.0,0.04253638427006878
928.0,0.04215336629184985
927.0,0.041579471947481794
926.0,0.04091088563260792
925.0,0.040338629726504704
924.0,0.039909932095080425
923.0,0.03952922246570112
922.0,0.03919637508823026
921.0,0.038816290187564384
920.0,0.038436537637930535
919.0,0.038057116858612794
918.0,0.03767802727041558
917.0,0.037346595106788616
916.0,0.0371573187987575
915.0,0.037062711569998186
914.0,0.0371100126082089
913.0,0.037346595106788616
912.0,0.03786753070176463
911.0,0.03848398855105106
910.0,0.03929144831144349
909.0,0.040243327009005014
908.0,0.04138834223512067
907.0,0.04263219156847242
906.0,0.04402377775167454
905.0,0.045660991397539874
904.0,0.04744970610179822
903.0,0.04919717703534143
902.0,0.05065879322950262
901.0,0.05178270644002936
900.0,0.05261529831525902
899.0,0.05325306496641513
898.0,0.05379344615721715
897.0,0.05423607688882637
896.0,0.054679159207724926
895.0,0.0549255115212699
894.0,0.0549747987575373
893.0,0.0549747987575373
892.0,0.0549255115212699
891.0,0.054876229877880656
890.0,0.0549255115212699
889.0,0.055270639696704205
888.0,0.05586292684190197
887.0,0.05665390164340933
886.0,0.05764465029232335
885.0,0.0588862729628985
884.0,0.060530669156469985
883.0,0.06263258248271053
882.0,0.06514819703433927
881.0,0.0681862960408608
880.0,0.07175781684269089
879.0,0.07572071393811841
878.0,0.08003329851661278
877.0,0.08465293767580806
876.0,0.08932224525729482
875.0,0.09344948089854999
874.0,0.09653017149282994
873.0,0.09832376867362447
872.0,0.09859617317474823
871.0,0.09718153191774648
870.0,0.09431203228814788
869.0,0.09039048950983108
868.0,0.08602728844902896
867.0,0.08155025759884227
866.0,0.07732643214144574
865.0,0.07360609973031784
864.0,0.07042782092345012
863.0,0.0676277178520861
862.0,0.06524912533642091
861.0,0.06333548699992453
860.0,0.06198090252378963
859.0,0.06098022355133348
858.0,0.060231224546650086
857.0,0.05978244440026481
856.0,0.05948351506743288
855.0,0.05923456436878238
854.0,0.058936011780097886
853.0,0.05863766428823891
852.0,0.0583395216116076
851.0,0.05804158346918653
850.0,0.057743849580535134
849.0,0.05754547365752294
848.0,0.05744631966579017
847.0,0.05734718830678798
846.0,0.05729763111133224
845.0,0.05724807957018618
844.0,0.05724807957018618
843.0,0.057198533682059516
842.0,0.056950888991593285
841.0,0.05665390164340933
840.0,0.056406567231630955
839.0,0.056159373598738904
838.0,0.05586292684190197
837.0,0.05546797900801881
836.0,0.0549255115212699
835.0,0.05423607688882637
834.0,0.053449489430144714
833.0,0.05266432405126009
832.0,0.05192951848105887
831.0,0.05119595406718891
830.0,0.050414848673348
829.0,0.04968383607539972
828.0,0.04909991063361274
827.0,0.048565334467987054
826.0,0.04803141550708934
825.0,0.047595060422975566
824.0,0.04725597598510167
823.0,0.0469171560879138
822.0,0.04657860031896477
821.0,0.04628861957244457
820.0,0.046047116768076934
819.0,0.04595055323640551
818.0,0.045902279520810385
817.0,0.045902279520810385
816.0,0.04599883231842972
815.0,0.046047116768076934
814.0,0.04609540658654021
813.0,0.046192002334692894
812.0,0.04628861957244457
811.0,0.04628861957244457
810.0,0.04624030826677128
809.0,0.04628861957244457
808.0,0.04653025674659861
807.0,0.04672366333269573
806.0,0.04677202844014605
805.0,0.04672366333269573
804.0,0.04662694927330402
803.0,0.046481918555007384
802.0,0.04628861957244457
801.0,0.04609540658654021
800.0,0.046143701775014145
799.0,0.04662694927330402
798.0,0.0478374257855374
797.0,0.04982994019179987
796.0,0.05237025261564554
795.0,0.0549255115212699
794.0,0.05685187064143715
793.0,0.05779345772290467
792.0,0.05744631966579017
791.0,0.055912320584565744
790.0,0.05354773498692689
789.0,0.05085404758005607
788.0,0.04827402457540786
787.0,0.045902279520810385
786.0,0.0437835307566099
785.0,0.04186632432376469
784.0,0.04014804520039483
783.0,0.038531444649213764
782.0,0.03701541568300293
781.0,0.035693217696063595
780.0,0.03442204208947208
779.0,0.033295223342125535
778.0,0.032311649546687526
777.0,0.03147035562516054
776.0,0.030770520137356927
775.0,0.029978734171634214
774.0,0.029095501846216454
773.0,0.028028723600243666
772.0,0.026872146400301444
771.0,0.02558042614771394
770.0,0.024292536462819925
769.0,0.023237476732539397
768.0,0.02245929405346514
767.0,0.021819483062586187
766.0,0.02122621566987748
765.0,0.02067930261797568
764.0,0.020087589665283012
763.0,0.019451260640229506
762.0,0.01858915983411169
761.0,0.01768353030793479
760.0,0.016870075265299933
759.0,0.016148281008528276
758.0,0.015517693597737248
757.0,0.014932966849499074
756.0,0.014393916947563534
755.0,0.01385553528947936
754.0,0.013362604389846044
753.0,0.012870232340102872
752.0,0.012467797270160563
751.0,0.012021084124518078
750.0,0.011664044143949504
749.0,0.011619434777991433
748.0,0.0119764380713403
747.0,0.012780770091995297
746.0,0.013990068146738865
745.0,0.016013078034810446
744.0,0.019133445417920836
743.0,0.02365002099672653
742.0,0.029839156962686353
741.0,0.03810452633214956
740.0,0.0486139051197072
739.0,0.06093025007657582
738.0,0.07453319930846214
737.0,0.08905559425002108
736.0,0.10424605792627206
735.0,0.11975822410451964
734.0,0.13537027545448765
733.0,0.15131834597604965
732.0,0.16800232276410365
731.0,0.18568579979254052
730.0,0.20446755728984556
729.0,0.22446236521904295
728.0,0.24526953097624649
727.0,0.26536016101230064
726.0,0.2822463067892844
725.0,0.2937944581180294
724.0,0.2982593675627876
723.0,0.2945639534147495
722.0,0.2826624172761363
721.0,0.264480941184829
720.0,0.2429077798810675
719.0,0.22119779598676126
718.0,0.2014874669686484
717.0,0.18462151503408197
716.0,0.17037464664195068
715.0,0.1583902878315646
714.0,0.14868048735125483
713.0,0.14110204276799654
712.0,0.13519237097385295
711.0,0.13018179202067182
710.0,0.12563416426995122
709.0,0.12165057778222454
708.0,0.11827306462358211
707.0,0.11526126223036814
706.0,0.11238269966426384
705.0,0.10969078310005154
704.0,0.10718217569042365
703.0,0.1047432468551055
702.0,0.10198826120249849
701.0,0.09886874864462802
700.0,0.09550084460218011
699.0,0.09210516458371698
698.0,0.08894897967187343
697.0,0.08618614761628329
696.0,0.08380934001946239
695.0,0.08165507103772507
694.0,0.07951143534170213
693.0,0.07748213975538865
692.0,0.0756173227980268
691.0,0.07406940213152868
690.0,0.07273231918911849
689.0,0.07155293679081787
688.0,0.07047889936889606
687.0,0.06935655895783555
686.0,0.06823711151882228
685.0,0.06727263269847072
684.0,0.06656333217371957
683.0,0.06615853710127872
682.0,0.06590573164451952
681.0,0.06565307326174441
680.0,0.06484555278383164
679.0,0.06338573802478864
678.0,0.061580354206806964
677.0,0.06028111764589528
676.0,0.05973260855398799
675.0,0.05908526241971446
674.0,0.05764465029232335
673.0,0.05561604235915585
672.0,0.05369514500652506
671.0,0.052419250695677544
670.0,0.05163594401163074
669.0,0.05129369109514803
668.0,0.051684859310652254
667.0,0.05212534510230182
666.0,0.05178270644002936
665.0,0.05051241005349638
664.0,0.04837110616336182
663.0,0.046143701775014145
662.0,0.04464904263234004
661.0,0.044312249686494276
660.0,0.04440844959427559
659.0,0.04421607108308856
658.0,0.04383156952463674
657.0,0.04397571771932274
656.0,0.04484161307420642
655.0,0.045564513671517703
654.0,0.04508244626504121
653.0,0.043495409683302455
652.0,0.04186632432376469
651.0,0.040958607678906356
650.0,0.04062466342415694
649.0,0.04038628892895613
648.0,0.03981472339538916
647.0,0.039338992729018196
646.0,0.03938654235209116
645.0,0.04019568349166214
644.0,0.041340572947066834
643.0,0.04196198390166317
642.0,0.0417706858116178
641.0,0.041197296600497646
640.0,0.04124505013091051
639.0,0.04215336629184985
638.0,0.043735497301724546
637.0,0.045612749855485024
636.0,0.047643522676209304
635.0,0.04958646063061889
634.0,0.051098239029786274
633.0,0.05212534510230182
632.0,0.05290953578037816
631.0,0.053203972728539606
630.0,0.05232126006306337
629.0,0.050073556332087765
628.0,0.0469171560879138
627.0,0.0439276630048171
626.0,0.042201225070002124
625.0,0.042201225070002124
624.0,0.043303435105349175
623.0,0.04455278942230456
622.0,0.045323413081356456
621.0,0.045660991397539874
620.0,0.045660991397539874
619.0,0.04513062893352182
618.0,0.04411991377462465
617.0,0.0431115453499229
616.0,0.042392712939904875
615.0,0.041340572947066834
614.0,0.03962436858984186
613.0,0.03810452633214956
612.0,0.038057116858612794
611.0,0.03967194946985697
610.0,0.04167506835594681
609.0,0.04282386959515394
608.0,0.042967683653061695
607.0,0.04272802000705722
606.0,0.04248848854552012
605.0,0.041914151478914974
604.0,0.04062466342415694
603.0,0.038673844065289176
602.0,0.03753595394209874
601.0,0.03886378261277468
600.0,0.04248848854552012
