cm-1,A
4000.0,0.009616741093766423
3999.0,0.00966114521239847
3998.0,0.009705553871561357
3997.0,0.00974996707218323
3996.0,0.009794384815193347
3995.0,0.00974996707218323
3994.0,0.009705553871561357
3993.0,0.00966114521239847
3992.0,0.00966114521239847
3991.0,0.00966114521239847
3990.0,0.00974996707218323
3989.0,0.009794384815193347
3988.0,0.009794384815193347
3987.0,0.00974996707218323
3986.0,0.00966114521239847
3985.0,0.009616741093766423
3984.0,0.009572341514736404
3983.0,0.009572341514736404
3982.0,0.009572341514736404
3981.0,0.009527946474380489
3980.0,0.009483555971770974
3979.0,0.00939478857608056
3978.0,0.009350411681145587
3977.0,0.009350411681145587
3976.0,0.00939478857608056
3975.0,0.009483555971770974
3974.0,0.009572341514736404
3973.0,0.009616741093766423
3972.0,0.009572341514736404
3971.0,0.009572341514736404
3970.0,0.009572341514736404
3969.0,0.009616741093766423
3968.0,0.00966114521239847
3967.0,0.00966114521239847
3966.0,0.009616741093766423
3965.0,0.009527946474380489
3964.0,0.009439170005980158
3963.0,0.009439170005980158
3962.0,0.009439170005980158
3961.0,0.009483555971770974
3960.0,0.009572341514736404
3959.0,0.00966114521239847
3958.0,0.00974996707218323
3957.0,0.00974996707218323
3956.0,0.009705553871561357
3955.0,0.00966114521239847
3954.0,0.009572341514736404
3953.0,0.009527946474380489
3952.0,0.009483555971770974
3951.0,0.009483555971770974
3950.0,0.009483555971770974
3949.0,0.009439170005980158
3948.0,0.009439170005980158
3947.0,0.009350411681145587
3946.0,0.009350411681145587
3945.0,0.00939478857608056
3944.0,0.009483555971770974
3943.0,0.009527946474380489
3942.0,0.009527946474380489
3941.0,0.009483555971770974
3940.0,0.009483555971770974
3939.0,0.009527946474380489
3938.0,0.009483555971770974
3937.0,0.00939478857608056
3936.0,0.009306039320248427
3935.0,0.009261671492462709
3934.0,0.009350411681145587
3933.0,0.009439170005980158
3932.0,0.009527946474380489
3931.0,0.009527946474380489
3930.0,0.00939478857608056
3929.0,0.009217308196862062
3928.0,0.009039900317800775
3927.0,0.008995559669244813
3926.0,0.009039900317800775
3925.0,0.009128595198514056
3924.0,0.009128595198514056
3923.0,0.009128595198514056
3922.0,0.009128595198514056
3921.0,0.009217308196862062
3920.0,0.009306039320248427
3919.0,0.009439170005980158
3918.0,0.009572341514736404
3917.0,0.00966114521239847
3916.0,0.009616741093766423
3915.0,0.009616741093766423
3914.0,0.009616741093766423
3913.0,0.009705553871561357
3912.0,0.009705553871561357
3911.0,0.00966114521239847
3910.0,0.009616741093766423
3909.0,0.009527946474380489
3908.0,0.00939478857608056
3907.0,0.009217308196862062
3906.0,0.008995559669244813
3905.0,0.008862564879688284
3904.0,0.0087296108049002
3903.0,0.008640997362049818
3902.0,0.008818242332126802
3901.0,0.009217308196862062
3900.0,0.009572341514736404
3899.0,0.009616741093766423
3898.0,0.009483555971770974
3897.0,0.009306039320248427
3896.0,0.009217308196862062
3895.0,0.009128595198514056
3894.0,0.00908424549391551
3893.0,0.009128595198514056
3892.0,0.009217308196862062
3891.0,0.00908424549391551
3890.0,0.008862564879688284
3889.0,0.008818242332126802
3888.0,0.009128595198514056
3887.0,0.009483555971770974
3886.0,0.009527946474380489
3885.0,0.009172949432521227
3884.0,0.008818242332126802
3883.0,0.008818242332126802
3882.0,0.009172949432521227
3881.0,0.009439170005980158
3880.0,0.00939478857608056
3879.0,0.009128595198514056
3878.0,0.008995559669244813
3877.0,0.009128595198514056
3876.0,0.009350411681145587
3875.0,0.009306039320248427
3874.0,0.008951223547323472
3873.0,0.008596697419959609
3872.0,0.008552401996197112
3871.0,0.008818242332126802
3870.0,0.008906891951112605
3869.0,0.008596697419959609
3868.0,0.008375265465994541
3867.0,0.008596697419959609
3866.0,0.008951223547323472
3865.0,0.009039900317800775
3864.0,0.008995559669244813
3863.0,0.008995559669244813
3862.0,0.00908424549391551
3861.0,0.009261671492462709
3860.0,0.009306039320248427
3859.0,0.009217308196862062
3858.0,0.008995559669244813
3857.0,0.0087296108049002
3856.0,0.008596697419959609
3855.0,0.008818242332126802
3854.0,0.009261671492462709
3853.0,0.009128595198514056
3852.0,0.008596697419959609
3851.0,0.008640997362049818
3850.0,0.009261671492462709
3849.0,0.009572341514736404
3848.0,0.009527946474380489
3847.0,0.009306039320248427
3846.0,0.009128595198514056
3845.0,0.008951223547323472
3844.0,0.008818242332126802
3843.0,0.008596697419959609
3842.0,0.008375265465994541
3841.0,0.008198201155356077
3840.0,0.008153946355103248
3839.0,0.008286724286910463
3838.0,0.008419542825660153
3837.0,0.00850811108984062
3836.0,0.008640997362049818
3835.0,0.008818242332126802
3834.0,0.00908424549391551
3833.0,0.009261671492462709
3832.0,0.009306039320248427
3831.0,0.009217308196862062
3830.0,0.00908424549391551
3829.0,0.009128595198514056
3828.0,0.009261671492462709
3827.0,0.009217308196862062
3826.0,0.008906891951112605
3825.0,0.008552401996197112
3824.0,0.008419542825660153
3823.0,0.008685301823389224
3822.0,0.009128595198514056
3821.0,0.009172949432521227
3820.0,0.008640997362049818
3819.0,0.008375265465994541
3818.0,0.0087296108049002
3817.0,0.009306039320248427
3816.0,0.009616741093766423
3815.0,0.009572341514736404
3814.0,0.009572341514736404
3813.0,0.009794384815193347
3812.0,0.009838807101520963
3811.0,0.009572341514736404
3810.0,0.009217308196862062
3809.0,0.009039900317800775
3808.0,0.00908424549391551
3807.0,0.008951223547323472
3806.0,0.008552401996197112
3805.0,0.008242460465651913
3804.0,0.008375265465994541
3803.0,0.008862564879688284
3802.0,0.009261671492462709
3801.0,0.009217308196862062
3800.0,0.008818242332126802
3799.0,0.008818242332126802
3798.0,0.009172949432521227
3797.0,0.00939478857608056
3796.0,0.00939478857608056
3795.0,0.009306039320248427
3794.0,0.00939478857608056
3793.0,0.009572341514736404
3792.0,0.00966114521239847
3791.0,0.009705553871561357
3790.0,0.009616741093766423
3789.0,0.009572341514736404
3788.0,0.009483555971770974
3787.0,0.009439170005980158
3786.0,0.009439170005980158
3785.0,0.00939478857608056
3784.0,0.009261671492462709
3783.0,0.009172949432521227
3782.0,0.009261671492462709
3781.0,0.009483555971770974
3780.0,0.009705553871561357
3779.0,0.00974996707218323
3778.0,0.009705553871561357
3777.0,0.00974996707218323
3776.0,0.009927665307847056
3775.0,0.009972101229705377
3774.0,0.009838807101520963
3773.0,0.00966114521239847
3772.0,0.009572341514736404
3771.0,0.00966114521239847
3770.0,0.00966114521239847
3769.0,0.009527946474380489
3768.0,0.009483555971770974
3767.0,0.00966114521239847
3766.0,0.009794384815193347
3765.0,0.00974996707218323
3764.0,0.009527946474380489
3763.0,0.00939478857608056
3762.0,0.00939478857608056
3761.0,0.00939478857608056
3760.0,0.009350411681145587
3759.0,0.009306039320248427
3758.0,0.009217308196862062
3757.0,0.00908424549391551
3756.0,0.008995559669244813
3755.0,0.008906891951112605
3754.0,0.008862564879688284
3753.0,0.008818242332126802
3752.0,0.008906891951112605
3751.0,0.009039900317800775
3750.0,0.008951223547323472
3749.0,0.008640997362049818
3748.0,0.008640997362049818
3747.0,0.00908424549391551
3746.0,0.009883233932095559
3745.0,0.010416710688994968
3744.0,0.01001654169860089
3743.0,0.009128595198514056
3742.0,0.008862564879688284
3741.0,0.008995559669244813
3740.0,0.008862564879688284
3739.0,0.008419542825660153
3738.0,0.007932739972333236
3737.0,0.00762324020119709
3736.0,0.007490664932224611
3735.0,0.0074464821678643656
3734.0,0.007667440952535687
3733.0,0.008065450281052211
3732.0,0.008419542825660153
3731.0,0.008552401996197112
3730.0,0.008640997362049818
3729.0,0.008818242332126802
3728.0,0.008951223547323472
3727.0,0.008951223547323472
3726.0,0.008818242332126802
3725.0,0.008685301823389224
3724.0,0.008685301823389224
3723.0,0.008818242332126802
3722.0,0.008995559669244813
3721.0,0.009128595198514056
3720.0,0.009350411681145587
3719.0,0.009483555971770974
3718.0,0.009527946474380489
3717.0,0.009350411681145587
3716.0,0.009172949432521227
3715.0,0.009039900317800775
3714.0,0.008951223547323472
3713.0,0.008906891951112605
3712.0,0.008862564879688284
3711.0,0.008818242332126802
3710.0,0.008862564879688284
3709.0,0.008995559669244813
3708.0,0.009261671492462709
3707.0,0.009439170005980158
3706.0,0.009483555971770974
3705.0,0.009527946474380489
3704.0,0.009572341514736404
3703.0,0.00974996707218323
3702.0,0.009883233932095559
3701.0,0.009972101229705377
3700.0,0.010060986715464404
3699.0,0.010327752376126709
3698.0,0.010639186223752484
3697.0,0.010817248744452446
3696.0,0.010728208358306901
3695.0,0.010416710688994968
3694.0,0.010149890396819572
3693.0,0.009883233932095559
3692.0,0.009794384815193347
3691.0,0.009972101229705377
3690.0,0.01046119667949763
3689.0,0.01086177578421088
3688.0,0.010950843561779777
3687.0,0.011039929609661936
3686.0,0.011351874764248926
3685.0,0.011753276624621556
3684.0,0.011887159731648111
3683.0,0.011753276624621556
3682.0,0.011485634166333858
3681.0,0.011218156546359825
3680.0,0.01086177578421088
3679.0,0.01046119667949763
3678.0,0.01023881228122181
3677.0,0.01037222925484893
3676.0,0.010683695010048622
3675.0,0.010505687227290839
3674.0,0.010149890396819572
3673.0,0.010327752376126709
3672.0,0.010950843561779777
3671.0,0.011441043121384498
3670.0,0.011664044143949504
3669.0,0.011574829993696856
3668.0,0.011574829993696856
3667.0,0.011931796607364653
3666.0,0.012289056869694281
3665.0,0.012423105273012602
3664.0,0.012423105273012602
3663.0,0.012378417874516323
3662.0,0.012333735073725371
3661.0,0.012244383261476699
3660.0,0.012065734767841452
3659.0,0.011887159731648111
3658.0,0.011842527443247208
3657.0,0.011797899741219142
3656.0,0.011708658092512314
3655.0,0.011441043121384498
3654.0,0.01117359295472431
3653.0,0.010950843561779777
3652.0,0.010639186223752484
3651.0,0.010416710688994968
3650.0,0.010505687227290839
3649.0,0.01077272626946324
3648.0,0.010906307389674463
3647.0,0.011039929609661936
3646.0,0.011307297450183107
3645.0,0.011619434777991433
3644.0,0.011887159731648111
3643.0,0.012021084124518078
3642.0,0.012021084124518078
3641.0,0.0119764380713403
3640.0,0.011931796607364653
3639.0,0.011887159731648111
3638.0,0.011797899741219142
3637.0,0.011708658092512314
3636.0,0.011619434777991433
3635.0,0.011530229790124524
3634.0,0.011307297450183107
3633.0,0.010950843561779777
3632.0,0.010639186223752484
3631.0,0.010594681998483901
3630.0,0.010817248744452446
3629.0,0.011129033935354915
3628.0,0.010995384301463185
3627.0,0.010906307389674463
3626.0,0.011218156546359825
3625.0,0.011574829993696856
3624.0,0.011574829993696856
3623.0,0.011441043121384498
3622.0,0.011218156546359825
3621.0,0.011129033935354915
3620.0,0.011084479487313281
3619.0,0.010995384301463185
3618.0,0.010817248744452446
3617.0,0.01077272626946324
3616.0,0.01086177578421088
3615.0,0.010950843561779777
3614.0,0.010950843561779777
3613.0,0.01086177578421088
3612.0,0.01086177578421088
3611.0,0.011039929609661936
3610.0,0.011396456654336085
3609.0,0.011753276624621556
3608.0,0.011887159731648111
3607.0,0.011797899741219142
3606.0,0.011619434777991433
3605.0,0.011485634166333858
3604.0,0.011396456654336085
3603.0,0.011307297450183107
3602.0,0.011262724711199823
3601.0,0.011307297450183107
3600.0,0.011307297450183107
3599.0,0.011262724711199823
3598.0,0.01117359295472431
3597.0,0.011129033935354915
3596.0,0.011129033935354915
3595.0,0.01117359295472431
3594.0,0.011262724711199823
3593.0,0.011307297450183107
3592.0,0.011307297450183107
3591.0,0.011307297450183107
3590.0,0.011351874764248926
3589.0,0.011485634166333858
3588.0,0.011753276624621556
3587.0,0.011931796607364653
3586.0,0.012021084124518078
3585.0,0.012110390002254778
3584.0,0.012333735073725371
3583.0,0.012557195064198723
3582.0,0.01264661126420652
3581.0,0.012736045877764557
3580.0,0.012780770091995297
3579.0,0.012825498912458322
3578.0,0.012825498912458322
3577.0,0.012780770091995297
3576.0,0.012736045877764557
3575.0,0.012780770091995297
3574.0,0.012825498912458322
3573.0,0.012825498912458322
3572.0,0.012780770091995297
3571.0,0.01264661126420652
3570.0,0.012512493866907004
3569.0,0.012467797270160563
3568.0,0.01260190086298274
3567.0,0.012736045877764557
3566.0,0.012825498912458322
3565.0,0.012870232340102872
3564.0,0.013004460275618523
3563.0,0.01322826573375524
3562.0,0.013362604389846044
3561.0,0.013452186585275916
3560.0,0.013496984613259544
3559.0,0.013496984613259544
3558.0,0.013496984613259544
3557.0,0.013496984613259544
3556.0,0.013496984613259544
3555.0,0.013496984613259544
3554.0,0.013586594534531482
3553.0,0.013676222949234651
3552.0,0.01372104409400876
3551.0,0.013676222949234651
3550.0,0.013631406429727155
3549.0,0.013631406429727155
3548.0,0.01372104409400876
3547.0,0.013900374944870508
3546.0,0.014079779876432497
3545.0,0.014169510141607944
3544.0,0.014124642691606404
3543.0,0.013990068146738865
3542.0,0.013945219230304673
3541.0,0.013990068146738865
3540.0,0.014079779876432497
3539.0,0.014169510141607944
3538.0,0.014259258949925524
3537.0,0.014304140310157809
3536.0,0.014349026309051105
3535.0,0.014393916947563534
3534.0,0.014393916947563534
3533.0,0.014349026309051105
3532.0,0.014259258949925524
3531.0,0.014169510141607944
3530.0,0.014079779876432497
3529.0,0.014079779876432497
3528.0,0.014124642691606404
3527.0,0.014079779876432497
3526.0,0.013945219230304673
3525.0,0.01385553528947936
3524.0,0.01385553528947936
3523.0,0.013945219230304673
3522.0,0.014079779876432497
3521.0,0.014214382227394795
3520.0,0.014349026309051105
3519.0,0.014438812226654996
3518.0,0.014573525916998342
3517.0,0.014663358264387139
3516.0,0.014708281407112
3515.0,0.014708281407112
3514.0,0.014753209197138295
3513.0,0.014753209197138295
3512.0,0.014798141635428141
3511.0,0.014888020460646079
3510.0,0.014932966849499074
3509.0,0.014888020460646079
3508.0,0.014753209197138295
3507.0,0.014573525916998342
3506.0,0.014393916947563534
3505.0,0.014349026309051105
3504.0,0.0144837121472845
3503.0,0.014708281407112
3502.0,0.014888020460646079
3501.0,0.015022873584506602
3500.0,0.015022873584506602
3499.0,0.014977917890464765
3498.0,0.014932966849499074
3497.0,0.014888020460646079
3496.0,0.014977917890464765
3495.0,0.015067833932588037
3494.0,0.015202742910707112
3493.0,0.015247721884586563
3492.0,0.015202742910707112
3491.0,0.015112798935672522
3490.0,0.015067833932588037
3489.0,0.015067833932588037
3488.0,0.015157768594724175
3487.0,0.015292705517326866
3486.0,0.015427684378367834
3485.0,0.015517693597737248
3484.0,0.015607721475734415
3483.0,0.015607721475734415
3482.0,0.015562705203923999
3481.0,0.015517693597737248
3480.0,0.015562705203923999
3479.0,0.015607721475734415
3478.0,0.015697768020096703
3477.0,0.015832872853011715
3476.0,0.016013078034810446
3475.0,0.016148281008528276
3474.0,0.016238439713835096
3473.0,0.016238439713835096
3472.0,0.016193358021584725
3471.0,0.016148281008528276
3470.0,0.016058141016111804
3469.0,0.016058141016111804
3468.0,0.016103208673694303
3467.0,0.016148281008528276
3466.0,0.016193358021584725
3465.0,0.016238439713835096
3464.0,0.01632861713980338
3463.0,0.01646391839700767
3462.0,0.016644385668211692
3461.0,0.016734647433454652
3460.0,0.01677978535189717
3459.0,0.016824927962187042
3458.0,0.016915227262211507
3457.0,0.017005545341335804
3456.0,0.017050711425501408
3455.0,0.017095882207371904
3454.0,0.017050711425501408
3453.0,0.017005545341335804
3452.0,0.016960383953898095
3451.0,0.016960383953898095
3450.0,0.017050711425501408
3449.0,0.017231422748988034
3448.0,0.017412209298337533
3447.0,0.017547848615010242
3446.0,0.017638298366853045
3445.0,0.017728766960431575
3444.0,0.017864505196230507
3443.0,0.018045555530026514
3442.0,0.018181392829336396
3441.0,0.01831727262871463
3440.0,0.018543833477873584
3439.0,0.018815862601645694
3438.0,0.0190880622231564
3437.0,0.019269623464054586
3436.0,0.019360432556262852
3435.0,0.019360432556262852
3434.0,0.01940584422377989
3433.0,0.019451260640229506
3432.0,0.01954210772389997
3431.0,0.01958753839310856
3430.0,0.01958753839310856
3429.0,0.01949668180660491
3428.0,0.019360432556262852
3427.0,0.019269623464054586
3426.0,0.019269623464054586
3425.0,0.0192242260373785
3424.0,0.019178833355664393
3423.0,0.019042683770379876
3422.0,0.01899731005860028
3421.0,0.01899731005860028
3420.0,0.01899731005860028
3419.0,0.018951941086827073
3418.0,0.018906576854070378
3417.0,0.018770512579999288
3416.0,0.018679826740892747
3415.0,0.01858915983411169
3414.0,0.01845319495476394
3413.0,0.018362575344230914
3412.0,0.01831727262871463
3411.0,0.01831727262871463
3410.0,0.01831727262871463
3409.0,0.01831727262871463
3408.0,0.018271974638383703
3407.0,0.018136109008649592
3406.0,0.018045555530026514
3405.0,0.01800028587012159
3404.0,0.018045555530026514
3403.0,0.018181392829336396
3402.0,0.01831727262871463
3401.0,0.01840788278591865
3400.0,0.018362575344230914
3399.0,0.018226681372252695
3398.0,0.01809082990920774
3397.0,0.017955020928509757
3396.0,0.017864505196230507
3395.0,0.017864505196230507
3394.0,0.017864505196230507
3393.0,0.017955020928509757
3392.0,0.018045555530026514
3391.0,0.018136109008649592
3390.0,0.018181392829336396
3389.0,0.018226681372252695
3388.0,0.018226681372252695
3387.0,0.018226681372252695
3386.0,0.018226681372252695
3385.0,0.018271974638383703
3384.0,0.01831727262871463
3383.0,0.018362575344230914
3382.0,0.01840788278591865
3381.0,0.01845319495476394
3380.0,0.01840788278591865
3379.0,0.018362575344230914
3378.0,0.01831727262871463
3377.0,0.01831727262871463
3376.0,0.01845319495476394
3375.0,0.018634490921455527
3374.0,0.018725167293411005
3373.0,0.018770512579999288
3372.0,0.018725167293411005
3371.0,0.018725167293411005
3370.0,0.018815862601645694
3369.0,0.018951941086827073
3368.0,0.019042683770379876
3367.0,0.0190880622231564
3366.0,0.019133445417920836
3365.0,0.019133445417920836
3364.0,0.019042683770379876
3363.0,0.018906576854070378
3362.0,0.018815862601645694
3361.0,0.018861217359339655
3360.0,0.019042683770379876
3359.0,0.019315025636685412
3358.0,0.01954210772389997
3357.0,0.019678413991243593
3356.0,0.019769308608968306
3355.0,0.019814763052665052
3354.0,0.019814763052665052
3353.0,0.019860222254245663
3352.0,0.01990568621470623
3351.0,0.019996628416253603
3350.0,0.020087589665283012
3349.0,0.02022406727031445
3348.0,0.02026956933771462
3347.0,0.02026956933771462
3346.0,0.02022406727031445
3345.0,0.020178569969774962
3344.0,0.020178569969774962
3343.0,0.02022406727031445
3342.0,0.02026956933771462
3341.0,0.020315076172974234
3340.0,0.02026956933771462
3339.0,0.02022406727031445
3338.0,0.02022406727031445
3337.0,0.02022406727031445
3336.0,0.020315076172974234
3335.0,0.02045162529590483
3334.0,0.020542681902151694
3333.0,0.02058821736556471
3332.0,0.02058821736556471
3331.0,0.020497151212598652
3330.0,0.020497151212598652
3329.0,0.020497151212598652
3328.0,0.020633757603838898
3327.0,0.020770406977844713
3326.0,0.020907099361673565
3325.0,0.020952673052035298
3324.0,0.020952673052035298
3323.0,0.020952673052035298
3322.0,0.020952673052035298
3321.0,0.0209982515252789
3320.0,0.021089422824428272
3319.0,0.02122621566987748
3318.0,0.021317434843055594
3317.0,0.021363051615525652
3316.0,0.021363051615525652
3315.0,0.021363051615525652
3314.0,0.021363051615525652
3313.0,0.021363051615525652
3312.0,0.021317434843055594
3311.0,0.021271822861508305
3310.0,0.02122621566987748
3309.0,0.0211806132671577
3308.0,0.0211806132671577
3307.0,0.021271822861508305
3306.0,0.02140867317992523
3305.0,0.02159120737696063
3304.0,0.021773818325474092
3303.0,0.021819483062586187
3302.0,0.021728158389364705
3301.0,0.021545566634771474
3300.0,0.02140867317992523
3299.0,0.021271822861508305
3298.0,0.021271822861508305
3297.0,0.021363051615525652
3296.0,0.02159120737696063
3295.0,0.021728158389364705
3294.0,0.021773818325474092
3293.0,0.021728158389364705
3292.0,0.021636852916117055
3291.0,0.021636852916117055
3290.0,0.021728158389364705
3289.0,0.021819483062586187
3288.0,0.021819483062586187
3287.0,0.021728158389364705
3286.0,0.02159120737696063
3285.0,0.021545566634771474
3284.0,0.021499930688540836
3283.0,0.021499930688540836
3282.0,0.0214542995372613
3281.0,0.021317434843055594
3280.0,0.0211806132671577
3279.0,0.0209982515252789
3278.0,0.02081596632558158
3277.0,0.020724852408976924
3276.0,0.02067930261797568
3275.0,0.020633757603838898
3274.0,0.02058821736556471
3273.0,0.02058821736556471
3272.0,0.020542681902151694
3271.0,0.020542681902151694
3270.0,0.020497151212598652
3269.0,0.020406104151069693
3268.0,0.020315076172974234
3267.0,0.02026956933771462
3266.0,0.02022406727031445
3265.0,0.02022406727031445
3264.0,0.020178569969774962
3263.0,0.02013307743509718
3262.0,0.020087589665283012
3261.0,0.02004210665933459
3260.0,0.019996628416253603
3259.0,0.01990568621470623
3258.0,0.019723858922159776
3257.0,0.01949668180660491
3256.0,0.019360432556262852
3255.0,0.019315025636685412
3254.0,0.019315025636685412
3253.0,0.019360432556262852
3252.0,0.019360432556262852
3251.0,0.019360432556262852
3250.0,0.019269623464054586
3249.0,0.019178833355664393
3248.0,0.0190880622231564
3247.0,0.01899731005860028
3246.0,0.018906576854070378
3245.0,0.018861217359339655
3244.0,0.018815862601645694
3243.0,0.018815862601645694
3242.0,0.018861217359339655
3241.0,0.018815862601645694
3240.0,0.018725167293411005
3239.0,0.018543833477873584
3238.0,0.01840788278591865
3237.0,0.018271974638383703
3236.0,0.018226681372252695
3235.0,0.018226681372252695
3234.0,0.018226681372252695
3233.0,0.018271974638383703
3232.0,0.018226681372252695
3231.0,0.018136109008649592
3230.0,0.018045555530026514
3229.0,0.017955020928509757
3228.0,0.017864505196230507
3227.0,0.017864505196230507
3226.0,0.017909760704207134
3225.0,0.017955020928509757
3224.0,0.01800028587012159
3223.0,0.017909760704207134
3222.0,0.017728766960431575
3221.0,0.017502630802287644
3220.0,0.017321806616515723
3219.0,0.01727661233145472
3218.0,0.017321806616515723
3217.0,0.017412209298337533
3216.0,0.017457417697056554
3215.0,0.017457417697056554
3214.0,0.017412209298337533
3213.0,0.017367005605150476
3212.0,0.017321806616515723
3211.0,0.01727661233145472
3210.0,0.017231422748988034
3209.0,0.017186237868137555
3208.0,0.017141057687924732
3207.0,0.017095882207371904
3206.0,0.017095882207371904
3205.0,0.017050711425501408
3204.0,0.017005545341335804
3203.0,0.017005545341335804
3202.0,0.017005545341335804
3201.0,0.016960383953898095
3200.0,0.016960383953898095
3199.0,0.016915227262211507
3198.0,0.016824927962187042
3197.0,0.016734647433454652
3196.0,0.016644385668211692
3195.0,0.016599261819461697
3194.0,0.016554142658660398
3193.0,0.016554142658660398
3192.0,0.016554142658660398
3191.0,0.016554142658660398
3190.0,0.016554142658660398
3189.0,0.016554142658660398
3188.0,0.016554142658660398
3187.0,0.016554142658660398
3186.0,0.01646391839700767
3185.0,0.016373712875465518
3184.0,0.01628352608625061
3183.0,0.016193358021584725
3182.0,0.016148281008528276
3181.0,0.016148281008528276
3180.0,0.016058141016111804
3179.0,0.016013078034810446
3178.0,0.015922966097169144
3177.0,0.015922966097169144
3176.0,0.01596801972881945
3175.0,0.016013078034810446
3174.0,0.01596801972881945
3173.0,0.015877917138889863
3172.0,0.015877917138889863
3171.0,0.015922966097169144
3170.0,0.015922966097169144
3169.0,0.015832872853011715
3168.0,0.015742798294583915
3167.0,0.015607721475734415
3166.0,0.015517693597737248
3165.0,0.015427684378367834
3164.0,0.015292705517326866
3163.0,0.015202742910707112
3162.0,0.015202742910707112
3161.0,0.015247721884586563
3160.0,0.015337693809893471
3159.0,0.015427684378367834
3158.0,0.015427684378367834
3157.0,0.015427684378367834
3156.0,0.01538268676325183
3155.0,0.015337693809893471
3154.0,0.015292705517326866
3153.0,0.015337693809893471
3152.0,0.01538268676325183
3151.0,0.01538268676325183
3150.0,0.015337693809893471
3149.0,0.015247721884586563
3148.0,0.015157768594724175
3147.0,0.015112798935672522
3146.0,0.015022873584506602
3145.0,0.014977917890464765
3144.0,0.014888020460646079
3143.0,0.014843078722943437
3142.0,0.014843078722943437
3141.0,0.014888020460646079
3140.0,0.014977917890464765
3139.0,0.015022873584506602
3138.0,0.015022873584506602
3137.0,0.014977917890464765
3136.0,0.014888020460646079
3135.0,0.014843078722943437
3134.0,0.014888020460646079
3133.0,0.015022873584506602
3132.0,0.015157768594724175
3131.0,0.015247721884586563
3130.0,0.015292705517326866
3129.0,0.015292705517326866
3128.0,0.015247721884586563
3127.0,0.015157768594724175
3126.0,0.015067833932588037
3125.0,0.014932966849499074
3124.0,0.014843078722943437
3123.0,0.014843078722943437
3122.0,0.014888020460646079
3121.0,0.014977917890464765
3120.0,0.015112798935672522
3119.0,0.015247721884586563
3118.0,0.015337693809893471
3117.0,0.01538268676325183
3116.0,0.015427684378367834
3115.0,0.015427684378367834
3114.0,0.01547268665620738
3113.0,0.015517693597737248
3112.0,0.015517693597737248
3111.0,0.015562705203923999
3110.0,0.015607721475734415
3109.0,0.015697768020096703
3108.0,0.015832872853011715
3107.0,0.01596801972881945
3106.0,0.016058141016111804
3105.0,0.016148281008528276
3104.0,0.016193358021584725
3103.0,0.016193358021584725
3102.0,0.016193358021584725
3101.0,0.016238439713835096
3100.0,0.016238439713835096
3099.0,0.016193358021584725
3098.0,0.016148281008528276
3097.0,0.016103208673694303
3096.0,0.016013078034810446
3095.0,0.01596801972881945
3094.0,0.01596801972881945
3093.0,0.016013078034810446
3092.0,0.016103208673694303
3091.0,0.01628352608625061
3090.0,0.016418813294209356
3089.0,0.016509028184833463
3088.0,0.016509028184833463
3087.0,0.016554142658660398
3086.0,0.016644385668211692
3085.0,0.016734647433454652
3084.0,0.016870075265299933
3083.0,0.016960383953898095
3082.0,0.017005545341335804
3081.0,0.016960383953898095
3080.0,0.016960383953898095
3079.0,0.016960383953898095
3078.0,0.017050711425501408
3077.0,0.017050711425501408
3076.0,0.017005545341335804
3075.0,0.016960383953898095
3074.0,0.016915227262211507
3073.0,0.016960383953898095
3072.0,0.017050711425501408
3071.0,0.017141057687924732
3070.0,0.017141057687924732
3069.0,0.017095882207371904
3068.0,0.017005545341335804
3067.0,0.016915227262211507
3066.0,0.016870075265299933
3065.0,0.016870075265299933
3064.0,0.016960383953898095
3063.0,0.017005545341335804
3062.0,0.017050711425501408
3061.0,0.017050711425501408
3060.0,0.017050711425501408
3059.0,0.017050711425501408
3058.0,0.017095882207371904
3057.0,0.017141057687924732
3056.0,0.017231422748988034
3055.0,0.017321806616515723
3054.0,0.017367005605150476
3053.0,0.017367005605150476
3052.0,0.01727661233145472
3051.0,0.017095882207371904
3050.0,0.016870075265299933
3049.0,0.016599261819461697
3048.0,0.01632861713980338
3047.0,0.016058141016111804
3046.0,0.015877917138889863
3045.0,0.015742798294583915
3044.0,0.015607721475734415
3043.0,0.015562705203923999
3042.0,0.01547268665620738
3041.0,0.015427684378367834
3040.0,0.01538268676325183
3039.0,0.01538268676325183
3038.0,0.01538268676325183
3037.0,0.01538268676325183
3036.0,0.015427684378367834
3035.0,0.01547268665620738
3034.0,0.015562705203923999
3033.0,0.015697768020096703
3032.0,0.015742798294583915
3031.0,0.01578783323856614
3030.0,0.01578783323856614
3029.0,0.015877917138889863
3028.0,0.016013078034810446
3027.0,0.016193358021584725
3026.0,0.016418813294209356
3025.0,0.016644385668211692
3024.0,0.016824927962187042
3023.0,0.017005545341335804
3022.0,0.017231422748988034
3021.0,0.017502630802287644
3020.0,0.01781925440359733
3019.0,0.018181392829336396
3018.0,0.018543833477873584
3017.0,0.018906576854070378
3016.0,0.019269623464054586
3015.0,0.01949668180660491
3014.0,0.019723858922159776
3013.0,0.01995115493504329
3012.0,0.020178569969774962
3011.0,0.020542681902151694
3010.0,0.020952673052035298
3009.0,0.021317434843055594
3008.0,0.02168250325324883
3007.0,0.02204787879853809
3006.0,0.022367834754000393
3005.0,0.022688026603074007
3004.0,0.02296266477531872
3003.0,0.023283295636617574
3002.0,0.023604163388120325
3001.0,0.023925268380126097
3000.0,0.024292536462819925
2999.0,0.024706084643793647
2998.0,0.025074013910237447
2997.0,0.025350165561278004
2996.0,0.02558042614771394
2995.0,0.025856900097785074
2994.0,0.02613355016462182
2993.0,0.02654885597506529
2992.0,0.02710321556345563
2991.0,0.027658283674251827
2990.0,0.02812138297373412
2989.0,0.02849221828874393
2988.0,0.028677754757187035
2987.0,0.028816959143838528
2986.0,0.029002634427514717
2985.0,0.029281296279810798
2984.0,0.02960662792039992
2983.0,0.03002526987828502
2982.0,0.030444315779156517
2981.0,0.030910397045078586
2980.0,0.03137697904301118
2979.0,0.03179733185715028
2978.0,0.03226486821611996
2977.0,0.03277974021703267
2976.0,0.03338901331806565
2975.0,0.03399914237121604
2974.0,0.03461012978487776
2973.0,0.03508070571335731
2972.0,0.035363296211498474
2971.0,0.03555179208333925
2970.0,0.035693217696063595
2969.0,0.035740369803151095
2968.0,0.03583468937826462
2967.0,0.03583468937826462
2966.0,0.03578752703018084
2965.0,0.035693217696063595
2964.0,0.03559892883726867
2963.0,0.03555179208333925
2962.0,0.03541041251009669
2961.0,0.03526907894637077
2960.0,0.03503362516890207
2959.0,0.03479829897408804
2958.0,0.034469056377139484
2957.0,0.03409308450480819
2956.0,0.03362357691107709
2955.0,0.03310770413286357
2954.0,0.032545631817259224
2953.0,0.032031037121307726
2952.0,0.03161045815293173
2951.0,0.031236951802751545
2950.0,0.03081714076773867
2949.0,0.030397735151460825
2948.0,0.029978734171634214
2947.0,0.02969962459782227
2946.0,0.029467170231675777
2945.0,0.029234840219232394
2944.0,0.029002634427514717
2943.0,0.028816959143838528
2942.0,0.028677754757187035
2941.0,0.02863136320857662
2940.0,0.028538594975413334
2939.0,0.02849221828874393
2938.0,0.028445846553939003
2937.0,0.02849221828874393
2936.0,0.02858497661500481
2935.0,0.02872415126189476
2934.0,0.028863370523193765
2933.0,0.02904906565457588
2932.0,0.029188389127482228
2931.0,0.029281296279810798
2930.0,0.029374223311705583
2929.0,0.029467170231675777
2928.0,0.02960662792039992
2927.0,0.029839156962686353
2926.0,0.030071810571884017
2925.0,0.030351159519274695
2924.0,0.03058408764601861
2923.0,0.03081714076773867
2922.0,0.030957032694186815
2921.0,0.030957032694186815
2920.0,0.030910397045078586
2919.0,0.0307239045110681
2918.0,0.030444315779156517
2917.0,0.030118356253500123
2916.0,0.029932203450862893
2915.0,0.029792641193145286
2914.0,0.029746130405213123
2913.0,0.029746130405213123
2912.0,0.029653123769906697
2911.0,0.029560137048236124
2910.0,0.029467170231675777
2909.0,0.029281296279810798
2908.0,0.029095501846216454
2907.0,0.02890978686288448
2906.0,0.02872415126189476
2905.0,0.02849221828874393
2904.0,0.02826040911222183
2903.0,0.028075050815808744
2902.0,0.027889771597169544
2901.0,0.027612000892527133
2900.0,0.027195677663422346
2899.0,0.026687379547098322
2898.0,0.026225806029419818
2897.0,0.025810808881832736
2896.0,0.02558042614771394
2895.0,0.02544225514642018
2894.0,0.025350165561278004
2893.0,0.025258095499050004
2892.0,0.02521206778644225
2891.0,0.025074013910237447
2890.0,0.024890010313838973
2889.0,0.024660115394541604
2888.0,0.024476287039668643
2887.0,0.02438440203310499
2886.0,0.024246610963712723
2885.0,0.024108863598207186
2884.0,0.023925268380126097
2883.0,0.023695883447997224
2882.0,0.023466619608062178
2881.0,0.023283295636617574
2880.0,0.023100049017062307
2879.0,0.02296266477531872
2878.0,0.022871099419317753
2877.0,0.022733787572707387
2876.0,0.02259651912656535
2875.0,0.022505030926963654
2874.0,0.022413561996148967
2873.0,0.022322112326006227
2872.0,0.0221849739168134
2871.0,0.02204787879853809
2870.0,0.021865152601710403
2869.0,0.021773818325474092
2868.0,0.02168250325324883
2867.0,0.021636852916117055
2866.0,0.02159120737696063
2865.0,0.021545566634771474
2864.0,0.021499930688540836
2863.0,0.021499930688540836
2862.0,0.021545566634771474
2861.0,0.021636852916117055
2860.0,0.021728158389364705
2859.0,0.021865152601710403
2858.0,0.02200219004126036
2857.0,0.02204787879853809
2856.0,0.02204787879853809
2855.0,0.02204787879853809
2854.0,0.02204787879853809
2853.0,0.02200219004126036
2852.0,0.021819483062586187
2851.0,0.0214542995372613
2850.0,0.020907099361673565
2849.0,0.020315076172974234
2848.0,0.019723858922159776
2847.0,0.0190880622231564
2846.0,0.018543833477873584
2845.0,0.01800028587012159
2844.0,0.017502630802287644
2843.0,0.017005545341335804
2842.0,0.016599261819461697
2841.0,0.016373712875465518
2840.0,0.016193358021584725
2839.0,0.016013078034810446
2838.0,0.015832872853011715
2837.0,0.015652742414136167
2836.0,0.015517693597737248
2835.0,0.015427684378367834
2834.0,0.015337693809893471
2833.0,0.015202742910707112
2832.0,0.015022873584506602
2831.0,0.014932966849499074
2830.0,0.014888020460646079
2829.0,0.014843078722943437
2828.0,0.014798141635428141
2827.0,0.014753209197138295
2826.0,0.014708281407112
2825.0,0.014618439768003144
2824.0,0.01452861671041239
2823.0,0.014438812226654996
2822.0,0.014349026309051105
2821.0,0.014304140310157809
2820.0,0.014259258949925524
2819.0,0.014214382227394795
2818.0,0.014214382227394795
2817.0,0.014169510141607944
2816.0,0.014169510141607944
2815.0,0.014124642691606404
2814.0,0.014079779876432497
2813.0,0.014079779876432497
2812.0,0.014079779876432497
2811.0,0.014124642691606404
2810.0,0.014124642691606404
2809.0,0.014124642691606404
2808.0,0.014079779876432497
2807.0,0.013990068146738865
2806.0,0.013900374944870508
2805.0,0.01381070026317599
2804.0,0.01372104409400876
2803.0,0.013676222949234651
2802.0,0.013631406429727155
2801.0,0.013676222949234651
2800.0,0.013676222949234651
2799.0,0.013676222949234651
2798.0,0.013631406429727155
2797.0,0.013586594534531482
2796.0,0.013586594534531482
2795.0,0.013586594534531482
2794.0,0.013586594534531482
2793.0,0.013541787262693505
2792.0,0.013496984613259544
2791.0,0.013407393177789162
2790.0,0.013317820220494436
2789.0,0.013317820220494436
2788.0,0.013317820220494436
2787.0,0.013317820220494436
2786.0,0.01322826573375524
2785.0,0.013093968619278806
2784.0,0.013004460275618523
2783.0,0.012914970375878188
2782.0,0.012780770091995297
2781.0,0.012691326268817527
2780.0,0.01260190086298274
2779.0,0.012557195064198723
2778.0,0.01260190086298274
2777.0,0.01264661126420652
2776.0,0.012691326268817527
2775.0,0.012736045877764557
2774.0,0.012780770091995297
2773.0,0.012780770091995297
2772.0,0.012736045877764557
2771.0,0.012691326268817527
2770.0,0.012691326268817527
2769.0,0.01264661126420652
2768.0,0.012557195064198723
2767.0,0.012467797270160563
2766.0,0.012423105273012602
2765.0,0.012378417874516323
2764.0,0.012378417874516323
2763.0,0.012378417874516323
2762.0,0.012289056869694281
2761.0,0.012244383261476699
2760.0,0.012244383261476699
2759.0,0.012244383261476699
2758.0,0.012289056869694281
2757.0,0.012333735073725371
2756.0,0.012378417874516323
2755.0,0.012423105273012602
2754.0,0.012467797270160563
2753.0,0.012423105273012602
2752.0,0.012378417874516323
2751.0,0.012333735073725371
2750.0,0.012289056869694281
2749.0,0.012289056869694281
2748.0,0.012244383261476699
2747.0,0.012289056869694281
2746.0,0.012289056869694281
2745.0,0.012289056869694281
2744.0,0.012244383261476699
2743.0,0.012199714248127602
2742.0,0.012199714248127602
2741.0,0.012199714248127602
2740.0,0.012244383261476699
2739.0,0.012244383261476699
2738.0,0.012199714248127602
2737.0,0.012110390002254778
2736.0,0.012021084124518078
2735.0,0.012021084124518078
2734.0,0.012110390002254778
2733.0,0.012199714248127602
2732.0,0.012289056869694281
2731.0,0.012244383261476699
2730.0,0.01215504982870197
2729.0,0.012021084124518078
2728.0,0.011931796607364653
2727.0,0.011887159731648111
2726.0,0.011887159731648111
2725.0,0.011887159731648111
2724.0,0.011842527443247208
2723.0,0.011797899741219142
2722.0,0.011708658092512314
2721.0,0.011619434777991433
2720.0,0.011619434777991433
2719.0,0.011664044143949504
2718.0,0.011664044143949504
2717.0,0.011619434777991433
2716.0,0.011574829993696856
2715.0,0.011485634166333858
2714.0,0.011485634166333858
2713.0,0.011530229790124524
2712.0,0.011574829993696856
2711.0,0.011619434777991433
2710.0,0.011664044143949504
2709.0,0.011619434777991433
2708.0,0.011530229790124524
2707.0,0.011396456654336085
2706.0,0.011262724711199823
2705.0,0.01117359295472431
2704.0,0.011084479487313281
2703.0,0.011084479487313281
2702.0,0.011084479487313281
2701.0,0.011129033935354915
2700.0,0.011218156546359825
2699.0,0.011262724711199823
2698.0,0.011262724711199823
2697.0,0.011218156546359825
2696.0,0.011218156546359825
2695.0,0.01117359295472431
2694.0,0.011129033935354915
2693.0,0.011084479487313281
2692.0,0.011039929609661936
2691.0,0.011129033935354915
2690.0,0.011218156546359825
2689.0,0.011307297450183107
2688.0,0.011307297450183107
2687.0,0.011262724711199823
2686.0,0.01117359295472431
2685.0,0.011129033935354915
2684.0,0.011129033935354915
2683.0,0.011129033935354915
2682.0,0.011129033935354915
2681.0,0.011129033935354915
2680.0,0.011084479487313281
2679.0,0.011039929609661936
2678.0,0.011039929609661936
2677.0,0.010995384301463185
2676.0,0.010995384301463185
2675.0,0.010950843561779777
2674.0,0.010906307389674463
2673.0,0.01086177578421088
2672.0,0.010817248744452446
2671.0,0.01086177578421088
2670.0,0.010906307389674463
2669.0,0.010995384301463185
2668.0,0.011039929609661936
2667.0,0.011039929609661936
2666.0,0.011039929609661936
2665.0,0.010950843561779777
2664.0,0.01086177578421088
2663.0,0.010817248744452446
2662.0,0.01077272626946324
2661.0,0.010728208358306901
2660.0,0.010683695010048622
2659.0,0.010683695010048622
2658.0,0.010639186223752484
2657.0,0.010594681998483901
2656.0,0.010594681998483901
2655.0,0.010639186223752484
2654.0,0.010683695010048622
2653.0,0.010683695010048622
2652.0,0.010683695010048622
2651.0,0.010594681998483901
2650.0,0.010594681998483901
2649.0,0.010550182333308289
2648.0,0.010594681998483901
2647.0,0.010594681998483901
2646.0,0.010594681998483901
2645.0,0.010550182333308289
2644.0,0.010505687227290839
2643.0,0.010505687227290839
2642.0,0.010505687227290839
2641.0,0.010594681998483901
2640.0,0.010683695010048622
2639.0,0.01077272626946324
2638.0,0.01077272626946324
2637.0,0.01077272626946324
2636.0,0.01077272626946324
2635.0,0.010728208358306901
2634.0,0.010639186223752484
2633.0,0.010594681998483901
2632.0,0.010594681998483901
2631.0,0.010594681998483901
2630.0,0.010594681998483901
2629.0,0.010594681998483901
2628.0,0.010594681998483901
2627.0,0.010594681998483901
2626.0,0.010550182333308289
2625.0,0.010550182333308289
2624.0,0.010550182333308289
2623.0,0.010505687227290839
2622.0,0.010550182333308289
2621.0,0.010550182333308289
2620.0,0.010594681998483901
2619.0,0.010639186223752484
2618.0,0.010683695010048622
2617.0,0.010639186223752484
2616.0,0.010594681998483901
2615.0,0.010505687227290839
2614.0,0.010416710688994968
2613.0,0.010416710688994968
2612.0,0.010416710688994968
2611.0,0.010505687227290839
2610.0,0.010550182333308289
2609.0,0.010594681998483901
2608.0,0.010639186223752484
2607.0,0.010639186223752484
2606.0,0.010594681998483901
2605.0,0.010550182333308289
2604.0,0.010550182333308289
2603.0,0.010550182333308289
2602.0,0.010550182333308289
2601.0,0.010594681998483901
2600.0,0.010639186223752484
2599.0,0.010683695010048622
2598.0,0.01077272626946324
2597.0,0.01077272626946324
2596.0,0.010817248744452446
2595.0,0.01077272626946324
2594.0,0.010728208358306901
2593.0,0.010683695010048622
2592.0,0.010639186223752484
2591.0,0.010639186223752484
2590.0,0.010683695010048622
2589.0,0.010728208358306901
2588.0,0.01077272626946324
2587.0,0.01077272626946324
2586.0,0.010728208358306901
2585.0,0.010639186223752484
2584.0,0.010594681998483901
2583.0,0.010594681998483901
2582.0,0.010639186223752484
2581.0,0.01077272626946324
2580.0,0.01086177578421088
2579.0,0.010906307389674463
2578.0,0.010906307389674463
2577.0,0.010817248744452446
2576.0,0.010728208358306901
2575.0,0.010639186223752484
2574.0,0.010639186223752484
2573.0,0.010594681998483901
2572.0,0.010594681998483901
2571.0,0.010594681998483901
2570.0,0.010594681998483901
2569.0,0.010550182333308289
2568.0,0.010550182333308289
2567.0,0.010594681998483901
2566.0,0.010594681998483901
2565.0,0.010639186223752484
2564.0,0.010639186223752484
2563.0,0.010639186223752484
2562.0,0.010683695010048622
2561.0,0.010683695010048622
2560.0,0.010683695010048622
2559.0,0.010683695010048622
2558.0,0.010683695010048622
2557.0,0.010683695010048622
2556.0,0.010639186223752484
2555.0,0.010594681998483901
2554.0,0.010550182333308289
2553.0,0.010505687227290839
2552.0,0.01046119667949763
2551.0,0.01046119667949763
2550.0,0.010416710688994968
2549.0,0.010416710688994968
2548.0,0.010416710688994968
2547.0,0.01046119667949763
2546.0,0.010505687227290839
2545.0,0.010550182333308289
2544.0,0.010594681998483901
2543.0,0.010594681998483901
2542.0,0.010594681998483901
2541.0,0.010550182333308289
2540.0,0.010550182333308289
2539.0,0.010505687227290839
2538.0,0.010505687227290839
2537.0,0.01046119667949763
2536.0,0.01037222925484893
2535.0,0.010327752376126709
2534.0,0.010283280051895272
2533.0,0.010327752376126709
2532.0,0.01037222925484893
2531.0,0.010327752376126709
2530.0,0.01023881228122181
2529.0,0.010149890396819572
2528.0,0.010105436281226954
2527.0,0.010105436281226954
2526.0,0.010105436281226954
2525.0,0.010105436281226954
2524.0,0.010105436281226954
2523.0,0.010105436281226954
2522.0,0.010105436281226954
2521.0,0.010149890396819572
2520.0,0.010149890396819572
2519.0,0.010194349063173958
2518.0,0.010149890396819572
2517.0,0.010105436281226954
2516.0,0.010060986715464404
2515.0,0.010060986715464404
2514.0,0.01001654169860089
2513.0,0.009972101229705377
2512.0,0.009883233932095559
2511.0,0.009838807101520963
2510.0,0.009838807101520963
2509.0,0.009838807101520963
2508.0,0.009838807101520963
2507.0,0.009838807101520963
2506.0,0.00974996707218323
2505.0,0.009705553871561357
2504.0,0.00966114521239847
2503.0,0.00966114521239847
2502.0,0.00966114521239847
2501.0,0.009705553871561357
2500.0,0.00974996707218323
2499.0,0.009794384815193347
2498.0,0.009838807101520963
2497.0,0.009794384815193347
2496.0,0.00974996707218323
2495.0,0.009705553871561357
2494.0,0.00966114521239847
2493.0,0.009616741093766423
2492.0,0.009616741093766423
2491.0,0.009572341514736404
2490.0,0.009527946474380489
2489.0,0.009527946474380489
2488.0,0.009527946474380489
2487.0,0.009527946474380489
2486.0,0.009527946474380489
2485.0,0.009483555971770974
2484.0,0.009483555971770974
2483.0,0.009483555971770974
2482.0,0.009439170005980158
2481.0,0.009350411681145587
2480.0,0.009261671492462709
2479.0,0.009217308196862062
2478.0,0.009261671492462709
2477.0,0.009261671492462709
2476.0,0.009261671492462709
2475.0,0.009217308196862062
2474.0,0.009172949432521227
2473.0,0.009128595198514056
2472.0,0.009172949432521227
2471.0,0.009217308196862062
2470.0,0.009261671492462709
2469.0,0.009261671492462709
2468.0,0.009261671492462709
2467.0,0.009261671492462709
2466.0,0.009217308196862062
2465.0,0.009217308196862062
2464.0,0.009217308196862062
2463.0,0.009217308196862062
2462.0,0.009217308196862062
2461.0,0.009172949432521227
2460.0,0.00908424549391551
2459.0,0.009039900317800775
2458.0,0.008995559669244813
2457.0,0.008951223547323472
2456.0,0.008906891951112605
2455.0,0.008906891951112605
2454.0,0.008862564879688284
2453.0,0.008818242332126802
2452.0,0.008818242332126802
2451.0,0.008773924307505121
2450.0,0.008685301823389224
2449.0,0.008640997362049818
2448.0,0.008552401996197112
2447.0,0.008552401996197112
2446.0,0.008552401996197112
2445.0,0.008640997362049818
2444.0,0.008685301823389224
2443.0,0.008773924307505121
2442.0,0.008818242332126802
2441.0,0.008818242332126802
2440.0,0.008773924307505121
2439.0,0.0087296108049002
2438.0,0.008685301823389224
2437.0,0.008685301823389224
2436.0,0.008685301823389224
2435.0,0.008640997362049818
2434.0,0.008640997362049818
2433.0,0.008596697419959609
2432.0,0.008596697419959609
2431.0,0.008596697419959609
2430.0,0.008640997362049818
2429.0,0.008685301823389224
2428.0,0.008685301823389224
2427.0,0.008685301823389224
2426.0,0.0087296108049002
2425.0,0.008773924307505121
2424.0,0.008818242332126802
2423.0,0.008862564879688284
2422.0,0.008862564879688284
2421.0,0.008862564879688284
2420.0,0.008862564879688284
2419.0,0.008862564879688284
2418.0,0.008862564879688284
2417.0,0.008862564879688284
2416.0,0.008862564879688284
2415.0,0.008862564879688284
2414.0,0.008862564879688284
2413.0,0.008862564879688284
2412.0,0.008906891951112605
2411.0,0.008951223547323472
2410.0,0.009039900317800775
2409.0,0.009128595198514056
2408.0,0.009172949432521227
2407.0,0.009172949432521227
2406.0,0.009128595198514056
2405.0,0.009039900317800775
2404.0,0.008951223547323472
2403.0,0.008951223547323472
2402.0,0.008951223547323472
2401.0,0.009039900317800775
2400.0,0.00908424549391551
2399.0,0.00908424549391551
2398.0,0.00908424549391551
2397.0,0.00908424549391551
2396.0,0.00908424549391551
2395.0,0.009128595198514056
2394.0,0.009172949432521227
2393.0,0.009217308196862062
2392.0,0.009172949432521227
2391.0,0.009128595198514056
2390.0,0.009039900317800775
2389.0,0.008951223547323472
2388.0,0.008862564879688284
2387.0,0.0087296108049002
2386.0,0.008596697419959609
2385.0,0.008419542825660153
2384.0,0.008198201155356077
2383.0,0.008065450281052211
2382.0,0.007976972236149349
2381.0,0.007888512213050314
2380.0,0.007888512213050314
2379.0,0.007844288957383316
2378.0,0.007844288957383316
2377.0,0.007888512213050314
2376.0,0.007800070204414977
2375.0,0.007667440952535687
2374.0,0.0074464821678643656
2373.0,0.007402303897961815
2372.0,0.0075790439479759275
2371.0,0.007667440952535687
2370.0,0.007402303897961815
2369.0,0.006916639301937977
2368.0,0.006519680930003435
2367.0,0.006387442061109638
2366.0,0.006343371384537999
2365.0,0.006167133386013823
2364.0,0.005946936412324799
2363.0,0.005946936412324799
2362.0,0.006167133386013823
2361.0,0.006607862550997545
2360.0,0.007225635744644521
2359.0,0.007800070204414977
2358.0,0.007800070204414977
2357.0,0.007269796045857202
2356.0,0.006607862550997545
2355.0,0.006519680930003435
2354.0,0.007004901568658406
2353.0,0.007711646202907652
2352.0,0.007976972236149349
2351.0,0.0075790439479759275
2350.0,0.006828394969235152
2349.0,0.00590291041179003
2348.0,0.005023326350308999
2347.0,0.0043648054024501
2346.0,0.004145520125434121
2345.0,0.004452550524862486
2344.0,0.004935465843858511
2343.0,0.005506877116487674
2342.0,0.005990966876386672
2341.0,0.006387442061109638
2340.0,0.006828394969235152
2339.0,0.007225635744644521
2338.0,0.007490664932224611
2337.0,0.007269796045857202
2336.0,0.006651960076740071
2335.0,0.005990966876386672
2334.0,0.00590291041179003
2333.0,0.006387442061109638
2332.0,0.007181479933320523
2331.0,0.007667440952535687
2330.0,0.0075790439479759275
2329.0,0.007137328610972382
2328.0,0.006828394969235152
2327.0,0.006828394969235152
2326.0,0.007093181776687496
2325.0,0.007402303897961815
2324.0,0.007667440952535687
2323.0,0.008021209005416363
2322.0,0.008463824699968647
2321.0,0.008818242332126802
2320.0,0.008995559669244813
2319.0,0.008951223547323472
2318.0,0.008818242332126802
2317.0,0.008640997362049818
2316.0,0.00850811108984062
2315.0,0.008375265465994541
2314.0,0.008242460465651913
2313.0,0.008021209005416363
2312.0,0.007800070204414977
2311.0,0.0075790439479759275
2310.0,0.0074464821678643656
2309.0,0.007358130121602358
2308.0,0.007402303897961815
2307.0,0.007490664932224611
2306.0,0.0075790439479759275
2305.0,0.0075790439479759275
2304.0,0.0074464821678643656
2303.0,0.007269796045857202
2302.0,0.007137328610972382
2301.0,0.007093181776687496
2300.0,0.007181479933320523
2299.0,0.007313960837872058
2298.0,0.007358130121602358
2297.0,0.007358130121602358
2296.0,0.007313960837872058
2295.0,0.007269796045857202
2294.0,0.007225635744644521
2293.0,0.007181479933320523
2292.0,0.007181479933320523
2291.0,0.007181479933320523
2290.0,0.007269796045857202
2289.0,0.007402303897961815
2288.0,0.007534852191956709
2287.0,0.007711646202907652
2286.0,0.007800070204414977
2285.0,0.007844288957383316
2284.0,0.007800070204414977
2283.0,0.007755855953228474
2282.0,0.00762324020119709
2281.0,0.007534852191956709
2280.0,0.0074464821678643656
2279.0,0.007358130121602358
2278.0,0.007313960837872058
2277.0,0.007269796045857202
2276.0,0.007181479933320523
2275.0,0.007137328610972382
2274.0,0.007093181776687496
2273.0,0.007093181776687496
2272.0,0.007093181776687496
2271.0,0.007093181776687496
2270.0,0.007049039429553483
2269.0,0.007004901568658406
2268.0,0.007004901568658406
2267.0,0.007004901568658406
2266.0,0.007093181776687496
2265.0,0.007181479933320523
2264.0,0.007225635744644521
2263.0,0.007269796045857202
2262.0,0.007225635744644521
2261.0,0.007225635744644521
2260.0,0.007181479933320523
2259.0,0.007137328610972382
2258.0,0.007181479933320523
2257.0,0.007225635744644521
2256.0,0.007269796045857202
2255.0,0.007358130121602358
2254.0,0.007402303897961815
2253.0,0.007402303897961815
2252.0,0.007313960837872058
2251.0,0.007225635744644521
2250.0,0.007181479933320523
2249.0,0.007137328610972382
2248.0,0.007137328610972382
2247.0,0.007093181776687496
2246.0,0.007093181776687496
2245.0,0.007049039429553483
2244.0,0.007049039429553483
2243.0,0.007049039429553483
2242.0,0.007004901568658406
2241.0,0.00696076819309055
2240.0,0.006872514894289861
2239.0,0.006784279525863024
2238.0,0.006740168563263094
2237.0,0.006784279525863024
2236.0,0.006828394969235152
2235.0,0.00696076819309055
2234.0,0.007004901568658406
2233.0,0.007004901568658406
2232.0,0.00696076819309055
2231.0,0.006872514894289861
2230.0,0.006784279525863024
2229.0,0.006784279525863024
2228.0,0.006784279525863024
2227.0,0.006784279525863024
2226.0,0.006828394969235152
2225.0,0.006828394969235152
2224.0,0.006784279525863024
2223.0,0.006696062080525422
2222.0,0.006607862550997545
2221.0,0.006607862550997545
2220.0,0.006651960076740071
2219.0,0.006651960076740071
2218.0,0.006651960076740071
2217.0,0.006651960076740071
2216.0,0.006607862550997545
2215.0,0.006519680930003435
2214.0,0.006431517210272464
2213.0,0.006431517210272464
2212.0,0.006387442061109638
2211.0,0.006387442061109638
2210.0,0.006387442061109638
2209.0,0.006387442061109638
2208.0,0.006343371384537999
2207.0,0.006299305179649828
2206.0,0.00625524344553785
2205.0,0.00625524344553785
2204.0,0.00625524344553785
2203.0,0.00625524344553785
2202.0,0.00621118618129457
2201.0,0.00621118618129457
2200.0,0.00621118618129457
2199.0,0.00621118618129457
2198.0,0.00625524344553785
2197.0,0.00625524344553785
2196.0,0.00621118618129457
2195.0,0.00612308505878878
2194.0,0.006035001804881146
2193.0,0.005990966876386672
2192.0,0.005990966876386672
2191.0,0.006035001804881146
2190.0,0.006079041198713275
2189.0,0.006079041198713275
2188.0,0.006035001804881146
2187.0,0.005946936412324799
2186.0,0.00590291041179003
2185.0,0.005946936412324799
2184.0,0.005990966876386672
2183.0,0.006035001804881146
2182.0,0.005990966876386672
2181.0,0.005946936412324799
2180.0,0.005946936412324799
2179.0,0.005990966876386672
2178.0,0.006035001804881146
2177.0,0.005990966876386672
2176.0,0.005858888873877532
2175.0,0.00577085918230158
2174.0,0.005726851026829571
2173.0,0.005726851026829571
2172.0,0.005726851026829571
2171.0,0.00577085918230158
2170.0,0.00577085918230158
2169.0,0.00577085918230158
2168.0,0.00577085918230158
2167.0,0.00577085918230158
2166.0,0.00577085918230158
2165.0,0.005726851026829571
2164.0,0.005726851026829571
2163.0,0.005726851026829571
2162.0,0.00577085918230158
2161.0,0.005814871797682919
2160.0,0.005814871797682919
2159.0,0.005814871797682919
2158.0,0.005814871797682919
2157.0,0.005858888873877532
2156.0,0.00590291041179003
2155.0,0.005990966876386672
2154.0,0.005990966876386672
2153.0,0.005990966876386672
2152.0,0.006035001804881146
2151.0,0.006035001804881146
2150.0,0.006079041198713275
2149.0,0.006035001804881146
2148.0,0.005946936412324799
2147.0,0.00590291041179003
2146.0,0.00590291041179003
2145.0,0.005990966876386672
2144.0,0.006079041198713275
2143.0,0.006167133386013823
2142.0,0.00612308505878878
2141.0,0.006079041198713275
2140.0,0.005990966876386672
2139.0,0.005946936412324799
2138.0,0.00590291041179003
2137.0,0.00590291041179003
2136.0,0.00590291041179003
2135.0,0.00590291041179003
2134.0,0.00590291041179003
2133.0,0.005946936412324799
2132.0,0.005990966876386672
2131.0,0.006035001804881146
2130.0,0.006035001804881146
2129.0,0.00612308505878878
2128.0,0.006167133386013823
2127.0,0.00621118618129457
2126.0,0.00621118618129457
2125.0,0.00621118618129457
2124.0,0.00621118618129457
2123.0,0.00621118618129457
2122.0,0.006167133386013823
2121.0,0.00612308505878878
2120.0,0.00612308505878878
2119.0,0.00621118618129457
2118.0,0.00625524344553785
2117.0,0.006299305179649828
2116.0,0.006299305179649828
2115.0,0.00625524344553785
2114.0,0.006167133386013823
2113.0,0.006079041198713275
2112.0,0.006035001804881146
2111.0,0.006035001804881146
2110.0,0.005990966876386672
2109.0,0.005990966876386672
2108.0,0.005990966876386672
2107.0,0.006035001804881146
2106.0,0.006079041198713275
2105.0,0.006079041198713275
2104.0,0.006079041198713275
2103.0,0.006079041198713275
2102.0,0.006079041198713275
2101.0,0.006079041198713275
2100.0,0.006079041198713275
2099.0,0.006035001804881146
2098.0,0.005990966876386672
2097.0,0.005946936412324799
2096.0,0.005946936412324799
2095.0,0.005990966876386672
2094.0,0.005990966876386672
2093.0,0.00590291041179003
2092.0,0.005814871797682919
2091.0,0.00577085918230158
2090.0,0.00577085918230158
2089.0,0.00577085918230158
2088.0,0.00577085918230158
2087.0,0.005726851026829571
2086.0,0.005638848091999105
2085.0,0.005506877116487674
2084.0,0.00541891874010525
2083.0,0.00537494623139545
2082.0,0.00537494623139545
2081.0,0.00537494623139545
2080.0,0.00541891874010525
2079.0,0.00541891874010525
2078.0,0.00541891874010525
2077.0,0.00537494623139545
2076.0,0.005330978174470591
2075.0,0.0052870145684298375
2074.0,0.005243055412371911
2073.0,0.005155150446602086
2072.0,0.005067263269958211
2071.0,0.004979393875242044
2070.0,0.00484762310854614
2069.0,0.004759798137184523
2068.0,0.004628093971837721
2067.0,0.004540313378935901
2066.0,0.004408675747646695
2065.0,0.004320939488377862
2064.0,0.004277078004534696
2063.0,0.004320939488377862
2062.0,0.004408675747646695
2061.0,0.004452550524862486
2060.0,0.004452550524862486
2059.0,0.004408675747646695
2058.0,0.0043648054024501
2057.0,0.004277078004534696
2056.0,0.004233220950025984
2055.0,0.004145520125434121
2054.0,0.004101676353562844
2053.0,0.0040578370074493275
2052.0,0.0040578370074493275
2051.0,0.004101676353562844
2050.0,0.004145520125434121
2049.0,0.004189368323957332
2048.0,0.004189368323957332
2047.0,0.004189368323957332
2046.0,0.004145520125434121
2045.0,0.0040578370074493275
2044.0,0.003970171588923321
2043.0,0.003794893821675638
2042.0,0.0036634819042162814
2041.0,0.0035758960449088217
2040.0,0.0035321097382827737
2039.0,0.003619686766589858
2038.0,0.0036634819042162814
2037.0,0.0036634819042162814
2036.0,0.003619686766589858
2035.0,0.0035321097382827737
2034.0,0.003488327845821315
2033.0,0.0034445503666347133
2032.0,0.0034007772998332353
2031.0,0.0034007772998332353
2030.0,0.0034007772998332353
2029.0,0.0034007772998332353
2028.0,0.0034007772998332353
2027.0,0.0034445503666347133
2026.0,0.0034445503666347133
2025.0,0.0034445503666347133
2024.0,0.0034445503666347133
2023.0,0.0034445503666347133
2022.0,0.0034007772998332353
2021.0,0.0033132443998284966
2020.0,0.0032694845648473247
2019.0,0.0031382315093266833
2018.0,0.003050751504618754
2017.0,0.0029632891174733444
2016.0,0.0029632891174733444
2015.0,0.003050751504618754
2014.0,0.0031382315093266833
2013.0,0.0031819781204844855
2012.0,0.0032257291386954545
2011.0,0.0032257291386954545
2010.0,0.0032694845648473247
2009.0,0.0033132443998284966
2008.0,0.0033132443998284966
2007.0,0.0033570086445275926
2006.0,0.0033570086445275926
2005.0,0.0033570086445275926
2004.0,0.0033570086445275926
2003.0,0.0034007772998332353
2002.0,0.0034445503666347133
2001.0,0.0035321097382827737
2000.0,0.0035758960449088217
1999.0,0.0035758960449088217
1998.0,0.0035758960449088217
1997.0,0.0035758960449088217
1996.0,0.003619686766589858
1995.0,0.0036634819042162814
1994.0,0.0036634819042162814
1993.0,0.003619686766589858
1992.0,0.0034445503666347133
1991.0,0.0033570086445275926
1990.0,0.0034007772998332353
1989.0,0.0035321097382827737
1988.0,0.003619686766589858
1987.0,0.003707281458678491
1986.0,0.0037510854308679953
1985.0,0.003794893821675638
1984.0,0.0038825238627120395
1983.0,0.003970171588923321
1982.0,0.003970171588923321
1981.0,0.00401400208620073
1980.0,0.003970171588923321
1979.0,0.003926345514724705
1978.0,0.0038825238627120395
1977.0,0.0038825238627120395
1976.0,0.003926345514724705
1975.0,0.0040578370074493275
1974.0,0.004189368323957332
1973.0,0.004277078004534696
1972.0,0.004320939488377862
1971.0,0.004408675747646695
1970.0,0.004452550524862486
1969.0,0.0044964297349936455
1968.0,0.004452550524862486
1967.0,0.004408675747646695
1966.0,0.004408675747646695
1965.0,0.0044964297349936455
1964.0,0.004715892310740433
1963.0,0.004979393875242044
1962.0,0.005155150446602086
1961.0,0.0052870145684298375
1960.0,0.00541891874010525
1959.0,0.005594853310833647
1958.0,0.005682847330363394
1957.0,0.005726851026829571
1956.0,0.005726851026829571
1955.0,0.005682847330363394
1954.0,0.005638848091999105
1953.0,0.005594853310833647
1952.0,0.005638848091999105
1951.0,0.005638848091999105
1950.0,0.005638848091999105
1949.0,0.005594853310833647
1948.0,0.00541891874010525
1947.0,0.005243055412371911
1946.0,0.005023326350308999
1945.0,0.00484762310854614
1944.0,0.004671990922590297
1943.0,0.004452550524862486
1942.0,0.004189368323957332
1941.0,0.00401400208620073
1940.0,0.0038825238627120395
1939.0,0.0038825238627120395
1938.0,0.0038387066319929275
1937.0,0.003707281458678491
1936.0,0.0035758960449088217
1935.0,0.0034445503666347133
1934.0,0.0033132443998284966
1933.0,0.0031382315093266833
1932.0,0.003050751504618754
1931.0,0.0030070181092942683
1930.0,0.0029195645282691363
1929.0,0.0027884171674950053
1928.0,0.002613615602686581
1927.0,0.002482560585275184
1926.0,0.002351545103793873
1925.0,0.0022205691343961664
1924.0,0.0020459959305969555
1923.0,0.0017406615763013722
1922.0,0.0015226969634936083
1921.0,0.0014355417390583547
1920.0,0.0015662811355310335
1919.0,0.0016970599014589638
1918.0,0.0016534626036355249
1917.0,0.0014791171649619628
1916.0,0.001348404001626502
1915.0,0.001348404001626502
1914.0,0.001348404001626502
1913.0,0.001348404001626502
1912.0,0.0012612837441823288
1911.0,0.0010870956412141197
1910.0,0.0009129773741116676
1909.0,0.0007389288868995258
1908.0,0.0006084382809090627
1907.0,0.0006519307932786322
1906.0,0.0006954276616513155
1905.0,0.0007389288868995258
1904.0,0.0007389288868995258
1903.0,0.0006519307932786322
1902.0,0.0005649501236701937
1901.0,0.000521466320689834
1900.0,0.00043451177401765406
1899.0,0.0003910410285830057
1898.0,0.00030411258916074324
1897.0,0.00026065489343207737
1896.0,0.0001303078917322953
1895.0,-4.3427276862573194e-05
1894.0,-0.00013026880522692963
1893.0,-0.00017368305846510168
1892.0,-0.00017368305846510168
1891.0,-0.00017368305846510168
1890.0,-0.00030389978481260016
1889.0,-0.0004774613744551459
1888.0,-0.0005642161653756084
1887.0,-0.0004774613744551459
1886.0,-0.00043407747931878404
1885.0,-0.00043407747931878404
1884.0,-0.0005208409361854294
1883.0,-0.0005642161653756084
1882.0,-0.0006075870628903246
1881.0,-0.0005642161653756084
1880.0,-0.0005642161653756084
1879.0,-0.0005642161653756084
1878.0,-0.0006075870628903246
1877.0,-0.0006075870628903246
1876.0,-0.0006509536295951079
1875.0,-0.0006943158663546001
1874.0,-0.0007376737740329986
1873.0,-0.0008243766056055257
1872.0,-0.0008677215312267172
1871.0,-0.0008677215312267172
1870.0,-0.0009543984064577238
1869.0,-0.001257631312230778
1868.0,-0.0016039241497978196
1867.0,-0.001776967077439462
1866.0,-0.0016471913460383014
1865.0,-0.001474096691732818
1864.0,-0.001344230411601366
1863.0,-0.001257631312230778
1862.0,-0.001257631312230778
1861.0,-0.0013009330204178937
1860.0,-0.0013009330204178937
1859.0,-0.0013009330204178937
1858.0,-0.0013009330204178937
1857.0,-0.00121432528617893
1856.0,-0.0011277002770349043
1855.0,-0.0009543984064577238
1854.0,-0.0008243766056055257
1853.0,-0.0006943158663546001
1852.0,-0.0006509536295951079
1851.0,-0.0006509536295951079
1850.0,-0.0006509536295951079
1849.0,-0.0007810273534953893
1848.0,-0.0008677215312267172
1847.0,-0.0007376737740329986
1846.0,-0.0003906892499099257
1845.0,-4.3427276862573194e-05
1844.0,0.0
1843.0,-0.00013026880522692963
1842.0,-0.00021709297223004853
1841.0,-0.00013026880522692963
1840.0,8.686758342868472e-05
1839.0,0.00026065489343207737
1838.0,0.0003475746339209884
1837.0,0.0003910410285830057
1836.0,0.00043451177401765406
1835.0,0.0005649501236701937
1834.0,0.0006519307932786322
1833.0,0.0007824344698965646
1832.0,0.0009565003968372565
1831.0,0.0011306361176557367
1830.0,0.0010870956412141197
1829.0,0.0009129773741116676
1828.0,0.0009129773741116676
1827.0,0.0011741809597138886
1826.0,0.0014355417390583547
1825.0,0.0014791171649619628
1824.0,0.001348404001626502
1823.0,0.0012612837441823288
1822.0,0.001304841688344327
1821.0,0.001348404001626502
1820.0,0.0013919706849057079
1819.0,0.0014791171649619628
1818.0,0.0014791171649619628
1817.0,0.0013919706849057079
1816.0,0.001348404001626502
1815.0,0.0013919706849057079
1814.0,0.0013919706849057079
1813.0,0.001304841688344327
1812.0,0.0011306361176557367
1811.0,0.0009129773741116676
1810.0,0.0007389288868995258
1809.0,0.0006519307932786322
1808.0,0.0006954276616513155
1807.0,0.0007389288868995258
1806.0,0.0007824344698965646
1805.0,0.0007389288868995258
1804.0,0.0006954276616513155
1803.0,0.0006084382809090627
1802.0,0.0004779868710962365
1801.0,0.0003475746339209884
1800.0,0.00026065489343207737
1799.0,0.00026065489343207737
1798.0,0.00030411258916074324
1797.0,0.00021720154586435392
1796.0,0.00017375254558760211
1795.0,0.00030411258916074324
1794.0,0.000521466320689834
1793.0,0.0005649501236701937
1792.0,0.0003910410285830057
1791.0,0.0001303078917322953
1790.0,0.0001303078917322953
1789.0,0.00030411258916074324
1788.0,0.0005649501236701937
1787.0,0.0007389288868995258
1786.0,0.0007389288868995258
1785.0,0.0005649501236701937
1784.0,0.0003910410285830057
1783.0,0.00030411258916074324
1782.0,0.0003475746339209884
1781.0,0.00030411258916074324
1780.0,0.00021720154586435392
1779.0,0.00026065489343207737
1778.0,0.0003910410285830057
1777.0,0.0004779868710962365
1776.0,0.000521466320689834
1775.0,0.0006954276616513155
1774.0,0.0009129773741116676
1773.0,0.0009565003968372565
1772.0,0.0009129773741116676
1771.0,0.0010000277816797354
1770.0,0.001304841688344327
1769.0,0.0016970599014589638
1768.0,0.0018714928717336043
1767.0,0.0020023635919956817
1766.0,0.0022205691343961664
1765.0,0.0025262411970197185
1764.0,0.0030070181092942683
1763.0,0.003619686766589858
1762.0,0.004101676353562844
1761.0,0.004320939488377862
1760.0,0.00458420145758498
1759.0,0.005199100705396198
1758.0,0.006035001804881146
1757.0,0.006916639301937977
1756.0,0.007800070204414977
1755.0,0.008818242332126802
1754.0,0.009972101229705377
1753.0,0.01117359295472431
1752.0,0.012691326268817527
1751.0,0.014888020460646079
1750.0,0.017547848615010242
1749.0,0.02058821736556471
1748.0,0.024292536462819925
1747.0,0.02863136320857662
1746.0,0.03334211579824231
1745.0,0.038436537637930535
1744.0,0.044312249686494276
1743.0,0.050805225762017736
1742.0,0.05764465029232335
1741.0,0.0655520510510299
1740.0,0.07494587968815725
1739.0,0.08407278830288423
1738.0,0.09065796163869155
1737.0,0.0950141189006366
1736.0,0.10028890542885538
1735.0,0.11103465569966264
1734.0,0.12691201440971422
1733.0,0.13960209487268727
1732.0,0.14745901423020125
1731.0,0.15527437202677397
1730.0,0.165261481096159
1729.0,0.17606954487443605
1728.0,0.18615224577114575
1727.0,0.19545169161194398
1726.0,0.20502425594886842
1725.0,0.21566805197785177
1724.0,0.2276049389179997
1723.0,0.2393513804186438
1722.0,0.24864390027460637
1721.0,0.254534831329273
1720.0,0.2596373105057561
1719.0,0.2696215314123571
1718.0,0.28777133038046476
1717.0,0.30609725893393946
1716.0,0.3156933539283684
1715.0,0.3185778442789915
1714.0,0.3174939140609889
1713.0,0.31149119234347866
1712.0,0.30102999566398125
1711.0,0.2881084501194211
1710.0,0.2745784499257413
1709.0,0.2601904009786411
1708.0,0.24496406623222855
1707.0,0.22929523178422073
1706.0,0.21438547505317596
1705.0,0.20065945054641832
1704.0,0.18829097330380895
1703.0,0.1769172034671962
1702.0,0.16653413982930765
1701.0,0.1576404266693252
1700.0,0.1500894416985039
1699.0,0.1425468829647336
1698.0,0.13501453934020602
1697.0,0.1284854412916181
1696.0,0.1233203895807995
1695.0,0.11895789180659433
1694.0,0.11503480179926728
1693.0,0.1114835389250548
1692.0,0.10812816955441629
1691.0,0.10490910306560064
1690.0,0.10204318999304807
1689.0,0.09957824654226233
1688.0,0.09712721455392082
1687.0,0.09431203228814788
1686.0,0.0916222275676053
1685.0,0.09097914578884403
1684.0,0.09210516458371698
1683.0,0.09189045960744768
1682.0,0.09028354676565531
1681.0,0.08830984124613894
1680.0,0.086239113587677
1679.0,0.08417821237960132
1678.0,0.08228448344050654
1677.0,0.0809742354126397
1676.0,0.08034671768963575
1675.0,0.07998108397108505
1674.0,0.07872981449018734
1673.0,0.07675598136972361
1672.0,0.0748426728241014
1671.0,0.07355465218161061
1670.0,0.07314329105030759
1669.0,0.07288638806623937
1668.0,0.0720140529005715
1667.0,0.07052998382251041
1666.0,0.0688982543673613
1665.0,0.06752623532284674
1664.0,0.06671522765130522
1663.0,0.06636088747507496
1662.0,0.06590573164451952
1661.0,0.06499684854634524
1660.0,0.06378795567975115
1659.0,0.06253226035662252
1658.0,0.06128018521761747
1657.0,0.05998184499233683
1656.0,0.05863766428823891
1655.0,0.057396751157843484
1654.0,0.0575950591438934
1653.0,0.05868737463933793
1652.0,0.05749589383191922
1651.0,0.055270639696704205
1650.0,0.053596866100945384
1649.0,0.05256627811294923
1648.0,0.051684859310652254
1647.0,0.05095170768433621
1646.0,0.05002482217034632
1645.0,0.04885683989244738
1644.0,0.04749815213697639
1643.0,0.046192002334692894
1642.0,0.04508244626504121
1641.0,0.0439276630048171
1640.0,0.042775942156833
1639.0,0.04167506835594681
1638.0,0.04072004986906119
1637.0,0.04014804520039483
1636.0,0.03986232513620536
1635.0,0.03938654235209116
1634.0,0.038531444649213764
1633.0,0.03744126420403626
1632.0,0.03625938114211591
1631.0,0.03512779136222477
1630.0,0.03423403581731388
1629.0,0.03362357691107709
1628.0,0.03301397488206215
1627.0,0.03240522732811035
1626.0,0.03175060589208267
1625.0,0.031236951802751545
1624.0,0.030770520137356927
1623.0,0.03030458888152676
1622.0,0.029746130405213123
1621.0,0.029188389127482228
1620.0,0.028770552723758724
1619.0,0.028538594975413334
1618.0,0.028677754757187035
1617.0,0.029188389127482228
1616.0,0.029560137048236124
1615.0,0.029560137048236124
1614.0,0.02960662792039992
1613.0,0.029560137048236124
1612.0,0.029188389127482228
1611.0,0.028445846553939003
1610.0,0.027612000892527133
1609.0,0.026733563891471412
1608.0,0.025810808881832736
1607.0,0.024890010313838973
1606.0,0.024154774532432866
1605.0,0.02342078135989012
1604.0,0.022642270454698687
1603.0,0.021910826943857264
1602.0,0.021271822861508305
1601.0,0.02067930261797568
1600.0,0.02022406727031445
1599.0,0.019814763052665052
1598.0,0.019451260640229506
1597.0,0.0190880622231564
1596.0,0.018679826740892747
1595.0,0.018362575344230914
1594.0,0.018181392829336396
1593.0,0.018136109008649592
1592.0,0.018181392829336396
1591.0,0.018226681372252695
1590.0,0.018362575344230914
1589.0,0.018543833477873584
1588.0,0.018815862601645694
1587.0,0.019178833355664393
1586.0,0.019814763052665052
1585.0,0.02067930261797568
1584.0,0.021819483062586187
1583.0,0.023283295636617574
1582.0,0.024890010313838973
1581.0,0.026318081496016443
1580.0,0.02738066094037661
1579.0,0.027889771597169544
1578.0,0.027889771597169544
1577.0,0.02724191609646076
1576.0,0.026087429580295085
1575.0,0.02484402159331056
1574.0,0.02406295751688936
1573.0,0.023604163388120325
1572.0,0.02314585342378117
1571.0,0.02259651912656535
1570.0,0.02204787879853809
1569.0,0.0214542995372613
1568.0,0.020907099361673565
1567.0,0.020542681902151694
1566.0,0.02036058777709271
1565.0,0.02026956933771462
1564.0,0.020178569969774962
1563.0,0.019996628416253603
1562.0,0.019814763052665052
1561.0,0.019723858922159776
1560.0,0.020497151212598652
1559.0,0.02200219004126036
1558.0,0.0221849739168134
1557.0,0.022139270735302752
1556.0,0.02204787879853809
1555.0,0.021910826943857264
1554.0,0.021865152601710403
1553.0,0.021773818325474092
1552.0,0.02168250325324883
1551.0,0.02159120737696063
1550.0,0.02140867317992523
1549.0,0.02122621566987748
1548.0,0.021135015652343103
1547.0,0.021043834782408455
1546.0,0.020770406977844713
1545.0,0.020315076172974234
1544.0,0.019723858922159776
1543.0,0.019269623464054586
1542.0,0.019133445417920836
1541.0,0.0192242260373785
1540.0,0.018906576854070378
1539.0,0.018136109008649592
1538.0,0.017638298366853045
1537.0,0.01759307113620534
1536.0,0.017864505196230507
1535.0,0.018226681372252695
1534.0,0.018498511851753108
1533.0,0.01845319495476394
1532.0,0.018136109008649592
1531.0,0.017864505196230507
1530.0,0.017638298366853045
1529.0,0.017502630802287644
1528.0,0.017321806616515723
1527.0,0.016960383953898095
1526.0,0.016509028184833463
1525.0,0.016193358021584725
1524.0,0.016013078034810446
1523.0,0.015697768020096703
1522.0,0.015202742910707112
1521.0,0.0144837121472845
1520.0,0.013900374944870508
1519.0,0.013765869865004277
1518.0,0.01381070026317599
1517.0,0.013676222949234651
1516.0,0.013362604389846044
1515.0,0.013317820220494436
1514.0,0.013676222949234651
1513.0,0.014349026309051105
1512.0,0.015247721884586563
1511.0,0.016238439713835096
1510.0,0.017457417697056554
1509.0,0.019451260640229506
1508.0,0.023879381700184332
1507.0,0.030910397045078586
1506.0,0.0360705779734416
1505.0,0.03701541568300293
1504.0,0.03484535401307465
1503.0,0.031190286087141805
1502.0,0.02710321556345563
1501.0,0.023100049017062307
1500.0,0.019632973815224997
1499.0,0.01677978535189717
1498.0,0.014259258949925524
1497.0,0.012110390002254778
1496.0,0.01037222925484893
1495.0,0.009217308196862062
1494.0,0.008685301823389224
1493.0,0.008685301823389224
1492.0,0.008818242332126802
1491.0,0.008773924307505121
1490.0,0.00850811108984062
1489.0,0.008640997362049818
1488.0,0.009350411681145587
1487.0,0.01046119667949763
1486.0,0.011708658092512314
1485.0,0.012959713020733288
1484.0,0.014214382227394795
1483.0,0.01547268665620738
1482.0,0.016824927962187042
1481.0,0.018181392829336396
1480.0,0.01954210772389997
1479.0,0.02081596632558158
1478.0,0.02204787879853809
1477.0,0.023374947949272418
1476.0,0.024522236834125355
1475.0,0.025350165561278004
1474.0,0.02613355016462182
1473.0,0.027056991894431892
1472.0,0.0277045713888604
1471.0,0.027797161620935595
1470.0,0.0277045713888604
1469.0,0.02747318213414429
1468.0,0.027334407733889066
1467.0,0.027334407733889066
1466.0,0.027750864037404455
1465.0,0.02863136320857662
1464.0,0.029513651152349718
1463.0,0.030118356253500123
1462.0,0.030444315779156517
1461.0,0.030770520137356927
1460.0,0.031190286087141805
1459.0,0.03170388495374454
1458.0,0.032686081712916426
1457.0,0.033905220553829274
1456.0,0.034469056377139484
1455.0,0.03437503289075727
1454.0,0.03414006319292828
1453.0,0.03385826726096752
1452.0,0.03343591590268957
1451.0,0.03282657704446046
1450.0,0.032218091924200776
1449.0,0.03161045815293173
1448.0,0.030910397045078586
1447.0,0.030211462585061133
1446.0,0.02960662792039992
1445.0,0.029095501846216454
1444.0,0.02872415126189476
1443.0,0.028353117935693284
1442.0,0.027936083991977778
1441.0,0.027426919073445077
1440.0,0.02691835039863255
1439.0,0.02636422658259252
1438.0,0.02562649291857677
1437.0,0.024522236834125355
1436.0,0.02300845469384938
1435.0,0.021363051615525652
1434.0,0.019769308608968306
1433.0,0.018362575344230914
1432.0,0.017050711425501408
1431.0,0.015832872853011715
1430.0,0.014753209197138295
1429.0,0.01385553528947936
1428.0,0.01322826573375524
1427.0,0.012914970375878188
1426.0,0.012780770091995297
1425.0,0.012780770091995297
1424.0,0.013049212141483357
1423.0,0.013676222949234651
1422.0,0.014753209197138295
1421.0,0.01646391839700767
1420.0,0.019269623464054586
1419.0,0.023374947949272418
1418.0,0.028306761050139073
1417.0,0.03399914237121604
1416.0,0.04091088563260792
1415.0,0.04905128560059957
1414.0,0.05824018618530458
1413.0,0.068389593637038
1412.0,0.07883394936226118
1411.0,0.08799062441302175
1410.0,0.09441997176475758
1409.0,0.09750757884139638
1408.0,0.09712721455392082
1407.0,0.09323411045927221
1406.0,0.08661005636824437
1405.0,0.07867775641617802
1404.0,0.07083661679493547
1403.0,0.06393888339001164
1402.0,0.05814087347462649
1401.0,0.05300765925162776
1400.0,0.048225491918274965
1399.0,0.0437835307566099
1398.0,0.04019568349166214
1397.0,0.03753595394209874
1396.0,0.035646070707806565
1395.0,0.03409308450480819
1394.0,0.032686081712916426
1393.0,0.03137697904301118
1392.0,0.030164906924202484
1391.0,0.029188389127482228
1390.0,0.02839947976994095
1389.0,0.027843464140506313
1388.0,0.02751945012352408
1387.0,0.02747318213414429
1386.0,0.027612000892527133
1385.0,0.027936083991977778
1384.0,0.02839947976994095
1383.0,0.028770552723758724
1382.0,0.029141943003497595
1381.0,0.029467170231675777
1380.0,0.029839156962686353
1379.0,0.030211462585061133
1378.0,0.03058408764601861
1377.0,0.030957032694186815
1376.0,0.03137697904301118
1375.0,0.03184406285002961
1374.0,0.03235843591698884
1373.0,0.03277974021703267
1372.0,0.03301397488206215
1371.0,0.0329671178412978
1370.0,0.03249882527715853
1369.0,0.031563752288295444
1368.0,0.03030458888152676
1367.0,0.028770552723758724
1366.0,0.027056991894431892
1365.0,0.02516604495145991
1364.0,0.02314585342378117
1363.0,0.021089422824428272
1362.0,0.01949668180660491
1361.0,0.01858915983411169
1360.0,0.018271974638383703
1359.0,0.018136109008649592
1358.0,0.018181392829336396
1357.0,0.01845319495476394
1356.0,0.018951941086827073
1355.0,0.019814763052665052
1354.0,0.0209982515252789
1353.0,0.02255077261765881
1352.0,0.02461415101053266
1351.0,0.02710321556345563
1350.0,0.03025802323714588
1349.0,0.03423403581731388
1348.0,0.03914884628031379
1347.0,0.04508244626504121
1346.0,0.05207638016827354
1345.0,0.060081579630943294
1344.0,0.06869471857832687
1343.0,0.07727454200674
1342.0,0.08528671302637614
1341.0,0.09237369515673355
1340.0,0.09777947172068524
1339.0,0.10034361969436434
1338.0,0.09935981601739963
1337.0,0.0950141189006366
1336.0,0.0880970039559672
1335.0,0.07930286553008004
1334.0,0.06956040523329987
1333.0,0.05973260855398799
1332.0,0.05065879322950262
1331.0,0.04291974034210022
1330.0,0.036779013477011624
1329.0,0.032218091924200776
1328.0,0.02904906565457588
1327.0,0.027056991894431892
1326.0,0.025949097207122573
1325.0,0.02553436426275746
1324.0,0.02553436426275746
1323.0,0.025902996205869
1322.0,0.026456531467510258
1321.0,0.02710321556345563
1320.0,0.027843464140506313
1319.0,0.02872415126189476
1318.0,0.029746130405213123
1317.0,0.030910397045078586
1316.0,0.03217132066984485
1315.0,0.03352973627071565
1314.0,0.03508070571335731
1313.0,0.03682628362474838
1312.0,0.038816290187564384
1311.0,0.04086316882962593
1310.0,0.04291974034210022
1309.0,0.044937930324967956
1308.0,0.04701393480294458
1307.0,0.04900266601119507
1306.0,0.05100054597304693
1305.0,0.05295859474477971
1304.0,0.05502409158795207
1303.0,0.05729763111133224
1302.0,0.05983228596592505
1301.0,0.06283329628496737
1300.0,0.06620911585658007
1299.0,0.0699173666076287
1298.0,0.07386342893255127
1297.0,0.07789763319239285
1296.0,0.08212704480115218
1295.0,0.08634506491338012
1294.0,0.0905509530187334
1293.0,0.09463593123310776
1292.0,0.09865067458435761
1291.0,0.10242788617426934
1290.0,0.1060718734573931
1289.0,0.10969078310005154
1288.0,0.1133401021387972
1287.0,0.11679296664760996
1286.0,0.1201016756699902
1285.0,0.12326270285933538
1284.0,0.1263307072932056
1283.0,0.12924505510985984
1282.0,0.132179091954427
1281.0,0.1350738084609946
1280.0,0.13822670328130693
1279.0,0.1414628024303608
1278.0,0.14490504884137811
1277.0,0.14868048735125483
1276.0,0.15292113793428452
1275.0,0.15757799664235028
1274.0,0.16272729749769965
1273.0,0.16877030613293664
1272.0,0.17574396237031764
1271.0,0.18336105510153855
1270.0,0.19158644859963192
1269.0,0.20031490909089955
1268.0,0.20943337485392344
1267.0,0.2187474057515435
1266.0,0.22782503917538577
1265.0,0.23672178898102136
1264.0,0.24519314464557662
1263.0,0.2528990686350139
1262.0,0.2596373105057561
1261.0,0.2656803191409931
1260.0,0.27099729072781
1259.0,0.2753146117626406
1258.0,0.2788491562503159
1257.0,0.28216313251307445
1256.0,0.28583795390114686
1255.0,0.2899673009342465
1254.0,0.29447838657733283
1253.0,0.29955589897224844
1252.0,0.30539480106643135
1251.0,0.31175820402228815
1250.0,0.3182162335321186
1249.0,0.32495526404410735
1248.0,0.3315208970674144
1247.0,0.3374310330667398
1246.0,0.3423705686110481
1245.0,0.3464016181567102
1244.0,0.3494011018273431
1243.0,0.35076252765039273
1242.0,0.35017853677543487
1241.0,0.3476569449372853
1240.0,0.3433269541151498
1239.0,0.33714776673520386
1238.0,0.32929040477620286
1237.0,0.32048125630421054
1236.0,0.31104653736258214
1235.0,0.30094314545233236
1234.0,0.2905604258675891
1233.0,0.2803373169819534
1232.0,0.27075419277469326
1231.0,0.2615365605380475
1230.0,0.25282132863983553
1229.0,0.24473510858775338
1228.0,0.23724643506662613
1227.0,0.23003219867055757
1226.0,0.2231535913047007
1225.0,0.2166682371125761
1224.0,0.2104897959097456
1223.0,0.2043980201058202
1222.0,0.1981848314185628
1221.0,0.19192413190869306
1220.0,0.18555262147751228
1219.0,0.17901082358395048
1218.0,0.17224313702138327
1217.0,0.16564288728159493
1216.0,0.15914144595812063
1215.0,0.15279763601907614
1214.0,0.14666689499766483
1213.0,0.1408016384661226
1212.0,0.13542959314656988
1211.0,0.13035765534840538
1210.0,0.12557616941349803
1209.0,0.12119106764079435
1208.0,0.11702034596270106
1207.0,0.1130019543289007
1206.0,0.10907622851098608
1205.0,0.10535169620648288
1204.0,0.10171372141087698
1203.0,0.09826930827078129
1202.0,0.09490603167212863
1201.0,0.0917295005042762
1200.0,0.08862929288386212
1199.0,0.08555105930144569
1198.0,0.08249449044745338
1197.0,0.07951143534170213
1196.0,0.07665234350217442
1195.0,0.07386342893255127
1194.0,0.07119462910671581
1193.0,0.06869471857832687
1192.0,0.06641148980334699
1191.0,0.06434161389936577
1190.0,0.06243196139961715
1189.0,0.060730413661268745
1188.0,0.05928434309333741
1187.0,0.05814087347462649
1186.0,0.05734718830678798
1185.0,0.05690137699451481
1184.0,0.0567528748621382
1183.0,0.056950888991593285
1182.0,0.057396751157843484
1181.0,0.05809122563440061
1180.0,0.05908526241971446
1179.0,0.0601813371786204
1178.0,0.06123017721688262
1177.0,0.062131203436140536
1176.0,0.06268275223750575
1175.0,0.06283329628496737
1174.0,0.06243196139961715
1173.0,0.06143024377893891
1172.0,0.05973260855398799
1171.0,0.05754547365752294
1170.0,0.0549747987575373
1169.0,0.05237025261564554
1168.0,0.049927370249842395
1167.0,0.04778894189133087
1166.0,0.046143701775014145
1165.0,0.044937930324967956
1164.0,0.04421607108308856
1163.0,0.043735497301724546
1162.0,0.04344740808260106
1161.0,0.043303435105349175
1160.0,0.0433514207947967
1159.0,0.04359142880416744
1158.0,0.04402377775167454
1157.0,0.04474531717982
1156.0,0.045564513671517703
1155.0,0.04657860031896477
1154.0,0.0478374257855374
1153.0,0.049294465226138895
1152.0,0.05095170768433621
1151.0,0.05290953578037816
1150.0,0.055122694036304765
1149.0,0.0575950591438934
1148.0,0.06028111764589528
1147.0,0.06323500239005853
1146.0,0.0663102910421054
1145.0,0.06961138175567827
1144.0,0.07314329105030759
1143.0,0.07696333132921396
1142.0,0.08102656950704579
1141.0,0.08539243222891946
1140.0,0.0900697402471693
1139.0,0.0950141189006366
1138.0,0.10023419805561384
1137.0,0.10596099919539115
1136.0,0.11221396516162851
1135.0,0.1190150095132465
1134.0,0.12627261935332057
1133.0,0.1340081998737246
1132.0,0.14206473528057106
1131.0,0.15033494452126717
1130.0,0.158765704493959
1129.0,0.16729952903943257
1128.0,0.17593928258134706
1127.0,0.18448866263723573
1126.0,0.1928710444075783
1125.0,0.20121128604875071
1124.0,0.2092927126723203
1123.0,0.21702600505595182
1122.0,0.22395292881822026
1121.0,0.2301797422364078
1120.0,0.23537560214901854
1119.0,0.23920068836928232
1118.0,0.2414665777627134
1117.0,0.2423003749122612
1116.0,0.24184537803260997
1115.0,0.2404832405378119
1114.0,0.23882418684426865
1113.0,0.2377717157135255
1112.0,0.23814730553361696
1111.0,0.24018112262517377
1110.0,0.2439727870265589
1109.0,0.24964591123729196
1108.0,0.2569608451950669
1107.0,0.2652801583443203
1106.0,0.2742516670044517
1105.0,0.2833290244398645
1104.0,0.2922595457262287
1103.0,0.30033567979762665
1102.0,0.3074174377250909
1101.0,0.31354248953088826
1100.0,0.3186682940308343
1099.0,0.3226668485800983
1098.0,0.32513885926218844
1097.0,0.32651830292665274
1096.0,0.32670256024036415
1095.0,0.3255062827036499
1094.0,0.3230321857052414
1093.0,0.3196644865854368
1092.0,0.3156933539283684
1091.0,0.31104653736258214
1090.0,0.30583370406680177
1089.0,0.30042240860109093
1088.0,0.2949063894521269
1087.0,0.2892059000696725
1086.0,0.2833290244398645
1085.0,0.27744833799904156
1084.0,0.27164621797877153
1083.0,0.2654401784205238
1082.0,0.2587695889745292
1081.0,0.2516568955124505
1080.0,0.24412514432750854
1079.0,0.23604817396667577
1078.0,0.2276049389179997
1077.0,0.21910689131292105
1076.0,0.2108425080885603
1075.0,0.20273245916928362
1074.0,0.19477108579657387
1073.0,0.18735398376688117
1072.0,0.18045606445813123
1071.0,0.17392519729917355
1070.0,0.16787445746599094
1069.0,0.16253782851400533
1068.0,0.15789023655938994
1067.0,0.15347733158371324
1066.0,0.14917004015146906
1065.0,0.14484442282300614
1064.0,0.1407415825326932
1063.0,0.1367961409713705
1062.0,0.13324021650489182
1061.0,0.1302990263261221
1060.0,0.12790202572577325
1059.0,0.12598229613781387
1058.0,0.12430223801979201
1057.0,0.12280148472821018
1056.0,0.12159311241900439
1055.0,0.12061736282565727
1054.0,0.11987267778337518
1053.0,0.11952940719622163
1052.0,0.11952940719622163
1051.0,0.11970100857424737
1050.0,0.11992991593593283
1049.0,0.12015894401343741
1048.0,0.12044539906102569
1047.0,0.12061736282565727
1046.0,0.12056003400478299
1045.0,0.12027350336042275
1044.0,0.11964380058076385
1043.0,0.11867241589944855
1042.0,0.11724784438692004
1041.0,0.11565785235294102
1040.0,0.11390426756225258
1039.0,0.11193288659256306
1038.0,0.10974669484546551
1037.0,0.10729336219433439
1036.0,0.10468797552421272
1035.0,0.10198826120249849
1034.0,0.09930522554760213
1033.0,0.09674718310604158
1032.0,0.09441997176475758
1031.0,0.09253489323414388
1030.0,0.09156860103399356
1029.0,0.0919441259012328
1028.0,0.09425807260839858
1027.0,0.09881421986284966
1026.0,0.1060718734573931
1025.0,0.1163953390777075
1024.0,0.12953756841108
1023.0,0.1447838052666366
1022.0,0.16133977401105848
1021.0,0.17829000270162365
1020.0,0.19422736806433094
1019.0,0.20704829174986794
1018.0,0.21452779669361166
1017.0,0.2150975501133452
1016.0,0.2087305190897315
1015.0,0.19661117501638659
1014.0,0.1815101777957866
1013.0,0.1660882849286216
1012.0,0.15218065270476067
1011.0,0.1404414273739465
1010.0,0.13070959579060148
1009.0,0.12262865413022594
1008.0,0.11594135290606156
1007.0,0.11030620855581463
1006.0,0.10562854614376227
1005.0,0.1017686154869033
1004.0,0.09865067458435761
1003.0,0.09604229147682952
1002.0,0.09366495819490939
1001.0,0.09146136782804049
1000.0,0.08948231448273347
999.0,0.08761850108119962
998.0,0.08597434830367123
997.0,0.08449463824562353
996.0,0.08317771540408803
995.0,0.08202211740709164
994.0,0.08102656950704579
993.0,0.08024221949810584
992.0,0.07972010536705154
991.0,0.07930286553008004
990.0,0.07893810920972144
989.0,0.07878187880504961
988.0,0.07867775641617802
987.0,0.07872981449018734
986.0,0.07883394936226118
985.0,0.07914650387874067
984.0,0.07972010536705154
983.0,0.0805035121369384
982.0,0.08155025759884227
981.0,0.08286224724355584
980.0,0.08433639649422697
979.0,0.08597434830367123
978.0,0.08767164203958999
977.0,0.08937559511079884
976.0,0.0910326995816122
975.0,0.09248115389337075
974.0,0.09366495819490939
973.0,0.09441997176475758
972.0,0.09474395125154866
971.0,0.09468993788391455
970.0,0.09415017335768128
969.0,0.09312646527792956
968.0,0.0917831469106074
967.0,0.0900697402471693
966.0,0.0880970039559672
965.0,0.08602728844902896
964.0,0.0838620168928248
963.0,0.08160266115629988
962.0,0.07935499859321249
961.0,0.0772226580712021
960.0,0.07530729697981409
959.0,0.07350321072677968
958.0,0.0718090519612431
957.0,0.07017251876930874
956.0,0.06864384953207203
955.0,0.0671712330991534
954.0,0.0658551882075229
953.0,0.06474471821595262
952.0,0.06373765809652254
951.0,0.06278310913729457
950.0,0.061880730805688344
949.0,0.06098022355133348
948.0,0.060131455540490375
947.0,0.05928434309333741
946.0,0.05848856736559682
945.0,0.05784307153250956
944.0,0.057396751157843484
943.0,0.057000406633959555
942.0,0.05655495097496965
941.0,0.05601112492622806
940.0,0.05551732784983132
939.0,0.055122694036304765
938.0,0.05482695382609992
937.0,0.05462990550969615
936.0,0.05438372077326825
935.0,0.054088483180726676
934.0,0.05369514500652506
933.0,0.05330216275425803
932.0,0.05290953578037816
931.0,0.0525172634430815
930.0,0.05222329153526162
929.0,0.05188057561946402
928.0,0.0515870342213991
927.0,0.051244819831730126
926.0,0.05085404758005607
925.0,0.050414848673348
924.0,0.05002482217034632
923.0,0.04963514562387683
922.0,0.049294465226138895
921.0,0.04900266601119507
920.0,0.04875964967565971
919.0,0.04851676924770687
918.0,0.04827402457540786
917.0,0.04803141550708934
916.0,0.047934409814949674
915.0,0.047934409814949674
914.0,0.048128442871635535
913.0,0.04837110616336182
912.0,0.04866248120408234
911.0,0.04905128560059957
910.0,0.04953778109440221
909.0,0.05021979163799939
908.0,0.051049389754451946
907.0,0.052027420754219955
906.0,0.05305672930217464
905.0,0.054186873412661596
904.0,0.05531996611868961
903.0,0.056406567231630955
902.0,0.05734718830678798
901.0,0.058190526991161784
900.0,0.058786812414678646
899.0,0.059135024033278416
898.0,0.05923456436878238
897.0,0.059135024033278416
896.0,0.0588862729628985
895.0,0.05843887976392925
894.0,0.05804158346918653
893.0,0.05769424710410598
892.0,0.05749589383191922
891.0,0.05729763111133224
890.0,0.05729763111133224
889.0,0.05764465029232335
888.0,0.05848856736559682
887.0,0.05988213325228142
886.0,0.06193081377661436
885.0,0.06484555278383164
884.0,0.06864384953207203
883.0,0.07340034609297241
882.0,0.07893810920972144
881.0,0.08523386307414738
880.0,0.09226626300234453
879.0,0.09974214156222239
878.0,0.10768273927751948
877.0,0.11622503864474187
876.0,0.12563416426995122
875.0,0.13531096586314884
874.0,0.143996546002779
873.0,0.14953756723848333
872.0,0.15002808767114995
871.0,0.14490504884137811
870.0,0.13578566953867033
869.0,0.125054563914468
868.0,0.11492161585077598
867.0,0.1063491830140364
866.0,0.09957824654226233
865.0,0.09447395156495153
864.0,0.09071147583774919
863.0,0.08788427092114603
862.0,0.08576265223225898
861.0,0.08423093401631587
860.0,0.0832303157168639
859.0,0.08265206237222844
858.0,0.08228448344050654
857.0,0.08217951800630297
856.0,0.08228448344050654
855.0,0.08265206237222844
854.0,0.08317771540408803
853.0,0.08402008585977572
852.0,0.08507535179485148
851.0,0.0862920860195171
850.0,0.08740600224789441
849.0,0.08836306687055773
848.0,0.08900228368935714
847.0,0.08916223500731646
846.0,0.08873582900163002
845.0,0.08788427092114603
844.0,0.08666307406737683
843.0,0.08507535179485148
842.0,0.0832303157168639
841.0,0.08139308485501817
840.0,0.07966792846041071
839.0,0.07800156869172903
838.0,0.07634157820669385
837.0,0.07458476291575367
836.0,0.07268097504034388
835.0,0.07063217075990047
834.0,0.06864384953207203
833.0,0.06676587128519196
832.0,0.06509774167768612
831.0,0.06348625752110681
830.0,0.061880730805688344
829.0,0.06028111764589528
828.0,0.0588862729628985
827.0,0.05764465029232335
826.0,0.05660442349104544
825.0,0.05581353871631256
824.0,0.055172003656783764
823.0,0.054728418492290265
822.0,0.05438372077326825
821.0,0.05403929642243144
820.0,0.053596866100945384
819.0,0.053203972728539606
818.0,0.05286048235717078
817.0,0.05266432405126009
816.0,0.0525172634430815
815.0,0.052468254304406825
814.0,0.0525172634430815
813.0,0.05256627811294923
812.0,0.052468254304406825
811.0,0.05212534510230182
810.0,0.05163594401163074
809.0,0.05119595406718891
808.0,0.050805225762017736
807.0,0.050463626623857394
806.0,0.050073556332087765
805.0,0.04958646063061889
804.0,0.04909991063361274
803.0,0.0486139051197072
802.0,0.04807992647970649
801.0,0.047691990337874746
800.0,0.047691990337874746
799.0,0.048468209457651845
798.0,0.05036607620073763
797.0,0.05330216275425803
796.0,0.0567528748621382
795.0,0.05998184499233683
794.0,0.06223143295006417
793.0,0.06298389253518577
792.0,0.062281556382736136
791.0,0.06048074738138154
790.0,0.05804158346918653
789.0,0.05551732784983132
788.0,0.05305672930217464
787.0,0.05065879322950262
786.0,0.04841965509660828
785.0,0.046481918555007384
784.0,0.04484161307420642
783.0,0.043495409683302455
782.0,0.042392712939904875
781.0,0.04138834223512067
780.0,0.040338629726504704
779.0,0.03910132267333921
778.0,0.03782014709123227
777.0,0.036779013477011624
776.0,0.03602339000339416
775.0,0.03541041251009669
774.0,0.03470420418834386
773.0,0.03385826726096752
772.0,0.032920265855503006
771.0,0.03193753992355086
770.0,0.030957032694186815
769.0,0.029978734171634214
768.0,0.029002634427514717
767.0,0.028028723600243666
766.0,0.027010773144651168
765.0,0.02617967564731627
764.0,0.02553436426275746
763.0,0.025028005701930978
762.0,0.024476287039668643
761.0,0.023971159908874107
760.0,0.023466619608062178
759.0,0.023054249440757957
758.0,0.022688026603074007
757.0,0.022322112326006227
756.0,0.022093572362881675
755.0,0.022139270735302752
754.0,0.022367834754000393
753.0,0.022642270454698687
752.0,0.02282532397981263
751.0,0.022871099419317753
750.0,0.02291687968414724
749.0,0.023054249440757957
748.0,0.023374947949272418
747.0,0.023971159908874107
746.0,0.02516604495145991
745.0,0.027056991894431892
744.0,0.029560137048236124
743.0,0.032873418923587305
742.0,0.037583306554248797
741.0,0.04426415772233416
740.0,0.05340037498486727
739.0,0.06474471821595262
738.0,0.07805354577058976
737.0,0.09291125492570451
736.0,0.10885296955122903
735.0,0.12551818230053358
734.0,0.1427278264359586
733.0,0.16058480731610647
732.0,0.17887967622317635
731.0,0.1974315016860435
730.0,0.21623930425607596
729.0,0.23604817396667577
728.0,0.2566470485904444
727.0,0.2765443279648143
726.0,0.2933675491267054
725.0,0.3048687022959742
724.0,0.30962669308394086
723.0,0.30794663496591923
722.0,0.3016384339448903
721.0,0.29362364416030995
720.0,0.28541879116046887
719.0,0.2771193893130608
718.0,0.26833066817136375
717.0,0.25924267669222956
716.0,0.2498774732165998
715.0,0.24033215531036944
714.0,0.2306226739238615
713.0,0.22119779598676126
712.0,0.21232703531250707
711.0,0.20384212309308558
710.0,0.19586056766464965
709.0,0.1886261029461067
708.0,0.1821703002543944
707.0,0.17619984625012197
706.0,0.17031035910102887
705.0,0.1644362483309032
704.0,0.15851539066460685
703.0,0.1524890347967518
702.0,0.14618015414323682
701.0,0.13990167030148193
700.0,0.13383085236622927
699.0,0.1280186461566306
698.0,0.12257105921178035
697.0,0.1175323851046286
696.0,0.11277666863747693
695.0,0.10812816955441629
694.0,0.10347378251044459
693.0,0.09919606518963042
692.0,0.09582563171583658
691.0,0.0937727369476411
690.0,0.09269615116603047
689.0,0.09205147838772776
688.0,0.09124698081546634
687.0,0.08996287644694911
686.0,0.08862929288386212
685.0,0.08756536662442538
684.0,0.08708744882390307
683.0,0.0870343792958963
682.0,0.08708744882390307
681.0,0.08698131625203986
680.0,0.0861331881037608
679.0,0.08438913733853282
678.0,0.08207457793525874
677.0,0.07977228854307139
676.0,0.07789763319239285
675.0,0.07608277688689435
674.0,0.07381195089279391
673.0,0.0709900145060387
672.0,0.06803388527182741
671.0,0.06575411897692884
670.0,0.06464390705442691
669.0,0.06494641076893504
668.0,0.06610796423578891
667.0,0.0665127121512945
666.0,0.06504729218214189
665.0,0.06288348923294618
664.0,0.06103020277710969
663.0,0.05933412752417122
662.0,0.05749589383191922
661.0,0.05581353871631256
660.0,0.054728418492290265
659.0,0.05394093961487645
658.0,0.05300765925162776
657.0,0.0518316382728683
656.0,0.05095170768433621
655.0,0.05051241005349638
654.0,0.05026854768429301
653.0,0.05012229596312534
652.0,0.050171041064686284
651.0,0.050317309204795935
650.0,0.05026854768429301
649.0,0.049927370249842395
648.0,0.04948910701400333
647.0,0.04900266601119507
646.0,0.04832256265669943
645.0,0.047643522676209304
644.0,0.047352830241056854
643.0,0.0478374257855374
642.0,0.04871106272232795
641.0,0.049245818406496555
640.0,0.04909991063361274
639.0,0.0486139051197072
638.0,0.04832256265669943
637.0,0.0486139051197072
636.0,0.049927370249842395
635.0,0.052419250695677544
634.0,0.05566540802921782
633.0,0.0583891978463662
632.0,0.05928434309333741
631.0,0.05814087347462649
630.0,0.05601112492622806
629.0,0.05403929642243144
628.0,0.05295859474477971
627.0,0.05261529831525902
626.0,0.05256627811294923
625.0,0.05232126006306337
624.0,0.05163594401163074
623.0,0.050463626623857394
622.0,0.04900266601119507
621.0,0.047643522676209304
620.0,0.04667530361081473
619.0,0.04609540658654021
618.0,0.04570923829887308
617.0,0.04541983725624266
616.0,0.04537162249272897
615.0,0.045902279520810385
614.0,0.047062332249019345
613.0,0.048565334467987054
612.0,0.04968383607539972
611.0,0.04958646063061889
610.0,0.047885915093007325
609.0,0.044986096961949995
608.0,0.04186632432376469
607.0,0.03943409718180235
606.0,0.038057116858612794
605.0,0.037346595106788616
604.0,0.037062711569998186
603.0,0.03701541568300293
602.0,0.037251946641359446
601.0,0.037583306554248797
600.0,0.038151940981675736
