cm-1,A
4000.0,0.005638848091999105
3999.0,0.005726851026829571
3998.0,0.005726851026829571
3997.0,0.005638848091999105
3996.0,0.005462895701502157
3995.0,0.0052870145684298375
3994.0,0.005243055412371911
3993.0,0.005330978174470591
3992.0,0.005462895701502157
3991.0,0.005594853310833647
3990.0,0.005726851026829571
3989.0,0.005814871797682919
3988.0,0.005858888873877532
3987.0,0.005858888873877532
3986.0,0.005814871797682919
3985.0,0.00577085918230158
3984.0,0.005726851026829571
3983.0,0.005726851026829571
3982.0,0.005726851026829571
3981.0,0.005726851026829571
3980.0,0.005682847330363394
3979.0,0.005682847330363394
3978.0,0.005682847330363394
3977.0,0.005682847330363394
3976.0,0.005726851026829571
3975.0,0.00577085918230158
3974.0,0.005814871797682919
3973.0,0.00577085918230158
3972.0,0.00577085918230158
3971.0,0.005726851026829571
3970.0,0.005726851026829571
3969.0,0.005682847330363394
3968.0,0.005682847330363394
3967.0,0.005638848091999105
3966.0,0.005550862985963967
3965.0,0.005550862985963967
3964.0,0.005550862985963967
3963.0,0.005594853310833647
3962.0,0.005594853310833647
3961.0,0.005594853310833647
3960.0,0.005594853310833647
3959.0,0.005594853310833647
3958.0,0.005638848091999105
3957.0,0.005726851026829571
3956.0,0.005858888873877532
3955.0,0.005946936412324799
3954.0,0.005990966876386672
3953.0,0.005990966876386672
3952.0,0.005946936412324799
3951.0,0.00590291041179003
3950.0,0.005814871797682919
3949.0,0.00577085918230158
3948.0,0.00577085918230158
3947.0,0.00577085918230158
3946.0,0.005814871797682919
3945.0,0.005858888873877532
3944.0,0.005814871797682919
3943.0,0.005814871797682919
3942.0,0.005814871797682919
3941.0,0.005858888873877532
3940.0,0.005946936412324799
3939.0,0.006035001804881146
3938.0,0.006079041198713275
3937.0,0.006079041198713275
3936.0,0.006035001804881146
3935.0,0.005946936412324799
3934.0,0.005814871797682919
3933.0,0.005726851026829571
3932.0,0.005726851026829571
3931.0,0.005814871797682919
3930.0,0.005858888873877532
3929.0,0.00590291041179003
3928.0,0.005946936412324799
3927.0,0.005946936412324799
3926.0,0.005946936412324799
3925.0,0.005946936412324799
3924.0,0.00590291041179003
3923.0,0.00590291041179003
3922.0,0.005858888873877532
3921.0,0.00590291041179003
3920.0,0.005946936412324799
3919.0,0.005990966876386672
3918.0,0.006035001804881146
3917.0,0.006035001804881146
3916.0,0.005990966876386672
3915.0,0.005990966876386672
3914.0,0.005990966876386672
3913.0,0.006035001804881146
3912.0,0.006079041198713275
3911.0,0.00612308505878878
3910.0,0.00621118618129457
3909.0,0.00625524344553785
3908.0,0.00625524344553785
3907.0,0.006299305179649828
3906.0,0.006299305179649828
3905.0,0.006343371384537999
3904.0,0.006431517210272464
3903.0,0.006431517210272464
3902.0,0.006343371384537999
3901.0,0.00612308505878878
3900.0,0.005946936412324799
3899.0,0.005858888873877532
3898.0,0.00590291041179003
3897.0,0.005990966876386672
3896.0,0.006079041198713275
3895.0,0.006167133386013823
3894.0,0.006167133386013823
3893.0,0.00621118618129457
3892.0,0.00625524344553785
3891.0,0.006299305179649828
3890.0,0.006387442061109638
3889.0,0.006431517210272464
3888.0,0.006475596832934416
3887.0,0.006299305179649828
3886.0,0.006079041198713275
3885.0,0.006035001804881146
3884.0,0.006079041198713275
3883.0,0.00612308505878878
3882.0,0.006079041198713275
3881.0,0.006035001804881146
3880.0,0.006035001804881146
3879.0,0.006079041198713275
3878.0,0.006167133386013823
3877.0,0.00621118618129457
3876.0,0.00612308505878878
3875.0,0.005990966876386672
3874.0,0.005990966876386672
3873.0,0.00612308505878878
3872.0,0.00621118618129457
3871.0,0.006167133386013823
3870.0,0.006079041198713275
3869.0,0.006079041198713275
3868.0,0.006299305179649828
3867.0,0.006431517210272464
3866.0,0.006343371384537999
3865.0,0.006167133386013823
3864.0,0.006079041198713275
3863.0,0.006079041198713275
3862.0,0.00612308505878878
3861.0,0.006167133386013823
3860.0,0.00621118618129457
3859.0,0.006299305179649828
3858.0,0.006431517210272464
3857.0,0.006651960076740071
3856.0,0.006828394969235152
3855.0,0.006828394969235152
3854.0,0.006740168563263094
3853.0,0.006651960076740071
3852.0,0.006475596832934416
3851.0,0.006387442061109638
3850.0,0.006299305179649828
3849.0,0.00621118618129457
3848.0,0.006167133386013823
3847.0,0.006167133386013823
3846.0,0.00621118618129457
3845.0,0.00625524344553785
3844.0,0.006299305179649828
3843.0,0.006431517210272464
3842.0,0.006607862550997545
3841.0,0.006696062080525422
3840.0,0.006740168563263094
3839.0,0.006740168563263094
3838.0,0.006784279525863024
3837.0,0.006828394969235152
3836.0,0.006784279525863024
3835.0,0.006740168563263094
3834.0,0.006651960076740071
3833.0,0.00656376950238835
3832.0,0.006431517210272464
3831.0,0.006387442061109638
3830.0,0.006387442061109638
3829.0,0.006431517210272464
3828.0,0.006431517210272464
3827.0,0.006475596832934416
3826.0,0.006607862550997545
3825.0,0.006872514894289861
3824.0,0.007093181776687496
3823.0,0.007093181776687496
3822.0,0.006872514894289861
3821.0,0.006696062080525422
3820.0,0.006651960076740071
3819.0,0.006696062080525422
3818.0,0.006740168563263094
3817.0,0.006607862550997545
3816.0,0.00656376950238835
3815.0,0.00656376950238835
3814.0,0.00656376950238835
3813.0,0.006475596832934416
3812.0,0.006343371384537999
3811.0,0.006299305179649828
3810.0,0.006343371384537999
3809.0,0.006387442061109638
3808.0,0.006387442061109638
3807.0,0.006431517210272464
3806.0,0.006519680930003435
3805.0,0.006696062080525422
3804.0,0.006872514894289861
3803.0,0.006828394969235152
3802.0,0.006740168563263094
3801.0,0.006828394969235152
3800.0,0.00696076819309055
3799.0,0.007093181776687496
3798.0,0.007049039429553483
3797.0,0.00696076819309055
3796.0,0.006828394969235152
3795.0,0.006696062080525422
3794.0,0.006607862550997545
3793.0,0.006519680930003435
3792.0,0.006475596832934416
3791.0,0.006519680930003435
3790.0,0.006607862550997545
3789.0,0.006696062080525422
3788.0,0.006696062080525422
3787.0,0.006740168563263094
3786.0,0.006696062080525422
3785.0,0.006696062080525422
3784.0,0.006696062080525422
3783.0,0.006740168563263094
3782.0,0.006828394969235152
3781.0,0.006828394969235152
3780.0,0.006828394969235152
3779.0,0.006828394969235152
3778.0,0.006828394969235152
3777.0,0.006828394969235152
3776.0,0.006784279525863024
3775.0,0.006696062080525422
3774.0,0.006651960076740071
3773.0,0.00656376950238835
3772.0,0.006519680930003435
3771.0,0.006475596832934416
3770.0,0.00656376950238835
3769.0,0.006740168563263094
3768.0,0.006916639301937977
3767.0,0.007004901568658406
3766.0,0.00696076819309055
3765.0,0.006916639301937977
3764.0,0.006872514894289861
3763.0,0.006872514894289861
3762.0,0.006828394969235152
3761.0,0.006740168563263094
3760.0,0.006740168563263094
3759.0,0.006828394969235152
3758.0,0.006828394969235152
3757.0,0.006784279525863024
3756.0,0.006740168563263094
3755.0,0.006740168563263094
3754.0,0.006784279525863024
3753.0,0.006828394969235152
3752.0,0.007004901568658406
3751.0,0.007225635744644521
3750.0,0.007269796045857202
3749.0,0.007181479933320523
3748.0,0.007225635744644521
3747.0,0.007402303897961815
3746.0,0.0074464821678643656
3745.0,0.007225635744644521
3744.0,0.007004901568658406
3743.0,0.006828394969235152
3742.0,0.006784279525863024
3741.0,0.006784279525863024
3740.0,0.006784279525863024
3739.0,0.006872514894289861
3738.0,0.00696076819309055
3737.0,0.007093181776687496
3736.0,0.007269796045857202
3735.0,0.007534852191956709
3734.0,0.00762324020119709
3733.0,0.007490664932224611
3732.0,0.007137328610972382
3731.0,0.006872514894289861
3730.0,0.006740168563263094
3729.0,0.006784279525863024
3728.0,0.006828394969235152
3727.0,0.00696076819309055
3726.0,0.007137328610972382
3725.0,0.007269796045857202
3724.0,0.007225635744644521
3723.0,0.007137328610972382
3722.0,0.007049039429553483
3721.0,0.007049039429553483
3720.0,0.007093181776687496
3719.0,0.007093181776687496
3718.0,0.007049039429553483
3717.0,0.007093181776687496
3716.0,0.007225635744644521
3715.0,0.007402303897961815
3714.0,0.007534852191956709
3713.0,0.007534852191956709
3712.0,0.007402303897961815
3711.0,0.007225635744644521
3710.0,0.007049039429553483
3709.0,0.006872514894289861
3708.0,0.006828394969235152
3707.0,0.006872514894289861
3706.0,0.00696076819309055
3705.0,0.007049039429553483
3704.0,0.007137328610972382
3703.0,0.007137328610972382
3702.0,0.007137328610972382
3701.0,0.007181479933320523
3700.0,0.007181479933320523
3699.0,0.007137328610972382
3698.0,0.007049039429553483
3697.0,0.006872514894289861
3696.0,0.006784279525863024
3695.0,0.006784279525863024
3694.0,0.006872514894289861
3693.0,0.007049039429553483
3692.0,0.007225635744644521
3691.0,0.007490664932224611
3690.0,0.007667440952535687
3689.0,0.007667440952535687
3688.0,0.007490664932224611
3687.0,0.007358130121602358
3686.0,0.007269796045857202
3685.0,0.007225635744644521
3684.0,0.007269796045857202
3683.0,0.007358130121602358
3682.0,0.007490664932224611
3681.0,0.007534852191956709
3680.0,0.0075790439479759275
3679.0,0.0075790439479759275
3678.0,0.007534852191956709
3677.0,0.007402303897961815
3676.0,0.007402303897961815
3675.0,0.00762324020119709
3674.0,0.007844288957383316
3673.0,0.008065450281052211
3672.0,0.008109696063975047
3671.0,0.008021209005416363
3670.0,0.008021209005416363
3669.0,0.008065450281052211
3668.0,0.008109696063975047
3667.0,0.008065450281052211
3666.0,0.007932739972333236
3665.0,0.007800070204414977
3664.0,0.007667440952535687
3663.0,0.0075790439479759275
3662.0,0.00762324020119709
3661.0,0.007711646202907652
3660.0,0.007844288957383316
3659.0,0.007932739972333236
3658.0,0.007976972236149349
3657.0,0.008021209005416363
3656.0,0.008109696063975047
3655.0,0.008198201155356077
3654.0,0.008198201155356077
3653.0,0.008153946355103248
3652.0,0.007932739972333236
3651.0,0.007844288957383316
3650.0,0.008109696063975047
3649.0,0.008596697419959609
3648.0,0.008818242332126802
3647.0,0.008773924307505121
3646.0,0.008596697419959609
3645.0,0.00850811108984062
3644.0,0.008463824699968647
3643.0,0.008463824699968647
3642.0,0.008463824699968647
3641.0,0.00850811108984062
3640.0,0.008552401996197112
3639.0,0.008685301823389224
3638.0,0.008862564879688284
3637.0,0.009039900317800775
3636.0,0.00908424549391551
3635.0,0.009039900317800775
3634.0,0.008995559669244813
3633.0,0.009039900317800775
3632.0,0.009217308196862062
3631.0,0.009261671492462709
3630.0,0.009261671492462709
3629.0,0.009350411681145587
3628.0,0.009483555971770974
3627.0,0.009527946474380489
3626.0,0.009483555971770974
3625.0,0.00939478857608056
3624.0,0.009350411681145587
3623.0,0.009350411681145587
3622.0,0.009350411681145587
3621.0,0.009439170005980158
3620.0,0.009527946474380489
3619.0,0.00966114521239847
3618.0,0.009794384815193347
3617.0,0.009883233932095559
3616.0,0.009972101229705377
3615.0,0.01001654169860089
3614.0,0.010060986715464404
3613.0,0.01001654169860089
3612.0,0.009927665307847056
3611.0,0.009883233932095559
3610.0,0.009838807101520963
3609.0,0.009883233932095559
3608.0,0.009927665307847056
3607.0,0.009927665307847056
3606.0,0.009838807101520963
3605.0,0.009705553871561357
3604.0,0.009527946474380489
3603.0,0.009439170005980158
3602.0,0.009350411681145587
3601.0,0.009350411681145587
3600.0,0.009350411681145587
3599.0,0.009350411681145587
3598.0,0.009350411681145587
3597.0,0.009439170005980158
3596.0,0.009572341514736404
3595.0,0.009705553871561357
3594.0,0.00974996707218323
3593.0,0.009794384815193347
3592.0,0.00974996707218323
3591.0,0.009794384815193347
3590.0,0.009927665307847056
3589.0,0.010105436281226954
3588.0,0.010283280051895272
3587.0,0.010416710688994968
3586.0,0.010327752376126709
3585.0,0.010149890396819572
3584.0,0.009972101229705377
3583.0,0.009838807101520963
3582.0,0.009794384815193347
3581.0,0.00974996707218323
3580.0,0.00974996707218323
3579.0,0.009794384815193347
3578.0,0.009838807101520963
3577.0,0.009883233932095559
3576.0,0.01001654169860089
3575.0,0.010060986715464404
3574.0,0.010105436281226954
3573.0,0.010105436281226954
3572.0,0.010060986715464404
3571.0,0.010060986715464404
3570.0,0.01001654169860089
3569.0,0.01001654169860089
3568.0,0.01023881228122181
3567.0,0.010639186223752484
3566.0,0.010950843561779777
3565.0,0.011084479487313281
3564.0,0.010995384301463185
3563.0,0.010906307389674463
3562.0,0.01077272626946324
3561.0,0.010728208358306901
3560.0,0.010728208358306901
3559.0,0.01077272626946324
3558.0,0.010906307389674463
3557.0,0.010950843561779777
3556.0,0.010950843561779777
3555.0,0.010950843561779777
3554.0,0.010995384301463185
3553.0,0.011039929609661936
3552.0,0.011084479487313281
3551.0,0.011084479487313281
3550.0,0.011039929609661936
3549.0,0.011039929609661936
3548.0,0.011129033935354915
3547.0,0.011218156546359825
3546.0,0.011307297450183107
3545.0,0.011396456654336085
3544.0,0.011441043121384498
3543.0,0.011485634166333858
3542.0,0.011530229790124524
3541.0,0.011574829993696856
3540.0,0.011574829993696856
3539.0,0.011619434777991433
3538.0,0.011664044143949504
3537.0,0.011664044143949504
3536.0,0.011574829993696856
3535.0,0.011441043121384498
3534.0,0.011351874764248926
3533.0,0.011262724711199823
3532.0,0.011218156546359825
3531.0,0.011218156546359825
3530.0,0.011218156546359825
3529.0,0.011307297450183107
3528.0,0.011441043121384498
3527.0,0.011619434777991433
3526.0,0.011708658092512314
3525.0,0.011708658092512314
3524.0,0.011664044143949504
3523.0,0.011619434777991433
3522.0,0.011619434777991433
3521.0,0.011574829993696856
3520.0,0.011441043121384498
3519.0,0.011307297450183107
3518.0,0.01117359295472431
3517.0,0.01117359295472431
3516.0,0.011351874764248926
3515.0,0.011530229790124524
3514.0,0.011664044143949504
3513.0,0.011708658092512314
3512.0,0.011708658092512314
3511.0,0.011619434777991433
3510.0,0.011619434777991433
3509.0,0.011664044143949504
3508.0,0.011753276624621556
3507.0,0.011842527443247208
3506.0,0.011797899741219142
3505.0,0.011664044143949504
3504.0,0.011574829993696856
3503.0,0.011574829993696856
3502.0,0.011664044143949504
3501.0,0.011708658092512314
3500.0,0.011664044143949504
3499.0,0.011619434777991433
3498.0,0.011574829993696856
3497.0,0.011619434777991433
3496.0,0.011708658092512314
3495.0,0.011753276624621556
3494.0,0.011797899741219142
3493.0,0.011797899741219142
3492.0,0.011753276624621556
3491.0,0.011753276624621556
3490.0,0.011708658092512314
3489.0,0.011664044143949504
3488.0,0.011619434777991433
3487.0,0.011619434777991433
3486.0,0.011619434777991433
3485.0,0.011619434777991433
3484.0,0.011619434777991433
3483.0,0.011664044143949504
3482.0,0.011753276624621556
3481.0,0.011887159731648111
3480.0,0.011931796607364653
3479.0,0.011931796607364653
3478.0,0.011887159731648111
3477.0,0.011753276624621556
3476.0,0.011664044143949504
3475.0,0.011664044143949504
3474.0,0.011797899741219142
3473.0,0.011887159731648111
3472.0,0.0119764380713403
3471.0,0.0119764380713403
3470.0,0.011887159731648111
3469.0,0.011842527443247208
3468.0,0.011753276624621556
3467.0,0.011708658092512314
3466.0,0.011708658092512314
3465.0,0.011797899741219142
3464.0,0.011931796607364653
3463.0,0.012065734767841452
3462.0,0.01215504982870197
3461.0,0.012199714248127602
3460.0,0.012199714248127602
3459.0,0.012244383261476699
3458.0,0.012289056869694281
3457.0,0.012333735073725371
3456.0,0.012333735073725371
3455.0,0.012289056869694281
3454.0,0.012289056869694281
3453.0,0.012333735073725371
3452.0,0.012467797270160563
3451.0,0.01260190086298274
3450.0,0.012736045877764557
3449.0,0.012825498912458322
3448.0,0.012914970375878188
3447.0,0.013004460275618523
3446.0,0.013093968619278806
3445.0,0.01322826573375524
3444.0,0.013362604389846044
3443.0,0.013452186585275916
3442.0,0.013496984613259544
3441.0,0.013452186585275916
3440.0,0.013362604389846044
3439.0,0.013317820220494436
3438.0,0.01322826573375524
3437.0,0.01318349541446362
3436.0,0.013138729709955221
3435.0,0.013273040668781544
3434.0,0.013496984613259544
3433.0,0.01381070026317599
3432.0,0.01403492169512921
3431.0,0.014169510141607944
3430.0,0.014214382227394795
3429.0,0.014169510141607944
3428.0,0.014079779876432497
3427.0,0.013990068146738865
3426.0,0.013945219230304673
3425.0,0.013945219230304673
3424.0,0.013945219230304673
3423.0,0.013945219230304673
3422.0,0.01385553528947936
3421.0,0.013765869865004277
3420.0,0.013676222949234651
3419.0,0.013586594534531482
3418.0,0.013452186585275916
3417.0,0.013317820220494436
3416.0,0.013138729709955221
3415.0,0.012959713020733288
3414.0,0.012914970375878188
3413.0,0.012959713020733288
3412.0,0.013138729709955221
3411.0,0.01322826573375524
3410.0,0.01322826573375524
3409.0,0.013049212141483357
3408.0,0.012914970375878188
3407.0,0.012825498912458322
3406.0,0.012870232340102872
3405.0,0.012914970375878188
3404.0,0.012870232340102872
3403.0,0.012780770091995297
3402.0,0.012736045877764557
3401.0,0.012736045877764557
3400.0,0.012780770091995297
3399.0,0.012870232340102872
3398.0,0.012914970375878188
3397.0,0.012914970375878188
3396.0,0.012870232340102872
3395.0,0.012825498912458322
3394.0,0.012825498912458322
3393.0,0.012825498912458322
3392.0,0.012780770091995297
3391.0,0.012736045877764557
3390.0,0.01264661126420652
3389.0,0.01260190086298274
3388.0,0.012557195064198723
3387.0,0.012512493866907004
3386.0,0.012467797270160563
3385.0,0.012467797270160563
3384.0,0.012557195064198723
3383.0,0.01260190086298274
3382.0,0.01260190086298274
3381.0,0.012557195064198723
3380.0,0.012557195064198723
3379.0,0.012557195064198723
3378.0,0.01260190086298274
3377.0,0.01264661126420652
3376.0,0.012691326268817527
3375.0,0.01264661126420652
3374.0,0.01264661126420652
3373.0,0.01260190086298274
3372.0,0.012557195064198723
3371.0,0.01260190086298274
3370.0,0.01260190086298274
3369.0,0.012691326268817527
3368.0,0.012780770091995297
3367.0,0.012914970375878188
3366.0,0.013049212141483357
3365.0,0.013093968619278806
3364.0,0.013049212141483357
3363.0,0.012959713020733288
3362.0,0.012870232340102872
3361.0,0.012914970375878188
3360.0,0.012959713020733288
3359.0,0.012959713020733288
3358.0,0.012959713020733288
3357.0,0.012870232340102872
3356.0,0.012736045877764557
3355.0,0.012691326268817527
3354.0,0.01260190086298274
3353.0,0.012557195064198723
3352.0,0.012512493866907004
3351.0,0.012467797270160563
3350.0,0.012467797270160563
3349.0,0.012512493866907004
3348.0,0.01264661126420652
3347.0,0.012825498912458322
3346.0,0.012959713020733288
3345.0,0.013093968619278806
3344.0,0.013138729709955221
3343.0,0.01318349541446362
3342.0,0.01318349541446362
3341.0,0.013138729709955221
3340.0,0.013049212141483357
3339.0,0.012914970375878188
3338.0,0.012825498912458322
3337.0,0.012780770091995297
3336.0,0.012825498912458322
3335.0,0.012959713020733288
3334.0,0.013093968619278806
3333.0,0.01318349541446362
3332.0,0.01318349541446362
3331.0,0.013138729709955221
3330.0,0.013093968619278806
3329.0,0.013093968619278806
3328.0,0.013049212141483357
3327.0,0.013049212141483357
3326.0,0.012959713020733288
3325.0,0.012870232340102872
3324.0,0.012825498912458322
3323.0,0.012870232340102872
3322.0,0.012959713020733288
3321.0,0.013093968619278806
3320.0,0.013138729709955221
3319.0,0.013138729709955221
3318.0,0.013138729709955221
3317.0,0.013138729709955221
3316.0,0.013138729709955221
3315.0,0.013049212141483357
3314.0,0.012914970375878188
3313.0,0.012825498912458322
3312.0,0.012736045877764557
3311.0,0.012780770091995297
3310.0,0.012870232340102872
3309.0,0.012959713020733288
3308.0,0.013049212141483357
3307.0,0.013004460275618523
3306.0,0.012914970375878188
3305.0,0.012870232340102872
3304.0,0.012870232340102872
3303.0,0.012914970375878188
3302.0,0.012914970375878188
3301.0,0.012870232340102872
3300.0,0.012870232340102872
3299.0,0.012870232340102872
3298.0,0.012959713020733288
3297.0,0.013093968619278806
3296.0,0.013138729709955221
3295.0,0.013138729709955221
3294.0,0.013049212141483357
3293.0,0.013004460275618523
3292.0,0.012959713020733288
3291.0,0.012959713020733288
3290.0,0.013004460275618523
3289.0,0.013093968619278806
3288.0,0.01322826573375524
3287.0,0.013362604389846044
3286.0,0.013452186585275916
3285.0,0.013541787262693505
3284.0,0.013541787262693505
3283.0,0.013452186585275916
3282.0,0.013273040668781544
3281.0,0.013049212141483357
3280.0,0.012825498912458322
3279.0,0.012736045877764557
3278.0,0.012691326268817527
3277.0,0.012691326268817527
3276.0,0.012691326268817527
3275.0,0.012736045877764557
3274.0,0.012870232340102872
3273.0,0.013004460275618523
3272.0,0.013138729709955221
3271.0,0.01322826573375524
3270.0,0.013273040668781544
3269.0,0.013273040668781544
3268.0,0.013273040668781544
3267.0,0.013273040668781544
3266.0,0.01322826573375524
3265.0,0.013138729709955221
3264.0,0.013049212141483357
3263.0,0.013004460275618523
3262.0,0.013093968619278806
3261.0,0.013138729709955221
3260.0,0.013138729709955221
3259.0,0.013093968619278806
3258.0,0.013093968619278806
3257.0,0.01318349541446362
3256.0,0.013273040668781544
3255.0,0.013317820220494436
3254.0,0.013362604389846044
3253.0,0.013362604389846044
3252.0,0.013362604389846044
3251.0,0.013362604389846044
3250.0,0.013407393177789162
3249.0,0.013496984613259544
3248.0,0.013496984613259544
3247.0,0.013496984613259544
3246.0,0.013496984613259544
3245.0,0.013496984613259544
3244.0,0.013541787262693505
3243.0,0.013676222949234651
3242.0,0.013765869865004277
3241.0,0.013765869865004277
3240.0,0.013676222949234651
3239.0,0.013541787262693505
3238.0,0.013407393177789162
3237.0,0.013317820220494436
3236.0,0.01322826573375524
3235.0,0.01322826573375524
3234.0,0.013273040668781544
3233.0,0.013362604389846044
3232.0,0.013407393177789162
3231.0,0.013407393177789162
3230.0,0.013362604389846044
3229.0,0.013317820220494436
3228.0,0.013273040668781544
3227.0,0.013273040668781544
3226.0,0.013273040668781544
3225.0,0.013317820220494436
3224.0,0.013407393177789162
3223.0,0.013541787262693505
3222.0,0.013631406429727155
3221.0,0.013631406429727155
3220.0,0.013586594534531482
3219.0,0.013631406429727155
3218.0,0.013676222949234651
3217.0,0.01372104409400876
3216.0,0.013765869865004277
3215.0,0.01372104409400876
3214.0,0.013676222949234651
3213.0,0.013541787262693505
3212.0,0.013407393177789162
3211.0,0.013317820220494436
3210.0,0.013317820220494436
3209.0,0.013317820220494436
3208.0,0.013362604389846044
3207.0,0.013407393177789162
3206.0,0.013407393177789162
3205.0,0.013496984613259544
3204.0,0.013586594534531482
3203.0,0.013631406429727155
3202.0,0.013631406429727155
3201.0,0.013586594534531482
3200.0,0.013496984613259544
3199.0,0.013362604389846044
3198.0,0.013317820220494436
3197.0,0.013317820220494436
3196.0,0.013407393177789162
3195.0,0.013541787262693505
3194.0,0.013631406429727155
3193.0,0.013631406429727155
3192.0,0.013496984613259544
3191.0,0.013317820220494436
3190.0,0.01318349541446362
3189.0,0.013093968619278806
3188.0,0.013049212141483357
3187.0,0.013004460275618523
3186.0,0.012959713020733288
3185.0,0.012959713020733288
3184.0,0.012959713020733288
3183.0,0.013049212141483357
3182.0,0.013138729709955221
3181.0,0.01318349541446362
3180.0,0.01322826573375524
3179.0,0.013273040668781544
3178.0,0.013273040668781544
3177.0,0.01322826573375524
3176.0,0.01318349541446362
3175.0,0.013138729709955221
3174.0,0.013049212141483357
3173.0,0.013049212141483357
3172.0,0.013093968619278806
3171.0,0.01322826573375524
3170.0,0.013362604389846044
3169.0,0.013452186585275916
3168.0,0.013496984613259544
3167.0,0.013452186585275916
3166.0,0.013362604389846044
3165.0,0.01318349541446362
3164.0,0.013093968619278806
3163.0,0.013004460275618523
3162.0,0.013004460275618523
3161.0,0.013004460275618523
3160.0,0.013004460275618523
3159.0,0.013093968619278806
3158.0,0.013273040668781544
3157.0,0.013407393177789162
3156.0,0.013496984613259544
3155.0,0.013452186585275916
3154.0,0.013317820220494436
3153.0,0.013138729709955221
3152.0,0.013004460275618523
3151.0,0.013004460275618523
3150.0,0.013049212141483357
3149.0,0.013138729709955221
3148.0,0.01318349541446362
3147.0,0.013138729709955221
3146.0,0.013093968619278806
3145.0,0.013049212141483357
3144.0,0.013049212141483357
3143.0,0.013004460275618523
3142.0,0.013004460275618523
3141.0,0.013004460275618523
3140.0,0.013093968619278806
3139.0,0.01322826573375524
3138.0,0.013407393177789162
3137.0,0.013541787262693505
3136.0,0.013586594534531482
3135.0,0.013541787262693505
3134.0,0.013541787262693505
3133.0,0.013541787262693505
3132.0,0.013541787262693505
3131.0,0.013541787262693505
3130.0,0.013541787262693505
3129.0,0.013541787262693505
3128.0,0.013541787262693505
3127.0,0.013586594534531482
3126.0,0.013631406429727155
3125.0,0.013676222949234651
3124.0,0.013631406429727155
3123.0,0.013496984613259544
3122.0,0.013362604389846044
3121.0,0.01322826573375524
3120.0,0.01322826573375524
3119.0,0.013273040668781544
3118.0,0.013362604389846044
3117.0,0.013452186585275916
3116.0,0.013452186585275916
3115.0,0.013407393177789162
3114.0,0.013407393177789162
3113.0,0.013496984613259544
3112.0,0.013676222949234651
3111.0,0.01385553528947936
3110.0,0.01403492169512921
3109.0,0.014079779876432497
3108.0,0.014124642691606404
3107.0,0.014124642691606404
3106.0,0.014169510141607944
3105.0,0.014169510141607944
3104.0,0.014169510141607944
3103.0,0.014079779876432497
3102.0,0.013990068146738865
3101.0,0.013945219230304673
3100.0,0.013990068146738865
3099.0,0.01403492169512921
3098.0,0.014079779876432497
3097.0,0.01403492169512921
3096.0,0.01385553528947936
3095.0,0.013676222949234651
3094.0,0.013586594534531482
3093.0,0.013631406429727155
3092.0,0.01381070026317599
3091.0,0.013990068146738865
3090.0,0.014124642691606404
3089.0,0.014169510141607944
3088.0,0.014214382227394795
3087.0,0.014214382227394795
3086.0,0.014259258949925524
3085.0,0.014349026309051105
3084.0,0.01452861671041239
3083.0,0.014618439768003144
3082.0,0.014708281407112
3081.0,0.014708281407112
3080.0,0.014708281407112
3079.0,0.014708281407112
3078.0,0.014753209197138295
3077.0,0.014753209197138295
3076.0,0.014753209197138295
3075.0,0.014708281407112
3074.0,0.014708281407112
3073.0,0.014708281407112
3072.0,0.014753209197138295
3071.0,0.014753209197138295
3070.0,0.014753209197138295
3069.0,0.014753209197138295
3068.0,0.014753209197138295
3067.0,0.014753209197138295
3066.0,0.014753209197138295
3065.0,0.014798141635428141
3064.0,0.014753209197138295
3063.0,0.014618439768003144
3062.0,0.01452861671041239
3061.0,0.0144837121472845
3060.0,0.0144837121472845
3059.0,0.014573525916998342
3058.0,0.014618439768003144
3057.0,0.014663358264387139
3056.0,0.014708281407112
3055.0,0.014708281407112
3054.0,0.014663358264387139
3053.0,0.014663358264387139
3052.0,0.014618439768003144
3051.0,0.014573525916998342
3050.0,0.0144837121472845
3049.0,0.014349026309051105
3048.0,0.014079779876432497
3047.0,0.01381070026317599
3046.0,0.013586594534531482
3045.0,0.013407393177789162
3044.0,0.013273040668781544
3043.0,0.013138729709955221
3042.0,0.013049212141483357
3041.0,0.013004460275618523
3040.0,0.012959713020733288
3039.0,0.012914970375878188
3038.0,0.012914970375878188
3037.0,0.012914970375878188
3036.0,0.012870232340102872
3035.0,0.012825498912458322
3034.0,0.012736045877764557
3033.0,0.01264661126420652
3032.0,0.01264661126420652
3031.0,0.01264661126420652
3030.0,0.01264661126420652
3029.0,0.01264661126420652
3028.0,0.012736045877764557
3027.0,0.012870232340102872
3026.0,0.013049212141483357
3025.0,0.01318349541446362
3024.0,0.013273040668781544
3023.0,0.013273040668781544
3022.0,0.01318349541446362
3021.0,0.013138729709955221
3020.0,0.013138729709955221
3019.0,0.01318349541446362
3018.0,0.01318349541446362
3017.0,0.01318349541446362
3016.0,0.01318349541446362
3015.0,0.01318349541446362
3014.0,0.01322826573375524
3013.0,0.013317820220494436
3012.0,0.013407393177789162
3011.0,0.013541787262693505
3010.0,0.013676222949234651
3009.0,0.01385553528947936
3008.0,0.01403492169512921
3007.0,0.014124642691606404
3006.0,0.014124642691606404
3005.0,0.014124642691606404
3004.0,0.014124642691606404
3003.0,0.014169510141607944
3002.0,0.014214382227394795
3001.0,0.014259258949925524
3000.0,0.014259258949925524
2999.0,0.014259258949925524
2998.0,0.014304140310157809
2997.0,0.014349026309051105
2996.0,0.014393916947563534
2995.0,0.01452861671041239
2994.0,0.014618439768003144
2993.0,0.014708281407112
2992.0,0.014753209197138295
2991.0,0.014843078722943437
2990.0,0.014932966849499074
2989.0,0.015067833932588037
2988.0,0.015292705517326866
2987.0,0.015517693597737248
2986.0,0.015697768020096703
2985.0,0.015877917138889863
2984.0,0.016013078034810446
2983.0,0.016238439713835096
2982.0,0.016418813294209356
2981.0,0.016554142658660398
2980.0,0.016644385668211692
2979.0,0.016734647433454652
2978.0,0.016824927962187042
2977.0,0.017050711425501408
2976.0,0.017412209298337533
2975.0,0.017774008325325275
2974.0,0.018136109008649592
2973.0,0.018498511851753108
2972.0,0.018815862601645694
2971.0,0.0190880622231564
2970.0,0.01940584422377989
2969.0,0.019769308608968306
2968.0,0.020178569969774962
2967.0,0.020497151212598652
2966.0,0.02081596632558158
2965.0,0.021043834782408455
2964.0,0.021271822861508305
2963.0,0.0214542995372613
2962.0,0.02159120737696063
2961.0,0.02168250325324883
2960.0,0.021773818325474092
2959.0,0.021819483062586187
2958.0,0.021865152601710403
2957.0,0.021956506090037076
2956.0,0.02200219004126036
2955.0,0.02204787879853809
2954.0,0.02200219004126036
2953.0,0.021819483062586187
2952.0,0.021499930688540836
2951.0,0.021135015652343103
2950.0,0.020724852408976924
2949.0,0.020315076172974234
2948.0,0.01990568621470623
2947.0,0.019451260640229506
2946.0,0.018951941086827073
2945.0,0.01845319495476394
2944.0,0.018045555530026514
2943.0,0.017728766960431575
2942.0,0.017457417697056554
2941.0,0.017186237868137555
2940.0,0.016960383953898095
2939.0,0.016734647433454652
2938.0,0.01646391839700767
2937.0,0.016193358021584725
2936.0,0.015922966097169144
2935.0,0.015742798294583915
2934.0,0.015562705203923999
2933.0,0.015427684378367834
2932.0,0.015247721884586563
2931.0,0.015112798935672522
2930.0,0.014977917890464765
2929.0,0.014977917890464765
2928.0,0.014977917890464765
2927.0,0.014977917890464765
2926.0,0.014888020460646079
2925.0,0.014753209197138295
2924.0,0.014573525916998342
2923.0,0.0144837121472845
2922.0,0.014438812226654996
2921.0,0.0144837121472845
2920.0,0.0144837121472845
2919.0,0.014393916947563534
2918.0,0.014214382227394795
2917.0,0.014124642691606404
2916.0,0.014079779876432497
2915.0,0.014124642691606404
2914.0,0.014259258949925524
2913.0,0.014393916947563534
2912.0,0.014573525916998342
2911.0,0.014753209197138295
2910.0,0.014888020460646079
2909.0,0.014932966849499074
2908.0,0.014977917890464765
2907.0,0.014932966849499074
2906.0,0.014843078722943437
2905.0,0.014753209197138295
2904.0,0.014708281407112
2903.0,0.014618439768003144
2902.0,0.014618439768003144
2901.0,0.014618439768003144
2900.0,0.014663358264387139
2899.0,0.014753209197138295
2898.0,0.014798141635428141
2897.0,0.014843078722943437
2896.0,0.014932966849499074
2895.0,0.015022873584506602
2894.0,0.015157768594724175
2893.0,0.015247721884586563
2892.0,0.015337693809893471
2891.0,0.015292705517326866
2890.0,0.015247721884586563
2889.0,0.015157768594724175
2888.0,0.015067833932588037
2887.0,0.014977917890464765
2886.0,0.014977917890464765
2885.0,0.014977917890464765
2884.0,0.015022873584506602
2883.0,0.014977917890464765
2882.0,0.014888020460646079
2881.0,0.014753209197138295
2880.0,0.014618439768003144
2879.0,0.01452861671041239
2878.0,0.01452861671041239
2877.0,0.014573525916998342
2876.0,0.014618439768003144
2875.0,0.014618439768003144
2874.0,0.014618439768003144
2873.0,0.014618439768003144
2872.0,0.014618439768003144
2871.0,0.01452861671041239
2870.0,0.014438812226654996
2869.0,0.014304140310157809
2868.0,0.014169510141607944
2867.0,0.014079779876432497
2866.0,0.01403492169512921
2865.0,0.01403492169512921
2864.0,0.01403492169512921
2863.0,0.014079779876432497
2862.0,0.01403492169512921
2861.0,0.01403492169512921
2860.0,0.013990068146738865
2859.0,0.013945219230304673
2858.0,0.013900374944870508
2857.0,0.01385553528947936
2856.0,0.01385553528947936
2855.0,0.01385553528947936
2854.0,0.01381070026317599
2853.0,0.01372104409400876
2852.0,0.013631406429727155
2851.0,0.013631406429727155
2850.0,0.013676222949234651
2849.0,0.013765869865004277
2848.0,0.013765869865004277
2847.0,0.01372104409400876
2846.0,0.013541787262693505
2845.0,0.013407393177789162
2844.0,0.01322826573375524
2843.0,0.013093968619278806
2842.0,0.012914970375878188
2841.0,0.012780770091995297
2840.0,0.01264661126420652
2839.0,0.01264661126420652
2838.0,0.01260190086298274
2837.0,0.01260190086298274
2836.0,0.01260190086298274
2835.0,0.01260190086298274
2834.0,0.01260190086298274
2833.0,0.01264661126420652
2832.0,0.01264661126420652
2831.0,0.01264661126420652
2830.0,0.012557195064198723
2829.0,0.012512493866907004
2828.0,0.012467797270160563
2827.0,0.012423105273012602
2826.0,0.012378417874516323
2825.0,0.012333735073725371
2824.0,0.012244383261476699
2823.0,0.01215504982870197
2822.0,0.01215504982870197
2821.0,0.012199714248127602
2820.0,0.012244383261476699
2819.0,0.012333735073725371
2818.0,0.012378417874516323
2817.0,0.012378417874516323
2816.0,0.012333735073725371
2815.0,0.012289056869694281
2814.0,0.012244383261476699
2813.0,0.012110390002254778
2812.0,0.012021084124518078
2811.0,0.0119764380713403
2810.0,0.011931796607364653
2809.0,0.011931796607364653
2808.0,0.0119764380713403
2807.0,0.012021084124518078
2806.0,0.012110390002254778
2805.0,0.012199714248127602
2804.0,0.012289056869694281
2803.0,0.012289056869694281
2802.0,0.012199714248127602
2801.0,0.012021084124518078
2800.0,0.011887159731648111
2799.0,0.011797899741219142
2798.0,0.011797899741219142
2797.0,0.011842527443247208
2796.0,0.011887159731648111
2795.0,0.011887159731648111
2794.0,0.011842527443247208
2793.0,0.011797899741219142
2792.0,0.011797899741219142
2791.0,0.011797899741219142
2790.0,0.011797899741219142
2789.0,0.011797899741219142
2788.0,0.011753276624621556
2787.0,0.011664044143949504
2786.0,0.011574829993696856
2785.0,0.011530229790124524
2784.0,0.011530229790124524
2783.0,0.011485634166333858
2782.0,0.011441043121384498
2781.0,0.011396456654336085
2780.0,0.011441043121384498
2779.0,0.011485634166333858
2778.0,0.011574829993696856
2777.0,0.011664044143949504
2776.0,0.011664044143949504
2775.0,0.011619434777991433
2774.0,0.011574829993696856
2773.0,0.011485634166333858
2772.0,0.011485634166333858
2771.0,0.011530229790124524
2770.0,0.011574829993696856
2769.0,0.011574829993696856
2768.0,0.011619434777991433
2767.0,0.011574829993696856
2766.0,0.011530229790124524
2765.0,0.011485634166333858
2764.0,0.011351874764248926
2763.0,0.011262724711199823
2762.0,0.011218156546359825
2761.0,0.011218156546359825
2760.0,0.011218156546359825
2759.0,0.011262724711199823
2758.0,0.011262724711199823
2757.0,0.011262724711199823
2756.0,0.011262724711199823
2755.0,0.011262724711199823
2754.0,0.011262724711199823
2753.0,0.011262724711199823
2752.0,0.01117359295472431
2751.0,0.011129033935354915
2750.0,0.011084479487313281
2749.0,0.011084479487313281
2748.0,0.011129033935354915
2747.0,0.011129033935354915
2746.0,0.011129033935354915
2745.0,0.011084479487313281
2744.0,0.011084479487313281
2743.0,0.011039929609661936
2742.0,0.011039929609661936
2741.0,0.011039929609661936
2740.0,0.011039929609661936
2739.0,0.011039929609661936
2738.0,0.010995384301463185
2737.0,0.010950843561779777
2736.0,0.010950843561779777
2735.0,0.010995384301463185
2734.0,0.011039929609661936
2733.0,0.011039929609661936
2732.0,0.010995384301463185
2731.0,0.010906307389674463
2730.0,0.010817248744452446
2729.0,0.010728208358306901
2728.0,0.010683695010048622
2727.0,0.010683695010048622
2726.0,0.010683695010048622
2725.0,0.010728208358306901
2724.0,0.01077272626946324
2723.0,0.010728208358306901
2722.0,0.010728208358306901
2721.0,0.01077272626946324
2720.0,0.010817248744452446
2719.0,0.01086177578421088
2718.0,0.010817248744452446
2717.0,0.01077272626946324
2716.0,0.010683695010048622
2715.0,0.010550182333308289
2714.0,0.01046119667949763
2713.0,0.01046119667949763
2712.0,0.010505687227290839
2711.0,0.010594681998483901
2710.0,0.010683695010048622
2709.0,0.010683695010048622
2708.0,0.010683695010048622
2707.0,0.010639186223752484
2706.0,0.010550182333308289
2705.0,0.01046119667949763
2704.0,0.01037222925484893
2703.0,0.01037222925484893
2702.0,0.01037222925484893
2701.0,0.01037222925484893
2700.0,0.01037222925484893
2699.0,0.01037222925484893
2698.0,0.010327752376126709
2697.0,0.010327752376126709
2696.0,0.010283280051895272
2695.0,0.010194349063173958
2694.0,0.010149890396819572
2693.0,0.010149890396819572
2692.0,0.010149890396819572
2691.0,0.010149890396819572
2690.0,0.01023881228122181
2689.0,0.01023881228122181
2688.0,0.01023881228122181
2687.0,0.01023881228122181
2686.0,0.010194349063173958
2685.0,0.010194349063173958
2684.0,0.01023881228122181
2683.0,0.010283280051895272
2682.0,0.010283280051895272
2681.0,0.010194349063173958
2680.0,0.010060986715464404
2679.0,0.01001654169860089
2678.0,0.01001654169860089
2677.0,0.010060986715464404
2676.0,0.010149890396819572
2675.0,0.010149890396819572
2674.0,0.010149890396819572
2673.0,0.010060986715464404
2672.0,0.01001654169860089
2671.0,0.009972101229705377
2670.0,0.01001654169860089
2669.0,0.01001654169860089
2668.0,0.009972101229705377
2667.0,0.009927665307847056
2666.0,0.009838807101520963
2665.0,0.00974996707218323
2664.0,0.00974996707218323
2663.0,0.009883233932095559
2662.0,0.01001654169860089
2661.0,0.010149890396819572
2660.0,0.010194349063173958
2659.0,0.010149890396819572
2658.0,0.010060986715464404
2657.0,0.009972101229705377
2656.0,0.009927665307847056
2655.0,0.009972101229705377
2654.0,0.01001654169860089
2653.0,0.01001654169860089
2652.0,0.009927665307847056
2651.0,0.009838807101520963
2650.0,0.00974996707218323
2649.0,0.009705553871561357
2648.0,0.00966114521239847
2647.0,0.00966114521239847
2646.0,0.00966114521239847
2645.0,0.00966114521239847
2644.0,0.00966114521239847
2643.0,0.00966114521239847
2642.0,0.009616741093766423
2641.0,0.009527946474380489
2640.0,0.009439170005980158
2639.0,0.009439170005980158
2638.0,0.009483555971770974
2637.0,0.009616741093766423
2636.0,0.009794384815193347
2635.0,0.009927665307847056
2634.0,0.009972101229705377
2633.0,0.009972101229705377
2632.0,0.009927665307847056
2631.0,0.009883233932095559
2630.0,0.009838807101520963
2629.0,0.00974996707218323
2628.0,0.00974996707218323
2627.0,0.009705553871561357
2626.0,0.00974996707218323
2625.0,0.009705553871561357
2624.0,0.009705553871561357
2623.0,0.009705553871561357
2622.0,0.00974996707218323
2621.0,0.009705553871561357
2620.0,0.009705553871561357
2619.0,0.00966114521239847
2618.0,0.00966114521239847
2617.0,0.009705553871561357
2616.0,0.009705553871561357
2615.0,0.00974996707218323
2614.0,0.009705553871561357
2613.0,0.00966114521239847
2612.0,0.009572341514736404
2611.0,0.009527946474380489
2610.0,0.009572341514736404
2609.0,0.009616741093766423
2608.0,0.00966114521239847
2607.0,0.009616741093766423
2606.0,0.009616741093766423
2605.0,0.00966114521239847
2604.0,0.00974996707218323
2603.0,0.009794384815193347
2602.0,0.009883233932095559
2601.0,0.009883233932095559
2600.0,0.009838807101520963
2599.0,0.009794384815193347
2598.0,0.009705553871561357
2597.0,0.00966114521239847
2596.0,0.00966114521239847
2595.0,0.009705553871561357
2594.0,0.009705553871561357
2593.0,0.00966114521239847
2592.0,0.009616741093766423
2591.0,0.009527946474380489
2590.0,0.009483555971770974
2589.0,0.009483555971770974
2588.0,0.009527946474380489
2587.0,0.009616741093766423
2586.0,0.009705553871561357
2585.0,0.009705553871561357
2584.0,0.00966114521239847
2583.0,0.009616741093766423
2582.0,0.009572341514736404
2581.0,0.009616741093766423
2580.0,0.009705553871561357
2579.0,0.009794384815193347
2578.0,0.009838807101520963
2577.0,0.009838807101520963
2576.0,0.009794384815193347
2575.0,0.00974996707218323
2574.0,0.00966114521239847
2573.0,0.00966114521239847
2572.0,0.009705553871561357
2571.0,0.00974996707218323
2570.0,0.00974996707218323
2569.0,0.00974996707218323
2568.0,0.009705553871561357
2567.0,0.00974996707218323
2566.0,0.00974996707218323
2565.0,0.00974996707218323
2564.0,0.009705553871561357
2563.0,0.00966114521239847
2562.0,0.009572341514736404
2561.0,0.009572341514736404
2560.0,0.009572341514736404
2559.0,0.009616741093766423
2558.0,0.009616741093766423
2557.0,0.009616741093766423
2556.0,0.009572341514736404
2555.0,0.009572341514736404
2554.0,0.009572341514736404
2553.0,0.009616741093766423
2552.0,0.009705553871561357
2551.0,0.00974996707218323
2550.0,0.00974996707218323
2549.0,0.009705553871561357
2548.0,0.00966114521239847
2547.0,0.009572341514736404
2546.0,0.009527946474380489
2545.0,0.009483555971770974
2544.0,0.009483555971770974
2543.0,0.009483555971770974
2542.0,0.009483555971770974
2541.0,0.009527946474380489
2540.0,0.009527946474380489
2539.0,0.009527946474380489
2538.0,0.009527946474380489
2537.0,0.009527946474380489
2536.0,0.009483555971770974
2535.0,0.009439170005980158
2534.0,0.009439170005980158
2533.0,0.009439170005980158
2532.0,0.009483555971770974
2531.0,0.009527946474380489
2530.0,0.009483555971770974
2529.0,0.009439170005980158
2528.0,0.009350411681145587
2527.0,0.009306039320248427
2526.0,0.009306039320248427
2525.0,0.009350411681145587
2524.0,0.00939478857608056
2523.0,0.00939478857608056
2522.0,0.00939478857608056
2521.0,0.009350411681145587
2520.0,0.009350411681145587
2519.0,0.009350411681145587
2518.0,0.00939478857608056
2517.0,0.009439170005980158
2516.0,0.009439170005980158
2515.0,0.009439170005980158
2514.0,0.009439170005980158
2513.0,0.00939478857608056
2512.0,0.009350411681145587
2511.0,0.009350411681145587
2510.0,0.009306039320248427
2509.0,0.009217308196862062
2508.0,0.009172949432521227
2507.0,0.009172949432521227
2506.0,0.009172949432521227
2505.0,0.009217308196862062
2504.0,0.009217308196862062
2503.0,0.009172949432521227
2502.0,0.009128595198514056
2501.0,0.00908424549391551
2500.0,0.009039900317800775
2499.0,0.00908424549391551
2498.0,0.00908424549391551
2497.0,0.00908424549391551
2496.0,0.00908424549391551
2495.0,0.00908424549391551
2494.0,0.009128595198514056
2493.0,0.009128595198514056
2492.0,0.009128595198514056
2491.0,0.009128595198514056
2490.0,0.00908424549391551
2489.0,0.009039900317800775
2488.0,0.008906891951112605
2487.0,0.008818242332126802
2486.0,0.008685301823389224
2485.0,0.008685301823389224
2484.0,0.008685301823389224
2483.0,0.0087296108049002
2482.0,0.0087296108049002
2481.0,0.0087296108049002
2480.0,0.0087296108049002
2479.0,0.0087296108049002
2478.0,0.0087296108049002
2477.0,0.008773924307505121
2476.0,0.008818242332126802
2475.0,0.008818242332126802
2474.0,0.008773924307505121
2473.0,0.0087296108049002
2472.0,0.008640997362049818
2471.0,0.008596697419959609
2470.0,0.008552401996197112
2469.0,0.008552401996197112
2468.0,0.008552401996197112
2467.0,0.008596697419959609
2466.0,0.008640997362049818
2465.0,0.008640997362049818
2464.0,0.008552401996197112
2463.0,0.00850811108984062
2462.0,0.008463824699968647
2461.0,0.008463824699968647
2460.0,0.008419542825660153
2459.0,0.008419542825660153
2458.0,0.008375265465994541
2457.0,0.008330992620051436
2456.0,0.008375265465994541
2455.0,0.008419542825660153
2454.0,0.008419542825660153
2453.0,0.008419542825660153
2452.0,0.008419542825660153
2451.0,0.008419542825660153
2450.0,0.008419542825660153
2449.0,0.008463824699968647
2448.0,0.008463824699968647
2447.0,0.008375265465994541
2446.0,0.008330992620051436
2445.0,0.008286724286910463
2444.0,0.008286724286910463
2443.0,0.008375265465994541
2442.0,0.008463824699968647
2441.0,0.008463824699968647
2440.0,0.008375265465994541
2439.0,0.008286724286910463
2438.0,0.008242460465651913
2437.0,0.008242460465651913
2436.0,0.008330992620051436
2435.0,0.008375265465994541
2434.0,0.008375265465994541
2433.0,0.008330992620051436
2432.0,0.008375265465994541
2431.0,0.008419542825660153
2430.0,0.008463824699968647
2429.0,0.008463824699968647
2428.0,0.008419542825660153
2427.0,0.008375265465994541
2426.0,0.008330992620051436
2425.0,0.008375265465994541
2424.0,0.00850811108984062
2423.0,0.008596697419959609
2422.0,0.008596697419959609
2421.0,0.008596697419959609
2420.0,0.008640997362049818
2419.0,0.008640997362049818
2418.0,0.008596697419959609
2417.0,0.00850811108984062
2416.0,0.008463824699968647
2415.0,0.00850811108984062
2414.0,0.008552401996197112
2413.0,0.008596697419959609
2412.0,0.008596697419959609
2411.0,0.008596697419959609
2410.0,0.008596697419959609
2409.0,0.008640997362049818
2408.0,0.008685301823389224
2407.0,0.008685301823389224
2406.0,0.008685301823389224
2405.0,0.008640997362049818
2404.0,0.008640997362049818
2403.0,0.008640997362049818
2402.0,0.008640997362049818
2401.0,0.008596697419959609
2400.0,0.00850811108984062
2399.0,0.008463824699968647
2398.0,0.008463824699968647
2397.0,0.00850811108984062
2396.0,0.008552401996197112
2395.0,0.008596697419959609
2394.0,0.008640997362049818
2393.0,0.008685301823389224
2392.0,0.0087296108049002
2391.0,0.008818242332126802
2390.0,0.008818242332126802
2389.0,0.008818242332126802
2388.0,0.008773924307505121
2387.0,0.008818242332126802
2386.0,0.008862564879688284
2385.0,0.008906891951112605
2384.0,0.008951223547323472
2383.0,0.009039900317800775
2382.0,0.009128595198514056
2381.0,0.009217308196862062
2380.0,0.009217308196862062
2379.0,0.00908424549391551
2378.0,0.008818242332126802
2377.0,0.008463824699968647
2376.0,0.008109696063975047
2375.0,0.007888512213050314
2374.0,0.007844288957383316
2373.0,0.008109696063975047
2372.0,0.008596697419959609
2371.0,0.009261671492462709
2370.0,0.009972101229705377
2369.0,0.010639186223752484
2368.0,0.010995384301463185
2367.0,0.010683695010048622
2366.0,0.009527946474380489
2365.0,0.008109696063975047
2364.0,0.007402303897961815
2363.0,0.007667440952535687
2362.0,0.008242460465651913
2361.0,0.008552401996197112
2360.0,0.008773924307505121
2359.0,0.009261671492462709
2358.0,0.009794384815193347
2357.0,0.009838807101520963
2356.0,0.009527946474380489
2355.0,0.009128595198514056
2354.0,0.008818242332126802
2353.0,0.008640997362049818
2352.0,0.008640997362049818
2351.0,0.008685301823389224
2350.0,0.008685301823389224
2349.0,0.008552401996197112
2348.0,0.008330992620051436
2347.0,0.008065450281052211
2346.0,0.007711646202907652
2345.0,0.007402303897961815
2344.0,0.007358130121602358
2343.0,0.007844288957383316
2342.0,0.008596697419959609
2341.0,0.008995559669244813
2340.0,0.008862564879688284
2339.0,0.008375265465994541
2338.0,0.007800070204414977
2337.0,0.007490664932224611
2336.0,0.0074464821678643656
2335.0,0.0075790439479759275
2334.0,0.007800070204414977
2333.0,0.008065450281052211
2332.0,0.008330992620051436
2331.0,0.008640997362049818
2330.0,0.008818242332126802
2329.0,0.008818242332126802
2328.0,0.008773924307505121
2327.0,0.008552401996197112
2326.0,0.008330992620051436
2325.0,0.008198201155356077
2324.0,0.008242460465651913
2323.0,0.008330992620051436
2322.0,0.008330992620051436
2321.0,0.008198201155356077
2320.0,0.007976972236149349
2319.0,0.007800070204414977
2318.0,0.007755855953228474
2317.0,0.007844288957383316
2316.0,0.007976972236149349
2315.0,0.008198201155356077
2314.0,0.008375265465994541
2313.0,0.00850811108984062
2312.0,0.008463824699968647
2311.0,0.008242460465651913
2310.0,0.008021209005416363
2309.0,0.007932739972333236
2308.0,0.007976972236149349
2307.0,0.008153946355103248
2306.0,0.008286724286910463
2305.0,0.008375265465994541
2304.0,0.008375265465994541
2303.0,0.008330992620051436
2302.0,0.008286724286910463
2301.0,0.008198201155356077
2300.0,0.008109696063975047
2299.0,0.008065450281052211
2298.0,0.008021209005416363
2297.0,0.007932739972333236
2296.0,0.007888512213050314
2295.0,0.007888512213050314
2294.0,0.007888512213050314
2293.0,0.007976972236149349
2292.0,0.008021209005416363
2291.0,0.008109696063975047
2290.0,0.008153946355103248
2289.0,0.008153946355103248
2288.0,0.008109696063975047
2287.0,0.008153946355103248
2286.0,0.008153946355103248
2285.0,0.008198201155356077
2284.0,0.008153946355103248
2283.0,0.008065450281052211
2282.0,0.007976972236149349
2281.0,0.007844288957383316
2280.0,0.007755855953228474
2279.0,0.007755855953228474
2278.0,0.007755855953228474
2277.0,0.007800070204414977
2276.0,0.007800070204414977
2275.0,0.007755855953228474
2274.0,0.007667440952535687
2273.0,0.0075790439479759275
2272.0,0.0074464821678643656
2271.0,0.007313960837872058
2270.0,0.007225635744644521
2269.0,0.007181479933320523
2268.0,0.007181479933320523
2267.0,0.007225635744644521
2266.0,0.007269796045857202
2265.0,0.007313960837872058
2264.0,0.007358130121602358
2263.0,0.007402303897961815
2262.0,0.007358130121602358
2261.0,0.007358130121602358
2260.0,0.007358130121602358
2259.0,0.007358130121602358
2258.0,0.007402303897961815
2257.0,0.007402303897961815
2256.0,0.007358130121602358
2255.0,0.007313960837872058
2254.0,0.007269796045857202
2253.0,0.007269796045857202
2252.0,0.007225635744644521
2251.0,0.007269796045857202
2250.0,0.007269796045857202
2249.0,0.007225635744644521
2248.0,0.007181479933320523
2247.0,0.007181479933320523
2246.0,0.007181479933320523
2245.0,0.007225635744644521
2244.0,0.007269796045857202
2243.0,0.007313960837872058
2242.0,0.007269796045857202
2241.0,0.007181479933320523
2240.0,0.007137328610972382
2239.0,0.007049039429553483
2238.0,0.007004901568658406
2237.0,0.00696076819309055
2236.0,0.006916639301937977
2235.0,0.006916639301937977
2234.0,0.006916639301937977
2233.0,0.00696076819309055
2232.0,0.007004901568658406
2231.0,0.007049039429553483
2230.0,0.007049039429553483
2229.0,0.007004901568658406
2228.0,0.00696076819309055
2227.0,0.00696076819309055
2226.0,0.00696076819309055
2225.0,0.006916639301937977
2224.0,0.006872514894289861
2223.0,0.006872514894289861
2222.0,0.006872514894289861
2221.0,0.006916639301937977
2220.0,0.007004901568658406
2219.0,0.007004901568658406
2218.0,0.007004901568658406
2217.0,0.006916639301937977
2216.0,0.006784279525863024
2215.0,0.006740168563263094
2214.0,0.006740168563263094
2213.0,0.006784279525863024
2212.0,0.006784279525863024
2211.0,0.006784279525863024
2210.0,0.006784279525863024
2209.0,0.006740168563263094
2208.0,0.006784279525863024
2207.0,0.006784279525863024
2206.0,0.006828394969235152
2205.0,0.006784279525863024
2204.0,0.006696062080525422
2203.0,0.006607862550997545
2202.0,0.006519680930003435
2201.0,0.006519680930003435
2200.0,0.006519680930003435
2199.0,0.006519680930003435
2198.0,0.006519680930003435
2197.0,0.006475596832934416
2196.0,0.006387442061109638
2195.0,0.006387442061109638
2194.0,0.006387442061109638
2193.0,0.006387442061109638
2192.0,0.006343371384537999
2191.0,0.006299305179649828
2190.0,0.00621118618129457
2189.0,0.006167133386013823
2188.0,0.006167133386013823
2187.0,0.006167133386013823
2186.0,0.00621118618129457
2185.0,0.00625524344553785
2184.0,0.006299305179649828
2183.0,0.006343371384537999
2182.0,0.006387442061109638
2181.0,0.006431517210272464
2180.0,0.006431517210272464
2179.0,0.006387442061109638
2178.0,0.006343371384537999
2177.0,0.006299305179649828
2176.0,0.00625524344553785
2175.0,0.00621118618129457
2174.0,0.00625524344553785
2173.0,0.00625524344553785
2172.0,0.00625524344553785
2171.0,0.00621118618129457
2170.0,0.006167133386013823
2169.0,0.00612308505878878
2168.0,0.00612308505878878
2167.0,0.00621118618129457
2166.0,0.00625524344553785
2165.0,0.006299305179649828
2164.0,0.006343371384537999
2163.0,0.006387442061109638
2162.0,0.006387442061109638
2161.0,0.006343371384537999
2160.0,0.006299305179649828
2159.0,0.006299305179649828
2158.0,0.006299305179649828
2157.0,0.006343371384537999
2156.0,0.006387442061109638
2155.0,0.006387442061109638
2154.0,0.006431517210272464
2153.0,0.006475596832934416
2152.0,0.006431517210272464
2151.0,0.006387442061109638
2150.0,0.006343371384537999
2149.0,0.006343371384537999
2148.0,0.006387442061109638
2147.0,0.006519680930003435
2146.0,0.00656376950238835
2145.0,0.00656376950238835
2144.0,0.006519680930003435
2143.0,0.006431517210272464
2142.0,0.006431517210272464
2141.0,0.006431517210272464
2140.0,0.006431517210272464
2139.0,0.006475596832934416
2138.0,0.006431517210272464
2137.0,0.006387442061109638
2136.0,0.006343371384537999
2135.0,0.006299305179649828
2134.0,0.00625524344553785
2133.0,0.006299305179649828
2132.0,0.006387442061109638
2131.0,0.006431517210272464
2130.0,0.006475596832934416
2129.0,0.006431517210272464
2128.0,0.006431517210272464
2127.0,0.006387442061109638
2126.0,0.006299305179649828
2125.0,0.00621118618129457
2124.0,0.00612308505878878
2123.0,0.006079041198713275
2122.0,0.00612308505878878
2121.0,0.006167133386013823
2120.0,0.006167133386013823
2119.0,0.006167133386013823
2118.0,0.006167133386013823
2117.0,0.00625524344553785
2116.0,0.006343371384537999
2115.0,0.006343371384537999
2114.0,0.006299305179649828
2113.0,0.00612308505878878
2112.0,0.006035001804881146
2111.0,0.005990966876386672
2110.0,0.006035001804881146
2109.0,0.00612308505878878
2108.0,0.006167133386013823
2107.0,0.006167133386013823
2106.0,0.00612308505878878
2105.0,0.006079041198713275
2104.0,0.006079041198713275
2103.0,0.006035001804881146
2102.0,0.005990966876386672
2101.0,0.00590291041179003
2100.0,0.005814871797682919
2099.0,0.005814871797682919
2098.0,0.005858888873877532
2097.0,0.00590291041179003
2096.0,0.00590291041179003
2095.0,0.005858888873877532
2094.0,0.005814871797682919
2093.0,0.005726851026829571
2092.0,0.005726851026829571
2091.0,0.005726851026829571
2090.0,0.005726851026829571
2089.0,0.005682847330363394
2088.0,0.005594853310833647
2087.0,0.005506877116487674
2086.0,0.005462895701502157
2085.0,0.005462895701502157
2084.0,0.005462895701502157
2083.0,0.005506877116487674
2082.0,0.005506877116487674
2081.0,0.00541891874010525
2080.0,0.00537494623139545
2079.0,0.0052870145684298375
2078.0,0.0052870145684298375
2077.0,0.0052870145684298375
2076.0,0.005330978174470591
2075.0,0.005330978174470591
2074.0,0.0052870145684298375
2073.0,0.005243055412371911
2072.0,0.005155150446602086
2071.0,0.005111204635089406
2070.0,0.005111204635089406
2069.0,0.005111204635089406
2068.0,0.005067263269958211
2067.0,0.005023326350308999
2066.0,0.004979393875242044
2065.0,0.004935465843858511
2064.0,0.00489154225525934
2063.0,0.004803708402820517
2062.0,0.004759798137184523
2061.0,0.004671990922590297
2060.0,0.004628093971837721
2059.0,0.004628093971837721
2058.0,0.004671990922590297
2057.0,0.004671990922590297
2056.0,0.004715892310740433
2055.0,0.004715892310740433
2054.0,0.004671990922590297
2053.0,0.00458420145758498
2052.0,0.004540313378935901
2051.0,0.0044964297349936455
2050.0,0.004452550524862486
2049.0,0.004408675747646695
2048.0,0.0043648054024501
2047.0,0.0043648054024501
2046.0,0.0043648054024501
2045.0,0.004320939488377862
2044.0,0.004233220950025984
2043.0,0.004189368323957332
2042.0,0.004145520125434121
2041.0,0.004101676353562844
2040.0,0.004101676353562844
2039.0,0.004101676353562844
2038.0,0.004145520125434121
2037.0,0.004145520125434121
2036.0,0.004101676353562844
2035.0,0.00401400208620073
2034.0,0.003970171588923321
2033.0,0.003970171588923321
2032.0,0.00401400208620073
2031.0,0.0040578370074493275
2030.0,0.004101676353562844
2029.0,0.0040578370074493275
2028.0,0.003970171588923321
2027.0,0.0038825238627120395
2026.0,0.003794893821675638
2025.0,0.0037510854308679953
2024.0,0.0036634819042162814
2023.0,0.0036634819042162814
2022.0,0.003619686766589858
2021.0,0.003619686766589858
2020.0,0.003619686766589858
2019.0,0.003619686766589858
2018.0,0.0036634819042162814
2017.0,0.0036634819042162814
2016.0,0.0036634819042162814
2015.0,0.003619686766589858
2014.0,0.0035758960449088217
2013.0,0.0035758960449088217
2012.0,0.003619686766589858
2011.0,0.0036634819042162814
2010.0,0.003619686766589858
2009.0,0.003619686766589858
2008.0,0.003619686766589858
2007.0,0.003619686766589858
2006.0,0.0036634819042162814
2005.0,0.0036634819042162814
2004.0,0.0036634819042162814
2003.0,0.003707281458678491
2002.0,0.003707281458678491
2001.0,0.003707281458678491
2000.0,0.0037510854308679953
1999.0,0.003794893821675638
1998.0,0.003794893821675638
1997.0,0.0037510854308679953
1996.0,0.0037510854308679953
1995.0,0.003794893821675638
1994.0,0.0038825238627120395
1993.0,0.003926345514724705
1992.0,0.003970171588923321
1991.0,0.00401400208620073
1990.0,0.0040578370074493275
1989.0,0.004101676353562844
1988.0,0.004101676353562844
1987.0,0.004145520125434121
1986.0,0.004145520125434121
1985.0,0.004189368323957332
1984.0,0.004233220950025984
1983.0,0.004277078004534696
1982.0,0.004277078004534696
1981.0,0.004233220950025984
1980.0,0.004189368323957332
1979.0,0.004189368323957332
1978.0,0.004233220950025984
1977.0,0.004233220950025984
1976.0,0.004233220950025984
1975.0,0.004233220950025984
1974.0,0.004233220950025984
1973.0,0.004233220950025984
1972.0,0.004277078004534696
1971.0,0.004320939488377862
1970.0,0.004452550524862486
1969.0,0.004540313378935901
1968.0,0.004671990922590297
1967.0,0.004671990922590297
1966.0,0.004628093971837721
1965.0,0.004540313378935901
1964.0,0.0044964297349936455
1963.0,0.004540313378935901
1962.0,0.004628093971837721
1961.0,0.004715892310740433
1960.0,0.004759798137184523
1959.0,0.00484762310854614
1958.0,0.00489154225525934
1957.0,0.004979393875242044
1956.0,0.005023326350308999
1955.0,0.005155150446602086
1954.0,0.005199100705396198
1953.0,0.005243055412371911
1952.0,0.005243055412371911
1951.0,0.005243055412371911
1950.0,0.005243055412371911
1949.0,0.005199100705396198
1948.0,0.005199100705396198
1947.0,0.005155150446602086
1946.0,0.005111204635089406
1945.0,0.005067263269958211
1944.0,0.004979393875242044
1943.0,0.00489154225525934
1942.0,0.004759798137184523
1941.0,0.00458420145758498
1940.0,0.004452550524862486
1939.0,0.0043648054024501
1938.0,0.004277078004534696
1937.0,0.004145520125434121
1936.0,0.003970171588923321
1935.0,0.003794893821675638
1934.0,0.0036634819042162814
1933.0,0.0035758960449088217
1932.0,0.003488327845821315
1931.0,0.0034007772998332353
1930.0,0.0033132443998284966
1929.0,0.0032257291386954545
1928.0,0.0030944893043338695
1927.0,0.003050751504618754
1926.0,0.0029632891174733444
1925.0,0.0028758443407954637
1924.0,0.0027447101798967477
1923.0,0.0026573093983774942
1922.0,0.002613615602686581
1921.0,0.0025262411970197185
1920.0,0.0024388843664115978
1919.0,0.002351545103793873
1918.0,0.0022205691343961664
1917.0,0.0021332737608552588
1916.0,0.0020459959305969555
1915.0,0.0020023635919956817
1914.0,0.001915112063444413
1913.0,0.0018278780605593958
1912.0,0.0017406615763013722
1911.0,0.0016970599014589638
1910.0,0.0016534626036355249
1909.0,0.0014791171649619628
1908.0,0.0012612837441823288
1907.0,0.0010870956412141197
1906.0,0.0009565003968372565
1905.0,0.0009565003968372565
1904.0,0.0009565003968372565
1903.0,0.0009565003968372565
1902.0,0.000869458712629001
1901.0,0.0007824344698965646
1900.0,0.0006954276616513155
1899.0,0.0006519307932786322
1898.0,0.0006519307932786322
1897.0,0.0006519307932786322
1896.0,0.0006084382809090627
1895.0,0.000521466320689834
1894.0,0.0003910410285830057
1893.0,0.00030411258916074324
1892.0,0.00026065489343207737
1891.0,0.00026065489343207737
1890.0,0.00017375254558760211
1889.0,4.343161980746579e-05
1888.0,-8.685021164911433e-05
1887.0,-0.00017368305846510168
1886.0,-0.0002604985473904087
1885.0,-0.0003472966853634851
1884.0,-0.00043407747931878404
1883.0,-0.0005208409361854294
1882.0,-0.0005642161653756084
1881.0,-0.0006509536295951079
1880.0,-0.0007376737740329986
1879.0,-0.0007810273534953893
1878.0,-0.0008243766056055257
1877.0,-0.0008243766056055257
1876.0,-0.0008243766056055257
1875.0,-0.0008677215312267172
1874.0,-0.0009110621312231615
1873.0,-0.0009977303577937136
1872.0,-0.0009977303577937136
1871.0,-0.0009543984064577238
1870.0,-0.0009543984064577238
1869.0,-0.0009977303577937136
1868.0,-0.001041057986093552
1867.0,-0.0010843812922201046
1866.0,-0.0011710149414008164
1865.0,-0.0013009330204178937
1864.0,-0.0013875234866409514
1863.0,-0.0015173768235041685
1862.0,-0.0015606526425728795
1861.0,-0.0016039241497978196
1860.0,-0.0016039241497978196
1859.0,-0.0015606526425728795
1858.0,-0.0015606526425728795
1857.0,-0.0015606526425728795
1856.0,-0.0016039241497978196
1855.0,-0.0016039241497978196
1854.0,-0.0016471913460383014
1853.0,-0.0016904542321527494
1852.0,-0.0016904542321527494
1851.0,-0.0016039241497978196
1850.0,-0.001474096691732818
1849.0,-0.0014308122463981832
1848.0,-0.0015173768235041685
1847.0,-0.0016471913460383014
1846.0,-0.0018634626925240205
1845.0,-0.0019931738235303698
1844.0,-0.0020364022595291686
1843.0,-0.0019067040408846658
1842.0,-0.001776967077439462
1841.0,-0.0016904542321527494
1840.0,-0.0016039241497978196
1839.0,-0.0015173768235041685
1838.0,-0.0013875234866409514
1837.0,-0.001344230411601366
1836.0,-0.0013009330204178937
1835.0,-0.0013009330204178937
1834.0,-0.0013009330204178937
1833.0,-0.0013009330204178937
1832.0,-0.00121432528617893
1831.0,-0.0010843812922201046
1830.0,-0.0010843812922201046
1829.0,-0.00121432528617893
1828.0,-0.0013009330204178937
1827.0,-0.0013009330204178937
1826.0,-0.0013009330204178937
1825.0,-0.0013009330204178937
1824.0,-0.001344230411601366
1823.0,-0.0013009330204178937
1822.0,-0.001344230411601366
1821.0,-0.001474096691732818
1820.0,-0.0016039241497978196
1819.0,-0.001733712809000476
1818.0,-0.0018202170383281313
1817.0,-0.0019067040408846658
1816.0,-0.0019067040408846658
1815.0,-0.0018202170383281313
1814.0,-0.001776967077439462
1813.0,-0.001733712809000476
1812.0,-0.0018202170383281313
1811.0,-0.0019499410842680476
1810.0,-0.0021228462251614566
1809.0,-0.0022524799205383417
1808.0,-0.0023820749327607693
1807.0,-0.0024684501283323
1806.0,-0.0025548081484823015
1805.0,-0.002684312989729598
1804.0,-0.0027706281011936618
1803.0,-0.0027274726898296464
1802.0,-0.0027274726898296464
1801.0,-0.0028137792246734072
1800.0,-0.0029432068763250996
1799.0,-0.0029432068763250996
1798.0,-0.0029432068763250996
1797.0,-0.0029432068763250996
1796.0,-0.0029863408567849525
1795.0,-0.003029470553618019
1794.0,-0.0030725959676747294
1793.0,-0.0032881588260753603
1792.0,-0.003503614742536687
1791.0,-0.003546693102131737
1790.0,-0.003503614742536687
1789.0,-0.003503614742536687
1788.0,-0.003546693102131737
1787.0,-0.0035897671891400584
1786.0,-0.003632837004408529
1785.0,-0.003675902548784027
1784.0,-0.003632837004408529
1783.0,-0.0034174452021935586
1782.0,-0.0032450548131470747
1781.0,-0.0032450548131470747
1780.0,-0.0032881588260753603
1779.0,-0.0032881588260753603
1778.0,-0.003201946521692367
1777.0,-0.003201946521692367
1776.0,-0.003201946521692367
1775.0,-0.003115717099805959
1774.0,-0.0029863408567849525
1773.0,-0.0029432068763250996
1772.0,-0.0029432068763250996
1771.0,-0.0028137792246734072
1770.0,-0.002684312989729598
1769.0,-0.0026411490000399773
1768.0,-0.0025116312849080558
1767.0,-0.0022524799205383417
1766.0,-0.0019067040408846658
1765.0,-0.0016904542321527494
1764.0,-0.0014308122463981832
1763.0,-0.0010843812922201046
1762.0,-0.0006509536295951079
1761.0,-0.00021709297223004853
1760.0,0.00026065489343207737
1759.0,0.0009565003968372565
1758.0,0.0018278780605593958
1757.0,0.0026573093983774942
1756.0,0.0035758960449088217
1755.0,0.0044964297349936455
1754.0,0.005462895701502157
1753.0,0.00656376950238835
1752.0,0.008242460465651913
1751.0,0.01086177578421088
1750.0,0.013945219230304673
1749.0,0.017095882207371904
1748.0,0.02045162529590483
1747.0,0.024246610963712723
1746.0,0.028306761050139073
1745.0,0.032920265855503006
1744.0,0.038341651362284734
1743.0,0.04426415772233416
1742.0,0.05036607620073763
1741.0,0.057396751157843484
1740.0,0.06636088747507496
1739.0,0.0756173227980268
1738.0,0.08228448344050654
1737.0,0.08645104209348209
1736.0,0.09124698081546634
1735.0,0.10165883427249067
1734.0,0.11804502866039956
1733.0,0.13153190097901324
1732.0,0.13960209487268727
1731.0,0.146788665496683
1730.0,0.15533647175976073
1729.0,0.16449967213268124
1728.0,0.17276000049435458
1727.0,0.180127178049454
1726.0,0.1875545971272441
1725.0,0.19599694527038736
1724.0,0.2054422487452383
1723.0,0.21438547505317596
1722.0,0.22083657623550135
1721.0,0.22409842110832567
1720.0,0.22635980673997413
1719.0,0.2318801058152027
1718.0,0.24366823267894233
1717.0,0.25633347855378696
1716.0,0.26312563835157743
1715.0,0.2652801583443203
1714.0,0.26520017041115307
1713.0,0.2624893093265239
1712.0,0.2571963415308345
1711.0,0.25072759170157966
1710.0,0.24359212745104175
1709.0,0.23545028093553277
1708.0,0.2258481410452895
1707.0,0.2150975501133452
1706.0,0.20425897913075608
1705.0,0.19382002601611292
1704.0,0.1835598320438614
1703.0,0.1733422081241307
1702.0,0.16285365609093994
1701.0,0.1527358982292355
1700.0,0.14435971910985468
1699.0,0.13798794874978348
1698.0,0.132179091954427
1697.0,0.1260984021355387
1696.0,0.1201016756699902
1695.0,0.114865033936566
1694.0,0.11030620855581463
1693.0,0.1060718734573931
1692.0,0.10193333935836524
1691.0,0.09799710864927058
1690.0,0.09463593123310776
1689.0,0.09189045960744768
1688.0,0.0892155652071629
1687.0,0.08618614761628329
1686.0,0.08317771540408803
1685.0,0.0812883346176787
1684.0,0.08086958613938555
1683.0,0.08008551934056851
1682.0,0.07836553894629472
1681.0,0.07623803917129979
1680.0,0.07406940213152868
1679.0,0.07170658776779781
1678.0,0.0692037370166998
1677.0,0.06676587128519196
1676.0,0.06479513257341862
1675.0,0.06348625752110681
1674.0,0.062281556382736136
1673.0,0.06083032037482261
1672.0,0.059135024033278416
1671.0,0.05749589383191922
1670.0,0.05620880107069848
1669.0,0.055172003656783764
1668.0,0.05394093961487645
1667.0,0.052468254304406825
1666.0,0.05085404758005607
1665.0,0.04919717703534143
1664.0,0.04774046340917959
1663.0,0.04657860031896477
1662.0,0.045660991397539874
1661.0,0.04474531717982
1660.0,0.04368746915880539
1659.0,0.04248848854552012
1658.0,0.04124505013091051
1657.0,0.039909932095080425
1656.0,0.03848398855105106
1655.0,0.0371573187987575
1654.0,0.036779013477011624
1653.0,0.037488606492403154
1652.0,0.03767802727041558
1651.0,0.0369681249461018
1650.0,0.03602339000339416
1649.0,0.03517488211661135
1648.0,0.034516075754861264
1647.0,0.03414006319292828
1646.0,0.033905220553829274
1645.0,0.03352973627071565
1644.0,0.0329671178412978
1643.0,0.03226486821611996
1642.0,0.03161045815293173
1641.0,0.031096969696171817
1640.0,0.030537492025363155
1639.0,0.029932203450862893
1638.0,0.029281296279810798
1637.0,0.028863370523193765
1636.0,0.02872415126189476
1635.0,0.028677754757187035
1634.0,0.02849221828874393
1633.0,0.028167720075074953
1632.0,0.027658283674251827
1631.0,0.027056991894431892
1630.0,0.026595025589939425
1629.0,0.026271941311972746
1628.0,0.026041313893296225
1627.0,0.025764722556973707
1626.0,0.02544225514642018
1625.0,0.02521206778644225
1624.0,0.02516604495145991
1623.0,0.025258095499050004
1622.0,0.025350165561278004
1621.0,0.025258095499050004
1620.0,0.02512002699306959
1619.0,0.02512002699306959
1618.0,0.02558042614771394
1617.0,0.026687379547098322
1616.0,0.0277045713888604
1615.0,0.028028723600243666
1614.0,0.027889771597169544
1613.0,0.02751945012352408
1612.0,0.027056991894431892
1611.0,0.026502691267936695
1610.0,0.025856900097785074
1609.0,0.02516604495145991
1608.0,0.02438440203310499
1607.0,0.023604163388120325
1606.0,0.02291687968414724
1605.0,0.02227639471115217
1604.0,0.021636852916117055
1603.0,0.0209982515252789
1602.0,0.02036058777709271
1601.0,0.019769308608968306
1600.0,0.0192242260373785
1599.0,0.018725167293411005
1598.0,0.018271974638383703
1597.0,0.017909760704207134
1596.0,0.01759307113620534
1595.0,0.017367005605150476
1594.0,0.017141057687924732
1593.0,0.017005545341335804
1592.0,0.016870075265299933
1591.0,0.01677978535189717
1590.0,0.016824927962187042
1589.0,0.016960383953898095
1588.0,0.017186237868137555
1587.0,0.01759307113620534
1586.0,0.018362575344230914
1585.0,0.019632973815224997
1584.0,0.021317434843055594
1583.0,0.023329119375188556
1582.0,0.025488307262671706
1581.0,0.027426919073445077
1580.0,0.02890978686288448
1579.0,0.029792641193145286
1578.0,0.029978734171634214
1577.0,0.02932775731028059
1576.0,0.028028723600243666
1575.0,0.026456531467510258
1574.0,0.024936003904763915
1573.0,0.023466619608062178
1572.0,0.02204787879853809
1571.0,0.020724852408976924
1570.0,0.019632973815224997
1569.0,0.018770512579999288
1568.0,0.018181392829336396
1567.0,0.01768353030793479
1566.0,0.017186237868137555
1565.0,0.016599261819461697
1564.0,0.016013078034810446
1563.0,0.01538268676325183
1562.0,0.014618439768003144
1561.0,0.01403492169512921
1560.0,0.013900374944870508
1559.0,0.01385553528947936
1558.0,0.013676222949234651
1557.0,0.013452186585275916
1556.0,0.01322826573375524
1555.0,0.012959713020733288
1554.0,0.012691326268817527
1553.0,0.012467797270160563
1552.0,0.012289056869694281
1551.0,0.0119764380713403
1550.0,0.011619434777991433
1549.0,0.011262724711199823
1548.0,0.010950843561779777
1547.0,0.010639186223752484
1546.0,0.01046119667949763
1545.0,0.010327752376126709
1544.0,0.010194349063173958
1543.0,0.009927665307847056
1542.0,0.00974996707218323
1541.0,0.00966114521239847
1540.0,0.009616741093766423
1539.0,0.009572341514736404
1538.0,0.009572341514736404
1537.0,0.009527946474380489
1536.0,0.00939478857608056
1535.0,0.00939478857608056
1534.0,0.009527946474380489
1533.0,0.009794384815193347
1532.0,0.009883233932095559
1531.0,0.009838807101520963
1530.0,0.009794384815193347
1529.0,0.009838807101520963
1528.0,0.009883233932095559
1527.0,0.009883233932095559
1526.0,0.009838807101520963
1525.0,0.00974996707218323
1524.0,0.009616741093766423
1523.0,0.00939478857608056
1522.0,0.009128595198514056
1521.0,0.008951223547323472
1520.0,0.008818242332126802
1519.0,0.008773924307505121
1518.0,0.008818242332126802
1517.0,0.008818242332126802
1516.0,0.008685301823389224
1515.0,0.008552401996197112
1514.0,0.008640997362049818
1513.0,0.00908424549391551
1512.0,0.009927665307847056
1511.0,0.011039929609661936
1510.0,0.012467797270160563
1509.0,0.01452861671041239
1508.0,0.018679826740892747
1507.0,0.02512002699306959
1506.0,0.02942069428514915
1505.0,0.029885677714903025
1504.0,0.028353117935693284
1503.0,0.025718641122169483
1502.0,0.022505030926963654
1501.0,0.019133445417920836
1500.0,0.01596801972881945
1499.0,0.01322826573375524
1498.0,0.010950843561779777
1497.0,0.009172949432521227
1496.0,0.007844288957383316
1495.0,0.006872514894289861
1494.0,0.006167133386013823
1493.0,0.00577085918230158
1492.0,0.005594853310833647
1491.0,0.00541891874010525
1490.0,0.005243055412371911
1489.0,0.005111204635089406
1488.0,0.005067263269958211
1487.0,0.005023326350308999
1486.0,0.004979393875242044
1485.0,0.005067263269958211
1484.0,0.005243055412371911
1483.0,0.005462895701502157
1482.0,0.00577085918230158
1481.0,0.00612308505878878
1480.0,0.006431517210272464
1479.0,0.006651960076740071
1478.0,0.006828394969235152
1477.0,0.007137328610972382
1476.0,0.007490664932224611
1475.0,0.007711646202907652
1474.0,0.007932739972333236
1473.0,0.008375265465994541
1472.0,0.009039900317800775
1471.0,0.00966114521239847
1470.0,0.010194349063173958
1469.0,0.01077272626946324
1468.0,0.011396456654336085
1467.0,0.012199714248127602
1466.0,0.013496984613259544
1465.0,0.015562705203923999
1464.0,0.017774008325325275
1463.0,0.01954210772389997
1462.0,0.020907099361673565
1461.0,0.02204787879853809
1460.0,0.023237476732539397
1459.0,0.02461415101053266
1458.0,0.02691835039863255
1457.0,0.03002526987828502
1456.0,0.032311649546687526
1455.0,0.0332483359486222
1454.0,0.03352973627071565
1453.0,0.03362357691107709
1452.0,0.03357665405630694
1451.0,0.03338901331806565
1450.0,0.033154576345083564
1449.0,0.03301397488206215
1448.0,0.032920265855503006
1447.0,0.03277974021703267
1446.0,0.03263926003405038
1445.0,0.032545631817259224
1444.0,0.03235843591698884
1443.0,0.032124554451966825
1442.0,0.03179733185715028
1441.0,0.03133029827960798
1440.0,0.03058408764601861
1439.0,0.029560137048236124
1438.0,0.028214062120885508
1437.0,0.026687379547098322
1436.0,0.02512002699306959
1435.0,0.02351246269481
1434.0,0.021819483062586187
1433.0,0.01995115493504329
1432.0,0.017955020928509757
1431.0,0.015877917138889863
1430.0,0.013945219230304673
1429.0,0.012244383261476699
1428.0,0.010906307389674463
1427.0,0.01001654169860089
1426.0,0.00939478857608056
1425.0,0.008995559669244813
1424.0,0.008818242332126802
1423.0,0.008818242332126802
1422.0,0.009039900317800775
1421.0,0.00974996707218323
1420.0,0.011664044143949504
1419.0,0.015202742910707112
1418.0,0.019632973815224997
1417.0,0.02461415101053266
1416.0,0.030490901403433135
1415.0,0.03763066432997886
1414.0,0.04624030826677128
1413.0,0.056159373598738904
1412.0,0.06661395809694559
1411.0,0.07587584681417514
1410.0,0.08212704480115218
1409.0,0.08486409337798806
1408.0,0.08423093401631587
1407.0,0.08045124103115198
1406.0,0.07453319930846214
1405.0,0.06777998612288094
1404.0,0.06153031163235467
1403.0,0.05630767289398331
1402.0,0.05197846685889629
1401.0,0.04827402457540786
1400.0,0.044793462458058375
1399.0,0.04167506835594681
1398.0,0.03905380426616856
1397.0,0.036779013477011624
1396.0,0.03461012978487776
1395.0,0.03235843591698884
1394.0,0.030351159519274695
1393.0,0.02872415126189476
1392.0,0.027334407733889066
1391.0,0.026041313893296225
1390.0,0.024798037742147727
1389.0,0.02365002099672653
1388.0,0.022688026603074007
1387.0,0.02200219004126036
1386.0,0.02159120737696063
1385.0,0.0214542995372613
1384.0,0.021545566634771474
1383.0,0.021865152601710403
1382.0,0.02245929405346514
1381.0,0.02342078135989012
1380.0,0.02461415101053266
1379.0,0.026041313893296225
1378.0,0.027565723042634938
1377.0,0.029234840219232394
1376.0,0.031096969696171817
1375.0,0.0332483359486222
1374.0,0.03541041251009669
1373.0,0.037062711569998186
1372.0,0.03796231343498735
1371.0,0.038199360808321536
1370.0,0.03791491948264003
1369.0,0.03692083935817303
1368.0,0.03517488211661135
1367.0,0.03273290844021437
1366.0,0.029839156962686353
1365.0,0.026687379547098322
1364.0,0.023237476732539397
1363.0,0.019678413991243593
1362.0,0.016509028184833463
1361.0,0.014079779876432497
1360.0,0.012378417874516323
1359.0,0.011084479487313281
1358.0,0.010105436281226954
1357.0,0.00939478857608056
1356.0,0.008906891951112605
1355.0,0.008640997362049818
1354.0,0.008596697419959609
1353.0,0.008773924307505121
1352.0,0.009217308196862062
1351.0,0.009927665307847056
1350.0,0.010950843561779777
1349.0,0.012244383261476699
1348.0,0.01381070026317599
1347.0,0.015517693597737248
1346.0,0.017367005605150476
1345.0,0.01940584422377989
1344.0,0.0214542995372613
1343.0,0.023283295636617574
1342.0,0.024798037742147727
1341.0,0.025902996205869
1340.0,0.026318081496016443
1339.0,0.025764722556973707
1338.0,0.024292536462819925
1337.0,0.02227639471115217
1336.0,0.019996628416253603
1335.0,0.017728766960431575
1334.0,0.015697768020096703
1333.0,0.014079779876432497
1332.0,0.012870232340102872
1331.0,0.01215504982870197
1330.0,0.011931796607364653
1329.0,0.012110390002254778
1328.0,0.012691326268817527
1327.0,0.013496984613259544
1326.0,0.014618439768003144
1325.0,0.015877917138889863
1324.0,0.01727661233145472
1323.0,0.018725167293411005
1322.0,0.02026956933771462
1321.0,0.021865152601710403
1320.0,0.02355831062115543
1319.0,0.02521206778644225
1318.0,0.02682594731702781
1317.0,0.02839947976994095
1316.0,0.029978734171634214
1315.0,0.031657169041054534
1314.0,0.033482823553208085
1313.0,0.03555179208333925
1312.0,0.03777276864991497
1311.0,0.04010041213405646
1310.0,0.042392712939904875
1309.0,0.04474531717982
1308.0,0.04715914332429838
1307.0,0.04953778109440221
1306.0,0.05188057561946402
1305.0,0.05433450056786593
1304.0,0.056950888991593285
1303.0,0.05983228596592505
1302.0,0.06313454102437754
1301.0,0.06701917807680191
1300.0,0.07155293679081787
1299.0,0.07654873036034848
1298.0,0.08186477383364066
1297.0,0.08735289378168276
1296.0,0.09301884677114591
1295.0,0.09859617317474823
1294.0,0.10408045468998406
1293.0,0.10941133229451272
1292.0,0.11469533241103202
1291.0,0.11975822410451964
1290.0,0.12459143992293642
1289.0,0.12930354201075
1288.0,0.1337717526203528
1287.0,0.13786862068696282
1286.0,0.1414628024303608
1285.0,0.14472319616990825
1284.0,0.1477030341730745
1283.0,0.15033494452126717
1282.0,0.15261244897260462
1281.0,0.15465386258859137
1280.0,0.1565180569600424
1279.0,0.1582027011256446
1278.0,0.15976840504189105
1277.0,0.16146572948813143
1276.0,0.16361258067358908
1275.0,0.166151950468852
1274.0,0.1693471862025755
1273.0,0.17340694606595197
1272.0,0.1785519809824696
1271.0,0.18455508375564977
1270.0,0.1911815749078758
1269.0,0.19825338078053978
1268.0,0.20572113427860006
1267.0,0.21324857785443885
1266.0,0.22054781659593825
1265.0,0.2277516600281464
1264.0,0.23462951970835144
1263.0,0.24078556876575608
1262.0,0.2461106685401666
1261.0,0.2506502394025234
1260.0,0.25445679800197585
1259.0,0.2571963415308345
1258.0,0.2589272276266785
1257.0,0.26026947143528245
1256.0,0.2616952069258951
1255.0,0.26312563835157743
1254.0,0.26472055193954325
1253.0,0.26680273489343054
1252.0,0.2695407399542311
1251.0,0.2725400791420911
1250.0,0.27572413039921084
1249.0,0.2793446434482756
1248.0,0.28341242232430774
1247.0,0.2874344721266917
1246.0,0.2912392763096834
1245.0,0.29499204066666396
1244.0,0.2987775157434429
1243.0,0.30189945437661003
1242.0,0.3042557248026767
1241.0,0.3060093895392233
1240.0,0.3070649974688622
1239.0,0.3070649974688622
1238.0,0.30565808963581875
1237.0,0.3031196283172377
1236.0,0.2994693430214084
1235.0,0.2945639534147495
1234.0,0.2883614617676509
1233.0,0.28133226468378925
1232.0,0.2735988378970775
1231.0,0.2652801583443203
1230.0,0.25649023527157033
1229.0,0.24779784682347894
1228.0,0.2391253619478111
1227.0,0.2303273359445075
1226.0,0.2214146721370378
1225.0,0.21268124337545258
1224.0,0.2041199826559248
1223.0,0.19579239491795852
1222.0,0.18768839086887623
1221.0,0.17986424812957003
1220.0,0.1725014918665413
1219.0,0.16538857927731287
1218.0,0.15857795559764076
1217.0,0.15205736115477642
1216.0,0.14605855411951008
1215.0,0.14038142122781938
1214.0,0.1349552783069008
1213.0,0.12994741830645506
1212.0,0.1252863112422209
1211.0,0.12090412049992727
1210.0,0.11684980031672243
1209.0,0.112945621949043
1208.0,0.10929960230112479
1207.0,0.10573933555301185
1206.0,0.10226297465457268
1205.0,0.0989778267519208
1204.0,0.09587978652380036
1203.0,0.09291125492570451
1202.0,0.0900163050601559
1201.0,0.0872997918091396
1200.0,0.08465293767580806
1199.0,0.08196966321511989
1198.0,0.07930286553008004
1197.0,0.07675598136972361
1196.0,0.07432700607875953
1195.0,0.07196279359311708
1194.0,0.06966236426227002
1193.0,0.06747550294945781
1192.0,0.0654005617819271
1191.0,0.06343599486473406
1190.0,0.061580354206806964
1189.0,0.05998184499233683
1188.0,0.05863766428823891
1187.0,0.05749589383191922
1186.0,0.05670338543334519
1185.0,0.05630767289398331
1184.0,0.05630767289398331
1183.0,0.05660442349104544
1182.0,0.05724807957018618
1181.0,0.058190526991161784
1180.0,0.05938391766259232
1179.0,0.06068046892176193
1178.0,0.06193081377661436
1177.0,0.06303410289212974
1176.0,0.06373765809652254
1175.0,0.06403953101083348
1174.0,0.06383825908884244
1173.0,0.0630843190547461
1172.0,0.061680456657844385
1171.0,0.0595831353183347
1170.0,0.05690137699451481
1169.0,0.05394093961487645
1168.0,0.05095170768433621
1167.0,0.048128442871635535
1166.0,0.045564513671517703
1165.0,0.04344740808260106
1164.0,0.04172287445230238
1163.0,0.0402909757535701
1162.0,0.03919637508823026
1161.0,0.03838909190871931
1160.0,0.03786753070176463
1159.0,0.03753595394209874
1158.0,0.03744126420403626
1157.0,0.03767802727041558
1156.0,0.03829421599749461
1155.0,0.03938654235209116
1154.0,0.040958607678906356
1153.0,0.04301563225723992
1152.0,0.04541983725624266
1151.0,0.04817696468408794
1150.0,0.051244819831730126
1149.0,0.054728418492290265
1148.0,0.05858795962645047
1147.0,0.06283329628496737
1146.0,0.06732334137759932
1145.0,0.07196279359311708
1144.0,0.07670415934449615
1143.0,0.08134070657817682
1142.0,0.08581556657675371
1141.0,0.09023008526723086
1140.0,0.09447395156495153
1139.0,0.09854167860388774
1138.0,0.10226297465457268
1137.0,0.10573933555301185
1136.0,0.10896458468468917
1135.0,0.11198908775497118
1134.0,0.11492161585077598
1133.0,0.11804502866039956
1132.0,0.12136332697348307
1131.0,0.1248808345374317
1130.0,0.1287190271420271
1129.0,0.13306318226836056
1128.0,0.13792828062000573
1127.0,0.14333151638846497
1126.0,0.1491088158640761
1125.0,0.15527437202677397
1124.0,0.16184381524785207
1123.0,0.16845014800424418
1122.0,0.17470373556903995
1121.0,0.18039026724841478
1120.0,0.18521985425419518
1119.0,0.1887602272467106
1118.0,0.19097927951632743
1117.0,0.19192413190869306
1116.0,0.19165396425960513
1115.0,0.1902383348928749
1114.0,0.1879561020697733
1113.0,0.18555262147751228
1112.0,0.18375870000821704
1111.0,0.1831623690979649
1110.0,0.1842894602110372
1109.0,0.18748771571001743
1108.0,0.1928033392890527
1107.0,0.19962664510865036
1106.0,0.20753826865304936
1105.0,0.21623930425607596
1104.0,0.22548303427145044
1103.0,0.23492779889720805
1102.0,0.24420134302616936
1101.0,0.2534436385896308
1100.0,0.2623303726433581
1099.0,0.2705112308204387
1098.0,0.27769521312567225
1097.0,0.28408018256642054
1096.0,0.2896287357392373
1095.0,0.29370904274123655
1094.0,0.2963647624161041
1093.0,0.2978280491422889
1092.0,0.298518364379073
1091.0,0.29808678878765615
1090.0,0.2967946293045136
1089.0,0.2949063894521269
1088.0,0.2925149880325264
1087.0,0.28945955206670293
1086.0,0.28575408898210597
1085.0,0.28158135817034435
1084.0,0.27703719105751046
1083.0,0.2717274021049829
1082.0,0.26560025747943294
1081.0,0.25900606841511387
1080.0,0.25188953250501633
1079.0,0.24420134302616936
1078.0,0.23597339230796277
1077.0,0.22767829327708022
1076.0,0.2193946941610303
1075.0,0.21105427297625234
1074.0,0.20266319922465015
1073.0,0.19456711186786002
1072.0,0.18695303483989223
1071.0,0.17973284283903546
1070.0,0.17288931253398876
1069.0,0.16647041824135633
1068.0,0.1605219526258017
1067.0,0.15496400648658493
1066.0,0.14978275820161047
1065.0,0.14502632627358292
1064.0,0.1407415825326932
1063.0,0.1367961409713705
1062.0,0.1331221856625011
1061.0,0.13000599987825812
1060.0,0.12743585690934855
1059.0,0.1252863112422209
1058.0,0.1236666709136196
1057.0,0.12268625668776156
1056.0,0.12239832027072817
1055.0,0.12262865413022594
1054.0,0.12343578601615435
1053.0,0.12470717462899183
1052.0,0.12650501774383094
1051.0,0.1286022185125162
1050.0,0.1308269726783169
1049.0,0.13318119707395182
1048.0,0.13566694496660703
1047.0,0.1381073096085541
1046.0,0.1404414273739465
1045.0,0.14248658522331015
1044.0,0.1441175699639643
1043.0,0.14520830594601453
1042.0,0.1456939581989194
1041.0,0.14587621789883287
1040.0,0.1456332219591303
1039.0,0.14490504884137811
1038.0,0.14381507327283027
1037.0,0.14266750356873148
1036.0,0.14140265500530758
1035.0,0.14002155835797914
1034.0,0.13846558914096208
1033.0,0.1369151746796402
1032.0,0.13537027545448765
1031.0,0.1337717526203528
1030.0,0.13200248965504868
1029.0,0.1302990263261221
1028.0,0.12877744324029283
1027.0,0.12778543660241448
1026.0,0.1275523522109867
1025.0,0.12877744324029283
1024.0,0.13212021654162043
1023.0,0.13822670328130693
1022.0,0.1475810070629986
1021.0,0.1600822243213189
1020.0,0.17496355877864622
1019.0,0.19037295810595034
1018.0,0.20398103065285067
1017.0,0.2133195468033513
1016.0,0.21652521241775347
1015.0,0.21275211966804597
1014.0,0.20328693671910347
1013.0,0.19057497120296585
1012.0,0.17737432122585917
1011.0,0.16519794595130088
1010.0,0.15471587365200845
1009.0,0.14599776687301103
1008.0,0.13858508136400327
1007.0,0.13212021654162043
1006.0,0.12656313677796316
1005.0,0.12182301950849372
1004.0,0.11793105556385153
1003.0,0.11463877996848804
1002.0,0.11176432672943282
1001.0,0.10913206118855912
1000.0,0.10679324694015202
999.0,0.10452220372428545
998.0,0.10248287059947447
997.0,0.1005625457138224
996.0,0.09886874864462802
995.0,0.09718153191774648
994.0,0.09571734235437201
993.0,0.09441997176475758
992.0,0.09334178232840018
991.0,0.09242742120144909
990.0,0.09156860103399356
989.0,0.09092559859909577
988.0,0.09039048950983108
987.0,0.08980263003399913
986.0,0.08916223500731646
985.0,0.08857603462370545
984.0,0.0881502035005799
983.0,0.0877779434675845
982.0,0.08745911720936239
981.0,0.08719360733870762
980.0,0.08687520961044104
979.0,0.08650404038287651
978.0,0.0861331881037608
977.0,0.08581556657675371
976.0,0.08555105930144569
975.0,0.08523386307414738
974.0,0.08481129482684358
973.0,0.08438913733853282
972.0,0.08396738981143059
971.0,0.0833881548906541
970.0,0.08270459905431071
969.0,0.08181233864107451
968.0,0.08071265949561734
967.0,0.0794071379151915
966.0,0.07800156869172903
965.0,0.07654873036034848
964.0,0.07510073598571654
963.0,0.07376047895413773
962.0,0.07252697900472405
961.0,0.0713481533463054
960.0,0.07032568205141221
959.0,0.06930561233546473
958.0,0.06833876031551878
957.0,0.06752623532284674
956.0,0.06676587128519196
955.0,0.06600683616875758
954.0,0.06519865825346338
953.0,0.06449273417528723
952.0,0.06388856832514578
951.0,0.06328524178879635
950.0,0.06278310913729457
949.0,0.062281556382736136
948.0,0.061880730805688344
947.0,0.06153031163235467
946.0,0.06118017497378969
945.0,0.060880282351513104
944.0,0.060530669156469985
943.0,0.060081579630943294
942.0,0.05963295401433477
941.0,0.05928434309333741
940.0,0.059035506507200575
939.0,0.058836539841526925
938.0,0.05863766428823891
937.0,0.05848856736559682
936.0,0.05824018618530458
935.0,0.05794231615860479
934.0,0.05749589383191922
933.0,0.057049929922901255
932.0,0.0567528748621382
931.0,0.05650548409389744
930.0,0.05630767289398331
929.0,0.05610995175152733
928.0,0.05581353871631256
927.0,0.055270639696704205
926.0,0.05462990550969615
925.0,0.05399011523423525
924.0,0.053449489430144714
923.0,0.05290953578037816
922.0,0.052419250695677544
921.0,0.05192951848105887
920.0,0.0515870342213991
919.0,0.051244819831730126
918.0,0.05095170768433621
917.0,0.05065879322950262
916.0,0.05051241005349638
915.0,0.05051241005349638
914.0,0.05085404758005607
913.0,0.05148923116234294
912.0,0.05237025261564554
911.0,0.0534986094304124
910.0,0.05482695382609992
909.0,0.056406567231630955
908.0,0.05824018618530458
907.0,0.06033101647767336
906.0,0.06253226035662252
905.0,0.06489597884855036
904.0,0.06737405597821788
903.0,0.06976434723371505
902.0,0.0718090519612431
901.0,0.07350321072677968
900.0,0.0748426728241014
899.0,0.07592757008963713
898.0,0.07685964397479927
897.0,0.07768983678560404
896.0,0.07836553894629472
895.0,0.07872981449018734
894.0,0.07872981449018734
893.0,0.07862570458152551
892.0,0.07862570458152551
891.0,0.07878187880504961
890.0,0.07914650387874067
889.0,0.07966792846041071
888.0,0.08039897621588898
887.0,0.08134070657817682
886.0,0.08265206237222844
885.0,0.08444188458847957
884.0,0.0867160982395816
883.0,0.08948231448273347
882.0,0.09269615116603047
881.0,0.0964759355287379
880.0,0.10089114180660053
879.0,0.10585015323207791
878.0,0.11125903931710734
877.0,0.1169634899723202
876.0,0.12262865413022594
875.0,0.1277271537757949
874.0,0.13176713157753506
873.0,0.13424477592854833
872.0,0.13477754370982087
871.0,0.13318119707395182
870.0,0.1295960947209729
869.0,0.12470717462899183
868.0,0.11912926746757657
867.0,0.11317099532301778
866.0,0.10740457717110186
865.0,0.10226297465457268
864.0,0.0978882765519955
863.0,0.09420411963213149
862.0,0.09097914578884403
861.0,0.08836306687055773
860.0,0.086239113587677
859.0,0.08465293767580806
858.0,0.08349341288484435
857.0,0.08275714209253371
856.0,0.0823369756726251
855.0,0.08202211740709164
854.0,0.08165507103772507
853.0,0.0812883346176787
852.0,0.08081727095749947
851.0,0.08024221949810584
850.0,0.07961575782164254
849.0,0.07925073872429178
848.0,0.07925073872429178
847.0,0.0794592834975203
846.0,0.07951143534170213
845.0,0.0794592834975203
844.0,0.07925073872429178
843.0,0.07893810920972144
842.0,0.07857365898473456
841.0,0.07820951434181311
840.0,0.07794959783282618
839.0,0.07758597585436577
838.0,0.07711890879170658
837.0,0.07644514193245056
836.0,0.07556563645676939
835.0,0.07437854520917098
834.0,0.07304051161972436
833.0,0.07170658776779781
832.0,0.07052998382251041
831.0,0.06945847013556561
830.0,0.06844043290919477
829.0,0.06752623532284674
828.0,0.0666645899223488
827.0,0.0659562809644747
826.0,0.0654005617819271
825.0,0.06499684854634524
824.0,0.06469430971007495
823.0,0.06439198148213077
822.0,0.06398920428479049
821.0,0.0636873663378068
820.0,0.06348625752110681
819.0,0.06338573802478864
818.0,0.06328524178879635
817.0,0.06323500239005853
816.0,0.06318476880236723
815.0,0.06323500239005853
814.0,0.06323500239005853
813.0,0.06328524178879635
812.0,0.06328524178879635
811.0,0.06328524178879635
810.0,0.06323500239005853
809.0,0.06328524178879635
808.0,0.06343599486473406
807.0,0.06348625752110681
806.0,0.06328524178879635
805.0,0.06283329628496737
804.0,0.06223143295006417
803.0,0.06148027482350815
802.0,0.060730413661268745
801.0,0.06003170944866376
800.0,0.05973260855398799
799.0,0.060231224546650086
798.0,0.06193081377661436
797.0,0.06499684854634524
796.0,0.06884736147670667
795.0,0.07262963696097646
794.0,0.07541061433058172
793.0,0.07670415934449615
792.0,0.07623803917129979
791.0,0.07422394616325367
790.0,0.07109230975604719
789.0,0.06737405597821788
788.0,0.06358680028852026
787.0,0.05993198626064755
786.0,0.05655495097496965
785.0,0.053596866100945384
784.0,0.05100054597304693
783.0,0.0486139051197072
782.0,0.04643358574299339
781.0,0.044456557540257124
780.0,0.04272802000705722
779.0,0.04124505013091051
778.0,0.039909932095080425
777.0,0.038816290187564384
776.0,0.03786753070176463
775.0,0.0369681249461018
774.0,0.03592902944204468
773.0,0.03475124903287918
772.0,0.03357665405630694
771.0,0.03235843591698884
770.0,0.031143625385307683
769.0,0.030071810571884017
768.0,0.029095501846216454
767.0,0.028075050815808744
766.0,0.02696455931306696
765.0,0.025995203102585407
764.0,0.02521206778644225
763.0,0.024476287039668643
762.0,0.023787622882622816
761.0,0.023054249440757957
760.0,0.022230681908425698
759.0,0.02140867317992523
758.0,0.020542681902151694
757.0,0.019678413991243593
756.0,0.018906576854070378
755.0,0.018226681372252695
754.0,0.017728766960431575
753.0,0.01727661233145472
752.0,0.016734647433454652
751.0,0.016058141016111804
750.0,0.015607721475734415
749.0,0.015697768020096703
748.0,0.01646391839700767
747.0,0.01781925440359733
746.0,0.019632973815224997
745.0,0.022322112326006227
744.0,0.02617967564731627
743.0,0.03161045815293173
742.0,0.038958783046687984
741.0,0.04875964967565971
740.0,0.06108018775522828
739.0,0.07546228222451012
738.0,0.09124698081546634
737.0,0.10796107965870849
736.0,0.1252863112422209
735.0,0.14296920172737604
734.0,0.16083631708534996
733.0,0.17907641211868253
732.0,0.1977052886025361
731.0,0.21695442788530706
730.0,0.23717144681090963
729.0,0.25916379294268843
728.0,0.2826624172761363
727.0,0.30583370406680177
726.0,0.3261500226570506
725.0,0.34141628459293716
724.0,0.3491099221436875
723.0,0.34756025241057986
722.0,0.3365817877473203
721.0,0.31812587787135316
720.0,0.29542055030370085
719.0,0.2717274021049829
718.0,0.2494144726589913
717.0,0.2296635589048508
716.0,0.21253952548158495
715.0,0.19797924822802404
714.0,0.18615224577114575
713.0,0.17698247655395072
712.0,0.16986061257465734
711.0,0.16392919108485815
710.0,0.15870311250971825
709.0,0.15428198203334142
708.0,0.15051916275601385
707.0,0.14703230897118158
706.0,0.14339193156306385
705.0,0.1397219002477652
704.0,0.1360232160956132
703.0,0.1322379753497993
702.0,0.1281352979118051
701.0,0.12378215940835768
700.0,0.11918640771920863
699.0,0.11458223488906394
698.0,0.11041819785037621
697.0,0.10707101764479421
696.0,0.10424605792627206
695.0,0.10116516193172598
694.0,0.09745322068600859
693.0,0.09371884422784693
692.0,0.09076499663169257
691.0,0.08862929288386212
690.0,0.08698131625203986
689.0,0.08560394787021397
688.0,0.08465293767580806
687.0,0.08423093401631587
686.0,0.08407278830288423
685.0,0.08375666953466032
684.0,0.08312512146131668
683.0,0.08265206237222844
682.0,0.08275714209253371
681.0,0.08328292240118751
680.0,0.08344078069888616
679.0,0.08254700807033655
678.0,0.0805035121369384
677.0,0.07789763319239285
676.0,0.07535895258283709
675.0,0.07304051161972436
674.0,0.07083661679493547
673.0,0.06869471857832687
672.0,0.06676587128519196
671.0,0.06484555278383164
670.0,0.06293368798257193
669.0,0.06093025007657582
668.0,0.05863766428823891
667.0,0.05709945885970602
666.0,0.05660442349104544
665.0,0.05625823416868636
664.0,0.05551732784983132
663.0,0.05453141486818014
662.0,0.05369514500652506
661.0,0.053596866100945384
660.0,0.05394093961487645
659.0,0.054088483180726676
658.0,0.05389176956309405
657.0,0.053842605077627725
656.0,0.05428528594013993
655.0,0.05462990550969615
654.0,0.053842605077627725
653.0,0.05192951848105887
652.0,0.04997609347667353
651.0,0.04905128560059957
650.0,0.04934311749548925
649.0,0.05012229596312534
648.0,0.050463626623857394
647.0,0.04987865248862655
646.0,0.04851676924770687
645.0,0.04711073508906982
644.0,0.04628861957244457
643.0,0.04624030826677128
642.0,0.04701393480294458
641.0,0.04827402457540786
640.0,0.04978123335813667
639.0,0.051244819831730126
638.0,0.052419250695677544
637.0,0.053449489430144714
636.0,0.05502409158795207
635.0,0.05749589383191922
634.0,0.06078036414518184
633.0,0.06383825908884244
632.0,0.06524912533642091
631.0,0.06429125215733666
630.0,0.061880730805688344
629.0,0.05933412752417122
628.0,0.05754547365752294
627.0,0.056406567231630955
626.0,0.05536929814372171
625.0,0.05389176956309405
624.0,0.05178270644002936
623.0,0.04939177521576932
622.0,0.047595060422975566
621.0,0.04696554274964315
620.0,0.04730440041308315
619.0,0.04754660357696672
618.0,0.04701393480294458
617.0,0.045902279520810385
616.0,0.04508244626504121
615.0,0.04455278942230456
614.0,0.044167989767578186
613.0,0.04387961360698034
612.0,0.04421607108308856
611.0,0.04513062893352182
610.0,0.045902279520810385
609.0,0.04599883231842972
608.0,0.045516282844447975
607.0,0.04450467081587295
606.0,0.04282386959515394
605.0,0.04081545726880842
604.0,0.03910132267333921
603.0,0.038151940981675736
602.0,0.038341651362284734
601.0,0.04010041213405646
600.0,0.0435434165901003
