cm-1,A
4000.0,-0.4479638302267448
3999.0,-0.44791738244695667
3998.0,-0.4478554443455356
3997.0,-0.4478089849718141
3996.0,-0.44776252062749267
3995.0,-0.44770056043451323
3994.0,-0.44742163012184033
3993.0,-0.4469563477954597
3992.0,-0.44667693894050586
3991.0,-0.44683218827436155
3990.0,-0.44728209775697625
3989.0,-0.44766957702279253
3988.0,-0.4478399584398516
3987.0,-0.44790189874971986
3986.0,-0.4479638302267448
3985.0,-0.44801027303947594
3984.0,-0.4479947926537289
3983.0,-0.44790189874971986
3982.0,-0.4477470314079568
3981.0,-0.4475456212670106
3980.0,-0.44728209775697625
3979.0,-0.4469563477954597
3978.0,-0.4465837626942992
3977.0,-0.4462419453254136
3976.0,-0.44602428502349056
3975.0,-0.44596207632409657
3974.0,-0.44591541395112344
3973.0,-0.4457909564400544
3972.0,-0.4456042032735974
3971.0,-0.4454952268289083
3970.0,-0.44557306993676926
3969.0,-0.4458531896538749
3968.0,-0.446210857674584
3967.0,-0.4463973502085943
3966.0,-0.446226401778163
3965.0,-0.4457753967430853
3964.0,-0.44546408567860807
3963.0,-0.4454952268289083
3962.0,-0.44572871430710626
3961.0,-0.4456975898951603
3960.0,-0.445277191869633
3959.0,-0.4447784148194782
3958.0,-0.44460682782297756
3957.0,-0.44473162508875097
3956.0,-0.4447784148194782
3955.0,-0.44438834627944823
3954.0,-0.44346639308865354
3953.0,-0.44216608578472005
3952.0,-0.44078318135933436
3951.0,-0.4397273276437894
3950.0,-0.4393011076284301
3949.0,-0.4395063768887275
3948.0,-0.4396484295634737
3947.0,-0.4389060861517926
3946.0,-0.43740171915630466
3945.0,-0.43643300266009755
3944.0,-0.4371637104465038
3943.0,-0.43919053782757045
3942.0,-0.4407044748798601
3941.0,-0.44043676610577354
3940.0,-0.4394432274492468
3939.0,-0.43967999051562634
3938.0,-0.44117649994107566
3937.0,-0.4420876295507603
3936.0,-0.44114504755969586
3935.0,-0.43896931373798687
3934.0,-0.4371319660943298
3933.0,-0.43651248699969303
3932.0,-0.43692557122800046
3931.0,-0.43740171915630466
3930.0,-0.43702084258560614
3929.0,-0.4356373581427033
3928.0,-0.4340416827542719
3927.0,-0.43320960877147385
3926.0,-0.43372184293283933
3925.0,-0.4351114331264929
3924.0,-0.4357647592603793
3923.0,-0.43448906315118974
3922.0,-0.43216726944258843
3921.0,-0.4306554476996647
3920.0,-0.43049430544635836
3919.0,-0.4312189751988522
3918.0,-0.4328090050331683
3917.0,-0.43517521554427585
3916.0,-0.43729066465704847
3915.0,-0.4382891343007489
3914.0,-0.4388428493591503
3913.0,-0.44020041536148957
3912.0,-0.4422445278479521
3911.0,-0.4435758797502576
3910.0,-0.44294986957786175
3909.0,-0.43999547395380834
3908.0,-0.43519115968517763
3907.0,-0.4295261942966868
3906.0,-0.4242117189392842
3905.0,-0.42018687035428615
3904.0,-0.41718926845901505
3903.0,-0.41395322915541444
3902.0,-0.41069289616325344
3901.0,-0.41047354272833037
3900.0,-0.4150902576711153
3899.0,-0.42176840120692427
3898.0,-0.42625093198054564
3897.0,-0.42766459406218527
3896.0,-0.4279889243725452
3895.0,-0.4282644148272152
3894.0,-0.4281185887084673
3893.0,-0.4283292107216887
3892.0,-0.4303169798819737
3891.0,-0.4322154325184635
3890.0,-0.4293969496020633
3889.0,-0.4224585140319439
3888.0,-0.41835101684870857
3887.0,-0.4205992822914397
3886.0,-0.4259741609193761
3885.0,-0.42852354042076346
3884.0,-0.42447327319533423
3883.0,-0.41762113786389454
3882.0,-0.4160410669644343
3881.0,-0.42137355810200594
3880.0,-0.427843005705534
3879.0,-0.42862067267193904
3878.0,-0.4233933451350831
3877.0,-0.4193277969967575
3876.0,-0.42061577062576516
3875.0,-0.42386818975324747
3874.0,-0.423557143312292
3873.0,-0.41752151380429625
3872.0,-0.40981481689298116
3871.0,-0.4077646957618266
3870.0,-0.4124605474299612
3869.0,-0.4159910762326491
3868.0,-0.4122084658816805
3867.0,-0.4067955726682504
3866.0,-0.4079344945996244
3865.0,-0.41408715182753264
3864.0,-0.41954272470027965
3863.0,-0.42181773136413225
3862.0,-0.4216697240795475
3861.0,-0.4214558466904448
3860.0,-0.4219163748719543
3859.0,-0.4214723025372873
3858.0,-0.4184670209466006
3857.0,-0.4119057747568178
3856.0,-0.4027770696103472
3855.0,-0.39480177716271125
3854.0,-0.39427652676782143
3853.0,-0.4026567973656636
3852.0,-0.40783262326363134
3851.0,-0.4053122027584193
3850.0,-0.4095104522693158
3849.0,-0.42180128860097277
3848.0,-0.4309614533549482
3847.0,-0.4328570969973282
3846.0,-0.43046206981955537
3845.0,-0.4269827109972466
3844.0,-0.4230655633300948
3843.0,-0.41783691162632497
3842.0,-0.4107603672445874
3841.0,-0.40322350370372506
3840.0,-0.3984261463054839
3839.0,-0.39830466290349165
3838.0,-0.4013488359797801
3837.0,-0.40360089751828054
3836.0,-0.40370376621290793
3835.0,-0.40447450573985355
3834.0,-0.4085960764627825
3833.0,-0.41504015736744293
3832.0,-0.4209783556949027
3831.0,-0.4238845544491405
3830.0,-0.4233933451350831
3829.0,-0.4220478647058781
3828.0,-0.4227047173767926
3827.0,-0.42494693916211324
3826.0,-0.424914289123989
3825.0,-0.4193608697212836
3824.0,-0.4103385009107301
3823.0,-0.4039436984532019
3822.0,-0.40414924920969497
3821.0,-0.4087994375225268
3820.0,-0.40900270340177247
3819.0,-0.40064158605651023
3818.0,-0.39557099712082033
3817.0,-0.4028973085564087
3816.0,-0.41650736985045
3815.0,-0.42571350928506746
3814.0,-0.42646246149015976
3813.0,-0.4254690062205069
3812.0,-0.42863685926860917
3811.0,-0.4318299782730626
3810.0,-0.4302040986317488
3809.0,-0.42586014507784054
3808.0,-0.42367176528951767
3807.0,-0.4242117189392842
3806.0,-0.42178484521525217
3805.0,-0.41283000256232594
3804.0,-0.4038751599093997
3803.0,-0.4027770696103472
3802.0,-0.40908736944783497
3801.0,-0.41579105574234143
3800.0,-0.4143381455823678
3799.0,-0.40735690748594733
3798.0,-0.4077646957618266
3797.0,-0.4172723536273164
3796.0,-0.4268527070353696
3795.0,-0.43052653868064095
3794.0,-0.4298814190107647
3793.0,-0.430155711970019
3792.0,-0.4331935917148453
3791.0,-0.4365283821220993
3790.0,-0.43768715753786
3789.0,-0.4365919567947696
3788.0,-0.4343293373377297
3787.0,-0.43239198477992424
3786.0,-0.4318299782730626
3785.0,-0.43234384128072634
3784.0,-0.43181391025293747
3783.0,-0.42876633032808176
3782.0,-0.42484898168297835
3781.0,-0.4232458739368079
3780.0,-0.42511015254368134
3779.0,-0.4283454081848852
3778.0,-0.42967154861786394
3777.0,-0.42875014855630056
3776.0,-0.42876633032808176
3775.0,-0.4307198878632823
3774.0,-0.4316853446860116
3773.0,-0.4296554005399318
3772.0,-0.42631602895764464
3771.0,-0.42463666465019756
3770.0,-0.42475100210401706
3769.0,-0.42362264528925
3768.0,-0.4201208480857028
3767.0,-0.41820182317824806
3766.0,-0.4209289300980017
3765.0,-0.4252569921617799
3764.0,-0.42603929939216734
3763.0,-0.4227703480364666
3762.0,-0.419393939927422
3761.0,-0.41848359043142347
3760.0,-0.41901348043580766
3759.0,-0.41916239558488533
3758.0,-0.41758793238319125
3757.0,-0.4137020127811133
3756.0,-0.408307818523753
3755.0,-0.40257086822233035
3754.0,-0.39698350827520024
3753.0,-0.391675953237296
3752.0,-0.38817227504778895
3751.0,-0.3893433112520781
3750.0,-0.3931363002692172
3749.0,-0.3917993048184676
3748.0,-0.38515923858004264
3747.0,-0.381295623003826
3746.0,-0.38506977633193484
3745.0,-0.3954137674750182
3744.0,-0.40584134106896874
3743.0,-0.4065231489438492
3742.0,-0.3999331824955683
3741.0,-0.3999331824955683
3740.0,-0.405346360175709
3739.0,-0.4053634378769715
3738.0,-0.39856494288125877
3737.0,-0.3910233693700995
3736.0,-0.38772787486789984
3735.0,-0.38840318355263515
3734.0,-0.38996303643588837
3733.0,-0.39220435637086304
3732.0,-0.39712276659757784
3731.0,-0.4030175142222805
3730.0,-0.40715286967063546
3729.0,-0.41028784940146057
3728.0,-0.4138192651730441
3727.0,-0.41682350476685404
3726.0,-0.4175049075723125
3725.0,-0.41545748340603517
3724.0,-0.4127964287165433
3723.0,-0.4124101428243878
3722.0,-0.41442177794256096
3721.0,-0.4168068718229443
3720.0,-0.41863268735406534
3719.0,-0.4205992822914397
3718.0,-0.42260625278706376
3717.0,-0.42278675415179645
3716.0,-0.4197245035618189
3715.0,-0.41413736218447683
3714.0,-0.40818906844495517
3713.0,-0.4039436984532019
3712.0,-0.4033264618175827
3711.0,-0.4067955726682504
3710.0,-0.4109627176183839
3709.0,-0.4131655983458926
3708.0,-0.41529060110998284
3707.0,-0.4186161235568169
3706.0,-0.4217026189465889
3705.0,-0.4231475319772442
3704.0,-0.42340972773309327
3703.0,-0.4238354585114261
3702.0,-0.42512647050877383
3701.0,-0.42592530065247347
3700.0,-0.4245876536679303
3699.0,-0.4228687754332552
3698.0,-0.4238845544491405
3697.0,-0.4271614029259654
3696.0,-0.4290413282399559
3695.0,-0.426933964071905
3694.0,-0.4214723025372873
3693.0,-0.414739434113486
3692.0,-0.40796844640215957
3691.0,-0.4027942486409031
3690.0,-0.4019516759848276
3689.0,-0.40585839931763656
3688.0,-0.40981481689298116
3687.0,-0.4109627176183839
3686.0,-0.4134841743174067
3685.0,-0.42020337435329624
3684.0,-0.4274536494013197
3683.0,-0.43046206981955537
3682.0,-0.42866923065218865
3681.0,-0.4243098202457558
3680.0,-0.41854986204974187
3679.0,-0.4102540784463966
3678.0,-0.4000023459279558
3677.0,-0.392802437083664
3676.0,-0.3940136631573128
3675.0,-0.39948335150445224
3674.0,-0.3960074477051614
3673.0,-0.3854632724505258
3672.0,-0.38374357583531316
3671.0,-0.393434802562989
3670.0,-0.4068125934784228
3669.0,-0.41632423913641325
3668.0,-0.41742186688640537
3667.0,-0.41634089057448076
3666.0,-0.42061577062576516
3665.0,-0.42759969892486804
3664.0,-0.4324882557705063
3663.0,-0.4344092075875001
3662.0,-0.4343293373377297
3661.0,-0.43260054496068356
3660.0,-0.4289604645754137
3659.0,-0.4243098202457558
3658.0,-0.4210936602175246
3657.0,-0.4211924683057493
3656.0,-0.42257342629559647
3655.0,-0.41985665859727117
3654.0,-0.41161970596323005
3653.0,-0.40251930257424906
3652.0,-0.39506416433124203
3651.0,-0.3883499078703818
3650.0,-0.38424585781997855
3649.0,-0.38639193935011074
3648.0,-0.3913762391696496
3647.0,-0.3942940453528423
3646.0,-0.397557661270421
3645.0,-0.40370376621290793
3644.0,-0.41173752181735734
3643.0,-0.41946007278607045
3642.0,-0.4249632632607412
3641.0,-0.42737248954948237
3640.0,-0.4273887227332511
3639.0,-0.42662510641824714
3638.0,-0.42576239338401045
3637.0,-0.42434251575747073
3636.0,-0.42244209551193723
3635.0,-0.4208465416011973
3634.0,-0.4187817331080548
3633.0,-0.413836012930866
3632.0,-0.4054829629862722
3631.0,-0.39729677672968533
3630.0,-0.39439914202559123
3629.0,-0.39955258660593485
3628.0,-0.4070167911854541
3627.0,-0.4074248987944076
3626.0,-0.40616533327655313
3625.0,-0.4114681814579182
3624.0,-0.41801940572894125
3623.0,-0.419030029085262
3622.0,-0.4149065282950337
3621.0,-0.40967957006035594
3620.0,-0.4066593821667528
3619.0,-0.40582428215025956
3618.0,-0.40416637404879374
3617.0,-0.4002443312381505
3616.0,-0.39743593465354277
3615.0,-0.39859963509535223
3614.0,-0.40222698152932645
3613.0,-0.4049191992463146
3612.0,-0.40435470272542595
3611.0,-0.40186560719961095
3610.0,-0.40146947094308905
3609.0,-0.4053634378769715
3608.0,-0.41175435004488614
3607.0,-0.4166571466548441
3606.0,-0.4179198729977407
3605.0,-0.4172723536273164
3604.0,-0.4170729225131873
3603.0,-0.4174716932032929
3602.0,-0.4178866903508798
3601.0,-0.41801940572894125
3600.0,-0.41740525684368635
3599.0,-0.415557582011711
3598.0,-0.41311527550750915
3597.0,-0.41153553220932704
3596.0,-0.4115692036686327
3595.0,-0.4130146123342464
3594.0,-0.4146224299225225
3593.0,-0.4146224299225225
3592.0,-0.41234292758232627
3591.0,-0.40886720338681926
3590.0,-0.40563658980666695
3589.0,-0.40408074309993847
3588.0,-0.4054146669518648
3587.0,-0.4086130268553032
3586.0,-0.4098993247802132
3585.0,-0.4090196379314932
3584.0,-0.4100682912383622
3583.0,-0.4141206260438204
3582.0,-0.41858299406699206
3581.0,-0.4214229331260557
3580.0,-0.4224913492099662
3579.0,-0.4225241819056462
3578.0,-0.4222285982486711
3577.0,-0.4220149959794637
3576.0,-0.4220478647058781
3575.0,-0.4223107250017959
3574.0,-0.42244209551193723
3573.0,-0.4217355113222552
3572.0,-0.41934433367384294
3571.0,-0.4149566440156667
3570.0,-0.4091381611538636
3569.0,-0.4034808532373404
3568.0,-0.4003479979672955
3567.0,-0.40091772307544815
3566.0,-0.4026567973656636
3565.0,-0.402502112664219
3564.0,-0.40239895891323263
3563.0,-0.4051584611265455
3562.0,-0.4099331233312946
3561.0,-0.41448867223695185
3560.0,-0.4176543408059521
3559.0,-0.419393939927422
3558.0,-0.4200548157787636
3557.0,-0.4199722612739998
3556.0,-0.4193277969967575
3555.0,-0.418400736684887
3554.0,-0.41778712719549116
3553.0,-0.4178866903508798
3552.0,-0.41800281852443577
3551.0,-0.41687339977679727
3550.0,-0.4144552263777208
3549.0,-0.4121580320091054
3548.0,-0.4111818241822527
3547.0,-0.41153553220932704
3546.0,-0.41254454210808866
3545.0,-0.4134674129858249
3544.0,-0.41400345499713564
3543.0,-0.4146892933200452
3542.0,-0.41605772926303786
3541.0,-0.4178700980766452
3540.0,-0.4194270076155564
3539.0,-0.42031888478858903
3538.0,-0.42074765476947595
3537.0,-0.4210936602175246
3536.0,-0.42130771600335004
3535.0,-0.4210442477420484
3534.0,-0.42025288258756444
3533.0,-0.419393939927422
3532.0,-0.41881484744142217
3531.0,-0.41835101684870857
3530.0,-0.41770414045992776
3529.0,-0.4169066599324256
3528.0,-0.4159910762326491
3527.0,-0.4149232341778242
3526.0,-0.41386950650909604
3525.0,-0.4135009350021206
3524.0,-0.41443850248215686
3523.0,-0.41620766119023056
3522.0,-0.41767094132511007
3521.0,-0.41835101684870857
3520.0,-0.4188810685343576
3519.0,-0.41998877343041485
3518.0,-0.4214393902200495
3517.0,-0.42244209551193723
3516.0,-0.42273753394639435
3515.0,-0.42260625278706376
3514.0,-0.42226145081360267
3513.0,-0.4216203771068323
3512.0,-0.4207806195485655
3511.0,-0.42026938407822545
3510.0,-0.4203353837716626
3509.0,-0.4204838464200411
3508.0,-0.4199062063695944
3507.0,-0.41853329509321213
3506.0,-0.4172225044337696
3505.0,-0.416790238241989
3504.0,-0.41728896875373733
3503.0,-0.4181852429395643
3502.0,-0.41869893622642396
3501.0,-0.41859955912780844
3500.0,-0.4184670209466006
3499.0,-0.4189472795314604
3498.0,-0.4199722612739998
3497.0,-0.4210936602175246
3496.0,-0.4218834961921063
3495.0,-0.42216288566239024
3494.0,-0.4220642981362803
3493.0,-0.4218834961921063
3492.0,-0.42180128860097277
3491.0,-0.42176840120692427
3490.0,-0.42175195657594067
3489.0,-0.4218341735047786
3488.0,-0.4220642981362803
3487.0,-0.4221464559621251
3486.0,-0.4217190654458203
3485.0,-0.4208465416011973
3484.0,-0.42008783318721843
3483.0,-0.4199227210376031
3482.0,-0.42028588494191776
3481.0,-0.4206982029088069
3480.0,-0.4207806195485655
3479.0,-0.42068171770385154
3478.0,-0.4207641374717914
3477.0,-0.42114306707166493
3476.0,-0.4216861718245135
3475.0,-0.42213002564028823
3474.0,-0.4223107250017959
3473.0,-0.4222450248417817
3472.0,-0.42217931474113035
3471.0,-0.4222285982486711
3470.0,-0.4223764152241789
3469.0,-0.4224585140319439
3468.0,-0.42242567637120443
3467.0,-0.42227787616418055
3466.0,-0.4218670559187183
3465.0,-0.4211924683057493
3464.0,-0.4205827933310986
3463.0,-0.4203353837716626
3462.0,-0.42040137343665585
3461.0,-0.4205168312286167
3460.0,-0.42056630374469295
3459.0,-0.42068171770385154
3458.0,-0.4209289300980017
3457.0,-0.4211760018520927
3456.0,-0.4212912539188607
3455.0,-0.4212747912103465
3454.0,-0.4212253993401829
3453.0,-0.4211924683057493
3452.0,-0.4209124536489641
3451.0,-0.420104340950183
3450.0,-0.4188479592500616
3449.0,-0.41772073907568386
3448.0,-0.41728896875373733
3447.0,-0.4173554229035785
3446.0,-0.41720588676433
3445.0,-0.41654065804897966
3444.0,-0.4160743909223945
3443.0,-0.41649072479432236
3442.0,-0.41753811940132746
3441.0,-0.4184670209466006
3440.0,-0.41896383070362253
3439.0,-0.41937740513912747
3438.0,-0.42002179585995636
3437.0,-0.4207146874880312
3436.0,-0.4210771900170216
3435.0,-0.4210442477420484
3434.0,-0.4207641374717914
3433.0,-0.4204508591060683
3432.0,-0.42020337435329624
3431.0,-0.42003830613317783
3430.0,-0.4200052849590512
3429.0,-0.4200713247967611
3428.0,-0.4201703657280693
3427.0,-0.4202363804698881
3426.0,-0.42018687035428615
3425.0,-0.4198896910735681
3424.0,-0.41937740513912747
3423.0,-0.4189307277285006
3422.0,-0.4188810685343576
3421.0,-0.4192616439910086
3420.0,-0.4197410251406506
3419.0,-0.42003830613317783
3418.0,-0.4202198777251476
3417.0,-0.4205827933310986
3416.0,-0.42114306707166493
3415.0,-0.4217355113222552
3414.0,-0.42217931474113035
3413.0,-0.42244209551193723
3412.0,-0.42265548787245244
3411.0,-0.4229179807676622
3410.0,-0.42327864964203465
3409.0,-0.42363901923997105
3408.0,-0.4238354585114261
3407.0,-0.4238027248025804
3406.0,-0.42367176528951767
3405.0,-0.4235898955356787
3404.0,-0.42363901923997105
3403.0,-0.42381909196540457
3402.0,-0.4239990900577282
3401.0,-0.42401544982198924
3400.0,-0.4239172819911228
3399.0,-0.4238845544491405
3398.0,-0.4240481675018226
3397.0,-0.4241953665669005
3396.0,-0.4241135954680346
3395.0,-0.4239009185284166
3394.0,-0.4239172819911228
3393.0,-0.42434251575747073
3392.0,-0.42489796318440076
3391.0,-0.4252896164467943
3390.0,-0.42545270112084843
3389.0,-0.4255668239652586
3388.0,-0.42569721336259114
3387.0,-0.42577868686098297
3386.0,-0.42577868686098297
3385.0,-0.42569721336259114
3384.0,-0.4255668239652586
3383.0,-0.42543639540901035
3382.0,-0.42542008908494644
3381.0,-0.4255994249848212
3380.0,-0.4259578747745145
3379.0,-0.4263648452879276
3378.0,-0.42667388802137296
3377.0,-0.4268527070353696
3376.0,-0.426933964071905
3375.0,-0.42696646263007487
3374.0,-0.42699895875653704
3373.0,-0.426933964071905
3372.0,-0.42673892163663396
3371.0,-0.42639738645997216
3370.0,-0.425909012675203
3369.0,-0.42542008908494644
3368.0,-0.42511015254368134
3367.0,-0.42511015254368134
3366.0,-0.4253059276703186
3365.0,-0.425517917846864
3364.0,-0.42563202355731944
3363.0,-0.42568091682862397
3362.0,-0.42572980459609866
3361.0,-0.42576239338401045
3360.0,-0.4257949797266938
3359.0,-0.4258764348879325
3358.0,-0.4261369887864239
3357.0,-0.4265763193351715
3356.0,-0.42703145245165564
3355.0,-0.4273075507460411
3354.0,-0.42734002136152593
3353.0,-0.42719388446982
3352.0,-0.42703145245165564
3351.0,-0.42696646263007487
3350.0,-0.42704769838757484
3349.0,-0.4272588402704054
3348.0,-0.4275185663643559
3347.0,-0.4277294795038933
3346.0,-0.4278267894935235
3345.0,-0.42779435525288845
3344.0,-0.4277132590522714
3343.0,-0.4277132590522714
3342.0,-0.4277781372241729
3341.0,-0.4277294795038933
3340.0,-0.4274536494013197
3339.0,-0.4270639437157939
3338.0,-0.42680394551486645
3337.0,-0.42677143479269697
3336.0,-0.4269502136549761
3335.0,-0.42721012433078887
3334.0,-0.4274536494013197
3333.0,-0.4277132590522714
3332.0,-0.4280051345318103
3331.0,-0.4283130126543684
3330.0,-0.42857210926186884
3329.0,-0.4287015996230541
3328.0,-0.42868541543918814
3327.0,-0.4285882976686137
3326.0,-0.4285073495999554
3325.0,-0.42849115817551864
3324.0,-0.4285882976686137
3323.0,-0.42879869206296295
3322.0,-0.42900898458089065
3321.0,-0.4291383447670887
3320.0,-0.4291706787939735
3319.0,-0.4292030104137097
3318.0,-0.4292676664331685
3317.0,-0.42931615213166197
3316.0,-0.4292838289341252
3315.0,-0.4292515033306934
3314.0,-0.42923533962665505
3313.0,-0.4292191753210086
3312.0,-0.4290574991662477
3311.0,-0.42876633032808176
3310.0,-0.42853973063798856
3309.0,-0.4284749661474083
3308.0,-0.42853973063798856
3307.0,-0.42863685926860917
3306.0,-0.4287177832038318
3305.0,-0.42889576280138764
3304.0,-0.4291706787939735
3303.0,-0.4294131072924836
3302.0,-0.4295261942966868
3301.0,-0.4294777320434533
3300.0,-0.429380791310483
3299.0,-0.4293323128283313
3298.0,-0.4292999908336079
3297.0,-0.4291868449047129
3296.0,-0.4289442900355742
3295.0,-0.42866923065218865
3294.0,-0.42852354042076346
3293.0,-0.42853973063798856
3292.0,-0.42863685926860917
3291.0,-0.42876633032808176
3290.0,-0.42891193914860626
3289.0,-0.42910600833269674
3288.0,-0.42931615213166197
3287.0,-0.42949388672874145
3286.0,-0.4296392518615537
3285.0,-0.4297361349260327
3284.0,-0.429816854306579
3283.0,-0.42984913785849166
3282.0,-0.42984913785849166
3281.0,-0.42975228000240806
3280.0,-0.4296231025826862
3279.0,-0.42954234717943285
3278.0,-0.4295261942966868
3277.0,-0.42951004081313826
3276.0,-0.4294454208700209
3275.0,-0.4293646324176974
3274.0,-0.4293323128283313
3273.0,-0.4292999908336079
3272.0,-0.4291868449047129
3271.0,-0.4290574991662477
3270.0,-0.4290413282399559
3269.0,-0.42915451208144706
3268.0,-0.4293646324176974
3267.0,-0.42957465114269544
3266.0,-0.42970384297257125
3265.0,-0.42975228000240806
3264.0,-0.4297361349260327
3263.0,-0.4296876960953959
3262.0,-0.4296554005399318
3261.0,-0.4296392518615537
3260.0,-0.4296392518615537
3259.0,-0.42960695270328353
3258.0,-0.4295261942966868
3257.0,-0.4293646324176974
3256.0,-0.42923533962665505
3255.0,-0.4292515033306934
3254.0,-0.4294615767572276
3253.0,-0.42970384297257125
3252.0,-0.4298652787345607
3251.0,-0.42991369776375477
3250.0,-0.42991369776375477
3249.0,-0.4298007116306466
3248.0,-0.4295908022233017
3247.0,-0.429380791310483
3246.0,-0.4293323128283313
3245.0,-0.4293646324176974
3244.0,-0.4293323128283313
3243.0,-0.4291706787939735
3242.0,-0.42902515671151864
3241.0,-0.4290413282399559
3240.0,-0.4292191753210086
3239.0,-0.4293969496020633
3238.0,-0.42951004081313826
3237.0,-0.42954234717943285
3236.0,-0.4294777320434533
3235.0,-0.42931615213166197
3234.0,-0.4291383447670887
3233.0,-0.42908983921257304
3232.0,-0.4292030104137097
3231.0,-0.4294615767572276
3230.0,-0.42971998924943566
3229.0,-0.42991369776375477
3228.0,-0.43001051963059256
3227.0,-0.4300589224706428
3226.0,-0.4300589224706428
3225.0,-0.43004278879001623
3224.0,-0.4300911880339493
3223.0,-0.4302040986317488
3222.0,-0.4304137118925979
3221.0,-0.43062322403191455
3220.0,-0.4307843184667539
3219.0,-0.4307843184667539
3218.0,-0.43060711130139895
3217.0,-0.43033310338003217
3216.0,-0.43023635341151056
3215.0,-0.4304137118925979
3214.0,-0.43070377871875243
3213.0,-0.4308004246241812
3212.0,-0.4307198878632823
3211.0,-0.43067155863698803
3210.0,-0.4308648432814586
3209.0,-0.43115460905224445
3208.0,-0.43137984884193603
3207.0,-0.43154066291542525
3206.0,-0.4317496322269334
3205.0,-0.43200668726959846
3204.0,-0.43219937875330494
3203.0,-0.4322154325184635
3202.0,-0.43205486815627436
3201.0,-0.43181391025293747
3200.0,-0.4315888955279954
3199.0,-0.4315085048641776
3198.0,-0.43157281858565355
3197.0,-0.4317014174634197
3196.0,-0.4317657026253481
3195.0,-0.43179784163830615
3194.0,-0.4319263739116437
3193.0,-0.43219937875330494
3192.0,-0.4325845054252211
3191.0,-0.4328731264686758
3190.0,-0.4329372384383676
3189.0,-0.43277694076485984
3188.0,-0.4325845054252211
3187.0,-0.4325524245770511
3186.0,-0.43268073375352234
3185.0,-0.4328250362796182
3184.0,-0.4328250362796182
3183.0,-0.432696769735502
3182.0,-0.4324882557705063
3181.0,-0.43229569244401267
3180.0,-0.4322154325184635
3179.0,-0.43234384128072634
3178.0,-0.4325845054252211
3177.0,-0.4328090050331683
3176.0,-0.43292121133321215
3175.0,-0.43296929087440583
3174.0,-0.43304941161661326
3173.0,-0.4331455370003394
3172.0,-0.43320960877147385
3171.0,-0.4332576563973487
3170.0,-0.4333217116307839
3169.0,-0.4334017673890713
3168.0,-0.43348180839298456
3167.0,-0.433513820664543
3166.0,-0.43352982591549516
3165.0,-0.43356183464796105
3164.0,-0.4335778381295623
3163.0,-0.43362584503636015
3162.0,-0.4336898459916987
3161.0,-0.43375383751675667
3160.0,-0.4337858297437993
3159.0,-0.4337858297437993
3158.0,-0.433737840519429
3157.0,-0.4336578466929879
3156.0,-0.43354583057662
3155.0,-0.43341777677003
3154.0,-0.43335373570497193
3153.0,-0.43338575741793806
3152.0,-0.43352982591549516
3151.0,-0.4336898459916987
3150.0,-0.4338338136659807
3149.0,-0.4339297656084642
3148.0,-0.4340416827542719
3147.0,-0.43413758878673425
3146.0,-0.4342334736447713
3145.0,-0.4342814081363011
3144.0,-0.4342334736447713
3143.0,-0.43413758878673425
3142.0,-0.43402569635624655
3141.0,-0.4339137750901574
3140.0,-0.4339137750901574
3139.0,-0.4340416827542719
3138.0,-0.4342494523964757
3137.0,-0.43437726125022413
3136.0,-0.43431336152497035
3135.0,-0.4341056224624227
3134.0,-0.43389778398306555
3133.0,-0.4338178196143132
3132.0,-0.4337858297437993
3131.0,-0.433737840519429
3130.0,-0.4336898459916987
3129.0,-0.433737840519429
3128.0,-0.4339297656084642
3127.0,-0.43413758878673425
3126.0,-0.4341535710666009
3125.0,-0.43396174487889594
3124.0,-0.4337058447569433
3123.0,-0.43349781482372096
3122.0,-0.4333697468565858
3121.0,-0.43328968519502586
3120.0,-0.4332576563973487
3119.0,-0.43328968519502586
3118.0,-0.4333217116307839
3117.0,-0.43338575741793806
3116.0,-0.43348180839298456
3115.0,-0.43362584503636015
3114.0,-0.4338018249736004
3113.0,-0.4339137750901574
3112.0,-0.4339297656084642
3111.0,-0.4338338136659807
3110.0,-0.4336578466929879
3109.0,-0.433513820664543
3108.0,-0.43349781482372096
3107.0,-0.43362584503636015
3106.0,-0.4338018249736004
3105.0,-0.4339137750901574
3104.0,-0.43389778398306555
3103.0,-0.4338018249736004
3102.0,-0.43372184293283933
3101.0,-0.4336898459916987
3100.0,-0.4336418461594356
3099.0,-0.4335938410214668
3098.0,-0.4336098433237181
3097.0,-0.4338178196143132
3096.0,-0.43416955275833224
3095.0,-0.4345689040341987
3094.0,-0.43488812086731565
3093.0,-0.4350954860582883
3092.0,-0.4351592708179992
3091.0,-0.43517521554427585
3090.0,-0.43517521554427585
3089.0,-0.43517521554427585
3088.0,-0.43517521554427585
3087.0,-0.4351433255063055
3086.0,-0.435063590165067
3085.0,-0.4349200296496605
3084.0,-0.43474450232741235
3083.0,-0.4345848704495938
3082.0,-0.43445712268769787
3081.0,-0.4343453125628294
3080.0,-0.4342334736447713
3079.0,-0.43418553386197134
3078.0,-0.43429738512450866
3077.0,-0.4346008362780207
3076.0,-0.43498384018193814
3075.0,-0.4353186917440621
3074.0,-0.4355577134613191
3073.0,-0.43566921192604635
3072.0,-0.43566921192604635
3071.0,-0.4355736435661135
3070.0,-0.4354143162175279
3069.0,-0.43519115968517763
3068.0,-0.43495193608775296
3067.0,-0.43480833865309254
3066.0,-0.43476046228852994
3065.0,-0.43479238045132673
3064.0,-0.43488812086731565
3063.0,-0.4350316919291437
3062.0,-0.43530275228461024
3061.0,-0.43558957308660595
3060.0,-0.4357647592603793
3059.0,-0.43573291248454193
3058.0,-0.43552585149865486
3057.0,-0.43533463061852595
3056.0,-0.4352708716105713
3055.0,-0.4353665066126613
3054.0,-0.4355417827721806
3053.0,-0.43573291248454193
3052.0,-0.43592395811916473
3051.0,-0.4360990094874291
3050.0,-0.4363535037706585
3049.0,-0.43667141205064963
3048.0,-0.4369890877885383
3047.0,-0.43725892958345725
3046.0,-0.437512745264804
3045.0,-0.43784565339083015
3044.0,-0.4382574721068879
3043.0,-0.43868471708173207
3042.0,-0.4390009240795032
3041.0,-0.43920633523702257
3040.0,-0.4393642777350002
3039.0,-0.4394905903896835
3038.0,-0.4395221628139572
3037.0,-0.4393642777350002
3036.0,-0.4390483352782444
3035.0,-0.43868471708173207
3034.0,-0.4383524517643256
3033.0,-0.4381941407933372
3032.0,-0.4382416401442919
3031.0,-0.4384790590043166
3030.0,-0.4387954157213234
3029.0,-0.4390009240795032
3028.0,-0.4391273424428461
3027.0,-0.43923792833214437
3026.0,-0.4393958593429774
3025.0,-0.4395221628139572
3024.0,-0.43955373294313915
3023.0,-0.4395221628139572
3022.0,-0.4394274386545276
3021.0,-0.4392853136659993
3020.0,-0.4391273424428461
3019.0,-0.43898511919634187
3018.0,-0.4388902778168413
3017.0,-0.43874797690222955
3016.0,-0.43849488231446365
3015.0,-0.4381149636619983
3014.0,-0.43773471236757144
3013.0,-0.43740171915630466
3012.0,-0.4371319660943298
3011.0,-0.43697320951926777
3010.0,-0.43697320951926777
3009.0,-0.4371319660943298
3008.0,-0.4373699921970249
3007.0,-0.4376237429970593
3006.0,-0.43781395884734575
3005.0,-0.43792487963143234
3004.0,-0.43792487963143234
3003.0,-0.4378298064082191
3002.0,-0.43773471236757144
3001.0,-0.4376713047707286
3000.0,-0.43759203225396126
2999.0,-0.4374175817668182
2998.0,-0.43714783856045747
2997.0,-0.43689380946385103
2996.0,-0.4367826249931577
2995.0,-0.436750852772652
2994.0,-0.4367349657907065
2993.0,-0.43660784900891114
2992.0,-0.4364012048506014
2991.0,-0.4362421808715622
2990.0,-0.4361467385266091
2989.0,-0.4360830986419799
2988.0,-0.4359717063993407
2987.0,-0.4357966037010672
2986.0,-0.43558957308660595
2985.0,-0.4353186917440621
2984.0,-0.4349997913501733
2983.0,-0.4346168015195224
2982.0,-0.43416955275833224
2981.0,-0.433737840519429
2980.0,-0.4333697468565858
2979.0,-0.4331615558293218
2978.0,-0.43301736509343547
2977.0,-0.43279297319493004
2976.0,-0.43235988970679085
2975.0,-0.4317657026253481
2974.0,-0.4312189751988522
2973.0,-0.43083263514721803
2972.0,-0.4305748840468646
2971.0,-0.4303169798819737
2970.0,-0.42997824807331186
2969.0,-0.4295261942966868
2968.0,-0.4290574991662477
2967.0,-0.4287015996230541
2966.0,-0.42845877351558004
2965.0,-0.4282644148272152
2964.0,-0.4280051345318103
2963.0,-0.4277294795038933
2962.0,-0.4275347940890435
2961.0,-0.4274536494013197
2960.0,-0.42746987955181215
2959.0,-0.4275510212073934
2958.0,-0.4276970379948093
2957.0,-0.42789165070887814
2956.0,-0.42810238278343604
2955.0,-0.4283292107216887
2954.0,-0.4286044854719555
2953.0,-0.4289928118480266
2952.0,-0.4295261942966868
2951.0,-0.4301234512002896
2950.0,-0.43070377871875243
2949.0,-0.4312028845565168
2948.0,-0.4316210476273552
2947.0,-0.43207092726408014
2946.0,-0.43260054496068356
2945.0,-0.4331775740674759
2944.0,-0.4337698339248659
2943.0,-0.4344411515750033
2942.0,-0.4352549303958977
2941.0,-0.43613082942970083
2940.0,-0.4368779277106576
2939.0,-0.4374334437979712
2938.0,-0.43784565339083015
2937.0,-0.4381783065218232
2936.0,-0.4384790590043166
2935.0,-0.43874797690222955
2934.0,-0.4390009240795032
2933.0,-0.4392695191291689
2932.0,-0.4395221628139572
2931.0,-0.43974310553999274
2930.0,-0.43997970522363916
2929.0,-0.440342241242651
2928.0,-0.4408618735775467
2927.0,-0.4414908985372823
2926.0,-0.44213470499191043
2925.0,-0.44268354176646163
2924.0,-0.44312211234844634
2923.0,-0.4434351061149422
2922.0,-0.4436853388169726
2921.0,-0.44390417422135275
2920.0,-0.4441228994129194
2919.0,-0.4444039557495514
2918.0,-0.44470042913414165
2917.0,-0.4449031627954616
2916.0,-0.44493434419136113
2915.0,-0.4448407932865903
2914.0,-0.4446848303164792
2913.0,-0.4445288113171353
2912.0,-0.4443259027880533
2911.0,-0.44409165970049713
2910.0,-0.4438572902023177
2909.0,-0.44365406761290505
2908.0,-0.44352896027506183
2907.0,-0.4434507498835405
2906.0,-0.44335687881824404
2905.0,-0.4432316858274947
2904.0,-0.44305948651728366
2903.0,-0.4429028824185499
2902.0,-0.4428402249638834
2901.0,-0.44287155482119767
2900.0,-0.44294986957786175
2899.0,-0.4429028824185499
2898.0,-0.4426521983425231
2897.0,-0.44227590070658795
2896.0,-0.4419149759298473
2895.0,-0.4417579585081639
2894.0,-0.4417893665343504
2893.0,-0.44189927674203844
2892.0,-0.44193067455017143
2891.0,-0.44188357698670355
2890.0,-0.4417893665343504
2889.0,-0.4416480125256479
2888.0,-0.441459468917794
2887.0,-0.4413022866931673
2886.0,-0.44127084342049905
2885.0,-0.4413808849165113
2884.0,-0.44155375095345706
2883.0,-0.4416794285038086
2882.0,-0.4417736628051845
2881.0,-0.4418678766638018
2880.0,-0.44199346335743783
2879.0,-0.44219746431021356
2878.0,-0.44243273101376035
2877.0,-0.4425895047075801
2876.0,-0.4425895047075801
2875.0,-0.44247976906444864
2874.0,-0.4423856878678709
2873.0,-0.4424170505313185
2872.0,-0.4426051789648011
2871.0,-0.4428245591876383
2870.0,-0.44296553083467094
2869.0,-0.4429968516540921
2868.0,-0.44294986957786175
2867.0,-0.44296553083467094
2866.0,-0.443106456737266
2865.0,-0.4433099356757997
2864.0,-0.44346639308865354
2863.0,-0.4434976778085855
2862.0,-0.44348203573032174
2861.0,-0.4434976778085855
2860.0,-0.44365406761290505
2859.0,-0.44391980110302365
2858.0,-0.4442166050696197
2857.0,-0.44443517300674573
2856.0,-0.4445756229024034
2855.0,-0.4447472222257778
2854.0,-0.4450122878879581
2853.0,-0.4453706488275797
2852.0,-0.4457442756766512
2851.0,-0.44611758136797475
2850.0,-0.44644396083186466
2849.0,-0.446661410954309
2848.0,-0.4467235195682018
2847.0,-0.4466458824128967
2846.0,-0.446537167073644
2845.0,-0.44649056645318996
2844.0,-0.446537167073644
2843.0,-0.44656823137621426
2842.0,-0.44655269950267584
2841.0,-0.44644396083186466
2840.0,-0.44628857262959043
2839.0,-0.44613312881036293
2838.0,-0.44600873368401217
2837.0,-0.4458998587126004
2836.0,-0.44582207416169606
2835.0,-0.4458531896538749
2834.0,-0.4459931817876468
2833.0,-0.4461642220254758
2832.0,-0.446226401778163
2831.0,-0.44617976779827995
2830.0,-0.44607093570100487
2829.0,-0.4459931817876468
2828.0,-0.44596207632409657
2827.0,-0.4459776293343549
2826.0,-0.44608648481333546
2825.0,-0.44628857262959043
2824.0,-0.446537167073644
2823.0,-0.4467545705446496
2822.0,-0.44683218827436155
2821.0,-0.44673904533393394
2820.0,-0.44647503180178694
2819.0,-0.44614867569618344
2818.0,-0.4458998587126004
2817.0,-0.4458531896538749
2816.0,-0.44596207632409657
2815.0,-0.44613312881036293
2814.0,-0.44627303075108715
2813.0,-0.4463662736803591
2812.0,-0.4463973502085943
2811.0,-0.4463973502085943
2810.0,-0.4463818122224419
2809.0,-0.44628857262959043
2808.0,-0.44613312881036293
2807.0,-0.4459931817876468
2806.0,-0.44591541395112344
2805.0,-0.44591541395112344
2804.0,-0.4459776293343549
2803.0,-0.44608648481333546
2802.0,-0.4462419453254136
2801.0,-0.4463818122224419
2800.0,-0.4464284245132659
2799.0,-0.4463818122224419
2798.0,-0.44628857262959043
2797.0,-0.446226401778163
2796.0,-0.446226401778163
2795.0,-0.44630411395192393
2794.0,-0.4464284245132659
2793.0,-0.44655269950267584
2792.0,-0.44663035331622947
2791.0,-0.44663035331622947
2790.0,-0.44661482366426686
2789.0,-0.4465837626942992
2788.0,-0.446537167073644
2787.0,-0.44645949659469153
2786.0,-0.4463973502085943
2785.0,-0.4463662736803591
2784.0,-0.4464284245132659
2783.0,-0.44655269950267584
2782.0,-0.4467079932474123
2781.0,-0.4468632314825167
2780.0,-0.44697186524010313
2779.0,-0.44700289846616226
2778.0,-0.44694082979635485
2777.0,-0.44681666583813584
2776.0,-0.4467079932474123
2775.0,-0.44669246637152726
2774.0,-0.4467856193011883
2773.0,-0.4469253112427487
2772.0,-0.44700289846616226
2771.0,-0.44697186524010313
2770.0,-0.4468632314825167
2769.0,-0.4467545705446496
2768.0,-0.4467079932474123
2767.0,-0.44669246637152726
2766.0,-0.44669246637152726
2765.0,-0.44667693894050586
2764.0,-0.44663035331622947
2763.0,-0.44655269950267584
2762.0,-0.44645949659469153
2761.0,-0.4463973502085943
2760.0,-0.4463973502085943
2759.0,-0.44644396083186466
2758.0,-0.446537167073644
2757.0,-0.4465837626942992
2756.0,-0.44659929345697025
2755.0,-0.44663035331622947
2754.0,-0.44673904533393394
2753.0,-0.4468942724718734
2752.0,-0.44698738213032385
2751.0,-0.44694082979635485
2750.0,-0.44681666583813584
2749.0,-0.44669246637152726
2748.0,-0.44669246637152726
2747.0,-0.44680114284709127
2746.0,-0.44698738213032385
2745.0,-0.4470804718310024
2744.0,-0.44701841424765787
2743.0,-0.4468632314825167
2742.0,-0.4467079932474123
2741.0,-0.4466458824128967
2740.0,-0.44663035331622947
2739.0,-0.44661482366426686
2738.0,-0.4466458824128967
2737.0,-0.4467545705446496
2736.0,-0.4468787522545248
2735.0,-0.4468942724718734
2734.0,-0.44680114284709127
2733.0,-0.44663035331622947
2732.0,-0.44647503180178694
2731.0,-0.4463351949282419
2730.0,-0.4462419453254136
2729.0,-0.446226401778163
2728.0,-0.446226401778163
2727.0,-0.44627303075108715
2726.0,-0.4463351949282419
2725.0,-0.44645949659469153
2724.0,-0.44663035331622947
2723.0,-0.44680114284709127
2722.0,-0.4468787522545248
2721.0,-0.44681666583813584
2720.0,-0.44669246637152726
2719.0,-0.4465837626942992
2718.0,-0.44655269950267584
2717.0,-0.44659929345697025
2716.0,-0.44669246637152726
2715.0,-0.44680114284709127
2714.0,-0.4468787522545248
2713.0,-0.4468632314825167
2712.0,-0.44677009520038746
2711.0,-0.4466458824128967
2710.0,-0.44656823137621426
2709.0,-0.446537167073644
2708.0,-0.44656823137621426
2707.0,-0.4466458824128967
2706.0,-0.44677009520038746
2705.0,-0.4468787522545248
2704.0,-0.4469253112427487
2703.0,-0.44690979213460125
2702.0,-0.4469253112427487
2701.0,-0.4469253112427487
2700.0,-0.4468632314825167
2699.0,-0.44673904533393394
2698.0,-0.44661482366426686
2697.0,-0.446537167073644
2696.0,-0.4465061005489406
2695.0,-0.44649056645318996
2694.0,-0.4465061005489406
2693.0,-0.44656823137621426
2692.0,-0.44663035331622947
2691.0,-0.446661410954309
2690.0,-0.4466458824128967
2689.0,-0.44656823137621426
2688.0,-0.44647503180178694
2687.0,-0.4463973502085943
2686.0,-0.4464284245132659
2685.0,-0.44649056645318996
2684.0,-0.44656823137621426
2683.0,-0.44659929345697025
2682.0,-0.44661482366426686
2681.0,-0.4465837626942992
2680.0,-0.44647503180178694
2679.0,-0.4463351949282419
2678.0,-0.4462419453254136
2677.0,-0.446226401778163
2676.0,-0.44628857262959043
2675.0,-0.4463973502085943
2674.0,-0.44652163408907874
2673.0,-0.44661482366426686
2672.0,-0.44663035331622947
2671.0,-0.44655269950267584
2670.0,-0.44644396083186466
2669.0,-0.4463818122224419
2668.0,-0.44635073458230545
2667.0,-0.4463351949282419
2666.0,-0.4463196547181276
2665.0,-0.446257488316375
2664.0,-0.44611758136797475
2663.0,-0.4459776293343549
2662.0,-0.44596207632409657
2661.0,-0.44605538603194717
2660.0,-0.44619531301463633
2659.0,-0.446257488316375
2658.0,-0.446257488316375
2657.0,-0.4462419453254136
2656.0,-0.446257488316375
2655.0,-0.44628857262959043
2654.0,-0.4463351949282419
2653.0,-0.4463196547181276
2652.0,-0.446226401778163
2651.0,-0.44608648481333546
2650.0,-0.4459776293343549
2649.0,-0.44591541395112344
2648.0,-0.4458531896538749
2647.0,-0.4457909564400544
2646.0,-0.44575983648863104
2645.0,-0.44575983648863104
2644.0,-0.4457131523799558
2643.0,-0.44565089909450206
2642.0,-0.44561976910510426
2641.0,-0.4456664632524734
2640.0,-0.4457909564400544
2639.0,-0.4459465227568318
2638.0,-0.44607093570100487
2637.0,-0.44611758136797475
2636.0,-0.44602428502349056
2635.0,-0.44580651557957784
2634.0,-0.44557306993676926
2633.0,-0.4453862230321648
2632.0,-0.445261613754528
2631.0,-0.44519929570564765
2630.0,-0.44518371479611174
2629.0,-0.4452460350806171
2628.0,-0.4453706488275797
2627.0,-0.4454952268289083
2626.0,-0.44557306993676926
2625.0,-0.4455419343679199
2624.0,-0.4454329422951666
2623.0,-0.4452927694259716
2622.0,-0.44519929570564765
2621.0,-0.44519929570564765
2620.0,-0.4452148760562169
2619.0,-0.4452148760562169
2618.0,-0.4452148760562169
2617.0,-0.44519929570564765
2616.0,-0.44518371479611174
2615.0,-0.4451525512999801
2614.0,-0.4451525512999801
2613.0,-0.44518371479611174
2612.0,-0.445261613754528
2611.0,-0.44533949874279344
2610.0,-0.4453706488275797
2609.0,-0.4453239228625119
2608.0,-0.4452148760562169
2607.0,-0.44507463277493065
2606.0,-0.4449187537732562
2605.0,-0.4447784148194782
2604.0,-0.4446692309385245
2603.0,-0.44460682782297756
2602.0,-0.44460682782297756
2601.0,-0.44465363100023714
2600.0,-0.4446848303164792
2599.0,-0.4446692309385245
2598.0,-0.44459122564295717
2597.0,-0.4444663880201931
2596.0,-0.44434151450262993
2595.0,-0.4442634503171514
2594.0,-0.4442478357960753
2593.0,-0.4442478357960753
2592.0,-0.4442478357960753
2591.0,-0.4442166050696197
2590.0,-0.4442009888641594
2589.0,-0.4442166050696197
2588.0,-0.44423222071357804
2587.0,-0.44423222071357804
2586.0,-0.44423222071357804
2585.0,-0.44418537209715714
2584.0,-0.44410727983760045
2583.0,-0.44398230300741304
2582.0,-0.4438104011213979
2581.0,-0.44360715658451566
2580.0,-0.4434351061149422
2579.0,-0.44332558395374466
2578.0,-0.44332558395374466
2577.0,-0.4433725254048797
2576.0,-0.4434194617828173
2575.0,-0.4434038168871255
2574.0,-0.4433725254048797
2573.0,-0.4433412316678793
2572.0,-0.4433412316678793
2571.0,-0.44335687881824404
2570.0,-0.44335687881824404
2569.0,-0.4433099356757997
2568.0,-0.44324733692510154
2567.0,-0.4431847291501847
2566.0,-0.4432003819400765
2565.0,-0.44321603416583333
2564.0,-0.443153421877831
2563.0,-0.44304382864834047
2562.0,-0.4429342077562657
2561.0,-0.4429028824185499
2560.0,-0.4429028824185499
2559.0,-0.44287155482119767
2558.0,-0.4428402249638834
2557.0,-0.4427775584680633
2556.0,-0.4427305526613714
2555.0,-0.44266787033725263
2554.0,-0.4426365257822318
2553.0,-0.4426365257822318
2552.0,-0.44266787033725263
2551.0,-0.44276189043112213
2550.0,-0.4429028824185499
2549.0,-0.44301251121678487
2548.0,-0.44301251121678487
2547.0,-0.4429185453698419
2546.0,-0.44280889284628033
2545.0,-0.4427305526613714
2544.0,-0.44266787033725263
2543.0,-0.4426521983425231
2542.0,-0.44268354176646163
2541.0,-0.44271488292848016
2540.0,-0.44271488292848016
2539.0,-0.44266787033725263
2538.0,-0.4426208526563382
2537.0,-0.4426051789648011
2536.0,-0.4425895047075801
2535.0,-0.4425268020210389
2534.0,-0.44247976906444864
2533.0,-0.44247976906444864
2532.0,-0.44251112493478484
2531.0,-0.4425895047075801
2530.0,-0.4426521983425231
2529.0,-0.44271488292848016
2528.0,-0.4427305526613714
2527.0,-0.4427462218289051
2526.0,-0.44276189043112213
2525.0,-0.4427775584680633
2524.0,-0.44276189043112213
2523.0,-0.4427305526613714
2522.0,-0.44271488292848016
2521.0,-0.44268354176646163
2520.0,-0.4426365257822318
2519.0,-0.4426208526563382
2518.0,-0.44268354176646163
2517.0,-0.4427775584680633
2516.0,-0.4428245591876383
2515.0,-0.44276189043112213
2514.0,-0.44266787033725263
2513.0,-0.4426051789648011
2512.0,-0.4425895047075801
2511.0,-0.44257382988463423
2510.0,-0.4425895047075801
2509.0,-0.4425895047075801
2508.0,-0.44255815449592273
2507.0,-0.44251112493478484
2506.0,-0.44251112493478484
2505.0,-0.44257382988463423
2504.0,-0.44268354176646163
2503.0,-0.4427775584680633
2502.0,-0.4428402249638834
2501.0,-0.44287155482119767
2500.0,-0.4428402249638834
2499.0,-0.4427305526613714
2498.0,-0.4426208526563382
2497.0,-0.44254247854140427
2496.0,-0.44255815449592273
2495.0,-0.4426365257822318
2494.0,-0.4427775584680633
2493.0,-0.4429342077562657
2492.0,-0.4430281702148542
2491.0,-0.4430281702148542
2490.0,-0.44296553083467094
2489.0,-0.44287155482119767
2488.0,-0.4428245591876383
2487.0,-0.4428402249638834
2486.0,-0.44294986957786175
2485.0,-0.4430751438217255
2484.0,-0.4431847291501847
2483.0,-0.4432629874586951
2482.0,-0.4433725254048797
2481.0,-0.4434976778085855
2480.0,-0.44360715658451566
2479.0,-0.4436697034963979
2478.0,-0.44365406761290505
2477.0,-0.4435758797502576
2476.0,-0.4434507498835405
2475.0,-0.4433412316678793
2474.0,-0.4433412316678793
2473.0,-0.44346639308865354
2472.0,-0.44365406761290505
2471.0,-0.4438416610711635
2470.0,-0.44399792707814
2469.0,-0.444076039001569
2468.0,-0.44409165970049713
2467.0,-0.44406041774077565
2466.0,-0.44410727983760045
2465.0,-0.4442634503171514
2464.0,-0.44438834627944823
2463.0,-0.44438834627944823
2462.0,-0.44423222071357804
2461.0,-0.44399792707814
2460.0,-0.4438104011213979
2459.0,-0.44376350697750055
2458.0,-0.44390417422135275
2457.0,-0.4442009888641594
2456.0,-0.4444976007902155
2455.0,-0.44470042913414165
2454.0,-0.44476281880267354
2453.0,-0.44471602739155225
2452.0,-0.4446224294425041
2451.0,-0.4445288113171353
2450.0,-0.4444819946856122
2449.0,-0.4445132063340429
2448.0,-0.4445756229024034
2447.0,-0.4446848303164792
2446.0,-0.4447784148194782
2445.0,-0.44482519950974764
2444.0,-0.4447940102762318
2443.0,-0.4447472222257778
2442.0,-0.4448096051729751
2441.0,-0.44499670026769556
2440.0,-0.4451525512999801
2439.0,-0.4451681333275692
2438.0,-0.44499670026769556
2437.0,-0.44476281880267354
2436.0,-0.4445756229024034
2435.0,-0.44454441573953263
2434.0,-0.4446224294425041
2433.0,-0.44470042913414165
2432.0,-0.4446692309385245
2431.0,-0.44454441573953263
2430.0,-0.44438834627944823
2429.0,-0.4442946776752019
2428.0,-0.4442478357960753
2427.0,-0.44423222071357804
2426.0,-0.4442478357960753
2425.0,-0.4443571256560275
2424.0,-0.4444819946856122
2423.0,-0.44463803050157713
2422.0,-0.4447940102762318
2421.0,-0.4449187537732562
2420.0,-0.44498111208794455
2419.0,-0.44494993404981775
2418.0,-0.444871979160645
2417.0,-0.4447784148194782
2416.0,-0.4446224294425041
2415.0,-0.4444195646586371
2414.0,-0.4442009888641594
2413.0,-0.44402917353343074
2412.0,-0.44398230300741304
2411.0,-0.4440135505867988
2410.0,-0.4441385184264939
2409.0,-0.44431029051225757
2408.0,-0.44443517300674573
2407.0,-0.4444976007902155
2406.0,-0.4445132063340429
2405.0,-0.4444976007902155
2404.0,-0.4444976007902155
2403.0,-0.4444819946856122
2402.0,-0.44445078079391775
2401.0,-0.4444039557495514
2400.0,-0.44434151450262993
2399.0,-0.4443259027880533
2398.0,-0.4443571256560275
2397.0,-0.4444039557495514
2396.0,-0.44437273624828677
2395.0,-0.4442790642768468
2394.0,-0.44416975476857257
2393.0,-0.444076039001569
2392.0,-0.4440447959180762
2391.0,-0.44398230300741304
2390.0,-0.44382603137753707
2389.0,-0.44352896027506183
2388.0,-0.44301251121678487
2387.0,-0.44229158628607124
2386.0,-0.441459468917794
2385.0,-0.4405312703998914
2384.0,-0.4395063768887275
2383.0,-0.43843158561449336
2382.0,-0.43740171915630466
2381.0,-0.4364806950094948
2380.0,-0.4355577134613191
2379.0,-0.43447309321307914
2378.0,-0.4332256252374047
2377.0,-0.43200668726959846
2376.0,-0.4310419453358856
2375.0,-0.4304137118925979
2374.0,-0.430155711970019
2373.0,-0.4304298317998767
2372.0,-0.43125115469515496
2371.0,-0.43253638326425614
2370.0,-0.43396174487889594
2369.0,-0.43496788842781253
2368.0,-0.4351273796091508
2367.0,-0.43420151437756216
2366.0,-0.4322635902536667
2365.0,-0.43001051963059256
2364.0,-0.42853973063798856
2363.0,-0.42836160504400267
2362.0,-0.4289766385128826
2361.0,-0.4303008557852963
2360.0,-0.4321351577577124
2359.0,-0.43330569870812274
2358.0,-0.4344411515750033
2357.0,-0.4363376022463208
2356.0,-0.4387321628109433
2355.0,-0.44174225364324826
2354.0,-0.44485638650354264
2353.0,-0.4487835896289565
2352.0,-0.4513872536625003
2351.0,-0.4485981191900783
2350.0,-0.44049977125341133
2349.0,-0.433033388650613
2348.0,-0.4348562097403752
2347.0,-0.44454441573953263
2346.0,-0.4534712337229361
2345.0,-0.4540212057026003
2344.0,-0.444076039001569
2343.0,-0.43137984884193603
2342.0,-0.42548531070803186
2341.0,-0.42975228000240806
2340.0,-0.43657606399906035
2339.0,-0.439474803316783
2338.0,-0.4407989209437124
2337.0,-0.44219746431021356
2336.0,-0.4437166077695318
2335.0,-0.4436384311664545
2334.0,-0.4426521983425231
2333.0,-0.4420876295507603
2332.0,-0.44268354176646163
2331.0,-0.4436853388169726
2330.0,-0.4443571256560275
2329.0,-0.44398230300741304
2328.0,-0.44416975476857257
2327.0,-0.44502787494877305
2326.0,-0.4468632314825167
2325.0,-0.449756012062128
2324.0,-0.45189384490436035
2323.0,-0.45373102950429356
2322.0,-0.45368519448127165
2321.0,-0.45345594677730316
2320.0,-0.4531806897020938
2319.0,-0.4533030477185829
2318.0,-0.453883777987123
2317.0,-0.4542043750355149
2316.0,-0.45482962133828986
2315.0,-0.45510383562669876
2314.0,-0.4551952019275767
2313.0,-0.45426541431627676
2312.0,-0.45253774392939805
2311.0,-0.4505262291297232
2310.0,-0.44896898089436776
2309.0,-0.4482114678567779
2308.0,-0.44773154163597484
2307.0,-0.44728209775697625
2306.0,-0.44628857262959043
2305.0,-0.44519929570564765
2304.0,-0.44406041774077565
2303.0,-0.44360715658451566
2302.0,-0.4436384311664545
2301.0,-0.44406041774077565
2300.0,-0.44431029051225757
2299.0,-0.44431029051225757
2298.0,-0.44416975476857257
2297.0,-0.4441385184264939
2296.0,-0.4441541368783648
2295.0,-0.44418537209715714
2294.0,-0.4442009888641594
2293.0,-0.4443259027880533
2292.0,-0.44438834627944823
2291.0,-0.4445600196012749
2290.0,-0.4446692309385245
2289.0,-0.4448875712579383
2288.0,-0.44498111208794455
2287.0,-0.44507463277493065
2286.0,-0.44507463277493065
2285.0,-0.44507463277493065
2284.0,-0.44502787494877305
2283.0,-0.4450434614501799
2282.0,-0.44523045584786036
2281.0,-0.44555750243136716
2280.0,-0.4457753967430853
2279.0,-0.4456975898951603
2278.0,-0.4454329422951666
2277.0,-0.44518371479611174
2276.0,-0.44502787494877305
2275.0,-0.44494993404981775
2274.0,-0.44496552334866557
2273.0,-0.4450434614501799
2272.0,-0.4451681333275692
2271.0,-0.445277191869633
2270.0,-0.4453706488275797
2269.0,-0.4454329422951666
2268.0,-0.4454329422951666
2267.0,-0.44541736976591784
2266.0,-0.44546408567860807
2265.0,-0.44555750243136716
2264.0,-0.44565089909450206
2263.0,-0.44565089909450206
2262.0,-0.44561976910510426
2261.0,-0.44557306993676926
2260.0,-0.44555750243136716
2259.0,-0.44561976910510426
2258.0,-0.44572871430710626
2257.0,-0.4458531896538749
2256.0,-0.4459309686325206
2255.0,-0.44596207632409657
2254.0,-0.4460398358061224
2253.0,-0.44617976779827995
2252.0,-0.4463351949282419
2251.0,-0.44645949659469153
2250.0,-0.44655269950267584
2249.0,-0.44661482366426686
2248.0,-0.44661482366426686
2247.0,-0.4465837626942992
2246.0,-0.44655269950267584
2245.0,-0.4465837626942992
2244.0,-0.4466458824128967
2243.0,-0.44669246637152726
2242.0,-0.44673904533393394
2241.0,-0.4467856193011883
2240.0,-0.4467856193011883
2239.0,-0.44673904533393394
2238.0,-0.4467079932474123
2237.0,-0.4467235195682018
2236.0,-0.4467856193011883
2235.0,-0.4468632314825167
2234.0,-0.44694082979635485
2233.0,-0.44701841424765787
2232.0,-0.4470804718310024
2231.0,-0.4471114972976471
2230.0,-0.4471114972976471
2229.0,-0.4470804718310024
2228.0,-0.4470339294748502
2227.0,-0.4470339294748502
2226.0,-0.44706495826648274
2225.0,-0.4470804718310024
2224.0,-0.44700289846616226
2223.0,-0.4468477101558088
2222.0,-0.4467545705446496
2221.0,-0.4467856193011883
2220.0,-0.44690979213460125
2219.0,-0.4470804718310024
2218.0,-0.4472200689799082
2217.0,-0.44731310882356823
2216.0,-0.44728209775697625
2215.0,-0.4472045604012682
2214.0,-0.44714252054802817
2213.0,-0.4471270091998507
2212.0,-0.4471114972976471
2211.0,-0.4470804718310024
2210.0,-0.4470339294748502
2209.0,-0.44701841424765787
2208.0,-0.44698738213032385
2207.0,-0.4469563477954597
2206.0,-0.44698738213032385
2205.0,-0.4470804718310024
2204.0,-0.44715803134221943
2203.0,-0.4471890512687997
2202.0,-0.4472355770047596
2201.0,-0.4472976035670677
2200.0,-0.4473751243144495
2199.0,-0.44742163012184033
2198.0,-0.4474371309510343
2197.0,-0.44740612873937113
2196.0,-0.44731310882356823
2195.0,-0.4472045604012682
2194.0,-0.4471270091998507
2193.0,-0.44714252054802817
2192.0,-0.4472045604012682
2191.0,-0.4472976035670677
2190.0,-0.44740612873937113
2189.0,-0.4474681309497557
2188.0,-0.4474836301193621
2187.0,-0.4474526312269931
2186.0,-0.4474371309510343
2185.0,-0.44742163012184033
2184.0,-0.4473751243144495
2183.0,-0.4473286135265173
2182.0,-0.44734411767595406
2181.0,-0.44742163012184033
2180.0,-0.4475146267992627
2179.0,-0.44759210882153777
2178.0,-0.4476540844879868
2177.0,-0.4477160513115068
2176.0,-0.44776252062749267
2175.0,-0.447793497409382
2174.0,-0.44782447198195774
2173.0,-0.4478089849718141
2172.0,-0.44768506900495497
2171.0,-0.4475456212670106
2170.0,-0.4474681309497557
2169.0,-0.4475146267992627
2168.0,-0.44756111767142626
2167.0,-0.4475301243096359
2166.0,-0.4474526312269931
2165.0,-0.4473751243144495
2164.0,-0.4472976035670677
2163.0,-0.4472355770047596
2162.0,-0.4471890512687997
2161.0,-0.44714252054802817
2160.0,-0.4470804718310024
2159.0,-0.44701841424765787
2158.0,-0.44700289846616226
2157.0,-0.44700289846616226
2156.0,-0.44697186524010313
2155.0,-0.44694082979635485
2154.0,-0.44698738213032385
2153.0,-0.44706495826648274
2152.0,-0.4470804718310024
2151.0,-0.44698738213032385
2150.0,-0.4469253112427487
2149.0,-0.44694082979635485
2148.0,-0.44698738213032385
2147.0,-0.44700289846616226
2146.0,-0.44698738213032385
2145.0,-0.44697186524010313
2144.0,-0.4468942724718734
2143.0,-0.44680114284709127
2142.0,-0.4467545705446496
2141.0,-0.44673904533393394
2140.0,-0.4467079932474123
2139.0,-0.44663035331622947
2138.0,-0.44655269950267584
2137.0,-0.44655269950267584
2136.0,-0.44659929345697025
2135.0,-0.4466458824128967
2134.0,-0.4466458824128967
2133.0,-0.44663035331622947
2132.0,-0.44656823137621426
2131.0,-0.44652163408907874
2130.0,-0.4465061005489406
2129.0,-0.446537167073644
2128.0,-0.44652163408907874
2127.0,-0.44647503180178694
2126.0,-0.44645949659469153
2125.0,-0.44649056645318996
2124.0,-0.44649056645318996
2123.0,-0.44647503180178694
2122.0,-0.44645949659469153
2121.0,-0.44644396083186466
2120.0,-0.4463818122224419
2119.0,-0.44627303075108715
2118.0,-0.44619531301463633
2117.0,-0.446210857674584
2116.0,-0.446257488316375
2115.0,-0.44630411395192393
2114.0,-0.44635073458230545
2113.0,-0.44635073458230545
2112.0,-0.44630411395192393
2111.0,-0.446210857674584
2110.0,-0.44617976779827995
2109.0,-0.446226401778163
2108.0,-0.446257488316375
2107.0,-0.446226401778163
2106.0,-0.44617976779827995
2105.0,-0.44614867569618344
2104.0,-0.44613312881036293
2103.0,-0.44614867569618344
2102.0,-0.446226401778163
2101.0,-0.4463196547181276
2100.0,-0.4463196547181276
2099.0,-0.446257488316375
2098.0,-0.44619531301463633
2097.0,-0.446226401778163
2096.0,-0.4463196547181276
2095.0,-0.4464128876388558
2094.0,-0.4465061005489406
2093.0,-0.446537167073644
2092.0,-0.44645949659469153
2091.0,-0.44635073458230545
2090.0,-0.4463196547181276
2089.0,-0.4463973502085943
2088.0,-0.44649056645318996
2087.0,-0.44655269950267584
2086.0,-0.44659929345697025
2085.0,-0.4466458824128967
2084.0,-0.44659929345697025
2083.0,-0.44649056645318996
2082.0,-0.4463973502085943
2081.0,-0.4463662736803591
2080.0,-0.4463973502085943
2079.0,-0.44644396083186466
2078.0,-0.44655269950267584
2077.0,-0.44663035331622947
2076.0,-0.44661482366426686
2075.0,-0.446537167073644
2074.0,-0.44659929345697025
2073.0,-0.4467545705446496
2072.0,-0.4468787522545248
2071.0,-0.4468632314825167
2070.0,-0.44681666583813584
2069.0,-0.4467856193011883
2068.0,-0.44669246637152726
2067.0,-0.44656823137621426
2066.0,-0.44649056645318996
2065.0,-0.44656823137621426
2064.0,-0.44667693894050586
2063.0,-0.4467235195682018
2062.0,-0.4467235195682018
2061.0,-0.4467545705446496
2060.0,-0.44673904533393394
2059.0,-0.44669246637152726
2058.0,-0.44667693894050586
2057.0,-0.4467545705446496
2056.0,-0.4468632314825167
2055.0,-0.44697186524010313
2054.0,-0.44709598484137736
2053.0,-0.4472355770047596
2052.0,-0.44731310882356823
2051.0,-0.4473286135265173
2050.0,-0.4473286135265173
2049.0,-0.44734411767595406
2048.0,-0.44731310882356823
2047.0,-0.4472045604012682
2046.0,-0.44704944414777836
2045.0,-0.44694082979635485
2044.0,-0.4468787522545248
2043.0,-0.4468632314825167
2042.0,-0.44698738213032385
2041.0,-0.4472355770047596
2040.0,-0.4474681309497557
2039.0,-0.447576613522922
2038.0,-0.44756111767142626
2037.0,-0.4475146267992627
2036.0,-0.4473906268035872
2035.0,-0.4472045604012682
2034.0,-0.44706495826648274
2033.0,-0.4470804718310024
2032.0,-0.4471890512687997
2031.0,-0.4472976035670677
2030.0,-0.4473906268035872
2029.0,-0.4474681309497557
2028.0,-0.4474836301193621
2027.0,-0.4473906268035872
2026.0,-0.44726659139325387
2025.0,-0.4472045604012682
2024.0,-0.44717354158246314
2023.0,-0.4471270091998507
2022.0,-0.44700289846616226
2021.0,-0.44681666583813584
2020.0,-0.4465837626942992
2019.0,-0.4463818122224419
2018.0,-0.4463818122224419
2017.0,-0.4466458824128967
2016.0,-0.4469563477954597
2015.0,-0.44706495826648274
2014.0,-0.4469563477954597
2013.0,-0.44681666583813584
2012.0,-0.44669246637152726
2011.0,-0.44659929345697025
2010.0,-0.44655269950267584
2009.0,-0.4465837626942992
2008.0,-0.44661482366426686
2007.0,-0.4465837626942992
2006.0,-0.446537167073644
2005.0,-0.4465061005489406
2004.0,-0.44644396083186466
2003.0,-0.44627303075108715
2002.0,-0.44608648481333546
2001.0,-0.44600873368401217
2000.0,-0.4459931817876468
1999.0,-0.44602428502349056
1998.0,-0.44605538603194717
1997.0,-0.4459776293343549
1996.0,-0.4456664632524734
1995.0,-0.4452148760562169
1994.0,-0.44485638650354264
1993.0,-0.4448096051729751
1992.0,-0.44502787494877305
1991.0,-0.44523045584786036
1990.0,-0.4453239228625119
1989.0,-0.44546408567860807
1988.0,-0.44565089909450206
1987.0,-0.4457442756766512
1986.0,-0.44565089909450206
1985.0,-0.44551079656673087
1984.0,-0.4454329422951666
1983.0,-0.4454017966782642
1982.0,-0.4453706488275797
1981.0,-0.44533949874279344
1980.0,-0.4453239228625119
1979.0,-0.4453239228625119
1978.0,-0.4452927694259716
1977.0,-0.4451681333275692
1976.0,-0.44502787494877305
1975.0,-0.4449187537732562
1974.0,-0.44482519950974764
1973.0,-0.44473162508875097
1972.0,-0.44459122564295717
1971.0,-0.4443571256560275
1970.0,-0.44398230300741304
1969.0,-0.44359151844894695
1968.0,-0.4434507498835405
1967.0,-0.44360715658451566
1966.0,-0.44382603137753707
1965.0,-0.44388854677737166
1964.0,-0.4438572902023177
1963.0,-0.4438416610711635
1962.0,-0.44376350697750055
1961.0,-0.44362279415700456
1960.0,-0.44348203573032174
1959.0,-0.4433412316678793
1958.0,-0.44312211234844634
1957.0,-0.44287155482119767
1956.0,-0.4427462218289051
1955.0,-0.4427932259397691
1954.0,-0.44287155482119767
1953.0,-0.4428245591876383
1952.0,-0.4427932259397691
1951.0,-0.4427775584680633
1950.0,-0.4426992126301905
1949.0,-0.4425268020210389
1948.0,-0.4422445278479521
1947.0,-0.4418678766638018
1946.0,-0.4415066124941145
1945.0,-0.4413022866931673
1944.0,-0.441428037023599
1943.0,-0.44193067455017143
1942.0,-0.4426051789648011
1941.0,-0.44304382864834047
1940.0,-0.4433099356757997
1939.0,-0.44359151844894695
1938.0,-0.44379477030270564
1937.0,-0.44382603137753707
1936.0,-0.44379477030270564
1935.0,-0.44388854677737166
1934.0,-0.44410727983760045
1933.0,-0.4443259027880533
1932.0,-0.44454441573953263
1931.0,-0.4446848303164792
1930.0,-0.444871979160645
1929.0,-0.4450434614501799
1928.0,-0.4450122878879581
1927.0,-0.44473162508875097
1926.0,-0.4442634503171514
1925.0,-0.44399792707814
1924.0,-0.44398230300741304
1923.0,-0.4442009888641594
1922.0,-0.44460682782297756
1921.0,-0.445136968713304
1920.0,-0.4458376321864481
1919.0,-0.44647503180178694
1918.0,-0.4468632314825167
1917.0,-0.4469253112427487
1916.0,-0.4467079932474123
1915.0,-0.44663035331622947
1914.0,-0.4466458824128967
1913.0,-0.4464128876388558
1912.0,-0.4459465227568318
1911.0,-0.44551079656673087
1910.0,-0.44557306993676926
1909.0,-0.44600873368401217
1908.0,-0.4464128876388558
1907.0,-0.4467079932474123
1906.0,-0.44697186524010313
1905.0,-0.44728209775697625
1904.0,-0.4474371309510343
1903.0,-0.44740612873937113
1902.0,-0.44759210882153777
1901.0,-0.4478709296990484
1900.0,-0.44790189874971986
1899.0,-0.44763859140049744
1898.0,-0.447359621271918
1897.0,-0.4473286135265173
1896.0,-0.44742163012184033
1895.0,-0.4474836301193621
1894.0,-0.44756111767142626
1893.0,-0.4476540844879868
1892.0,-0.44766957702279253
1891.0,-0.4476230977602862
1890.0,-0.4478709296990484
1889.0,-0.4483816368546605
1888.0,-0.44865995147093063
1887.0,-0.4487063199050798
1886.0,-0.44890719259877665
1885.0,-0.4492006087413687
1884.0,-0.4492777905791563
1883.0,-0.449138853393678
1882.0,-0.4491234131845605
1881.0,-0.4492469194900117
1880.0,-0.4492160462062915
1879.0,-0.44909253111941894
1878.0,-0.4491234131845605
1877.0,-0.44937039068225815
1876.0,-0.4496018045961385
1875.0,-0.449524680325029
1874.0,-0.4491851707276848
1873.0,-0.44879904192412834
1872.0,-0.4483971034577676
1871.0,-0.4478399584398516
1870.0,-0.44728209775697625
1869.0,-0.44734411767595406
1868.0,-0.44791738244695667
1867.0,-0.44836616970071885
1866.0,-0.44896898089436776
1865.0,-0.4497251749490463
1864.0,-0.4500488554821902
1863.0,-0.4498330952667291
1862.0,-0.4496326504700745
1861.0,-0.4496943356462175
1860.0,-0.449740593779286
1859.0,-0.4496018045961385
1858.0,-0.44958638083756775
1857.0,-0.44977142979761053
1856.0,-0.4498485102659995
1855.0,-0.4496634941533304
1854.0,-0.4496172278069608
1853.0,-0.4496943356462175
1852.0,-0.44950925382713525
1851.0,-0.4491851707276848
1850.0,-0.4487217749497212
1849.0,-0.4480721890650865
1848.0,-0.44760760356731266
1847.0,-0.4479328655921804
1846.0,-0.44915429305387855
1845.0,-0.4505262291297232
1844.0,-0.4511414207927631
1843.0,-0.45060317576125675
1842.0,-0.44994098877333766
1841.0,-0.449910164792211
1840.0,-0.44978684698577354
1839.0,-0.44910797242648703
1838.0,-0.4483971034577676
1837.0,-0.44836616970071885
1836.0,-0.4486444942260084
1835.0,-0.44855173920157787
1834.0,-0.4481495716859465
1833.0,-0.4477160513115068
1832.0,-0.4472976035670677
1831.0,-0.44683218827436155
1830.0,-0.4465061005489406
1829.0,-0.4464284245132659
1828.0,-0.44659929345697025
1827.0,-0.4472355770047596
1826.0,-0.4479638302267448
1825.0,-0.4484744282121609
1824.0,-0.44882994486518113
1823.0,-0.44893808784542166
1822.0,-0.44901531634778635
1821.0,-0.44909253111941894
1820.0,-0.4490307604004151
1819.0,-0.44884539551114067
1818.0,-0.4486908643104268
1817.0,-0.44895353464458765
1816.0,-0.4491851707276848
1815.0,-0.44882994486518113
1814.0,-0.4481340962647784
1813.0,-0.4477160513115068
1812.0,-0.4478709296990484
1811.0,-0.4480567108862119
1810.0,-0.4481805208740517
1809.0,-0.44881449366952353
1808.0,-0.44955553167702744
1807.0,-0.44978684698577354
1806.0,-0.44955553167702744
1805.0,-0.449416683330802
1804.0,-0.4492469194900117
1803.0,-0.4488608456074408
1802.0,-0.4486444942260084
1801.0,-0.44904620390385386
1800.0,-0.4497097555713694
1799.0,-0.4496172278069608
1798.0,-0.448984426594802
1797.0,-0.4486444942260084
1796.0,-0.4486754081657236
1795.0,-0.4488917441512199
1794.0,-0.44916973216520084
1793.0,-0.44981767972029374
1792.0,-0.45117215751254003
1791.0,-0.45203190365681234
1790.0,-0.45212391844904287
1789.0,-0.4522925616177291
1788.0,-0.4524304936995991
1787.0,-0.45226190409393396
1786.0,-0.4521392523525454
1785.0,-0.4523232169775149
1784.0,-0.45207791348984605
1783.0,-0.4512643546218773
1782.0,-0.4505570094183291
1781.0,-0.4502183061999889
1780.0,-0.45044926886266445
1779.0,-0.4506185634517257
1778.0,-0.45041848093681125
1777.0,-0.44992557705624003
1776.0,-0.44944754235535767
1775.0,-0.4495401062749802
1774.0,-0.449740593779286
1773.0,-0.44967891517355074
1772.0,-0.450125886731954
1771.0,-0.4506801087620964
1770.0,-0.45127971890404694
1769.0,-0.4527368526865576
1768.0,-0.45394486234066855
1767.0,-0.45353237612510666
1766.0,-0.4519398693651029
1765.0,-0.45075702813706986
1764.0,-0.45043387517256406
1763.0,-0.45020290432103005
1762.0,-0.44955553167702744
1761.0,-0.4484589643626373
1760.0,-0.44742163012184033
1759.0,-0.44673904533393394
1758.0,-0.44627303075108715
1757.0,-0.44541736976591784
1756.0,-0.44390417422135275
1755.0,-0.4419777670066436
1754.0,-0.44007430901763156
1753.0,-0.4378773456214353
1752.0,-0.4348402532975735
1751.0,-0.430752104359859
1750.0,-0.42568091682862397
1749.0,-0.4205498135321757
1748.0,-0.41572436176871586
1747.0,-0.41054104789391355
1746.0,-0.4041834982126624
1745.0,-0.39665259068560355
1744.0,-0.38854522009595716
1743.0,-0.3797586158427011
1742.0,-0.3702724678495284
1741.0,-0.3597975510344007
1740.0,-0.3468613100117359
1739.0,-0.33100190484420455
1738.0,-0.31613815630981845
1737.0,-0.30608174565797697
1736.0,-0.298022977554687
1735.0,-0.28458863040394045
1734.0,-0.26119147205036963
1733.0,-0.2337066542863817
1732.0,-0.21258707812389366
1731.0,-0.19728055812561918
1730.0,-0.18110007972804842
1729.0,-0.1619965254224458
1728.0,-0.14207646107328475
1727.0,-0.12303452975350648
1726.0,-0.1037353227383333
1725.0,-0.08278537031644984
1724.0,-0.06032002868828501
1723.0,-0.03674862917220212
1722.0,-0.014478535326206465
1721.0,0.0033570086445275926
1720.0,0.017638298366853045
1719.0,0.03409308450480819
1718.0,0.05769424710410598
1717.0,0.08170748724464438
1716.0,0.0937727369476411
1715.0,0.09420411963213149
1714.0,0.08868255767596933
1713.0,0.07768983678560404
1712.0,0.06048074738138154
1711.0,0.038151940981675736
1710.0,0.01215504982870197
1709.0,-0.016406500871117835
1708.0,-0.047002130518505325
1707.0,-0.0795791669701309
1706.0,-0.1142439136889073
1705.0,-0.14810885772969673
1704.0,-0.17638069224327024
1703.0,-0.20033056512477376
1702.0,-0.22235223924780323
1701.0,-0.24313730465333672
1700.0,-0.2612390711825858
1699.0,-0.27353368015129753
1698.0,-0.28436304631310927
1697.0,-0.2973446145346941
1696.0,-0.3090763018223317
1695.0,-0.3157814807086039
1694.0,-0.3194808280503372
1693.0,-0.32454994770255485
1692.0,-0.32986548575800745
1691.0,-0.3334875783789104
1690.0,-0.3362795743503302
1689.0,-0.339232748298961
1688.0,-0.3429947829274771
1687.0,-0.34783720921772154
1686.0,-0.3519315198931263
1685.0,-0.3539354555715204
1684.0,-0.3546269768529493
1683.0,-0.3543581827353215
1682.0,-0.3561597599568995
1681.0,-0.36036617305326946
1680.0,-0.3636495795183228
1679.0,-0.36627349685044486
1678.0,-0.3698278925253282
1677.0,-0.3740514500237202
1676.0,-0.3773426836408391
1675.0,-0.3789426986134372
1674.0,-0.3790878626431682
1673.0,-0.3793780452193385
1672.0,-0.38097059281634316
1671.0,-0.3829171350875309
1670.0,-0.38544539399584155
1669.0,-0.3879234669734366
1668.0,-0.3891838103081646
1667.0,-0.3904405066475256
1666.0,-0.39232755798354413
1665.0,-0.39425900747610676
1664.0,-0.3955011243056261
1663.0,-0.39640859522404526
1662.0,-0.39767935377860564
1661.0,-0.3986343245383921
1660.0,-0.39955258660593485
1659.0,-0.4005552572189064
1658.0,-0.40122816749811285
1657.0,-0.40212376240063996
1656.0,-0.40493629375269924
1655.0,-0.40818906844495517
1654.0,-0.410389146513233
1653.0,-0.4122084658816805
1652.0,-0.4073399079955098
1651.0,-0.4019516759848276
1650.0,-0.4026567973656636
1649.0,-0.4040636148838921
1648.0,-0.4043889355305441
1647.0,-0.40630167877077517
1646.0,-0.40934126859678166
1645.0,-0.4101020766428607
1644.0,-0.4098655235985871
1643.0,-0.41011896835955053
1642.0,-0.41059166988311935
1641.0,-0.41027096425218446
1640.0,-0.4092905006404548
1639.0,-0.40891802084677975
1638.0,-0.40961193084643543
1637.0,-0.410810963677557
1636.0,-0.4128132159638698
1635.0,-0.4145221155206511
1634.0,-0.4140369356649165
1633.0,-0.41393648591729537
1632.0,-0.41443850248215686
1631.0,-0.4145889943630401
1630.0,-0.4145221155206511
1629.0,-0.4142712280965801
1628.0,-0.41393648591729537
1627.0,-0.41398671369528506
1626.0,-0.4147227211588782
1625.0,-0.41549085217146864
1624.0,-0.4157743832091074
1623.0,-0.4159244129711648
1622.0,-0.41589107750278
1621.0,-0.41549085217146864
1620.0,-0.41579105574234143
1619.0,-0.4166737853339222
1618.0,-0.4169232890550858
1617.0,-0.4159910762326491
1616.0,-0.41386950650909604
1615.0,-0.4120739625375207
1614.0,-0.4124101428243878
1613.0,-0.41371876506107874
1612.0,-0.4142377654867162
1611.0,-0.41448867223695185
1610.0,-0.41549085217146864
1609.0,-0.416939917541042
1608.0,-0.41820182317824806
1607.0,-0.41955925319572085
1606.0,-0.4211101297934343
1605.0,-0.4220642981362803
1604.0,-0.4226390767975019
1603.0,-0.4236062707211681
1602.0,-0.4249632632607412
1601.0,-0.4261044280965076
1600.0,-0.4268201999633554
1599.0,-0.4274536494013197
1598.0,-0.427972713608209
1597.0,-0.4281185887084673
1596.0,-0.4280861762536494
1595.0,-0.4283454081848852
1594.0,-0.42892811489332017
1593.0,-0.4292191753210086
1592.0,-0.42908983921257304
1591.0,-0.42900898458089065
1590.0,-0.4291221768508535
1589.0,-0.42891193914860626
1588.0,-0.4281672028554824
1587.0,-0.42719388446982
1586.0,-0.4261369887864239
1585.0,-0.4242607723624916
1584.0,-0.4214229331260557
1583.0,-0.4185001592841009
1582.0,-0.41542411207653496
1581.0,-0.4118216564350874
1580.0,-0.4087316610826246
1579.0,-0.40771374316226083
1578.0,-0.40837566113607604
1577.0,-0.40998381622654145
1576.0,-0.4124773476652357
1575.0,-0.4145722756179451
1574.0,-0.41634089057448076
1573.0,-0.41876517499447763
1572.0,-0.4209948296439574
1571.0,-0.4222121710342237
1570.0,-0.4234752519459368
1569.0,-0.4249795867458084
1568.0,-0.42589272408703804
1567.0,-0.42704769838757484
1566.0,-0.42813479402878896
1565.0,-0.4283130126543684
1564.0,-0.4282644148272152
1563.0,-0.4298329963825127
1562.0,-0.4329372384383676
1561.0,-0.4344411515750033
1560.0,-0.43107413795158545
1559.0,-0.43047818793204407
1558.0,-0.43413758878673425
1557.0,-0.4335778381295623
1556.0,-0.43474450232741235
1555.0,-0.4364012048506014
1554.0,-0.43643300266009755
1553.0,-0.4351273796091508
1552.0,-0.43429738512450866
1551.0,-0.43437726125022413
1550.0,-0.43468065661714217
1549.0,-0.43496788842781253
1548.0,-0.43507953840449387
1547.0,-0.4352230462110289
1546.0,-0.43468065661714217
1545.0,-0.4334337855608572
1544.0,-0.43272883992322164
1543.0,-0.4328090050331683
1542.0,-0.4326326222545829
1541.0,-0.43328968519502586
1540.0,-0.4370049654773034
1539.0,-0.4387005329007363
1538.0,-0.4366555221623538
1537.0,-0.4362898941796396
1536.0,-0.4372271921907287
1535.0,-0.43738585596638746
1534.0,-0.43671907822757605
1533.0,-0.4364171040463676
1532.0,-0.43622627527058233
1531.0,-0.4357169882208347
1530.0,-0.4351273796091508
1529.0,-0.4345050325020732
1528.0,-0.4340416827542719
1527.0,-0.4339137750901574
1526.0,-0.43389778398306555
1525.0,-0.4337858297437993
1524.0,-0.43389778398306555
1523.0,-0.43399372179470763
1522.0,-0.43437726125022413
1521.0,-0.4353665066126613
1520.0,-0.435063590165067
1519.0,-0.4343293373377297
1518.0,-0.4339777336311075
1517.0,-0.43418553386197134
1516.0,-0.43504764133996465
1515.0,-0.4358443659844413
1514.0,-0.4363694047127895
1513.0,-0.43581252504583645
1512.0,-0.43354583057662
1511.0,-0.4298652787345607
1510.0,-0.42603929939216734
1509.0,-0.42213002564028823
1508.0,-0.4176377396522297
1507.0,-0.4147728580933312
1506.0,-0.4127124827451012
1505.0,-0.4093751106042718
1504.0,-0.40934126859678166
1503.0,-0.41217484395072734
1502.0,-0.4161243720654708
1501.0,-0.4204508591060683
1500.0,-0.42488163663106704
1499.0,-0.4291706787939735
1498.0,-0.4331134975697162
1497.0,-0.43714783856045747
1496.0,-0.44020041536148957
1495.0,-0.4409248170874802
1494.0,-0.4408618735775467
1493.0,-0.4410034836484398
1492.0,-0.4405312703998914
1491.0,-0.4390483352782444
1490.0,-0.4384474106543732
1489.0,-0.44004277670934
1488.0,-0.44188357698670355
1487.0,-0.44247976906444864
1486.0,-0.44268354176646163
1485.0,-0.4426208526563382
1484.0,-0.44200915914095207
1483.0,-0.4412551209304292
1482.0,-0.44048402082339866
1481.0,-0.4400112421114537
1480.0,-0.4396484295634737
1479.0,-0.4392853136659993
1478.0,-0.43868471708173207
1477.0,-0.4378931908695134
1476.0,-0.4370684704281609
1475.0,-0.4364806950094948
1474.0,-0.43643300266009755
1473.0,-0.4371795817525119
1472.0,-0.4380199320463234
1471.0,-0.43702084258560614
1470.0,-0.4352389885960646
1469.0,-0.4338338136659807
1468.0,-0.4324722120873221
1467.0,-0.4308648432814586
1466.0,-0.42900898458089065
1465.0,-0.42667388802137296
1464.0,-0.4238027248025804
1463.0,-0.4204508591060683
1462.0,-0.4172225044337696
1461.0,-0.41442177794256096
1460.0,-0.41198987678885945
1459.0,-0.40976410426634624
1458.0,-0.4077646957618266
1457.0,-0.4068125934784228
1456.0,-0.40459427571493833
1455.0,-0.401555618262893
1454.0,-0.3999158899163029
1453.0,-0.39901572564876453
1452.0,-0.39839144022947526
1451.0,-0.39807896067511184
1450.0,-0.39816578310636075
1449.0,-0.39858228933471507
1448.0,-0.3991023610261597
1447.0,-0.3996045056896884
1446.0,-0.3999158899163029
1445.0,-0.399864008046825
1444.0,-0.4000887847320356
1443.0,-0.4003825480454286
1442.0,-0.4003825480454286
1441.0,-0.4004343680095235
1440.0,-0.40165897249515226
1439.0,-0.4043204672217309
1438.0,-0.40750987296398433
1437.0,-0.41091213886308253
1436.0,-0.4140369356649165
1435.0,-0.4156910109407237
1434.0,-0.4166072267925043
1433.0,-0.41800281852443577
1432.0,-0.4200548157787636
1431.0,-0.42260625278706376
1430.0,-0.42537116643894146
1429.0,-0.4281672028554824
1428.0,-0.4303653485804704
1427.0,-0.4317174896460134
1426.0,-0.4322635902536667
1425.0,-0.4319745637086605
1424.0,-0.43187817876683976
1423.0,-0.4324080314270802
1422.0,-0.4331455370003394
1421.0,-0.4331295175804857
1420.0,-0.43110632818114514
1419.0,-0.42646246149015976
1418.0,-0.41934433367384294
1417.0,-0.4110470024560935
1416.0,-0.4019688876951997
1415.0,-0.3908468268953502
1414.0,-0.3769417571467586
1413.0,-0.3608962160749205
1412.0,-0.34447087190845505
1411.0,-0.3300077008727591
1410.0,-0.3197720914263633
1409.0,-0.3152564250532106
1408.0,-0.31634782873309764
1407.0,-0.32226065414368366
1406.0,-0.33179158661499786
1405.0,-0.3430933450961371
1404.0,-0.35410843914740076
1403.0,-0.3631040660746354
1402.0,-0.3698278925253282
1401.0,-0.37496818629923423
1400.0,-0.37941430441217117
1399.0,-0.3838692008025446
1398.0,-0.388030116459972
1397.0,-0.391675953237296
1396.0,-0.39536134494107733
1395.0,-0.39946604100434424
1394.0,-0.40310335504676553
1393.0,-0.40529512304228676
1392.0,-0.4068125934784228
1391.0,-0.40837566113607604
1390.0,-0.4099669192522408
1389.0,-0.41143450216500455
1388.0,-0.41288035846497406
1387.0,-0.414287958434695
1386.0,-0.4151737453358608
1385.0,-0.41535736172375737
1384.0,-0.41515704908681883
1383.0,-0.4145053942007184
1382.0,-0.4132997640812519
1381.0,-0.4116365387564689
1380.0,-0.40962884163754776
1379.0,-0.40732290783963876
1378.0,-0.40466270087372225
1377.0,-0.40169341844075257
1376.0,-0.3984261463054839
1375.0,-0.3952390010815514
1374.0,-0.39255626829507184
1373.0,-0.3904405066475256
1372.0,-0.38881141347352344
1371.0,-0.38788791132382805
1370.0,-0.3879056895124995
1369.0,-0.3890065183062319
1368.0,-0.3914644118391033
1367.0,-0.39497671955456415
1366.0,-0.3989637361255203
1365.0,-0.403120521175818
1364.0,-0.40771374316226083
1363.0,-0.41331653188426554
1362.0,-0.41946007278607045
1361.0,-0.42453863715405404
1360.0,-0.42789165070887814
1359.0,-0.4300589224706428
1358.0,-0.4315888955279954
1357.0,-0.43266469717940526
1356.0,-0.433449793761596
1355.0,-0.43413758878673425
1354.0,-0.43468065661714217
1353.0,-0.43488812086731565
1352.0,-0.4345848704495938
1351.0,-0.4338338136659807
1350.0,-0.4328090050331683
1349.0,-0.4313959329291883
1348.0,-0.42960695270328353
1347.0,-0.4275185663643559
1346.0,-0.42520805113865645
1345.0,-0.4226390767975019
1344.0,-0.4198896910735681
1343.0,-0.417172649517775
1342.0,-0.41470600756108134
1341.0,-0.41283000256232594
1340.0,-0.41232612214624353
1339.0,-0.4137522676825487
1338.0,-0.4165739436962004
1337.0,-0.4197740664128746
1336.0,-0.42283596877952245
1335.0,-0.4256483219260341
1334.0,-0.4280699691190626
1333.0,-0.429945974117818
1332.0,-0.43123506524504984
1331.0,-0.4319424377714558
1330.0,-0.43207092726408014
1329.0,-0.4316049718752146
1328.0,-0.430639336164655
1327.0,-0.429380791310483
1326.0,-0.427843005705534
1325.0,-0.4258764348879325
1324.0,-0.423557143312292
1323.0,-0.4210936602175246
1322.0,-0.41858299406699206
1321.0,-0.416007740449289
1320.0,-0.41351769504001545
1319.0,-0.4113166040675469
1318.0,-0.40932434660406924
1317.0,-0.4072208929273966
1316.0,-0.40483371661993806
1315.0,-0.4022441823326197
1314.0,-0.3995006613146104
1313.0,-0.3965654651848993
1312.0,-0.3933996952931018
1311.0,-0.39001611461189434
1310.0,-0.38639193935011074
1309.0,-0.38255732190878566
1308.0,-0.3785614120185765
1307.0,-0.3745833927327258
1306.0,-0.37062410084153585
1305.0,-0.3665163438475352
1304.0,-0.3620675857273996
1303.0,-0.3572104190061216
1302.0,-0.35164172619352163
1301.0,-0.344981413927258
1300.0,-0.33715964452685565
1299.0,-0.328501922685259
1298.0,-0.319355941066902
1297.0,-0.3098004456017338
1296.0,-0.2999646686241553
1295.0,-0.29005688230336535
1294.0,-0.2802823665678664
1293.0,-0.27063226051252043
1292.0,-0.2610724513908229
1291.0,-0.2518571372714158
1290.0,-0.24308767950537646
1289.0,-0.23461850586063404
1288.0,-0.22641944864860264
1287.0,-0.21882423867740242
1286.0,-0.2121076655476588
1285.0,-0.2061239639918524
1284.0,-0.2006042916445523
1283.0,-0.19573364827321127
1282.0,-0.1915907263792107
1281.0,-0.18805620843836923
1280.0,-0.18483333393335366
1279.0,-0.18190072819640468
1278.0,-0.1791782292097941
1277.0,-0.17606230512507937
1276.0,-0.17196035401267684
1275.0,-0.16678521973543292
1274.0,-0.16028841313128783
1273.0,-0.15198239545747416
1272.0,-0.14151248287742346
1271.0,-0.12914184579228527
1270.0,-0.1153108949104995
1269.0,-0.10006022393115233
1268.0,-0.08339510788965088
1267.0,-0.06606489745967759
1266.0,-0.04883008652834997
1265.0,-0.03181227133037012
1264.0,-0.01494034979293657
1263.0,0.0009565003968372565
1262.0,0.014977917890464765
1261.0,0.02682594731702781
1260.0,0.03668448861388862
1259.0,0.044167989767578186
1258.0,0.04934311749548925
1257.0,0.05310580489767336
1256.0,0.05680236993107379
1255.0,0.06058059667068294
1254.0,0.06439198148213077
1253.0,0.0691018855898955
1252.0,0.07541061433058172
1251.0,0.08301995267961781
1250.0,0.09119340059432579
1249.0,0.10012480397898926
1248.0,0.11002636159600376
1247.0,0.12004441487725082
1246.0,0.12924505510985984
1245.0,0.13763006287711765
1244.0,0.14520830594601453
1243.0,0.15082636690117335
1242.0,0.15292113793428452
1241.0,0.1515645446685292
1240.0,0.14666689499766483
1239.0,0.1374512304752069
1238.0,0.12297438413275108
1237.0,0.10385974855798041
1236.0,0.08107890990866418
1235.0,0.055122694036304765
1234.0,0.026687379547098322
1233.0,-0.0025116312849080558
1232.0,-0.03112557573156538
1231.0,-0.058729620751719835
1230.0,-0.08500499907665215
1229.0,-0.10937603140437613
1228.0,-0.13168280946140554
1227.0,-0.15238008704760286
1226.0,-0.1717849405541214
1225.0,-0.1897429002415696
1224.0,-0.2061779975199971
1223.0,-0.22128379949268595
1222.0,-0.2352000769692748
1221.0,-0.24785056697353358
1220.0,-0.25933102491765414
1219.0,-0.26990969874976134
1218.0,-0.2796669440484556
1217.0,-0.2885398506704564
1216.0,-0.2964896822850456
1215.0,-0.30362797638388983
1214.0,-0.31009827185619976
1213.0,-0.31601230424946314
1212.0,-0.3214534343333444
1211.0,-0.32662256451565463
1210.0,-0.3314272965207432
1209.0,-0.3357987833253655
1208.0,-0.33974948168087593
1207.0,-0.3434873702383019
1206.0,-0.34711525484140404
1205.0,-0.35057749181728104
1204.0,-0.3538393238045425
1203.0,-0.356962310706225
1202.0,-0.3599492563828659
1201.0,-0.3627651265554266
1200.0,-0.3654505440975746
1199.0,-0.36811945861502915
1198.0,-0.3707165885395458
1197.0,-0.37318794991271886
1196.0,-0.3755355925094994
1195.0,-0.3778342244705488
1194.0,-0.3800664527514708
1193.0,-0.3821071358190258
1192.0,-0.38392302895216046
1191.0,-0.3855526536856688
1190.0,-0.3869624412146173
1189.0,-0.3880834313836483
1188.0,-0.3889178451569144
1187.0,-0.3894318975821971
1186.0,-0.38946732705536924
1185.0,-0.3889355812352422
1184.0,-0.38788791132382805
1183.0,-0.3864276176809507
1182.0,-0.3845863614855185
1181.0,-0.38241331312626636
1180.0,-0.3800302479678308
1179.0,-0.37761583055978054
1178.0,-0.37537093802905863
1177.0,-0.3734269621857429
1176.0,-0.3719909114649149
1175.0,-0.3713080438559211
1174.0,-0.3714557819130171
1173.0,-0.37241485620005355
1172.0,-0.3741982579290828
1171.0,-0.3768688216386682
1170.0,-0.3802655251292011
1169.0,-0.3841024079485167
1168.0,-0.388030116459972
1167.0,-0.39171120012137184
1166.0,-0.39488925716741896
1165.0,-0.39743593465354277
1164.0,-0.3993794781526292
1163.0,-0.40086596075657255
1162.0,-0.40190003676058517
1161.0,-0.4024677308028304
1160.0,-0.4026567973656636
1159.0,-0.402502112664219
1158.0,-0.40188282232128225
1157.0,-0.40064158605651023
1156.0,-0.3987557157733681
1155.0,-0.3963214207557977
1154.0,-0.3933294722382308
1153.0,-0.3896975482063856
1152.0,-0.38544539399584155
1151.0,-0.3806453191909247
1150.0,-0.3752611336843068
1149.0,-0.36917873663727496
1148.0,-0.36238821658869824
1147.0,-0.35508738007490415
1146.0,-0.34746662580062226
1145.0,-0.3395706820014386
1144.0,-0.33150827628638924
1143.0,-0.32341712135041956
1142.0,-0.31552953321384924
1141.0,-0.3079664470282739
1140.0,-0.3008345191616124
1139.0,-0.29426777217945776
1138.0,-0.28820449675152293
1137.0,-0.28246349959931516
1136.0,-0.27694408571298235
1135.0,-0.27167900597442385
1134.0,-0.26670196688408776
1133.0,-0.26169100293496284
1132.0,-0.256332818425673
1131.0,-0.2504444001899655
1130.0,-0.24388100221831843
1129.0,-0.23638608860955435
1128.0,-0.2277581961109152
1127.0,-0.218036331200945
1126.0,-0.20733809528835634
1125.0,-0.1958719894593277
1124.0,-0.18383903705642135
1123.0,-0.17181418105114643
1122.0,-0.1605585621075578
1121.0,-0.15051083290796718
1120.0,-0.14220169016351347
1119.0,-0.13630826725581313
1118.0,-0.1330916102547084
1117.0,-0.13248382500056177
1116.0,-0.13404954274051262
1115.0,-0.13754399455465238
1114.0,-0.14226429117002226
1113.0,-0.14684093403506715
1112.0,-0.1497731775596649
1111.0,-0.15017289639313125
1110.0,-0.14736710779378637
1109.0,-0.14101055334232404
1108.0,-0.1310409316000989
1107.0,-0.11790073206451934
1106.0,-0.10212485573452579
1105.0,-0.08403978066795359
1104.0,-0.0639710069647621
1103.0,-0.042654253167793144
1102.0,-0.020899672862536356
1101.0,0.0008259444115150671
1100.0,0.02204787879853809
1099.0,0.04186632432376469
1098.0,0.05908526241971446
1097.0,0.07329750581735506
1096.0,0.08438913733853282
1095.0,0.0916222275676053
1094.0,0.09441997176475758
1093.0,0.09328794305703592
1092.0,0.08878910686244668
1091.0,0.08081727095749947
1090.0,0.06956040523329987
1089.0,0.055912320584565744
1088.0,0.04076775094900409
1087.0,0.024154774532432866
1086.0,0.006079041198713275
1085.0,-0.012795058145412597
1084.0,-0.03205437547966916
1083.0,-0.05188537888987188
1082.0,-0.07250723552880434
1081.0,-0.09338666000137064
1080.0,-0.11414374967188001
1079.0,-0.13459143471087698
1078.0,-0.1545456924209101
1077.0,-0.17347764345299455
1076.0,-0.19097565748524437
1075.0,-0.20723030984835322
1074.0,-0.22232621099081173
1073.0,-0.2361592305796636
1072.0,-0.2486107449683037
1071.0,-0.2597610667986645
1070.0,-0.26969969738437305
1069.0,-0.27834196906090725
1068.0,-0.2858047638486316
1067.0,-0.29238899830193166
1066.0,-0.298307137328508
1065.0,-0.30343366600620447
1064.0,-0.30773130616160715
1063.0,-0.3112026989507597
1062.0,-0.31386722036915327
1061.0,-0.3156975144495764
1060.0,-0.31676687014143123
1059.0,-0.31718550761543574
1058.0,-0.3168506299260505
1057.0,-0.315592533791591
1056.0,-0.31342426716919247
1055.0,-0.31050213822679495
1054.0,-0.30693944215853985
1053.0,-0.302720449896134
1052.0,-0.29795737581010906
1051.0,-0.29289817501802506
1050.0,-0.2877793430397393
1049.0,-0.2827806682491265
1048.0,-0.2780673308886623
1047.0,-0.27392678010052585
1046.0,-0.2703760052120221
1045.0,-0.2673360249636416
1044.0,-0.2647234009020001
1043.0,-0.26285434541619335
1042.0,-0.2619999486518272
1041.0,-0.26214246489087767
1040.0,-0.2630913798516721
1039.0,-0.26465257084689675
1038.0,-0.26658444706686346
1037.0,-0.2686247683358709
1036.0,-0.2705856798848245
1035.0,-0.27260733312082586
1034.0,-0.27473498487273806
1033.0,-0.27682930534338857
1032.0,-0.27879931375555556
1031.0,-0.2805783703680764
1030.0,-0.2821007372858477
1029.0,-0.28325598733865576
1028.0,-0.2838889379760565
1027.0,-0.2837759787115228
1026.0,-0.28230482837057025
1025.0,-0.27850209449388297
1024.0,-0.2713071187849647
1023.0,-0.2599043195152695
1022.0,-0.24370758666179038
1021.0,-0.22274247602660102
1020.0,-0.19813451983167596
1019.0,-0.17298218950586897
1018.0,-0.15204360248765125
1017.0,-0.14075937087036916
1016.0,-0.14301480025409496
1015.0,-0.1592061336463253
1014.0,-0.1852871125752027
1013.0,-0.21481736586945832
1012.0,-0.24239233137574256
1011.0,-0.26533677796791766
1010.0,-0.2832786086102139
1009.0,-0.2970379093793598
1008.0,-0.3077954481159737
1007.0,-0.3164526269966559
1006.0,-0.32343774458958574
1005.0,-0.32895013206978385
1004.0,-0.33326586072617337
1003.0,-0.3368598209168092
1002.0,-0.34010686035489
1001.0,-0.34305392291284864
1000.0,-0.3456285464563065
999.0,-0.34785670485132547
998.0,-0.3498600821923312
997.0,-0.3516803765278955
996.0,-0.35326208591631536
995.0,-0.354550195507882
994.0,-0.35554729573213306
993.0,-0.3562362572897677
992.0,-0.3567522621475572
991.0,-0.35726765464420884
990.0,-0.3578586483017929
989.0,-0.35846786387692076
988.0,-0.35901922829267363
987.0,-0.3595129605946257
986.0,-0.35993029611210225
985.0,-0.3601956646061586
984.0,-0.3602525081936707
983.0,-0.36011986158080544
982.0,-0.35993029611210225
981.0,-0.35972167848321135
980.0,-0.3595509167633182
979.0,-0.35943703830399
978.0,-0.3593421167723676
977.0,-0.35919019915581085
976.0,-0.35901922829267363
975.0,-0.3589622230445899
974.0,-0.35911422041490626
973.0,-0.3595129605946257
972.0,-0.36008195510597085
971.0,-0.3607637659541547
970.0,-0.3615767507901504
969.0,-0.3625578665544893
968.0,-0.36372476900637496
967.0,-0.36503848219570534
966.0,-0.3663482334677184
965.0,-0.36763541979051073
964.0,-0.3689930851652461
963.0,-0.3705130895985924
962.0,-0.37204623207920573
961.0,-0.3733718171813005
960.0,-0.37443671498171227
959.0,-0.3753343396654163
958.0,-0.3761570577832538
957.0,-0.37697822030801653
956.0,-0.37779783311122594
955.0,-0.3785977394533031
954.0,-0.3792329781676669
953.0,-0.3797042690244474
952.0,-0.3800664527514708
951.0,-0.38048259097498116
950.0,-0.3808983308391545
949.0,-0.38120536123858306
948.0,-0.3814039123652906
947.0,-0.38160237275970177
946.0,-0.3818187716257344
945.0,-0.3819990216830673
944.0,-0.3821972103774538
943.0,-0.3824673220158301
942.0,-0.3828092224315145
941.0,-0.3830969299490943
940.0,-0.38325868170817534
939.0,-0.3833305520458352
938.0,-0.3833485177720215
937.0,-0.3833485177720215
936.0,-0.38338444699495033
935.0,-0.38351017587249325
934.0,-0.3837256264446429
933.0,-0.3839947894417328
932.0,-0.38431756499126424
931.0,-0.3847117429382827
930.0,-0.38510556344265545
929.0,-0.3853738728162317
928.0,-0.38558840102965997
927.0,-0.38583855008399803
926.0,-0.3861421089308186
925.0,-0.38639193935011074
924.0,-0.3864989655506532
923.0,-0.38653463509047903
922.0,-0.38653463509047903
921.0,-0.38651680068676786
920.0,-0.38651680068676786
919.0,-0.386570301700929
918.0,-0.3864989655506532
917.0,-0.38617780779088573
916.0,-0.38558840102965997
915.0,-0.38485499171731785
914.0,-0.3839589106791115
913.0,-0.3827912343816475
912.0,-0.38124146819586224
911.0,-0.37930551775058197
910.0,-0.3769599891100661
909.0,-0.37408815665281736
908.0,-0.37075357810450305
907.0,-0.3671694885346808
906.0,-0.3635743770104458
905.0,-0.3600061322290986
904.0,-0.3565230023418269
903.0,-0.35326208591631536
902.0,-0.35034494824906215
901.0,-0.34783720921772154
900.0,-0.34570692127842806
899.0,-0.3439597290071408
898.0,-0.3426003104157722
897.0,-0.34157300187784534
896.0,-0.34080092259556016
895.0,-0.3402656009723297
894.0,-0.33992820777851396
893.0,-0.3396898899664773
892.0,-0.33947131702928335
891.0,-0.3391333059698791
890.0,-0.3384764149129227
889.0,-0.33735941200135455
888.0,-0.33581882691516496
887.0,-0.33399106156950653
886.0,-0.3318724984888979
885.0,-0.32929615913996546
884.0,-0.3261309567107946
883.0,-0.3223226858740107
882.0,-0.3178544893314692
881.0,-0.31264272488340517
880.0,-0.30672517678249145
879.0,-0.3002475611940847
878.0,-0.293340452648696
877.0,-0.2861419752033352
876.0,-0.27898211686544316
875.0,-0.27260733312082586
874.0,-0.26785198131560506
873.0,-0.2654310668267126
872.0,-0.2658080176863571
871.0,-0.26916256543174466
870.0,-0.2752422305558997
869.0,-0.2833012287035497
868.0,-0.29245544652063593
867.0,-0.30189771719520797
866.0,-0.3109056293761414
865.0,-0.31889771462748673
864.0,-0.32559775286001935
863.0,-0.331103226376499
862.0,-0.3355381324431508
861.0,-0.3388945514383557
860.0,-0.34125641743125756
859.0,-0.3427975914593677
858.0,-0.34378265466952884
857.0,-0.34435296923855674
856.0,-0.34472621793986
855.0,-0.34496178878968253
854.0,-0.3450991461328954
853.0,-0.3450795263148665
852.0,-0.344981413927258
851.0,-0.34492253585383637
850.0,-0.3449029080554058
849.0,-0.3447851226326608
848.0,-0.34447087190845505
847.0,-0.34407773846810086
846.0,-0.3438220107621617
845.0,-0.3437629752857023
844.0,-0.34388103821477056
843.0,-0.34407773846810086
842.0,-0.34435296923855674
841.0,-0.34472621793986
840.0,-0.3453149056523137
839.0,-0.34611815720679795
838.0,-0.34713478291002
837.0,-0.34834381147936977
836.0,-0.34968539781031405
835.0,-0.3510809094630156
834.0,-0.35237549500052
833.0,-0.35360852070863924
832.0,-0.35495314621255636
831.0,-0.3565038918940049
830.0,-0.3580872043014036
829.0,-0.3595129605946257
828.0,-0.3607259156419551
827.0,-0.3617467179758971
826.0,-0.36250132392901246
825.0,-0.3629722876920676
824.0,-0.36331106563662496
823.0,-0.36379994547910943
822.0,-0.3644571851188294
821.0,-0.365132166964691
820.0,-0.3656938515772623
819.0,-0.3661052924228607
818.0,-0.36619874736972635
817.0,-0.36595572266567933
816.0,-0.36552542245670905
815.0,-0.3651696352143827
814.0,-0.36500100262874335
813.0,-0.3648885445170529
812.0,-0.36483230453917415
811.0,-0.3649072895580341
810.0,-0.3650946954821914
809.0,-0.36526329169873417
808.0,-0.3654318224904203
807.0,-0.3656564285283892
806.0,-0.3660118173612865
805.0,-0.36659103868916976
804.0,-0.36741183517092413
803.0,-0.36852860897939
802.0,-0.36971667754856075
801.0,-0.3706795958238587
800.0,-0.3709939335147441
799.0,-0.3702354372831773
798.0,-0.3679147387937527
797.0,-0.364006613705671
796.0,-0.3591332163463212
795.0,-0.354550195507882
794.0,-0.35129371830977707
793.0,-0.34997649942447273
792.0,-0.350790547426457
791.0,-0.3534738289030659
790.0,-0.3575155886150969
789.0,-0.3622185003260525
788.0,-0.36715084088307925
787.0,-0.3721199819383352
786.0,-0.37681411196819736
785.0,-0.3809525284492299
784.0,-0.38449678113786856
783.0,-0.3875321946343506
782.0,-0.39012225150670066
781.0,-0.392362752025857
780.0,-0.3944516808262164
779.0,-0.3967048575975394
778.0,-0.3990330541068978
777.0,-0.40107297302594747
776.0,-0.40258805541120024
775.0,-0.4036866231224563
774.0,-0.40449161775868614
773.0,-0.40512428892714913
772.0,-0.4057389775042499
771.0,-0.4066423553507663
770.0,-0.4079175177029626
769.0,-0.40934126859678166
768.0,-0.4107940988548493
767.0,-0.4122925093230463
766.0,-0.4137522676825487
765.0,-0.41499005128352184
764.0,-0.416007740449289
763.0,-0.4170064251187986
762.0,-0.4181852429395643
761.0,-0.41947660442733925
760.0,-0.4206982029088069
759.0,-0.42176840120692427
758.0,-0.42260625278706376
757.0,-0.4232622620986146
756.0,-0.42393364483730567
755.0,-0.424914289123989
754.0,-0.42616954703532617
753.0,-0.4274536494013197
752.0,-0.4285073495999554
751.0,-0.42931615213166197
750.0,-0.4298329963825127
749.0,-0.4299298362406301
748.0,-0.42960695270328353
747.0,-0.4288472301442545
746.0,-0.42735625575892255
745.0,-0.4244569306684025
744.0,-0.4194104740862157
743.0,-0.4116702023858094
742.0,-0.4008487052792118
741.0,-0.3868555291847242
740.0,-0.36997613487242687
739.0,-0.35057749181728104
738.0,-0.32882793901428053
737.0,-0.3047058982127653
736.0,-0.2785249647370174
735.0,-0.2510539021873077
734.0,-0.2227684793485798
733.0,-0.19345854260921103
732.0,-0.16238515585724134
731.0,-0.1287222843384268
730.0,-0.09131515969722281
729.0,-0.04886889573993081
728.0,-0.0006943158663546001
727.0,0.05173378011970464
726.0,0.10308815917397474
725.0,0.14333151638846497
724.0,0.16045910703103106
723.0,0.14703230897118158
722.0,0.10501970907203151
721.0,0.04421607108308856
720.0,-0.02164403608744303
719.0,-0.08095100437948322
718.0,-0.12891597845383718
717.0,-0.16651891754094494
716.0,-0.19603794073452363
715.0,-0.2188767150527564
714.0,-0.23583133741051787
713.0,-0.2482185611900749
712.0,-0.2574385668598138
711.0,-0.26462895826122246
710.0,-0.27044590801796264
709.0,-0.27561076474457247
708.0,-0.2808514256942063
707.0,-0.2864340134020926
706.0,-0.2920122662363456
705.0,-0.29730081277147935
704.0,-0.30248245067229584
703.0,-0.30792370361188137
702.0,-0.31380396899414986
701.0,-0.3199592290701814
700.0,-0.32619243812777254
699.0,-0.3323172445409792
698.0,-0.3380179934708871
697.0,-0.3429750678092449
696.0,-0.3470761960697346
695.0,-0.35024801833416275
694.0,-0.35272263746201826
693.0,-0.35487642251623397
692.0,-0.3571913387837298
691.0,-0.3597596164157011
690.0,-0.36218077659253023
689.0,-0.3638938977741004
688.0,-0.3646447853299124
687.0,-0.3644759487870144
686.0,-0.36370597285472384
685.0,-0.36284046931172487
684.0,-0.362463624755212
683.0,-0.3627651265554266
682.0,-0.3633675029434862
681.0,-0.363762358869375
680.0,-0.3639502593966446
679.0,-0.36426950383591583
678.0,-0.36511343162757726
677.0,-0.36659103868916976
676.0,-0.36852860897939
675.0,-0.37088301677760604
674.0,-0.37285679253522863
673.0,-0.3739413115180614
672.0,-0.3753343396654163
671.0,-0.37997593513262196
670.0,-0.38978606231693425
669.0,-0.40464559559469127
668.0,-0.4136852598549283
667.0,-0.41393648591729537
666.0,-0.4135512131755501
665.0,-0.4068125934784228
664.0,-0.39497671955456415
663.0,-0.3868020632985454
662.0,-0.3840665380759458
661.0,-0.38524868240321997
660.0,-0.3871761863498824
659.0,-0.38842094066116895
658.0,-0.3887936723235015
657.0,-0.38872270047517565
656.0,-0.3885629713980747
655.0,-0.3887936723235015
654.0,-0.3891838103081646
653.0,-0.38939646521847493
652.0,-0.3895735981363
651.0,-0.3895735981363
650.0,-0.389112902192263
649.0,-0.38861622095145565
648.0,-0.3891660843645326
647.0,-0.39100571835170994
646.0,-0.39308360208945636
645.0,-0.39457424664932583
644.0,-0.3956583223341328
643.0,-0.39682678926878356
642.0,-0.3979921208831958
641.0,-0.39877305460885903
640.0,-0.39922362152726976
639.0,-0.3995872000180758
638.0,-0.39977752448879933
637.0,-0.3996910237053748
636.0,-0.39929289804391077
635.0,-0.3979747508409215
634.0,-0.3949942099185102
633.0,-0.39123512565331
632.0,-0.3892015355283336
631.0,-0.390511198351418
630.0,-0.39422396677236815
629.0,-0.39833937591461277
628.0,-0.4016245238172642
627.0,-0.40349800445199824
626.0,-0.4037894715161885
625.0,-0.4032749858116862
624.0,-0.4034122416045256
623.0,-0.40497048074700226
622.0,-0.4072208929273966
621.0,-0.40908736944783497
620.0,-0.41027096425218446
619.0,-0.41124921935338454
618.0,-0.4124437465447621
617.0,-0.41371876506107874
616.0,-0.41467257843572103
615.0,-0.4149566440156667
614.0,-0.4147227211588782
613.0,-0.41480627950101256
612.0,-0.415974411376566
611.0,-0.4179198729977407
610.0,-0.41969145851847767
609.0,-0.42101130296813505
608.0,-0.4225241819056462
607.0,-0.4243752088079158
606.0,-0.42594158801889526
605.0,-0.42724260223103583
604.0,-0.42908983921257304
603.0,-0.4316210476273552
602.0,-0.4338817922871452
601.0,-0.4352230462110289
600.0,-0.43613082942970083
