cm-1,A
4000.0,0.027
3999.0,0.027
3998.0,0.0269
3997.0,0.0269
3996.0,0.0269
3995.0,0.0269
3994.0,0.0269
3993.0,0.0268
3992.0,0.0269
3991.0,0.0269
3990.0,0.027
3989.0,0.027
3988.0,0.027
3987.0,0.027
3986.0,0.027
3985.0,0.027
3984.0,0.027
3983.0,0.027
3982.0,0.027
3981.0,0.027
3980.0,0.0271
3979.0,0.0272
3978.0,0.0272
3977.0,0.0273
3976.0,0.0273
3975.0,0.0274
3974.0,0.0274
3973.0,0.0274
3972.0,0.0274
3971.0,0.0273
3970.0,0.0272
3969.0,0.0272
3968.0,0.0272
3967.0,0.0272
3966.0,0.0272
3965.0,0.0272
3964.0,0.0273
3963.0,0.0274
3962.0,0.0274
3961.0,0.0275
3960.0,0.0274
3959.0,0.0274
3958.0,0.0274
3957.0,0.0274
3956.0,0.0274
3955.0,0.0274
3954.0,0.0274
3953.0,0.0274
3952.0,0.0273
3951.0,0.0273
3950.0,0.0274
3949.0,0.0274
3948.0,0.0275
3947.0,0.0276
3946.0,0.0277
3945.0,0.0278
3944.0,0.0278
3943.0,0.0278
3942.0,0.0278
3941.0,0.0278
3940.0,0.0277
3939.0,0.0275
3938.0,0.0273
3937.0,0.0273
3936.0,0.0275
3935.0,0.0276
3934.0,0.0277
3933.0,0.0278
3932.0,0.0278
3931.0,0.0278
3930.0,0.0278
3929.0,0.0279
3928.0,0.0279
3927.0,0.0278
3926.0,0.0278
3925.0,0.0278
3924.0,0.0279
3923.0,0.028
3922.0,0.028
3921.0,0.028
3920.0,0.0279
3919.0,0.0279
3918.0,0.0278
3917.0,0.0278
3916.0,0.0278
3915.0,0.0278
3914.0,0.0278
3913.0,0.0278
3912.0,0.0278
3911.0,0.0278
3910.0,0.0279
3909.0,0.028
3908.0,0.0281
3907.0,0.0281
3906.0,0.028
3905.0,0.0281
3904.0,0.0284
3903.0,0.0287
3902.0,0.0289
3901.0,0.0288
3900.0,0.0285
3899.0,0.0283
3898.0,0.0282
3897.0,0.0281
3896.0,0.0281
3895.0,0.0281
3894.0,0.0281
3893.0,0.028
3892.0,0.028
3891.0,0.0281
3890.0,0.0283
3889.0,0.0284
3888.0,0.0284
3887.0,0.0281
3886.0,0.0281
3885.0,0.0284
3884.0,0.0288
3883.0,0.029
3882.0,0.0288
3881.0,0.0286
3880.0,0.0284
3879.0,0.0285
3878.0,0.0286
3877.0,0.0287
3876.0,0.0286
3875.0,0.0286
3874.0,0.0287
3873.0,0.029
3872.0,0.0289
3871.0,0.0286
3870.0,0.0285
3869.0,0.0286
3868.0,0.0289
3867.0,0.0288
3866.0,0.0286
3865.0,0.0284
3864.0,0.0286
3863.0,0.0287
3862.0,0.0287
3861.0,0.0285
3860.0,0.0283
3859.0,0.0282
3858.0,0.0282
3857.0,0.0284
3856.0,0.0285
3855.0,0.0282
3854.0,0.0283
3853.0,0.0287
3852.0,0.029
3851.0,0.029
3850.0,0.0289
3849.0,0.0287
3848.0,0.0287
3847.0,0.0287
3846.0,0.0288
3845.0,0.0289
3844.0,0.0289
3843.0,0.029
3842.0,0.029
3841.0,0.029
3840.0,0.0288
3839.0,0.0288
3838.0,0.0289
3837.0,0.0291
3836.0,0.0292
3835.0,0.0291
3834.0,0.0289
3833.0,0.0287
3832.0,0.0286
3831.0,0.0286
3830.0,0.0288
3829.0,0.0289
3828.0,0.0288
3827.0,0.0287
3826.0,0.0288
3825.0,0.0291
3824.0,0.0293
3823.0,0.029
3822.0,0.0287
3821.0,0.0287
3820.0,0.029
3819.0,0.0291
3818.0,0.029
3817.0,0.0287
3816.0,0.0287
3815.0,0.0289
3814.0,0.029
3813.0,0.0289
3812.0,0.0288
3811.0,0.0287
3810.0,0.0288
3809.0,0.0287
3808.0,0.0287
3807.0,0.0288
3806.0,0.0292
3805.0,0.0296
3804.0,0.0297
3803.0,0.0294
3802.0,0.0292
3801.0,0.0294
3800.0,0.0297
3799.0,0.0297
3798.0,0.0295
3797.0,0.0292
3796.0,0.0291
3795.0,0.0291
3794.0,0.0291
3793.0,0.029
3792.0,0.029
3791.0,0.0291
3790.0,0.0291
3789.0,0.0292
3788.0,0.0292
3787.0,0.0292
3786.0,0.0292
3785.0,0.0292
3784.0,0.0294
3783.0,0.0295
3782.0,0.0295
3781.0,0.0293
3780.0,0.0292
3779.0,0.0291
3778.0,0.0292
3777.0,0.0292
3776.0,0.0291
3775.0,0.0291
3774.0,0.0292
3773.0,0.0293
3772.0,0.0293
3771.0,0.0292
3770.0,0.0293
3769.0,0.0295
3768.0,0.0296
3767.0,0.0296
3766.0,0.0294
3765.0,0.0295
3764.0,0.0297
3763.0,0.0299
3762.0,0.0299
3761.0,0.0298
3760.0,0.0296
3759.0,0.0295
3758.0,0.0294
3757.0,0.0293
3756.0,0.0294
3755.0,0.0295
3754.0,0.0294
3753.0,0.0292
3752.0,0.0292
3751.0,0.0293
3750.0,0.0294
3749.0,0.0295
3748.0,0.0299
3747.0,0.0302
3746.0,0.03
3745.0,0.0298
3744.0,0.0298
3743.0,0.0298
3742.0,0.0298
3741.0,0.0297
3740.0,0.0296
3739.0,0.0297
3738.0,0.0297
3737.0,0.0297
3736.0,0.0299
3735.0,0.0302
3734.0,0.0302
3733.0,0.0299
3732.0,0.0295
3731.0,0.0292
3730.0,0.0291
3729.0,0.0291
3728.0,0.0291
3727.0,0.0291
3726.0,0.0292
3725.0,0.0293
3724.0,0.0293
3723.0,0.0292
3722.0,0.0292
3721.0,0.0293
3720.0,0.0294
3719.0,0.0296
3718.0,0.0297
3717.0,0.0299
3716.0,0.0301
3715.0,0.0301
3714.0,0.0299
3713.0,0.0296
3712.0,0.0295
3711.0,0.0296
3710.0,0.0297
3709.0,0.0296
3708.0,0.0295
3707.0,0.0294
3706.0,0.0294
3705.0,0.0294
3704.0,0.0294
3703.0,0.0295
3702.0,0.0295
3701.0,0.0296
3700.0,0.0297
3699.0,0.0296
3698.0,0.0295
3697.0,0.0294
3696.0,0.0294
3695.0,0.0294
3694.0,0.0294
3693.0,0.0294
3692.0,0.0295
3691.0,0.0297
3690.0,0.0298
3689.0,0.0299
3688.0,0.0299
3687.0,0.0299
3686.0,0.0299
3685.0,0.0299
3684.0,0.03
3683.0,0.03
3682.0,0.0301
3681.0,0.03
3680.0,0.0301
3679.0,0.0304
3678.0,0.0305
3677.0,0.0304
3676.0,0.0305
3675.0,0.0308
3674.0,0.0312
3673.0,0.0314
3672.0,0.0314
3671.0,0.0312
3670.0,0.0313
3669.0,0.0314
3668.0,0.0313
3667.0,0.0312
3666.0,0.0311
3665.0,0.0311
3664.0,0.0311
3663.0,0.0311
3662.0,0.0311
3661.0,0.0312
3660.0,0.0313
3659.0,0.0314
3658.0,0.0314
3657.0,0.0314
3656.0,0.0316
3655.0,0.0319
3654.0,0.0324
3653.0,0.0327
3652.0,0.0327
3651.0,0.0327
3650.0,0.0331
3649.0,0.0336
3648.0,0.0338
3647.0,0.0337
3646.0,0.0336
3645.0,0.0335
3644.0,0.0334
3643.0,0.0333
3642.0,0.0333
3641.0,0.0334
3640.0,0.0334
3639.0,0.0334
3638.0,0.0334
3637.0,0.0335
3636.0,0.0335
3635.0,0.0336
3634.0,0.0337
3633.0,0.0339
3632.0,0.0342
3631.0,0.0343
3630.0,0.0342
3629.0,0.0345
3628.0,0.0347
3627.0,0.0348
3626.0,0.0348
3625.0,0.0348
3624.0,0.035
3623.0,0.0353
3622.0,0.0356
3621.0,0.0357
3620.0,0.0359
3619.0,0.0363
3618.0,0.0368
3617.0,0.0372
3616.0,0.0374
3615.0,0.0374
3614.0,0.0373
3613.0,0.0373
3612.0,0.0373
3611.0,0.0373
3610.0,0.0373
3609.0,0.0373
3608.0,0.0375
3607.0,0.0376
3606.0,0.0377
3605.0,0.0377
3604.0,0.0378
3603.0,0.0378
3602.0,0.0378
3601.0,0.038
3600.0,0.0382
3599.0,0.0385
3598.0,0.0387
3597.0,0.0389
3596.0,0.0389
3595.0,0.039
3594.0,0.0391
3593.0,0.0394
3592.0,0.0397
3591.0,0.0399
3590.0,0.0401
3589.0,0.0402
3588.0,0.0405
3587.0,0.0408
3586.0,0.0409
3585.0,0.0409
3584.0,0.0409
3583.0,0.041
3582.0,0.0411
3581.0,0.0411
3580.0,0.0412
3579.0,0.0412
3578.0,0.0413
3577.0,0.0415
3576.0,0.0416
3575.0,0.0418
3574.0,0.0419
3573.0,0.0421
3572.0,0.0423
3571.0,0.0426
3570.0,0.0429
3569.0,0.043
3568.0,0.0432
3567.0,0.0436
3566.0,0.0439
3565.0,0.0441
3564.0,0.0441
3563.0,0.0441
3562.0,0.0441
3561.0,0.0442
3560.0,0.0443
3559.0,0.0445
3558.0,0.0447
3557.0,0.0448
3556.0,0.0449
3555.0,0.045
3554.0,0.045
3553.0,0.0451
3552.0,0.0452
3551.0,0.0453
3550.0,0.0455
3549.0,0.0456
3548.0,0.0458
3547.0,0.0461
3546.0,0.0464
3545.0,0.0466
3544.0,0.0467
3543.0,0.0467
3542.0,0.0468
3541.0,0.0469
3540.0,0.047
3539.0,0.0471
3538.0,0.0472
3537.0,0.0473
3536.0,0.0474
3535.0,0.0475
3534.0,0.0477
3533.0,0.0479
3532.0,0.0481
3531.0,0.0483
3530.0,0.0484
3529.0,0.0485
3528.0,0.0486
3527.0,0.0488
3526.0,0.049
3525.0,0.0492
3524.0,0.0493
3523.0,0.0495
3522.0,0.0495
3521.0,0.0496
3520.0,0.0496
3519.0,0.0496
3518.0,0.0498
3517.0,0.05
3516.0,0.0502
3515.0,0.0504
3514.0,0.0505
3513.0,0.0506
3512.0,0.0507
3511.0,0.0508
3510.0,0.0509
3509.0,0.0511
3508.0,0.0513
3507.0,0.0514
3506.0,0.0515
3505.0,0.0516
3504.0,0.0518
3503.0,0.0521
3502.0,0.0524
3501.0,0.0526
3500.0,0.0527
3499.0,0.0528
3498.0,0.0528
3497.0,0.0528
3496.0,0.053
3495.0,0.0532
3494.0,0.0534
3493.0,0.0536
3492.0,0.0537
3491.0,0.0537
3490.0,0.0538
3489.0,0.0538
3488.0,0.054
3487.0,0.0542
3486.0,0.0544
3485.0,0.0546
3484.0,0.0547
3483.0,0.0549
3482.0,0.055
3481.0,0.0552
3480.0,0.0553
3479.0,0.0555
3478.0,0.0557
3477.0,0.0558
3476.0,0.0559
3475.0,0.056
3474.0,0.0561
3473.0,0.0562
3472.0,0.0564
3471.0,0.0565
3470.0,0.0567
3469.0,0.0569
3468.0,0.0571
3467.0,0.0574
3466.0,0.0577
3465.0,0.0579
3464.0,0.058
3463.0,0.058
3462.0,0.0581
3461.0,0.0581
3460.0,0.0583
3459.0,0.0584
3458.0,0.0584
3457.0,0.0585
3456.0,0.0587
3455.0,0.0589
3454.0,0.0591
3453.0,0.0593
3452.0,0.0595
3451.0,0.0597
3450.0,0.0599
3449.0,0.0601
3448.0,0.0603
3447.0,0.0603
3446.0,0.0604
3445.0,0.0605
3444.0,0.0605
3443.0,0.0607
3442.0,0.0609
3441.0,0.061
3440.0,0.0611
3439.0,0.0612
3438.0,0.0613
3437.0,0.0613
3436.0,0.0615
3435.0,0.0617
3434.0,0.062
3433.0,0.0622
3432.0,0.0624
3431.0,0.0626
3430.0,0.0626
3429.0,0.0627
3428.0,0.0628
3427.0,0.0628
3426.0,0.0629
3425.0,0.063
3424.0,0.063
3423.0,0.0631
3422.0,0.0633
3421.0,0.0634
3420.0,0.0636
3419.0,0.0637
3418.0,0.0637
3417.0,0.0638
3416.0,0.0639
3415.0,0.064
3414.0,0.064
3413.0,0.064
3412.0,0.0641
3411.0,0.0641
3410.0,0.0642
3409.0,0.0643
3408.0,0.0644
3407.0,0.0646
3406.0,0.0647
3405.0,0.0647
3404.0,0.0648
3403.0,0.0649
3402.0,0.0649
3401.0,0.0649
3400.0,0.0649
3399.0,0.0649
3398.0,0.0649
3397.0,0.0649
3396.0,0.065
3395.0,0.0651
3394.0,0.0651
3393.0,0.0651
3392.0,0.0651
3391.0,0.065
3390.0,0.065
3389.0,0.0649
3388.0,0.0648
3387.0,0.0648
3386.0,0.0647
3385.0,0.0647
3384.0,0.0646
3383.0,0.0645
3382.0,0.0644
3381.0,0.0644
3380.0,0.0643
3379.0,0.0643
3378.0,0.0641
3377.0,0.064
3376.0,0.0638
3375.0,0.0638
3374.0,0.0638
3373.0,0.0638
3372.0,0.0638
3371.0,0.0637
3370.0,0.0636
3369.0,0.0635
3368.0,0.0633
3367.0,0.0631
3366.0,0.063
3365.0,0.0629
3364.0,0.0628
3363.0,0.0627
3362.0,0.0626
3361.0,0.0624
3360.0,0.0622
3359.0,0.062
3358.0,0.0618
3357.0,0.0617
3356.0,0.0616
3355.0,0.0615
3354.0,0.0615
3353.0,0.0614
3352.0,0.0613
3351.0,0.0611
3350.0,0.061
3349.0,0.0608
3348.0,0.0607
3347.0,0.0606
3346.0,0.0605
3345.0,0.0604
3344.0,0.0603
3343.0,0.0602
3342.0,0.0601
3341.0,0.06
3340.0,0.0599
3339.0,0.0598
3338.0,0.0596
3337.0,0.0594
3336.0,0.0593
3335.0,0.0592
3334.0,0.0591
3333.0,0.059
3332.0,0.0589
3331.0,0.0588
3330.0,0.0586
3329.0,0.0585
3328.0,0.0584
3327.0,0.0583
3326.0,0.0581
3325.0,0.058
3324.0,0.0579
3323.0,0.0578
3322.0,0.0577
3321.0,0.0576
3320.0,0.0574
3319.0,0.0571
3318.0,0.057
3317.0,0.0569
3316.0,0.0568
3315.0,0.0567
3314.0,0.0566
3313.0,0.0564
3312.0,0.0562
3311.0,0.0561
3310.0,0.056
3309.0,0.0559
3308.0,0.0557
3307.0,0.0556
3306.0,0.0554
3305.0,0.0553
3304.0,0.0552
3303.0,0.055
3302.0,0.0549
3301.0,0.0549
3300.0,0.0548
3299.0,0.0547
3298.0,0.0547
3297.0,0.0546
3296.0,0.0546
3295.0,0.0545
3294.0,0.0545
3293.0,0.0544
3292.0,0.0544
3291.0,0.0543
3290.0,0.0542
3289.0,0.0541
3288.0,0.0541
3287.0,0.054
3286.0,0.0539
3285.0,0.0538
3284.0,0.0538
3283.0,0.0537
3282.0,0.0536
3281.0,0.0535
3280.0,0.0533
3279.0,0.0532
3278.0,0.0531
3277.0,0.053
3276.0,0.0529
3275.0,0.0528
3274.0,0.0527
3273.0,0.0526
3272.0,0.0526
3271.0,0.0526
3270.0,0.0525
3269.0,0.0524
3268.0,0.0523
3267.0,0.0522
3266.0,0.0521
3265.0,0.052
3264.0,0.0519
3263.0,0.0519
3262.0,0.0517
3261.0,0.0516
3260.0,0.0516
3259.0,0.0516
3258.0,0.0518
3257.0,0.0518
3256.0,0.0518
3255.0,0.0517
3254.0,0.0516
3253.0,0.0515
3252.0,0.0515
3251.0,0.0514
3250.0,0.0513
3249.0,0.0513
3248.0,0.0512
3247.0,0.0511
3246.0,0.0511
3245.0,0.0511
3244.0,0.051
3243.0,0.0509
3242.0,0.0507
3241.0,0.0506
3240.0,0.0505
3239.0,0.0504
3238.0,0.0504
3237.0,0.0503
3236.0,0.0502
3235.0,0.0501
3234.0,0.05
3233.0,0.0498
3232.0,0.0497
3231.0,0.0496
3230.0,0.0495
3229.0,0.0494
3228.0,0.0493
3227.0,0.0491
3226.0,0.0489
3225.0,0.0487
3224.0,0.0484
3223.0,0.0482
3222.0,0.0481
3221.0,0.0481
3220.0,0.048
3219.0,0.048
3218.0,0.0478
3217.0,0.0477
3216.0,0.0476
3215.0,0.0475
3214.0,0.0474
3213.0,0.0473
3212.0,0.0471
3211.0,0.0469
3210.0,0.0467
3209.0,0.0466
3208.0,0.0465
3207.0,0.0465
3206.0,0.0465
3205.0,0.0464
3204.0,0.0463
3203.0,0.0462
3202.0,0.046
3201.0,0.0458
3200.0,0.0457
3199.0,0.0455
3198.0,0.0454
3197.0,0.0453
3196.0,0.0452
3195.0,0.0451
3194.0,0.045
3193.0,0.0448
3192.0,0.0447
3191.0,0.0445
3190.0,0.0444
3189.0,0.0443
3188.0,0.0442
3187.0,0.0442
3186.0,0.0441
3185.0,0.044
3184.0,0.0438
3183.0,0.0437
3182.0,0.0435
3181.0,0.0434
3180.0,0.0433
3179.0,0.0432
3178.0,0.0432
3177.0,0.0431
3176.0,0.0431
3175.0,0.0429
3174.0,0.0428
3173.0,0.0427
3172.0,0.0426
3171.0,0.0425
3170.0,0.0425
3169.0,0.0424
3168.0,0.0423
3167.0,0.0422
3166.0,0.0422
3165.0,0.0421
3164.0,0.042
3163.0,0.0419
3162.0,0.0418
3161.0,0.0417
3160.0,0.0415
3159.0,0.0414
3158.0,0.0412
3157.0,0.0411
3156.0,0.041
3155.0,0.0409
3154.0,0.0408
3153.0,0.0407
3152.0,0.0405
3151.0,0.0404
3150.0,0.0403
3149.0,0.0401
3148.0,0.04
3147.0,0.0399
3146.0,0.0398
3145.0,0.0397
3144.0,0.0396
3143.0,0.0396
3142.0,0.0395
3141.0,0.0394
3140.0,0.0394
3139.0,0.0393
3138.0,0.0392
3137.0,0.0391
3136.0,0.039
3135.0,0.0389
3134.0,0.0388
3133.0,0.0386
3132.0,0.0385
3131.0,0.0384
3130.0,0.0383
3129.0,0.0383
3128.0,0.0382
3127.0,0.0381
3126.0,0.038
3125.0,0.0378
3124.0,0.0377
3123.0,0.0376
3122.0,0.0375
3121.0,0.0374
3120.0,0.0375
3119.0,0.0375
3118.0,0.0376
3117.0,0.0376
3116.0,0.0377
3115.0,0.0377
3114.0,0.0377
3113.0,0.0378
3112.0,0.038
3111.0,0.0382
3110.0,0.0384
3109.0,0.0388
3108.0,0.0392
3107.0,0.0395
3106.0,0.0397
3105.0,0.0398
3104.0,0.0398
3103.0,0.0398
3102.0,0.0397
3101.0,0.0395
3100.0,0.0394
3099.0,0.0391
3098.0,0.0388
3097.0,0.0386
3096.0,0.0385
3095.0,0.0386
3094.0,0.0389
3093.0,0.0392
3092.0,0.0397
3091.0,0.0404
3090.0,0.0414
3089.0,0.0425
3088.0,0.0438
3087.0,0.0451
3086.0,0.0464
3085.0,0.0474
3084.0,0.0482
3083.0,0.0485
3082.0,0.0484
3081.0,0.048
3080.0,0.0472
3079.0,0.0464
3078.0,0.0455
3077.0,0.0447
3076.0,0.0441
3075.0,0.0436
3074.0,0.0434
3073.0,0.0434
3072.0,0.0435
3071.0,0.0439
3070.0,0.0443
3069.0,0.045
3068.0,0.0459
3067.0,0.0471
3066.0,0.0484
3065.0,0.0498
3064.0,0.0512
3063.0,0.0524
3062.0,0.0534
3061.0,0.054
3060.0,0.0542
3059.0,0.054
3058.0,0.0533
3057.0,0.0524
3056.0,0.0512
3055.0,0.0499
3054.0,0.0486
3053.0,0.0474
3052.0,0.0463
3051.0,0.0454
3050.0,0.0445
3049.0,0.0437
3048.0,0.0431
3047.0,0.0426
3046.0,0.0423
3045.0,0.0421
3044.0,0.0421
3043.0,0.0422
3042.0,0.0425
3041.0,0.0429
3040.0,0.0436
3039.0,0.0444
3038.0,0.0454
3037.0,0.0467
3036.0,0.0483
3035.0,0.0503
3034.0,0.0527
3033.0,0.0555
3032.0,0.0587
3031.0,0.0621
3030.0,0.0655
3029.0,0.0687
3028.0,0.0714
3027.0,0.0733
3026.0,0.0743
3025.0,0.0741
3024.0,0.0727
3023.0,0.0704
3022.0,0.0672
3021.0,0.0637
3020.0,0.0602
3019.0,0.0568
3018.0,0.0538
3017.0,0.0512
3016.0,0.0491
3015.0,0.0473
3014.0,0.0459
3013.0,0.0447
3012.0,0.0437
3011.0,0.043
3010.0,0.0424
3009.0,0.0421
3008.0,0.042
3007.0,0.0421
3006.0,0.0423
3005.0,0.0425
3004.0,0.0427
3003.0,0.0428
3002.0,0.0428
3001.0,0.0426
3000.0,0.0421
2999.0,0.0413
2998.0,0.0404
2997.0,0.0395
2996.0,0.0387
2995.0,0.0379
2994.0,0.0372
2993.0,0.0365
2992.0,0.0359
2991.0,0.0354
2990.0,0.0349
2989.0,0.0346
2988.0,0.0344
2987.0,0.0343
2986.0,0.0342
2985.0,0.0341
2984.0,0.0341
2983.0,0.034
2982.0,0.034
2981.0,0.034
2980.0,0.0341
2979.0,0.0341
2978.0,0.0341
2977.0,0.0341
2976.0,0.034
2975.0,0.0339
2974.0,0.0339
2973.0,0.034
2972.0,0.0343
2971.0,0.0345
2970.0,0.0348
2969.0,0.0351
2968.0,0.0354
2967.0,0.0357
2966.0,0.036
2965.0,0.0364
2964.0,0.0368
2963.0,0.0372
2962.0,0.0376
2961.0,0.038
2960.0,0.0385
2959.0,0.039
2958.0,0.0395
2957.0,0.04
2956.0,0.0405
2955.0,0.041
2954.0,0.0415
2953.0,0.042
2952.0,0.0427
2951.0,0.0434
2950.0,0.0441
2949.0,0.0449
2948.0,0.0458
2947.0,0.0467
2946.0,0.0478
2945.0,0.0489
2944.0,0.0502
2943.0,0.0516
2942.0,0.0531
2941.0,0.0547
2940.0,0.0564
2939.0,0.0582
2938.0,0.0601
2937.0,0.0621
2936.0,0.0643
2935.0,0.0665
2934.0,0.0687
2933.0,0.071
2932.0,0.0733
2931.0,0.0756
2930.0,0.0778
2929.0,0.0798
2928.0,0.0816
2927.0,0.0832
2926.0,0.0845
2925.0,0.0855
2924.0,0.0863
2923.0,0.0868
2922.0,0.0871
2921.0,0.0872
2920.0,0.087
2919.0,0.0866
2918.0,0.0859
2917.0,0.0851
2916.0,0.0842
2915.0,0.0831
2914.0,0.0818
2913.0,0.0806
2912.0,0.0793
2911.0,0.0781
2910.0,0.0768
2909.0,0.0756
2908.0,0.0743
2907.0,0.0729
2906.0,0.0716
2905.0,0.0702
2904.0,0.0688
2903.0,0.0674
2902.0,0.066
2901.0,0.0647
2900.0,0.0635
2899.0,0.0625
2898.0,0.0614
2897.0,0.0603
2896.0,0.0593
2895.0,0.0583
2894.0,0.0574
2893.0,0.0566
2892.0,0.0559
2891.0,0.0552
2890.0,0.0546
2889.0,0.054
2888.0,0.0534
2887.0,0.0529
2886.0,0.0523
2885.0,0.0518
2884.0,0.0513
2883.0,0.0508
2882.0,0.0503
2881.0,0.0498
2880.0,0.0494
2879.0,0.049
2878.0,0.0487
2877.0,0.0485
2876.0,0.0483
2875.0,0.0481
2874.0,0.0479
2873.0,0.0477
2872.0,0.0476
2871.0,0.0475
2870.0,0.0475
2869.0,0.0475
2868.0,0.0476
2867.0,0.0479
2866.0,0.0482
2865.0,0.0486
2864.0,0.0491
2863.0,0.0498
2862.0,0.0506
2861.0,0.0515
2860.0,0.0524
2859.0,0.0535
2858.0,0.0545
2857.0,0.0555
2856.0,0.0566
2855.0,0.0575
2854.0,0.0584
2853.0,0.0591
2852.0,0.0596
2851.0,0.0599
2850.0,0.0601
2849.0,0.06
2848.0,0.0597
2847.0,0.0591
2846.0,0.0584
2845.0,0.0575
2844.0,0.0563
2843.0,0.055
2842.0,0.0535
2841.0,0.052
2840.0,0.0505
2839.0,0.0491
2838.0,0.0478
2837.0,0.0466
2836.0,0.0455
2835.0,0.0446
2834.0,0.0438
2833.0,0.0431
2832.0,0.0425
2831.0,0.0419
2830.0,0.0414
2829.0,0.0411
2828.0,0.0408
2827.0,0.0406
2826.0,0.0404
2825.0,0.0401
2824.0,0.0399
2823.0,0.0397
2822.0,0.0395
2821.0,0.0393
2820.0,0.0392
2819.0,0.0391
2818.0,0.039
2817.0,0.0389
2816.0,0.0388
2815.0,0.0387
2814.0,0.0386
2813.0,0.0385
2812.0,0.0384
2811.0,0.0383
2810.0,0.0382
2809.0,0.0382
2808.0,0.0382
2807.0,0.0382
2806.0,0.0381
2805.0,0.0381
2804.0,0.038
2803.0,0.0378
2802.0,0.0377
2801.0,0.0375
2800.0,0.0374
2799.0,0.0373
2798.0,0.0373
2797.0,0.0372
2796.0,0.0372
2795.0,0.0371
2794.0,0.037
2793.0,0.0369
2792.0,0.0369
2791.0,0.0369
2790.0,0.0368
2789.0,0.0368
2788.0,0.0367
2787.0,0.0367
2786.0,0.0366
2785.0,0.0366
2784.0,0.0365
2783.0,0.0365
2782.0,0.0365
2781.0,0.0364
2780.0,0.0364
2779.0,0.0364
2778.0,0.0364
2777.0,0.0364
2776.0,0.0363
2775.0,0.0362
2774.0,0.0361
2773.0,0.036
2772.0,0.036
2771.0,0.0359
2770.0,0.0359
2769.0,0.0359
2768.0,0.0358
2767.0,0.0358
2766.0,0.0358
2765.0,0.0358
2764.0,0.0358
2763.0,0.0358
2762.0,0.0357
2761.0,0.0357
2760.0,0.0357
2759.0,0.0357
2758.0,0.0357
2757.0,0.0357
2756.0,0.0356
2755.0,0.0355
2754.0,0.0355
2753.0,0.0355
2752.0,0.0355
2751.0,0.0355
2750.0,0.0354
2749.0,0.0354
2748.0,0.0354
2747.0,0.0353
2746.0,0.0353
2745.0,0.0352
2744.0,0.0352
2743.0,0.0352
2742.0,0.0352
2741.0,0.0351
2740.0,0.0351
2739.0,0.0351
2738.0,0.0351
2737.0,0.0351
2736.0,0.0351
2735.0,0.0351
2734.0,0.0351
2733.0,0.0351
2732.0,0.0351
2731.0,0.0351
2730.0,0.0351
2729.0,0.0352
2728.0,0.0352
2727.0,0.0353
2726.0,0.0353
2725.0,0.0353
2724.0,0.0353
2723.0,0.0353
2722.0,0.0353
2721.0,0.0353
2720.0,0.0353
2719.0,0.0352
2718.0,0.0352
2717.0,0.0351
2716.0,0.0351
2715.0,0.0351
2714.0,0.035
2713.0,0.0349
2712.0,0.0349
2711.0,0.0349
2710.0,0.0349
2709.0,0.0349
2708.0,0.035
2707.0,0.0349
2706.0,0.0349
2705.0,0.0349
2704.0,0.0349
2703.0,0.0349
2702.0,0.0349
2701.0,0.0349
2700.0,0.0348
2699.0,0.0348
2698.0,0.0348
2697.0,0.0348
2696.0,0.0349
2695.0,0.0349
2694.0,0.0349
2693.0,0.0348
2692.0,0.0348
2691.0,0.0348
2690.0,0.0348
2689.0,0.0348
2688.0,0.0348
2687.0,0.0348
2686.0,0.0348
2685.0,0.0348
2684.0,0.0348
2683.0,0.0348
2682.0,0.0347
2681.0,0.0347
2680.0,0.0347
2679.0,0.0347
2678.0,0.0346
2677.0,0.0346
2676.0,0.0346
2675.0,0.0346
2674.0,0.0346
2673.0,0.0347
2672.0,0.0347
2671.0,0.0346
2670.0,0.0346
2669.0,0.0346
2668.0,0.0345
2667.0,0.0345
2666.0,0.0346
2665.0,0.0346
2664.0,0.0346
2663.0,0.0346
2662.0,0.0346
2661.0,0.0345
2660.0,0.0345
2659.0,0.0345
2658.0,0.0344
2657.0,0.0343
2656.0,0.0343
2655.0,0.0343
2654.0,0.0343
2653.0,0.0344
2652.0,0.0344
2651.0,0.0343
2650.0,0.0343
2649.0,0.0343
2648.0,0.0343
2647.0,0.0343
2646.0,0.0344
2645.0,0.0344
2644.0,0.0344
2643.0,0.0344
2642.0,0.0344
2641.0,0.0344
2640.0,0.0343
2639.0,0.0343
2638.0,0.0344
2637.0,0.0344
2636.0,0.0344
2635.0,0.0344
2634.0,0.0344
2633.0,0.0344
2632.0,0.0345
2631.0,0.0345
2630.0,0.0344
2629.0,0.0344
2628.0,0.0343
2627.0,0.0343
2626.0,0.0343
2625.0,0.0343
2624.0,0.0342
2623.0,0.0342
2622.0,0.0341
2621.0,0.0341
2620.0,0.0341
2619.0,0.0341
2618.0,0.0341
2617.0,0.034
2616.0,0.034
2615.0,0.034
2614.0,0.034
2613.0,0.034
2612.0,0.034
2611.0,0.0341
2610.0,0.0341
2609.0,0.0341
2608.0,0.0341
2607.0,0.0342
2606.0,0.0342
2605.0,0.0342
2604.0,0.0343
2603.0,0.0343
2602.0,0.0342
2601.0,0.0342
2600.0,0.0341
2599.0,0.034
2598.0,0.034
2597.0,0.034
2596.0,0.0341
2595.0,0.0341
2594.0,0.0341
2593.0,0.0341
2592.0,0.034
2591.0,0.0339
2590.0,0.0339
2589.0,0.0339
2588.0,0.0339
2587.0,0.0339
2586.0,0.0339
2585.0,0.0339
2584.0,0.034
2583.0,0.034
2582.0,0.034
2581.0,0.034
2580.0,0.034
2579.0,0.0339
2578.0,0.0338
2577.0,0.0338
2576.0,0.0338
2575.0,0.0338
2574.0,0.0339
2573.0,0.0339
2572.0,0.0338
2571.0,0.0338
2570.0,0.0338
2569.0,0.0337
2568.0,0.0337
2567.0,0.0337
2566.0,0.0337
2565.0,0.0337
2564.0,0.0338
2563.0,0.0338
2562.0,0.0338
2561.0,0.0338
2560.0,0.0338
2559.0,0.0338
2558.0,0.0337
2557.0,0.0337
2556.0,0.0336
2555.0,0.0336
2554.0,0.0336
2553.0,0.0336
2552.0,0.0336
2551.0,0.0336
2550.0,0.0336
2549.0,0.0337
2548.0,0.0337
2547.0,0.0337
2546.0,0.0337
2545.0,0.0336
2544.0,0.0336
2543.0,0.0336
2542.0,0.0336
2541.0,0.0336
2540.0,0.0335
2539.0,0.0335
2538.0,0.0335
2537.0,0.0335
2536.0,0.0335
2535.0,0.0335
2534.0,0.0336
2533.0,0.0335
2532.0,0.0335
2531.0,0.0335
2530.0,0.0334
2529.0,0.0334
2528.0,0.0334
2527.0,0.0334
2526.0,0.0335
2525.0,0.0335
2524.0,0.0336
2523.0,0.0336
2522.0,0.0336
2521.0,0.0336
2520.0,0.0336
2519.0,0.0336
2518.0,0.0335
2517.0,0.0335
2516.0,0.0335
2515.0,0.0335
2514.0,0.0334
2513.0,0.0334
2512.0,0.0334
2511.0,0.0335
2510.0,0.0335
2509.0,0.0336
2508.0,0.0336
2507.0,0.0336
2506.0,0.0336
2505.0,0.0336
2504.0,0.0336
2503.0,0.0336
2502.0,0.0336
2501.0,0.0335
2500.0,0.0335
2499.0,0.0334
2498.0,0.0335
2497.0,0.0335
2496.0,0.0335
2495.0,0.0335
2494.0,0.0335
2493.0,0.0335
2492.0,0.0335
2491.0,0.0334
2490.0,0.0334
2489.0,0.0333
2488.0,0.0333
2487.0,0.0333
2486.0,0.0333
2485.0,0.0333
2484.0,0.0334
2483.0,0.0334
2482.0,0.0334
2481.0,0.0333
2480.0,0.0333
2479.0,0.0333
2478.0,0.0333
2477.0,0.0333
2476.0,0.0332
2475.0,0.0332
2474.0,0.0332
2473.0,0.0332
2472.0,0.0332
2471.0,0.0333
2470.0,0.0333
2469.0,0.0332
2468.0,0.0332
2467.0,0.0332
2466.0,0.0331
2465.0,0.0331
2464.0,0.0331
2463.0,0.0331
2462.0,0.0332
2461.0,0.0332
2460.0,0.0332
2459.0,0.0332
2458.0,0.0331
2457.0,0.0331
2456.0,0.033
2455.0,0.0331
2454.0,0.0331
2453.0,0.0331
2452.0,0.0331
2451.0,0.033
2450.0,0.033
2449.0,0.0329
2448.0,0.033
2447.0,0.033
2446.0,0.033
2445.0,0.033
2444.0,0.0331
2443.0,0.0331
2442.0,0.0331
2441.0,0.0331
2440.0,0.0331
2439.0,0.0331
2438.0,0.0331
2437.0,0.0331
2436.0,0.033
2435.0,0.033
2434.0,0.033
2433.0,0.033
2432.0,0.033
2431.0,0.033
2430.0,0.033
2429.0,0.033
2428.0,0.033
2427.0,0.0329
2426.0,0.0329
2425.0,0.0329
2424.0,0.0328
2423.0,0.0328
2422.0,0.0328
2421.0,0.0329
2420.0,0.0329
2419.0,0.0329
2418.0,0.0329
2417.0,0.0329
2416.0,0.0329
2415.0,0.0329
2414.0,0.0329
2413.0,0.0329
2412.0,0.0329
2411.0,0.033
2410.0,0.033
2409.0,0.033
2408.0,0.033
2407.0,0.033
2406.0,0.033
2405.0,0.033
2404.0,0.033
2403.0,0.033
2402.0,0.0331
2401.0,0.0331
2400.0,0.0331
2399.0,0.033
2398.0,0.033
2397.0,0.033
2396.0,0.033
2395.0,0.033
2394.0,0.033
2393.0,0.0329
2392.0,0.0329
2391.0,0.0329
2390.0,0.0328
2389.0,0.0328
2388.0,0.0327
2387.0,0.0325
2386.0,0.0322
2385.0,0.032
2384.0,0.0317
2383.0,0.0315
2382.0,0.0314
2381.0,0.0314
2380.0,0.0314
2379.0,0.0313
2378.0,0.0311
2377.0,0.0308
2376.0,0.0303
2375.0,0.0298
2374.0,0.0291
2373.0,0.0284
2372.0,0.0277
2371.0,0.0272
2370.0,0.0271
2369.0,0.0275
2368.0,0.0286
2367.0,0.0296
2366.0,0.0302
2365.0,0.0304
2364.0,0.0306
2363.0,0.0315
2362.0,0.0332
2361.0,0.0349
2360.0,0.0353
2359.0,0.0338
2358.0,0.0315
2357.0,0.0297
2356.0,0.0285
2355.0,0.028
2354.0,0.0287
2353.0,0.0314
2352.0,0.0345
2351.0,0.0361
2350.0,0.0354
2349.0,0.033
2348.0,0.0307
2347.0,0.0293
2346.0,0.0291
2345.0,0.0294
2344.0,0.0296
2343.0,0.0294
2342.0,0.0292
2341.0,0.0293
2340.0,0.0293
2339.0,0.0289
2338.0,0.028
2337.0,0.0274
2336.0,0.0269
2335.0,0.0269
2334.0,0.027
2333.0,0.0273
2332.0,0.0273
2331.0,0.027
2330.0,0.0266
2329.0,0.0263
2328.0,0.0262
2327.0,0.0262
2326.0,0.0265
2325.0,0.0269
2324.0,0.0274
2323.0,0.0278
2322.0,0.0279
2321.0,0.028
2320.0,0.0281
2319.0,0.0284
2318.0,0.0285
2317.0,0.0287
2316.0,0.0288
2315.0,0.0287
2314.0,0.0285
2313.0,0.0283
2312.0,0.0283
2311.0,0.0284
2310.0,0.0286
2309.0,0.0289
2308.0,0.0293
2307.0,0.0296
2306.0,0.0299
2305.0,0.0301
2304.0,0.03
2303.0,0.0299
2302.0,0.0298
2301.0,0.0299
2300.0,0.03
2299.0,0.0303
2298.0,0.0305
2297.0,0.0306
2296.0,0.0308
2295.0,0.031
2294.0,0.0311
2293.0,0.0313
2292.0,0.0315
2291.0,0.0317
2290.0,0.0319
2289.0,0.032
2288.0,0.0321
2287.0,0.0323
2286.0,0.0325
2285.0,0.0326
2284.0,0.0327
2283.0,0.0327
2282.0,0.0327
2281.0,0.0326
2280.0,0.0326
2279.0,0.0325
2278.0,0.0324
2277.0,0.0324
2276.0,0.0325
2275.0,0.0326
2274.0,0.0326
2273.0,0.0326
2272.0,0.0326
2271.0,0.0326
2270.0,0.0326
2269.0,0.0326
2268.0,0.0326
2267.0,0.0326
2266.0,0.0326
2265.0,0.0326
2264.0,0.0326
2263.0,0.0326
2262.0,0.0327
2261.0,0.0327
2260.0,0.0327
2259.0,0.0327
2258.0,0.0327
2257.0,0.0328
2256.0,0.0328
2255.0,0.0329
2254.0,0.0329
2253.0,0.033
2252.0,0.033
2251.0,0.0329
2250.0,0.0329
2249.0,0.0329
2248.0,0.033
2247.0,0.033
2246.0,0.0329
2245.0,0.0329
2244.0,0.033
2243.0,0.033
2242.0,0.033
2241.0,0.033
2240.0,0.033
2239.0,0.033
2238.0,0.033
2237.0,0.0329
2236.0,0.0329
2235.0,0.0329
2234.0,0.033
2233.0,0.033
2232.0,0.0331
2231.0,0.0331
2230.0,0.033
2229.0,0.033
2228.0,0.0329
2227.0,0.0329
2226.0,0.0329
2225.0,0.0329
2224.0,0.033
2223.0,0.0329
2222.0,0.0329
2221.0,0.0329
2220.0,0.0329
2219.0,0.0329
2218.0,0.0329
2217.0,0.0329
2216.0,0.0329
2215.0,0.0329
2214.0,0.0329
2213.0,0.0329
2212.0,0.0329
2211.0,0.0329
2210.0,0.0329
2209.0,0.0329
2208.0,0.0329
2207.0,0.0329
2206.0,0.0329
2205.0,0.0329
2204.0,0.033
2203.0,0.0329
2202.0,0.0329
2201.0,0.0328
2200.0,0.0327
2199.0,0.0327
2198.0,0.0328
2197.0,0.0328
2196.0,0.0329
2195.0,0.0329
2194.0,0.0328
2193.0,0.0328
2192.0,0.0328
2191.0,0.0328
2190.0,0.0329
2189.0,0.0329
2188.0,0.0329
2187.0,0.0328
2186.0,0.0328
2185.0,0.0328
2184.0,0.0329
2183.0,0.0329
2182.0,0.0329
2181.0,0.0329
2180.0,0.0328
2179.0,0.0328
2178.0,0.0327
2177.0,0.0327
2176.0,0.0327
2175.0,0.0327
2174.0,0.0327
2173.0,0.0327
2172.0,0.0327
2171.0,0.0327
2170.0,0.0328
2169.0,0.0328
2168.0,0.0328
2167.0,0.0328
2166.0,0.0328
2165.0,0.0327
2164.0,0.0327
2163.0,0.0327
2162.0,0.0327
2161.0,0.0327
2160.0,0.0327
2159.0,0.0327
2158.0,0.0327
2157.0,0.0327
2156.0,0.0327
2155.0,0.0326
2154.0,0.0326
2153.0,0.0326
2152.0,0.0326
2151.0,0.0327
2150.0,0.0327
2149.0,0.0327
2148.0,0.0327
2147.0,0.0327
2146.0,0.0327
2145.0,0.0328
2144.0,0.0328
2143.0,0.0327
2142.0,0.0327
2141.0,0.0326
2140.0,0.0326
2139.0,0.0326
2138.0,0.0326
2137.0,0.0326
2136.0,0.0326
2135.0,0.0326
2134.0,0.0326
2133.0,0.0325
2132.0,0.0325
2131.0,0.0325
2130.0,0.0325
2129.0,0.0325
2128.0,0.0325
2127.0,0.0325
2126.0,0.0325
2125.0,0.0325
2124.0,0.0325
2123.0,0.0325
2122.0,0.0325
2121.0,0.0325
2120.0,0.0325
2119.0,0.0325
2118.0,0.0325
2117.0,0.0325
2116.0,0.0325
2115.0,0.0325
2114.0,0.0325
2113.0,0.0325
2112.0,0.0325
2111.0,0.0325
2110.0,0.0325
2109.0,0.0325
2108.0,0.0325
2107.0,0.0326
2106.0,0.0326
2105.0,0.0325
2104.0,0.0325
2103.0,0.0324
2102.0,0.0324
2101.0,0.0324
2100.0,0.0324
2099.0,0.0325
2098.0,0.0325
2097.0,0.0325
2096.0,0.0324
2095.0,0.0324
2094.0,0.0324
2093.0,0.0324
2092.0,0.0324
2091.0,0.0325
2090.0,0.0325
2089.0,0.0325
2088.0,0.0325
2087.0,0.0325
2086.0,0.0325
2085.0,0.0324
2084.0,0.0324
2083.0,0.0324
2082.0,0.0324
2081.0,0.0324
2080.0,0.0324
2079.0,0.0324
2078.0,0.0324
2077.0,0.0324
2076.0,0.0324
2075.0,0.0325
2074.0,0.0325
2073.0,0.0325
2072.0,0.0325
2071.0,0.0325
2070.0,0.0325
2069.0,0.0325
2068.0,0.0325
2067.0,0.0325
2066.0,0.0324
2065.0,0.0324
2064.0,0.0324
2063.0,0.0324
2062.0,0.0324
2061.0,0.0324
2060.0,0.0324
2059.0,0.0324
2058.0,0.0324
2057.0,0.0324
2056.0,0.0324
2055.0,0.0324
2054.0,0.0324
2053.0,0.0324
2052.0,0.0324
2051.0,0.0324
2050.0,0.0324
2049.0,0.0324
2048.0,0.0325
2047.0,0.0325
2046.0,0.0324
2045.0,0.0324
2044.0,0.0324
2043.0,0.0324
2042.0,0.0324
2041.0,0.0324
2040.0,0.0324
2039.0,0.0324
2038.0,0.0324
2037.0,0.0324
2036.0,0.0324
2035.0,0.0324
2034.0,0.0325
2033.0,0.0325
2032.0,0.0325
2031.0,0.0325
2030.0,0.0325
2029.0,0.0325
2028.0,0.0324
2027.0,0.0324
2026.0,0.0325
2025.0,0.0325
2024.0,0.0325
2023.0,0.0325
2022.0,0.0325
2021.0,0.0326
2020.0,0.0326
2019.0,0.0325
2018.0,0.0325
2017.0,0.0324
2016.0,0.0323
2015.0,0.0323
2014.0,0.0323
2013.0,0.0323
2012.0,0.0324
2011.0,0.0324
2010.0,0.0324
2009.0,0.0324
2008.0,0.0324
2007.0,0.0324
2006.0,0.0323
2005.0,0.0323
2004.0,0.0323
2003.0,0.0323
2002.0,0.0323
2001.0,0.0323
2000.0,0.0323
1999.0,0.0323
1998.0,0.0323
1997.0,0.0324
1996.0,0.0324
1995.0,0.0325
1994.0,0.0325
1993.0,0.0324
1992.0,0.0325
1991.0,0.0325
1990.0,0.0326
1989.0,0.0327
1988.0,0.0327
1987.0,0.0327
1986.0,0.0328
1985.0,0.0328
1984.0,0.0328
1983.0,0.0328
1982.0,0.0327
1981.0,0.0327
1980.0,0.0327
1979.0,0.0327
1978.0,0.0327
1977.0,0.0327
1976.0,0.0327
1975.0,0.0327
1974.0,0.0328
1973.0,0.033
1972.0,0.0331
1971.0,0.0333
1970.0,0.0334
1969.0,0.0336
1968.0,0.0338
1967.0,0.034
1966.0,0.0342
1965.0,0.0344
1964.0,0.0346
1963.0,0.0347
1962.0,0.0348
1961.0,0.035
1960.0,0.0352
1959.0,0.0353
1958.0,0.0355
1957.0,0.0357
1956.0,0.0358
1955.0,0.0359
1954.0,0.0361
1953.0,0.0363
1952.0,0.0365
1951.0,0.0368
1950.0,0.037
1949.0,0.0373
1948.0,0.0377
1947.0,0.038
1946.0,0.0382
1945.0,0.0384
1944.0,0.0386
1943.0,0.0387
1942.0,0.0387
1941.0,0.0387
1940.0,0.0386
1939.0,0.0383
1938.0,0.038
1937.0,0.0377
1936.0,0.0373
1935.0,0.037
1934.0,0.0366
1933.0,0.0363
1932.0,0.036
1931.0,0.0357
1930.0,0.0354
1929.0,0.0352
1928.0,0.035
1927.0,0.0349
1926.0,0.0348
1925.0,0.0347
1924.0,0.0346
1923.0,0.0344
1922.0,0.0343
1921.0,0.0342
1920.0,0.0341
1919.0,0.0339
1918.0,0.0338
1917.0,0.0337
1916.0,0.0337
1915.0,0.0337
1914.0,0.0336
1913.0,0.0336
1912.0,0.0335
1911.0,0.0335
1910.0,0.0334
1909.0,0.0334
1908.0,0.0334
1907.0,0.0334
1906.0,0.0334
1905.0,0.0334
1904.0,0.0334
1903.0,0.0334
1902.0,0.0335
1901.0,0.0336
1900.0,0.0337
1899.0,0.0338
1898.0,0.0339
1897.0,0.0341
1896.0,0.0342
1895.0,0.0343
1894.0,0.0345
1893.0,0.0348
1892.0,0.035
1891.0,0.0351
1890.0,0.0353
1889.0,0.0355
1888.0,0.0357
1887.0,0.0359
1886.0,0.036
1885.0,0.0362
1884.0,0.0363
1883.0,0.0364
1882.0,0.0365
1881.0,0.0365
1880.0,0.0367
1879.0,0.0368
1878.0,0.0369
1877.0,0.0371
1876.0,0.0373
1875.0,0.0374
1874.0,0.0376
1873.0,0.0377
1872.0,0.0379
1871.0,0.0379
1870.0,0.0379
1869.0,0.038
1868.0,0.038
1867.0,0.038
1866.0,0.0378
1865.0,0.0376
1864.0,0.0374
1863.0,0.0371
1862.0,0.0368
1861.0,0.0366
1860.0,0.0363
1859.0,0.036
1858.0,0.0357
1857.0,0.0355
1856.0,0.0353
1855.0,0.0351
1854.0,0.0349
1853.0,0.0347
1852.0,0.0346
1851.0,0.0345
1850.0,0.0344
1849.0,0.0343
1848.0,0.0342
1847.0,0.0342
1846.0,0.0341
1845.0,0.0341
1844.0,0.034
1843.0,0.034
1842.0,0.034
1841.0,0.034
1840.0,0.0339
1839.0,0.0338
1838.0,0.0337
1837.0,0.0337
1836.0,0.0337
1835.0,0.0337
1834.0,0.0338
1833.0,0.0339
1832.0,0.034
1831.0,0.0341
1830.0,0.0342
1829.0,0.0344
1828.0,0.0345
1827.0,0.0347
1826.0,0.0348
1825.0,0.0349
1824.0,0.0351
1823.0,0.0352
1822.0,0.0352
1821.0,0.0353
1820.0,0.0354
1819.0,0.0356
1818.0,0.0357
1817.0,0.0359
1816.0,0.0361
1815.0,0.0362
1814.0,0.0364
1813.0,0.0366
1812.0,0.0369
1811.0,0.0371
1810.0,0.0373
1809.0,0.0375
1808.0,0.0377
1807.0,0.0379
1806.0,0.0381
1805.0,0.0383
1804.0,0.0385
1803.0,0.0386
1802.0,0.0386
1801.0,0.0386
1800.0,0.0385
1799.0,0.0384
1798.0,0.0382
1797.0,0.038
1796.0,0.0378
1795.0,0.0376
1794.0,0.0372
1793.0,0.0368
1792.0,0.0364
1791.0,0.036
1790.0,0.0358
1789.0,0.0356
1788.0,0.0354
1787.0,0.0353
1786.0,0.0352
1785.0,0.0351
1784.0,0.035
1783.0,0.0349
1782.0,0.0349
1781.0,0.0348
1780.0,0.0348
1779.0,0.0348
1778.0,0.0348
1777.0,0.0347
1776.0,0.0347
1775.0,0.0347
1774.0,0.0346
1773.0,0.0345
1772.0,0.0347
1771.0,0.0349
1770.0,0.035
1769.0,0.0349
1768.0,0.0348
1767.0,0.0348
1766.0,0.0347
1765.0,0.0348
1764.0,0.0348
1763.0,0.0349
1762.0,0.035
1761.0,0.0352
1760.0,0.0355
1759.0,0.0357
1758.0,0.0359
1757.0,0.0361
1756.0,0.0364
1755.0,0.0366
1754.0,0.0368
1753.0,0.0371
1752.0,0.0374
1751.0,0.0378
1750.0,0.0381
1749.0,0.0384
1748.0,0.0386
1747.0,0.0387
1746.0,0.0387
1745.0,0.0387
1744.0,0.0387
1743.0,0.0387
1742.0,0.0387
1741.0,0.0386
1740.0,0.0384
1739.0,0.0383
1738.0,0.0382
1737.0,0.0383
1736.0,0.0382
1735.0,0.038
1734.0,0.0379
1733.0,0.0379
1732.0,0.0378
1731.0,0.0376
1730.0,0.0374
1729.0,0.0373
1728.0,0.0372
1727.0,0.0372
1726.0,0.0371
1725.0,0.0369
1724.0,0.0368
1723.0,0.0367
1722.0,0.0366
1721.0,0.0366
1720.0,0.0367
1719.0,0.0366
1718.0,0.0366
1717.0,0.0369
1716.0,0.037
1715.0,0.037
1714.0,0.0369
1713.0,0.0369
1712.0,0.0368
1711.0,0.0368
1710.0,0.0368
1709.0,0.0369
1708.0,0.037
1707.0,0.0371
1706.0,0.0371
1705.0,0.0373
1704.0,0.0374
1703.0,0.0376
1702.0,0.0376
1701.0,0.0376
1700.0,0.0379
1699.0,0.0382
1698.0,0.0384
1697.0,0.0386
1696.0,0.0389
1695.0,0.0391
1694.0,0.0392
1693.0,0.0393
1692.0,0.0394
1691.0,0.0396
1690.0,0.0398
1689.0,0.04
1688.0,0.0403
1687.0,0.0406
1686.0,0.0408
1685.0,0.0413
1684.0,0.0421
1683.0,0.0426
1682.0,0.0427
1681.0,0.0428
1680.0,0.043
1679.0,0.0432
1678.0,0.0433
1677.0,0.0434
1676.0,0.0436
1675.0,0.044
1674.0,0.0444
1673.0,0.0446
1672.0,0.0448
1671.0,0.0451
1670.0,0.0456
1669.0,0.0461
1668.0,0.0464
1667.0,0.0465
1666.0,0.0465
1665.0,0.0466
1664.0,0.0467
1663.0,0.047
1662.0,0.0473
1661.0,0.0474
1660.0,0.0475
1659.0,0.0475
1658.0,0.0474
1657.0,0.0474
1656.0,0.0475
1655.0,0.0476
1654.0,0.0477
1653.0,0.0485
1652.0,0.0489
1651.0,0.0488
1650.0,0.0488
1649.0,0.0489
1648.0,0.049
1647.0,0.0495
1646.0,0.05
1645.0,0.0502
1644.0,0.0503
1643.0,0.0505
1642.0,0.0505
1641.0,0.0505
1640.0,0.0505
1639.0,0.0503
1638.0,0.0501
1637.0,0.0498
1636.0,0.0496
1635.0,0.0494
1634.0,0.0489
1633.0,0.0484
1632.0,0.0479
1631.0,0.0475
1630.0,0.0471
1629.0,0.0468
1628.0,0.0466
1627.0,0.0464
1626.0,0.0462
1625.0,0.046
1624.0,0.0458
1623.0,0.0457
1622.0,0.0456
1621.0,0.0453
1620.0,0.0451
1619.0,0.0449
1618.0,0.0448
1617.0,0.0448
1616.0,0.045
1615.0,0.0452
1614.0,0.0453
1613.0,0.0455
1612.0,0.046
1611.0,0.0469
1610.0,0.0484
1609.0,0.0507
1608.0,0.0539
1607.0,0.0579
1606.0,0.0624
1605.0,0.0673
1604.0,0.0724
1603.0,0.0769
1602.0,0.0798
1601.0,0.0805
1600.0,0.0791
1599.0,0.076
1598.0,0.072
1597.0,0.0677
1596.0,0.0638
1595.0,0.0605
1594.0,0.0578
1593.0,0.0557
1592.0,0.0539
1591.0,0.0525
1590.0,0.0515
1589.0,0.0509
1588.0,0.051
1587.0,0.0518
1586.0,0.053
1585.0,0.0544
1584.0,0.0553
1583.0,0.0553
1582.0,0.0541
1581.0,0.0522
1580.0,0.0502
1579.0,0.0485
1578.0,0.047
1577.0,0.0454
1576.0,0.0443
1575.0,0.0435
1574.0,0.0429
1573.0,0.0423
1572.0,0.0418
1571.0,0.0412
1570.0,0.0407
1569.0,0.0403
1568.0,0.0402
1567.0,0.04
1566.0,0.0397
1565.0,0.0393
1564.0,0.0391
1563.0,0.0389
1562.0,0.0389
1561.0,0.0388
1560.0,0.0385
1559.0,0.0388
1558.0,0.0391
1557.0,0.0389
1556.0,0.0388
1555.0,0.0388
1554.0,0.0389
1553.0,0.039
1552.0,0.0391
1551.0,0.0391
1550.0,0.0392
1549.0,0.0393
1548.0,0.0395
1547.0,0.0397
1546.0,0.0399
1545.0,0.0399
1544.0,0.04
1543.0,0.0401
1542.0,0.04
1541.0,0.0401
1540.0,0.0403
1539.0,0.0402
1538.0,0.0398
1537.0,0.0395
1536.0,0.0392
1535.0,0.0389
1534.0,0.0385
1533.0,0.0382
1532.0,0.0379
1531.0,0.0376
1530.0,0.0373
1529.0,0.0371
1528.0,0.0368
1527.0,0.0365
1526.0,0.0362
1525.0,0.0359
1524.0,0.0358
1523.0,0.0358
1522.0,0.0358
1521.0,0.0358
1520.0,0.0357
1519.0,0.0356
1518.0,0.0354
1517.0,0.0351
1516.0,0.035
1515.0,0.0348
1514.0,0.0346
1513.0,0.0344
1512.0,0.0344
1511.0,0.0345
1510.0,0.0346
1509.0,0.0347
1508.0,0.0347
1507.0,0.0351
1506.0,0.0351
1505.0,0.0349
1504.0,0.0351
1503.0,0.0357
1502.0,0.0366
1501.0,0.0384
1500.0,0.0416
1499.0,0.0473
1498.0,0.058
1497.0,0.0756
1496.0,0.097
1495.0,0.1159
1494.0,0.1289
1493.0,0.1355
1492.0,0.1345
1491.0,0.1243
1490.0,0.1074
1489.0,0.0914
1488.0,0.0802
1487.0,0.0725
1486.0,0.0666
1485.0,0.062
1484.0,0.0583
1483.0,0.0551
1482.0,0.0522
1481.0,0.0499
1480.0,0.0484
1479.0,0.0472
1478.0,0.0462
1477.0,0.0454
1476.0,0.0448
1475.0,0.0442
1474.0,0.0437
1473.0,0.0435
1472.0,0.0436
1471.0,0.0435
1470.0,0.0435
1469.0,0.0435
1468.0,0.0437
1467.0,0.0438
1466.0,0.0438
1465.0,0.044
1464.0,0.0444
1463.0,0.0447
1462.0,0.045
1461.0,0.0457
1460.0,0.047
1459.0,0.0503
1458.0,0.0601
1457.0,0.0793
1456.0,0.0992
1455.0,0.1141
1454.0,0.1257
1453.0,0.1342
1452.0,0.1376
1451.0,0.1356
1450.0,0.1298
1449.0,0.1224
1448.0,0.1147
1447.0,0.1081
1446.0,0.103
1445.0,0.0986
1444.0,0.0942
1443.0,0.0898
1442.0,0.0858
1441.0,0.0823
1440.0,0.0793
1439.0,0.0764
1438.0,0.0732
1437.0,0.0696
1436.0,0.066
1435.0,0.0633
1434.0,0.0611
1433.0,0.0591
1432.0,0.0571
1431.0,0.0551
1430.0,0.0535
1429.0,0.0521
1428.0,0.051
1427.0,0.0501
1426.0,0.0495
1425.0,0.0488
1424.0,0.0482
1423.0,0.0477
1422.0,0.0473
1421.0,0.047
1420.0,0.0466
1419.0,0.0463
1418.0,0.0462
1417.0,0.0459
1416.0,0.0454
1415.0,0.0451
1414.0,0.0447
1413.0,0.0445
1412.0,0.0442
1411.0,0.044
1410.0,0.0439
1409.0,0.0437
1408.0,0.0435
1407.0,0.0434
1406.0,0.0433
1405.0,0.0433
1404.0,0.0432
1403.0,0.0432
1402.0,0.0432
1401.0,0.0432
1400.0,0.0433
1399.0,0.0434
1398.0,0.0436
1397.0,0.0436
1396.0,0.0436
1395.0,0.0437
1394.0,0.0439
1393.0,0.0442
1392.0,0.0446
1391.0,0.0451
1390.0,0.0457
1389.0,0.0464
1388.0,0.0472
1387.0,0.048
1386.0,0.0488
1385.0,0.0494
1384.0,0.05
1383.0,0.0507
1382.0,0.0514
1381.0,0.0523
1380.0,0.0531
1379.0,0.054
1378.0,0.0548
1377.0,0.0555
1376.0,0.0561
1375.0,0.0567
1374.0,0.0571
1373.0,0.0573
1372.0,0.0572
1371.0,0.057
1370.0,0.0568
1369.0,0.0566
1368.0,0.0564
1367.0,0.0563
1366.0,0.0561
1365.0,0.056
1364.0,0.0558
1363.0,0.0556
1362.0,0.0554
1361.0,0.055
1360.0,0.0545
1359.0,0.054
1358.0,0.0535
1357.0,0.0531
1356.0,0.0528
1355.0,0.0526
1354.0,0.0524
1353.0,0.0524
1352.0,0.0523
1351.0,0.0522
1350.0,0.0521
1349.0,0.052
1348.0,0.0518
1347.0,0.0516
1346.0,0.0513
1345.0,0.051
1344.0,0.0507
1343.0,0.0504
1342.0,0.0501
1341.0,0.0499
1340.0,0.0497
1339.0,0.0496
1338.0,0.0495
1337.0,0.0494
1336.0,0.0494
1335.0,0.0496
1334.0,0.05
1333.0,0.0504
1332.0,0.0509
1331.0,0.0513
1330.0,0.0517
1329.0,0.0519
1328.0,0.0519
1327.0,0.0518
1326.0,0.0516
1325.0,0.0513
1324.0,0.0511
1323.0,0.0508
1322.0,0.0507
1321.0,0.0506
1320.0,0.0505
1319.0,0.0506
1318.0,0.0507
1317.0,0.0509
1316.0,0.0511
1315.0,0.0513
1314.0,0.0515
1313.0,0.0516
1312.0,0.0516
1311.0,0.0516
1310.0,0.0515
1309.0,0.0513
1308.0,0.0511
1307.0,0.0509
1306.0,0.0506
1305.0,0.0504
1304.0,0.0501
1303.0,0.0498
1302.0,0.0495
1301.0,0.0492
1300.0,0.0489
1299.0,0.0487
1298.0,0.0486
1297.0,0.0484
1296.0,0.0483
1295.0,0.0482
1294.0,0.0481
1293.0,0.048
1292.0,0.0479
1291.0,0.0477
1290.0,0.0476
1289.0,0.0475
1288.0,0.0474
1287.0,0.0474
1286.0,0.0473
1285.0,0.0472
1284.0,0.0472
1283.0,0.0471
1282.0,0.0471
1281.0,0.0471
1280.0,0.0469
1279.0,0.0467
1278.0,0.0465
1277.0,0.0463
1276.0,0.046
1275.0,0.0458
1274.0,0.0455
1273.0,0.0453
1272.0,0.045
1271.0,0.0448
1270.0,0.0447
1269.0,0.0446
1268.0,0.0444
1267.0,0.0443
1266.0,0.0442
1265.0,0.0441
1264.0,0.044
1263.0,0.0439
1262.0,0.0439
1261.0,0.0438
1260.0,0.0437
1259.0,0.0437
1258.0,0.0436
1257.0,0.0436
1256.0,0.0436
1255.0,0.0436
1254.0,0.0437
1253.0,0.0437
1252.0,0.0437
1251.0,0.0438
1250.0,0.0439
1249.0,0.044
1248.0,0.0441
1247.0,0.0442
1246.0,0.0443
1245.0,0.0443
1244.0,0.0443
1243.0,0.0442
1242.0,0.0441
1241.0,0.0441
1240.0,0.0441
1239.0,0.0441
1238.0,0.0441
1237.0,0.0441
1236.0,0.0441
1235.0,0.0441
1234.0,0.044
1233.0,0.044
1232.0,0.0439
1231.0,0.044
1230.0,0.044
1229.0,0.0441
1228.0,0.0442
1227.0,0.0443
1226.0,0.0444
1225.0,0.0445
1224.0,0.0445
1223.0,0.0446
1222.0,0.0447
1221.0,0.0447
1220.0,0.0447
1219.0,0.0448
1218.0,0.0448
1217.0,0.045
1216.0,0.0451
1215.0,0.0452
1214.0,0.0454
1213.0,0.0456
1212.0,0.0459
1211.0,0.0462
1210.0,0.0464
1209.0,0.0467
1208.0,0.0471
1207.0,0.0474
1206.0,0.0479
1205.0,0.0483
1204.0,0.0489
1203.0,0.0494
1202.0,0.05
1201.0,0.0505
1200.0,0.0509
1199.0,0.0513
1198.0,0.0517
1197.0,0.052
1196.0,0.0523
1195.0,0.0526
1194.0,0.0528
1193.0,0.053
1192.0,0.0533
1191.0,0.0536
1190.0,0.0539
1189.0,0.0544
1188.0,0.055
1187.0,0.0557
1186.0,0.0566
1185.0,0.0577
1184.0,0.0589
1183.0,0.06
1182.0,0.0609
1181.0,0.0613
1180.0,0.0612
1179.0,0.0605
1178.0,0.0594
1177.0,0.0582
1176.0,0.0571
1175.0,0.0562
1174.0,0.0556
1173.0,0.0552
1172.0,0.0549
1171.0,0.0547
1170.0,0.0546
1169.0,0.0546
1168.0,0.0545
1167.0,0.0545
1166.0,0.0546
1165.0,0.0547
1164.0,0.055
1163.0,0.0554
1162.0,0.056
1161.0,0.0568
1160.0,0.0579
1159.0,0.0593
1158.0,0.0608
1157.0,0.0624
1156.0,0.0637
1155.0,0.0645
1154.0,0.0647
1153.0,0.0641
1152.0,0.063
1151.0,0.0616
1150.0,0.0601
1149.0,0.0588
1148.0,0.0578
1147.0,0.0571
1146.0,0.0564
1145.0,0.0559
1144.0,0.0554
1143.0,0.055
1142.0,0.0546
1141.0,0.0543
1140.0,0.054
1139.0,0.0537
1138.0,0.0535
1137.0,0.0533
1136.0,0.0531
1135.0,0.0529
1134.0,0.0527
1133.0,0.0525
1132.0,0.0523
1131.0,0.0522
1130.0,0.0521
1129.0,0.0519
1128.0,0.0518
1127.0,0.0517
1126.0,0.0516
1125.0,0.0515
1124.0,0.0514
1123.0,0.0514
1122.0,0.0514
1121.0,0.0515
1120.0,0.0517
1119.0,0.0519
1118.0,0.0521
1117.0,0.0522
1116.0,0.0523
1115.0,0.0525
1114.0,0.0525
1113.0,0.0525
1112.0,0.0523
1111.0,0.0521
1110.0,0.0519
1109.0,0.0516
1108.0,0.0514
1107.0,0.0512
1106.0,0.051
1105.0,0.0508
1104.0,0.0506
1103.0,0.0505
1102.0,0.0504
1101.0,0.0504
1100.0,0.0503
1099.0,0.0503
1098.0,0.0503
1097.0,0.0503
1096.0,0.0503
1095.0,0.0502
1094.0,0.0501
1093.0,0.05
1092.0,0.0499
1091.0,0.0497
1090.0,0.0496
1089.0,0.0495
1088.0,0.0494
1087.0,0.0495
1086.0,0.0497
1085.0,0.0499
1084.0,0.0502
1083.0,0.0504
1082.0,0.0508
1081.0,0.0511
1080.0,0.0515
1079.0,0.0519
1078.0,0.0525
1077.0,0.0532
1076.0,0.054
1075.0,0.055
1074.0,0.0561
1073.0,0.0572
1072.0,0.0582
1071.0,0.0591
1070.0,0.0596
1069.0,0.0598
1068.0,0.0594
1067.0,0.0587
1066.0,0.0579
1065.0,0.0569
1064.0,0.056
1063.0,0.055
1062.0,0.054
1061.0,0.053
1060.0,0.0519
1059.0,0.0508
1058.0,0.0499
1057.0,0.0492
1056.0,0.0486
1055.0,0.0481
1054.0,0.0476
1053.0,0.0471
1052.0,0.0465
1051.0,0.046
1050.0,0.0456
1049.0,0.0453
1048.0,0.045
1047.0,0.0446
1046.0,0.0443
1045.0,0.044
1044.0,0.0438
1043.0,0.0437
1042.0,0.0437
1041.0,0.0438
1040.0,0.0441
1039.0,0.0447
1038.0,0.0458
1037.0,0.0476
1036.0,0.0503
1035.0,0.0538
1034.0,0.0582
1033.0,0.0632
1032.0,0.0683
1031.0,0.0729
1030.0,0.0765
1029.0,0.0789
1028.0,0.0798
1027.0,0.0791
1026.0,0.0771
1025.0,0.0744
1024.0,0.0714
1023.0,0.0686
1022.0,0.0661
1021.0,0.064
1020.0,0.0623
1019.0,0.0607
1018.0,0.0593
1017.0,0.0581
1016.0,0.0571
1015.0,0.0562
1014.0,0.0554
1013.0,0.0548
1012.0,0.0542
1011.0,0.0538
1010.0,0.0534
1009.0,0.0532
1008.0,0.0531
1007.0,0.0534
1006.0,0.0539
1005.0,0.0545
1004.0,0.055
1003.0,0.0551
1002.0,0.0546
1001.0,0.0536
1000.0,0.0524
999.0,0.0512
998.0,0.0503
997.0,0.0496
996.0,0.0491
995.0,0.0489
994.0,0.0487
993.0,0.0486
992.0,0.0485
991.0,0.0486
990.0,0.0487
989.0,0.0488
988.0,0.049
987.0,0.0494
986.0,0.0498
985.0,0.0503
984.0,0.0508
983.0,0.0512
982.0,0.0516
981.0,0.0519
980.0,0.0519
979.0,0.0518
978.0,0.0516
977.0,0.0513
976.0,0.0509
975.0,0.0505
974.0,0.0501
973.0,0.05
972.0,0.0501
971.0,0.0504
970.0,0.0509
969.0,0.0515
968.0,0.0522
967.0,0.053
966.0,0.0537
965.0,0.0541
964.0,0.0543
963.0,0.0542
962.0,0.0537
961.0,0.0531
960.0,0.0523
959.0,0.0515
958.0,0.0507
957.0,0.05
956.0,0.0495
955.0,0.0491
954.0,0.0488
953.0,0.0486
952.0,0.0486
951.0,0.0486
950.0,0.0487
949.0,0.0489
948.0,0.0492
947.0,0.0496
946.0,0.0499
945.0,0.0502
944.0,0.0504
943.0,0.0506
942.0,0.0505
941.0,0.0503
940.0,0.05
939.0,0.0495
938.0,0.049
937.0,0.0485
936.0,0.048
935.0,0.0475
934.0,0.047
933.0,0.0466
932.0,0.0462
931.0,0.0458
930.0,0.0455
929.0,0.0452
928.0,0.0451
927.0,0.045
926.0,0.045
925.0,0.0451
924.0,0.0452
923.0,0.0453
922.0,0.0455
921.0,0.0458
920.0,0.0461
919.0,0.0466
918.0,0.0473
917.0,0.0483
916.0,0.0495
915.0,0.0511
914.0,0.0528
913.0,0.0548
912.0,0.057
911.0,0.0593
910.0,0.0616
909.0,0.0638
908.0,0.0655
907.0,0.0667
906.0,0.0672
905.0,0.067
904.0,0.0661
903.0,0.0645
902.0,0.0625
901.0,0.0603
900.0,0.058
899.0,0.0559
898.0,0.054
897.0,0.0524
896.0,0.0511
895.0,0.05
894.0,0.0492
893.0,0.0485
892.0,0.0479
891.0,0.0475
890.0,0.0471
889.0,0.0468
888.0,0.0465
887.0,0.0462
886.0,0.046
885.0,0.0458
884.0,0.0456
883.0,0.0453
882.0,0.045
881.0,0.0447
880.0,0.0445
879.0,0.0443
878.0,0.0443
877.0,0.0443
876.0,0.0443
875.0,0.0442
874.0,0.0441
873.0,0.0439
872.0,0.0438
871.0,0.0436
870.0,0.0434
869.0,0.0433
868.0,0.0431
867.0,0.0429
866.0,0.0428
865.0,0.0427
864.0,0.0426
863.0,0.0426
862.0,0.0426
861.0,0.0425
860.0,0.0424
859.0,0.0423
858.0,0.0423
857.0,0.0423
856.0,0.0424
855.0,0.0425
854.0,0.0427
853.0,0.0429
852.0,0.0432
851.0,0.0438
850.0,0.0445
849.0,0.0454
848.0,0.0463
847.0,0.0473
846.0,0.0483
845.0,0.0492
844.0,0.05
843.0,0.0505
842.0,0.0508
841.0,0.051
840.0,0.0509
839.0,0.0505
838.0,0.0498
837.0,0.0488
836.0,0.0477
835.0,0.0465
834.0,0.0454
833.0,0.0443
832.0,0.0434
831.0,0.0427
830.0,0.0422
829.0,0.0418
828.0,0.0415
827.0,0.0412
826.0,0.041
825.0,0.0408
824.0,0.0406
823.0,0.0404
822.0,0.0402
821.0,0.0402
820.0,0.0401
819.0,0.04
818.0,0.0398
817.0,0.0395
816.0,0.0393
815.0,0.0391
814.0,0.0391
813.0,0.0391
812.0,0.0391
811.0,0.0389
810.0,0.0388
809.0,0.0387
808.0,0.0385
807.0,0.0383
806.0,0.0381
805.0,0.0381
804.0,0.038
803.0,0.038
802.0,0.0378
801.0,0.0377
800.0,0.0377
799.0,0.0378
798.0,0.0379
797.0,0.038
796.0,0.0382
795.0,0.0385
794.0,0.0388
793.0,0.0391
792.0,0.0396
791.0,0.0401
790.0,0.0408
789.0,0.0415
788.0,0.0421
787.0,0.0428
786.0,0.0435
785.0,0.0443
784.0,0.0453
783.0,0.0464
782.0,0.0478
781.0,0.0495
780.0,0.0516
779.0,0.0539
778.0,0.0566
777.0,0.0597
776.0,0.0632
775.0,0.0673
774.0,0.0718
773.0,0.0767
772.0,0.0822
771.0,0.0882
770.0,0.0944
769.0,0.1009
768.0,0.1074
767.0,0.1137
766.0,0.1199
765.0,0.126
764.0,0.1324
763.0,0.1388
762.0,0.1453
761.0,0.1517
760.0,0.158
759.0,0.1638
758.0,0.1689
757.0,0.173
756.0,0.176
755.0,0.1777
754.0,0.1782
753.0,0.1781
752.0,0.178
751.0,0.1781
750.0,0.1784
749.0,0.1788
748.0,0.1787
747.0,0.1772
746.0,0.1738
745.0,0.1683
744.0,0.1609
743.0,0.1522
742.0,0.143
741.0,0.134
740.0,0.1258
739.0,0.1181
738.0,0.111
737.0,0.1041
736.0,0.0974
735.0,0.091
734.0,0.0849
733.0,0.0793
732.0,0.0742
731.0,0.0697
730.0,0.0656
729.0,0.0621
728.0,0.0591
727.0,0.0563
726.0,0.0539
725.0,0.0517
724.0,0.0496
723.0,0.0475
722.0,0.0452
721.0,0.0431
720.0,0.0414
719.0,0.04
718.0,0.0388
717.0,0.0377
716.0,0.0368
715.0,0.0364
714.0,0.0366
713.0,0.038
712.0,0.0409
711.0,0.0461
710.0,0.0541
709.0,0.0652
708.0,0.08
707.0,0.0987
706.0,0.1215
705.0,0.1485
704.0,0.1799
703.0,0.2157
702.0,0.2562
701.0,0.302
700.0,0.3531
699.0,0.4082
698.0,0.4632
697.0,0.5102
696.0,0.5366
695.0,0.5295
694.0,0.4895
693.0,0.4314
692.0,0.3709
691.0,0.3167
690.0,0.2718
689.0,0.2368
688.0,0.2108
687.0,0.1918
686.0,0.1779
685.0,0.1676
684.0,0.1597
683.0,0.153
682.0,0.147
681.0,0.1417
680.0,0.1369
679.0,0.1323
678.0,0.1277
677.0,0.1237
676.0,0.1205
675.0,0.1181
674.0,0.1165
673.0,0.1157
672.0,0.1157
671.0,0.1158
670.0,0.1157
669.0,0.1146
668.0,0.1118
667.0,0.108
666.0,0.1045
665.0,0.1017
664.0,0.0995
663.0,0.0979
662.0,0.0968
661.0,0.0957
660.0,0.0943
659.0,0.0925
658.0,0.0906
657.0,0.0892
656.0,0.0881
655.0,0.0871
654.0,0.0861
653.0,0.0855
652.0,0.0851
651.0,0.0847
650.0,0.0841
649.0,0.0834
648.0,0.0829
647.0,0.0823
646.0,0.0814
645.0,0.0805
644.0,0.0799
643.0,0.0796
642.0,0.0795
641.0,0.0795
640.0,0.0798
639.0,0.0807
638.0,0.0822
637.0,0.0843
636.0,0.0865
635.0,0.0878
634.0,0.0879
633.0,0.087
632.0,0.086
631.0,0.0851
630.0,0.0847
629.0,0.0847
628.0,0.0849
627.0,0.085
626.0,0.0849
625.0,0.0846
624.0,0.0843
623.0,0.0841
622.0,0.0841
621.0,0.0842
620.0,0.0842
619.0,0.0839
618.0,0.0832
617.0,0.0823
616.0,0.0814
615.0,0.0804
614.0,0.0794
613.0,0.0788
612.0,0.0787
611.0,0.0789
610.0,0.0789
609.0,0.0784
608.0,0.0775
607.0,0.0766
606.0,0.0761
605.0,0.0763
604.0,0.0769
603.0,0.0774
602.0,0.0775
601.0,0.0775
600.0,0.0779
