cm-1,A
4000.0,0.0655520510510299
3999.0,0.06560255921901192
3998.0,0.06565307326174441
3997.0,0.06575411897692884
3996.0,0.06580465065211571
3995.0,0.0658551882075229
3994.0,0.06590573164451952
3993.0,0.0658551882075229
3992.0,0.0658551882075229
3991.0,0.06600683616875758
3990.0,0.06625970050306473
3989.0,0.0665127121512945
3988.0,0.06661395809694559
3987.0,0.0665127121512945
3986.0,0.0663102910421054
3985.0,0.06610796423578891
3984.0,0.06590573164451952
3983.0,0.0658551882075229
3982.0,0.06590573164451952
3981.0,0.06590573164451952
3980.0,0.06590573164451952
3979.0,0.0659562809644747
3978.0,0.06605739725873905
3977.0,0.06620911585658007
3976.0,0.06646209802829528
3975.0,0.06671522765130522
3974.0,0.06681652082538614
3973.0,0.06681652082538614
3972.0,0.06671522765130522
3971.0,0.06656333217371957
3970.0,0.06646209802829528
3969.0,0.06636088747507496
3968.0,0.06625970050306473
3967.0,0.06615853710127872
3966.0,0.06615853710127872
3965.0,0.0663102910421054
3964.0,0.06661395809694559
3963.0,0.06691783763020887
3962.0,0.06712054217620067
3961.0,0.06712054217620067
3960.0,0.06691783763020887
3959.0,0.06661395809694559
3958.0,0.06641148980334699
3957.0,0.06625970050306473
3956.0,0.06615853710127872
3955.0,0.06615853710127872
3954.0,0.06615853710127872
3953.0,0.06615853710127872
3952.0,0.06610796423578891
3951.0,0.06600683616875758
3950.0,0.06590573164451952
3949.0,0.06590573164451952
3948.0,0.06610796423578891
3947.0,0.06636088747507496
3946.0,0.0665127121512945
3945.0,0.06656333217371957
3944.0,0.06656333217371957
3943.0,0.06661395809694559
3942.0,0.0666645899223488
3941.0,0.0666645899223488
3940.0,0.06661395809694559
3939.0,0.06661395809694559
3938.0,0.06661395809694559
3937.0,0.0666645899223488
3936.0,0.06661395809694559
3935.0,0.06656333217371957
3934.0,0.0665127121512945
3933.0,0.0663102910421054
3932.0,0.06605739725873905
3931.0,0.06590573164451952
3930.0,0.0659562809644747
3929.0,0.06610796423578891
3928.0,0.06620911585658007
3927.0,0.06620911585658007
3926.0,0.06620911585658007
3925.0,0.06620911585658007
3924.0,0.06610796423578891
3923.0,0.06605739725873905
3922.0,0.06610796423578891
3921.0,0.06641148980334699
3920.0,0.0666645899223488
3919.0,0.06686717627326577
3918.0,0.06696850489759454
3917.0,0.06712054217620067
3916.0,0.06722192993944942
3915.0,0.06727263269847072
3914.0,0.06727263269847072
3913.0,0.06742477650170953
3912.0,0.0676277178520861
3911.0,0.06772922410050963
3910.0,0.0676277178520861
3909.0,0.06742477650170953
3908.0,0.0671712330991534
3907.0,0.06681652082538614
3906.0,0.06641148980334699
3905.0,0.06600683616875758
3904.0,0.0655520510510299
3903.0,0.06514819703433927
3902.0,0.06504729218214189
3901.0,0.06545105233385295
3900.0,0.06625970050306473
3899.0,0.06696850489759454
3898.0,0.06722192993944942
3897.0,0.0671712330991534
3896.0,0.06712054217620067
3895.0,0.06706985716921054
3894.0,0.06686717627326577
3893.0,0.0666645899223488
3892.0,0.06676587128519196
3891.0,0.06712054217620067
3890.0,0.06706985716921054
3889.0,0.06656333217371957
3888.0,0.06641148980334699
3887.0,0.06706985716921054
3886.0,0.06788152797087754
3885.0,0.06813548650796819
3884.0,0.0675769736232612
3883.0,0.0666645899223488
3882.0,0.06625970050306473
3881.0,0.0665127121512945
3880.0,0.06696850489759454
3879.0,0.06712054217620067
3878.0,0.06681652082538614
3877.0,0.06656333217371957
3876.0,0.06661395809694559
3875.0,0.06671522765130522
3874.0,0.06656333217371957
3873.0,0.06610796423578891
3872.0,0.06580465065211571
3871.0,0.06615853710127872
3870.0,0.06676587128519196
3869.0,0.06671522765130522
3868.0,0.0658551882075229
3867.0,0.06529959828457499
3866.0,0.06570359318059427
3865.0,0.0663102910421054
3864.0,0.0665127121512945
3863.0,0.06656333217371957
3862.0,0.06691783763020887
3861.0,0.06737405597821788
3860.0,0.0676277178520861
3859.0,0.06747550294945781
3858.0,0.06701917807680191
3857.0,0.06625970050306473
3856.0,0.06545105233385295
3855.0,0.06489597884855036
3854.0,0.06504729218214189
3853.0,0.06600683616875758
3852.0,0.0663102910421054
3851.0,0.06550154875643233
3850.0,0.06560255921901192
3849.0,0.06686717627326577
3848.0,0.06772922410050963
3847.0,0.06793230779927839
3846.0,0.06777998612288094
3845.0,0.0675769736232612
3844.0,0.06737405597821788
3843.0,0.06712054217620067
3842.0,0.06676587128519196
3841.0,0.0665127121512945
3840.0,0.0665127121512945
3839.0,0.0666645899223488
3838.0,0.06676587128519196
3837.0,0.06656333217371957
3836.0,0.06605739725873905
3835.0,0.06575411897692884
3834.0,0.06590573164451952
3833.0,0.06646209802829528
3832.0,0.06701917807680191
3831.0,0.06732334137759932
3830.0,0.06737405597821788
3829.0,0.06752623532284674
3828.0,0.06798309356579857
3827.0,0.0684912781333824
3826.0,0.06859298644342648
3825.0,0.06793230779927839
3824.0,0.06696850489759454
3823.0,0.06641148980334699
3822.0,0.06656333217371957
3821.0,0.0671712330991534
3820.0,0.06742477650170953
3819.0,0.06681652082538614
3818.0,0.0666645899223488
3817.0,0.06767846801070698
3816.0,0.06869471857832687
3815.0,0.06874559358358656
3814.0,0.06803388527182741
3813.0,0.06767846801070698
3812.0,0.06813548650796819
3811.0,0.0685421293109949
3810.0,0.06844043290919477
3809.0,0.06823711151882228
3808.0,0.06844043290919477
3807.0,0.06884736147670667
3806.0,0.0685421293109949
3805.0,0.06732334137759932
3804.0,0.06625970050306473
3803.0,0.06615853710127872
3802.0,0.06671522765130522
3801.0,0.0671712330991534
3800.0,0.06701917807680191
3799.0,0.06656333217371957
3798.0,0.06706985716921054
3797.0,0.06828793294324442
3796.0,0.06915280831750303
3795.0,0.06930561233546473
3794.0,0.06915280831750303
3793.0,0.0692037370166998
3792.0,0.06940751155740177
3791.0,0.06961138175567827
3790.0,0.06966236426227002
3789.0,0.06961138175567827
3788.0,0.06945847013556561
3787.0,0.06930561233546473
3786.0,0.06925467168888666
3785.0,0.06940751155740177
3784.0,0.06945847013556561
3783.0,0.06925467168888666
3782.0,0.06894915322260897
3781.0,0.06884736147670667
3780.0,0.06894915322260897
3779.0,0.0691018855898955
3778.0,0.06905096883247697
3777.0,0.0690000580438479
3776.0,0.06915280831750303
3775.0,0.06950943469373039
3774.0,0.06971335275448043
3773.0,0.06966236426227002
3772.0,0.06956040523329987
3771.0,0.06976434723371505
3770.0,0.07007043991541217
3769.0,0.06996838504902692
3768.0,0.06950943469373039
3767.0,0.0692037370166998
3766.0,0.06925467168888666
3765.0,0.06940751155740177
3764.0,0.06915280831750303
3763.0,0.06879647454924775
3762.0,0.06869471857832687
3761.0,0.0688982543673613
3760.0,0.06905096883247697
3759.0,0.06915280831750303
3758.0,0.0692037370166998
3757.0,0.06905096883247697
3756.0,0.06869471857832687
3755.0,0.06833876031551878
3754.0,0.06813548650796819
3753.0,0.06788152797087754
3752.0,0.06747550294945781
3751.0,0.0671712330991534
3750.0,0.06727263269847072
3749.0,0.06712054217620067
3748.0,0.06641148980334699
3747.0,0.06610796423578891
3746.0,0.06671522765130522
3745.0,0.06777998612288094
3744.0,0.068389593637038
3743.0,0.06788152797087754
3742.0,0.06691783763020887
3741.0,0.0671712330991534
3740.0,0.06798309356579857
3739.0,0.06793230779927839
3738.0,0.06706985716921054
3737.0,0.06636088747507496
3736.0,0.06620911585658007
3735.0,0.06661395809694559
3734.0,0.06737405597821788
3733.0,0.06823711151882228
3732.0,0.0691018855898955
3731.0,0.06950943469373039
3730.0,0.06956040523329987
3729.0,0.06956040523329987
3728.0,0.06976434723371505
3727.0,0.06981534770138009
3726.0,0.06956040523329987
3725.0,0.06905096883247697
3724.0,0.06874559358358656
3723.0,0.06869471857832687
3722.0,0.06869471857832687
3721.0,0.06869471857832687
3720.0,0.06874559358358656
3719.0,0.0690000580438479
3718.0,0.06935655895783555
3717.0,0.06961138175567827
3716.0,0.06966236426227002
3715.0,0.06956040523329987
3714.0,0.06956040523329987
3713.0,0.06956040523329987
3712.0,0.06950943469373039
3711.0,0.06961138175567827
3710.0,0.06966236426227002
3709.0,0.06950943469373039
3708.0,0.06956040523329987
3707.0,0.06981534770138009
3706.0,0.07012147634321675
3705.0,0.07017251876930874
3704.0,0.07017251876930874
3703.0,0.07012147634321675
3702.0,0.0702746216219956
3701.0,0.07047889936889606
3700.0,0.07058107428570715
3699.0,0.07063217075990047
3698.0,0.07083661679493547
3697.0,0.07109230975604719
3696.0,0.07114346641808922
3695.0,0.07078549626260622
3694.0,0.0702746216219956
3693.0,0.06976434723371505
3692.0,0.06935655895783555
3691.0,0.0690000580438479
3690.0,0.0690000580438479
3689.0,0.06930561233546473
3688.0,0.06935655895783555
3687.0,0.0688982543673613
3686.0,0.06874559358358656
3685.0,0.06945847013556561
3684.0,0.07047889936889606
3683.0,0.07109230975604719
3682.0,0.07119462910671581
3681.0,0.0710411591191702
3680.0,0.07068327324650436
3679.0,0.06986635415888243
3678.0,0.06869471857832687
3677.0,0.06793230779927839
3676.0,0.0680846829187538
3675.0,0.06864384953207203
3674.0,0.068389593637038
3673.0,0.06747550294945781
3672.0,0.06772922410050963
3671.0,0.06884736147670667
3670.0,0.06976434723371505
3669.0,0.07022356719509815
3668.0,0.07032568205141221
3667.0,0.07058107428570715
3666.0,0.07129697256940304
3665.0,0.0720140529005715
3664.0,0.07221915065262552
3663.0,0.07216786713341827
3662.0,0.07196279359311708
3661.0,0.0718090519612431
3660.0,0.07160414774328627
3659.0,0.07139934015547578
3658.0,0.07139934015547578
3657.0,0.07170658776779781
3656.0,0.0720140529005715
3655.0,0.0718090519612431
3654.0,0.07109230975604719
3653.0,0.07042782092345012
3652.0,0.07001940948448526
3651.0,0.06945847013556561
3650.0,0.06894915322260897
3649.0,0.06905096883247697
3648.0,0.06966236426227002
3647.0,0.06986635415888243
3646.0,0.06996838504902692
3645.0,0.07037674848475972
3644.0,0.07109230975604719
3643.0,0.07175781684269089
3642.0,0.07216786713341827
3641.0,0.07227044022834539
3640.0,0.07227044022834539
3639.0,0.07232173586200852
3638.0,0.07242434530888953
3637.0,0.07252697900472405
3636.0,0.07262963696097646
3635.0,0.07278366940873537
3634.0,0.07288638806623937
3633.0,0.0725783049495814
3632.0,0.0720140529005715
3631.0,0.07150173187630915
3630.0,0.07150173187630915
3629.0,0.0720140529005715
3628.0,0.07268097504034388
3627.0,0.07273231918911849
3626.0,0.0725783049495814
3625.0,0.07304051161972436
3624.0,0.0734517753643813
3623.0,0.07334892291111106
3622.0,0.07288638806623937
3621.0,0.07252697900472405
3620.0,0.07227044022834539
3619.0,0.0720140529005715
3618.0,0.07160414774328627
3617.0,0.07114346641808922
3616.0,0.0709900145060387
3615.0,0.07124579782334672
3614.0,0.07160414774328627
3613.0,0.07186029312488018
3612.0,0.07196279359311708
3611.0,0.07206531825882068
3610.0,0.07242434530888953
3609.0,0.0729891310243489
3608.0,0.07355465218161061
3607.0,0.07391491307485598
3606.0,0.07396640332115534
3605.0,0.07391491307485598
3604.0,0.07391491307485598
3603.0,0.07381195089279391
3602.0,0.07365755337434488
3601.0,0.07350321072677968
3600.0,0.0734517753643813
3599.0,0.07329750581735506
3598.0,0.07314329105030759
3597.0,0.07288638806623937
3596.0,0.07278366940873537
3595.0,0.07288638806623937
3594.0,0.0732460948102629
3593.0,0.07365755337434488
3592.0,0.07391491307485598
3591.0,0.07401789967289685
3590.0,0.07412091069849924
3589.0,0.07417242537525759
3588.0,0.07422394616325367
3587.0,0.07437854520917098
3586.0,0.07432700607875953
3585.0,0.07412091069849924
3584.0,0.07406940213152868
3583.0,0.07427547306393745
3582.0,0.07453319930846214
3581.0,0.0748426728241014
3580.0,0.07504911108438939
3579.0,0.07525564752005143
3578.0,0.07530729697981409
3577.0,0.07535895258283709
3576.0,0.07535895258283709
3575.0,0.07535895258283709
3574.0,0.07535895258283709
3573.0,0.07546228222451012
3572.0,0.07541061433058172
3571.0,0.07525564752005143
3570.0,0.0748426728241014
3569.0,0.07432700607875953
3568.0,0.07396640332115534
3567.0,0.07391491307485598
3566.0,0.07412091069849924
3565.0,0.07427547306393745
3564.0,0.07432700607875953
3563.0,0.07448164182257
3562.0,0.07463633264589853
3561.0,0.07479107858799638
3560.0,0.07499749231902242
3559.0,0.07520400420208784
3558.0,0.07535895258283709
3557.0,0.07541061433058172
3556.0,0.07535895258283709
3555.0,0.07530729697981409
3554.0,0.07541061433058172
3553.0,0.07572071393811841
3552.0,0.07608277688689435
3551.0,0.07628980560343712
3550.0,0.07613452481449845
3549.0,0.07587584681417514
3548.0,0.07572071393811841
3547.0,0.07582412969807906
3546.0,0.07618627890881036
3545.0,0.07665234350217442
3544.0,0.07696333132921396
3543.0,0.07706704344478843
3542.0,0.07701518429111709
3541.0,0.07696333132921396
3540.0,0.07696333132921396
3539.0,0.07691148455760066
3538.0,0.07691148455760066
3537.0,0.07685964397479927
3536.0,0.07680780957933253
3535.0,0.07675598136972361
3534.0,0.07670415934449615
3533.0,0.07665234350217442
3532.0,0.07654873036034848
3531.0,0.07644514193245056
3530.0,0.07644514193245056
3529.0,0.07654873036034848
3528.0,0.07675598136972361
3527.0,0.07691148455760066
3526.0,0.07701518429111709
3525.0,0.07711890879170658
3524.0,0.07717078033335123
3523.0,0.07727454200674
3522.0,0.07727454200674
3521.0,0.07732643214144574
3520.0,0.07748213975538865
3519.0,0.07768983678560404
3518.0,0.07789763319239285
3517.0,0.07794959783282618
3516.0,0.07794959783282618
3515.0,0.07784567476894111
3514.0,0.07779372256098371
3513.0,0.07779372256098371
3512.0,0.07779372256098371
3511.0,0.07784567476894111
3510.0,0.07794959783282618
3509.0,0.07800156869172903
3508.0,0.07794959783282618
3507.0,0.07779372256098371
3506.0,0.07763790321520991
3505.0,0.07753405470158659
3504.0,0.07753405470158659
3503.0,0.07763790321520991
3502.0,0.0777417765670334
3501.0,0.0777417765670334
3500.0,0.07763790321520991
3499.0,0.07758597585436577
3498.0,0.07768983678560404
3497.0,0.07789763319239285
3496.0,0.07810552907089763
3495.0,0.07820951434181311
3494.0,0.07826151631540124
3493.0,0.07831352451639795
3492.0,0.07836553894629472
3491.0,0.07846958649875768
3490.0,0.07841755960658348
3489.0,0.07831352451639795
3488.0,0.07826151631540124
3487.0,0.07826151631540124
3486.0,0.07836553894629472
3485.0,0.07831352451639795
3484.0,0.07820951434181311
3483.0,0.07810552907089763
3482.0,0.07810552907089763
3481.0,0.07836553894629472
3480.0,0.07872981449018734
3479.0,0.07904229404455076
3478.0,0.07925073872429178
3477.0,0.07919861817434581
3476.0,0.07914650387874067
3475.0,0.079094395835976
3474.0,0.07914650387874067
3473.0,0.07919861817434581
3472.0,0.07925073872429178
3471.0,0.07930286553008004
3470.0,0.07925073872429178
3469.0,0.079094395835976
3468.0,0.07893810920972144
3467.0,0.07878187880504961
3466.0,0.07872981449018734
3465.0,0.07883394936226118
3464.0,0.079094395835976
3463.0,0.07956359344924135
3462.0,0.07992887570247587
3461.0,0.08013774644446192
3460.0,0.08008551934056851
3459.0,0.07982447798997727
3458.0,0.07961575782164254
3457.0,0.0794592834975203
3456.0,0.07935499859321249
3455.0,0.07930286553008004
3454.0,0.0794071379151915
3453.0,0.07956359344924135
3452.0,0.07972010536705154
3451.0,0.07972010536705154
3450.0,0.07966792846041071
3449.0,0.07956359344924135
3448.0,0.0794592834975203
3447.0,0.0794592834975203
3446.0,0.0794071379151915
3445.0,0.0794071379151915
3444.0,0.07961575782164254
3443.0,0.07982447798997727
3442.0,0.07998108397108505
3441.0,0.07998108397108505
3440.0,0.07992887570247587
3439.0,0.07998108397108505
3438.0,0.08029446545087904
3437.0,0.08066036321258663
3436.0,0.08092190762392604
3435.0,0.0809742354126397
3434.0,0.08081727095749947
3433.0,0.08055578953476306
3432.0,0.08024221949810584
3431.0,0.07987667370927598
3430.0,0.07961575782164254
3429.0,0.07951143534170213
3428.0,0.07951143534170213
3427.0,0.07966792846041071
3426.0,0.07982447798997727
3425.0,0.07998108397108505
3424.0,0.07998108397108505
3423.0,0.07992887570247587
3422.0,0.07977228854307139
3421.0,0.07966792846041071
3420.0,0.07966792846041071
3419.0,0.07982447798997727
3418.0,0.08008551934056851
3417.0,0.08029446545087904
3416.0,0.08039897621588898
3415.0,0.08029446545087904
3414.0,0.08024221949810584
3413.0,0.08029446545087904
3412.0,0.0805035121369384
3411.0,0.08066036321258663
3410.0,0.08071265949561734
3409.0,0.08076496207674921
3408.0,0.08076496207674921
3407.0,0.08086958613938555
3406.0,0.08086958613938555
3405.0,0.08081727095749947
3404.0,0.08066036321258663
3403.0,0.0805035121369384
3402.0,0.08045124103115198
3401.0,0.08039897621588898
3400.0,0.08039897621588898
3399.0,0.08045124103115198
3398.0,0.08055578953476306
3397.0,0.08071265949561734
3396.0,0.08076496207674921
3395.0,0.08076496207674921
3394.0,0.08076496207674921
3393.0,0.08076496207674921
3392.0,0.08076496207674921
3391.0,0.08071265949561734
3390.0,0.08060807322614072
3389.0,0.08060807322614072
3388.0,0.08071265949561734
3387.0,0.08086958613938555
3386.0,0.08102656950704579
3385.0,0.08102656950704579
3384.0,0.08092190762392604
3383.0,0.08086958613938555
3382.0,0.0809742354126397
3381.0,0.08118360963962057
3380.0,0.0812883346176787
3379.0,0.08134070657817682
3378.0,0.0812883346176787
3377.0,0.0812883346176787
3376.0,0.0812883346176787
3375.0,0.08134070657817682
3374.0,0.08134070657817682
3373.0,0.08134070657817682
3372.0,0.08139308485501817
3371.0,0.08139308485501817
3370.0,0.0812883346176787
3369.0,0.08113125661901543
3368.0,0.08102656950704579
3367.0,0.08102656950704579
3366.0,0.08107890990866418
3365.0,0.08113125661901543
3364.0,0.08113125661901543
3363.0,0.08113125661901543
3362.0,0.08118360963962057
3361.0,0.0812883346176787
3360.0,0.0812883346176787
3359.0,0.08118360963962057
3358.0,0.08102656950704579
3357.0,0.0809742354126397
3356.0,0.0809742354126397
3355.0,0.0809742354126397
3354.0,0.08092190762392604
3353.0,0.08092190762392604
3352.0,0.08102656950704579
3351.0,0.0812359689720008
3350.0,0.08139308485501817
3349.0,0.08155025759884227
3348.0,0.08155025759884227
3347.0,0.08155025759884227
3346.0,0.08139308485501817
3345.0,0.0812359689720008
3344.0,0.08102656950704579
3343.0,0.08086958613938555
3342.0,0.08081727095749947
3341.0,0.08092190762392604
3340.0,0.08102656950704579
3339.0,0.08113125661901543
3338.0,0.0812883346176787
3337.0,0.08144546944972642
3336.0,0.08149786036382611
3335.0,0.08155025759884227
3334.0,0.08155025759884227
3333.0,0.08155025759884227
3332.0,0.08155025759884227
3331.0,0.08155025759884227
3330.0,0.08165507103772507
3329.0,0.08175990977858505
3328.0,0.08181233864107451
3327.0,0.08170748724464438
3326.0,0.08139308485501817
3325.0,0.08118360963962057
3324.0,0.08113125661901543
3323.0,0.08118360963962057
3322.0,0.0812359689720008
3321.0,0.0812359689720008
3320.0,0.08113125661901543
3319.0,0.08102656950704579
3318.0,0.08102656950704579
3317.0,0.08107890990866418
3316.0,0.0812359689720008
3315.0,0.08139308485501817
3314.0,0.08149786036382611
3313.0,0.08160266115629988
3312.0,0.08160266115629988
3311.0,0.08155025759884227
3310.0,0.08155025759884227
3309.0,0.08160266115629988
3308.0,0.08165507103772507
3307.0,0.08165507103772507
3306.0,0.08160266115629988
3305.0,0.08144546944972642
3304.0,0.0812883346176787
3303.0,0.08134070657817682
3302.0,0.08149786036382611
3301.0,0.08165507103772507
3300.0,0.08170748724464438
3299.0,0.08160266115629988
3298.0,0.08139308485501817
3297.0,0.0812359689720008
3296.0,0.08113125661901543
3295.0,0.08113125661901543
3294.0,0.08118360963962057
3293.0,0.0812359689720008
3292.0,0.0812359689720008
3291.0,0.08118360963962057
3290.0,0.08118360963962057
3289.0,0.0812883346176787
3288.0,0.08144546944972642
3287.0,0.08155025759884227
3286.0,0.08144546944972642
3285.0,0.08118360963962057
3284.0,0.08086958613938555
3283.0,0.08081727095749947
3282.0,0.08086958613938555
3281.0,0.08102656950704579
3280.0,0.08118360963962057
3279.0,0.0812359689720008
3278.0,0.08134070657817682
3277.0,0.08155025759884227
3276.0,0.08175990977858505
3275.0,0.08191721535781271
3274.0,0.08191721535781271
3273.0,0.08175990977858505
3272.0,0.08155025759884227
3271.0,0.08144546944972642
3270.0,0.08144546944972642
3269.0,0.08149786036382611
3268.0,0.08155025759884227
3267.0,0.08155025759884227
3266.0,0.08149786036382611
3265.0,0.08149786036382611
3264.0,0.08149786036382611
3263.0,0.08149786036382611
3262.0,0.08144546944972642
3261.0,0.08134070657817682
3260.0,0.0812883346176787
3259.0,0.0812359689720008
3258.0,0.08118360963962057
3257.0,0.0812359689720008
3256.0,0.0812883346176787
3255.0,0.08134070657817682
3254.0,0.08149786036382611
3253.0,0.08160266115629988
3252.0,0.08165507103772507
3251.0,0.08165507103772507
3250.0,0.08160266115629988
3249.0,0.08144546944972642
3248.0,0.0812359689720008
3247.0,0.08092190762392604
3246.0,0.08071265949561734
3245.0,0.08060807322614072
3244.0,0.08055578953476306
3243.0,0.0805035121369384
3242.0,0.08045124103115198
3241.0,0.08055578953476306
3240.0,0.08081727095749947
3239.0,0.08113125661901543
3238.0,0.08139308485501817
3237.0,0.08144546944972642
3236.0,0.0812883346176787
3235.0,0.08086958613938555
3234.0,0.0805035121369384
3233.0,0.08029446545087904
3232.0,0.08034671768963575
3231.0,0.0805035121369384
3230.0,0.08071265949561734
3229.0,0.08071265949561734
3228.0,0.08071265949561734
3227.0,0.08071265949561734
3226.0,0.08076496207674921
3225.0,0.08086958613938555
3224.0,0.08092190762392604
3223.0,0.08092190762392604
3222.0,0.08086958613938555
3221.0,0.08092190762392604
3220.0,0.0809742354126397
3219.0,0.0809742354126397
3218.0,0.08086958613938555
3217.0,0.08071265949561734
3216.0,0.08066036321258663
3215.0,0.08066036321258663
3214.0,0.08066036321258663
3213.0,0.08066036321258663
3212.0,0.08055578953476306
3211.0,0.08045124103115198
3210.0,0.08039897621588898
3209.0,0.08039897621588898
3208.0,0.0805035121369384
3207.0,0.08055578953476306
3206.0,0.08066036321258663
3205.0,0.08076496207674921
3204.0,0.08071265949561734
3203.0,0.08060807322614072
3202.0,0.08045124103115198
3201.0,0.08029446545087904
3200.0,0.08018997982980403
3199.0,0.08018997982980403
3198.0,0.08013774644446192
3197.0,0.08003329851661278
3196.0,0.07998108397108505
3195.0,0.07998108397108505
3194.0,0.08008551934056851
3193.0,0.08013774644446192
3192.0,0.08013774644446192
3191.0,0.08003329851661278
3190.0,0.07982447798997727
3189.0,0.07961575782164254
3188.0,0.07951143534170213
3187.0,0.0794592834975203
3186.0,0.07951143534170213
3185.0,0.07956359344924135
3184.0,0.07951143534170213
3183.0,0.0794071379151915
3182.0,0.07925073872429178
3181.0,0.079094395835976
3180.0,0.07904229404455076
3179.0,0.079094395835976
3178.0,0.07925073872429178
3177.0,0.0794071379151915
3176.0,0.0794592834975203
3175.0,0.07935499859321249
3174.0,0.07925073872429178
3173.0,0.07925073872429178
3172.0,0.07930286553008004
3171.0,0.07935499859321249
3170.0,0.07935499859321249
3169.0,0.07925073872429178
3168.0,0.07904229404455076
3167.0,0.07883394936226118
3166.0,0.07862570458152551
3165.0,0.07862570458152551
3164.0,0.07867775641617802
3163.0,0.07872981449018734
3162.0,0.07878187880504961
3161.0,0.07878187880504961
3160.0,0.07883394936226118
3159.0,0.07878187880504961
3158.0,0.07862570458152551
3157.0,0.07841755960658348
3156.0,0.07820951434181311
3155.0,0.0781575185941421
3154.0,0.07820951434181311
3153.0,0.07836553894629472
3152.0,0.07846958649875768
3151.0,0.07846958649875768
3150.0,0.07826151631540124
3149.0,0.07784567476894111
3148.0,0.07748213975538865
3147.0,0.07727454200674
3146.0,0.07727454200674
3145.0,0.07737832847680104
3144.0,0.07753405470158659
3143.0,0.07753405470158659
3142.0,0.07743023101428781
3141.0,0.07732643214144574
3140.0,0.07732643214144574
3139.0,0.07748213975538865
3138.0,0.07758597585436577
3137.0,0.07763790321520991
3136.0,0.07758597585436577
3135.0,0.07748213975538865
3134.0,0.07737832847680104
3133.0,0.0772226580712021
3132.0,0.07701518429111709
3131.0,0.07675598136972361
3130.0,0.07649693305789551
3129.0,0.07634157820669385
3128.0,0.07628980560343712
3127.0,0.0763933569825408
3126.0,0.07660053384128362
3125.0,0.07675598136972361
3124.0,0.07685964397479927
3123.0,0.07680780957933253
3122.0,0.07660053384128362
3121.0,0.0763933569825408
3120.0,0.07618627890881036
3119.0,0.0759792995259323
3118.0,0.07577241873988227
3117.0,0.0756173227980268
3116.0,0.07551395626608493
3115.0,0.07551395626608493
3114.0,0.07551395626608493
3113.0,0.07551395626608493
3112.0,0.07541061433058172
3111.0,0.07525564752005143
3110.0,0.07515236702446293
3109.0,0.07515236702446293
3108.0,0.07515236702446293
3107.0,0.07510073598571654
3106.0,0.07489427319033615
3105.0,0.07468790850035045
3104.0,0.07448164182257
3103.0,0.07437854520917098
3102.0,0.07417242537525759
3101.0,0.07401789967289685
3100.0,0.07396640332115534
3099.0,0.07406940213152868
3098.0,0.07432700607875953
3097.0,0.07468790850035045
3096.0,0.07489427319033615
3095.0,0.07489427319033615
3094.0,0.07468790850035045
3093.0,0.07443009045662374
3092.0,0.07417242537525759
3091.0,0.07406940213152868
3090.0,0.07406940213152868
3089.0,0.07412091069849924
3088.0,0.07406940213152868
3087.0,0.07381195089279391
3086.0,0.07360609973031784
3085.0,0.0734517753643813
3084.0,0.07340034609297241
3083.0,0.07329750581735506
3082.0,0.07314329105030759
3081.0,0.07293775650699996
3080.0,0.07273231918911849
3079.0,0.0725783049495814
3078.0,0.07247565912497134
3077.0,0.07242434530888953
3076.0,0.07237303755504598
3075.0,0.07227044022834539
3074.0,0.07216786713341827
3073.0,0.0720140529005715
3072.0,0.07196279359311708
3071.0,0.07191154033502922
3070.0,0.07186029312488018
3069.0,0.07170658776779781
3068.0,0.07145053299833615
3067.0,0.07114346641808922
3066.0,0.07078549626260622
3065.0,0.07047889936889606
3064.0,0.07022356719509815
3063.0,0.07017251876930874
3062.0,0.07032568205141221
3061.0,0.07047889936889606
3060.0,0.07058107428570715
3059.0,0.07058107428570715
3058.0,0.07052998382251041
3057.0,0.07047889936889606
3056.0,0.07042782092345012
3055.0,0.07032568205141221
3054.0,0.07017251876930874
3053.0,0.06996838504902692
3052.0,0.06971335275448043
3051.0,0.06940751155740177
3050.0,0.0692037370166998
3049.0,0.06894915322260897
3048.0,0.06874559358358656
3047.0,0.06859298644342648
3046.0,0.06844043290919477
3045.0,0.06833876031551878
3044.0,0.06828793294324442
3043.0,0.06823711151882228
3042.0,0.06813548650796819
3041.0,0.06803388527182741
3040.0,0.06798309356579857
3039.0,0.06793230779927839
3038.0,0.06788152797087754
3037.0,0.06777998612288094
3036.0,0.06752623532284674
3035.0,0.0671712330991534
3034.0,0.06681652082538614
3033.0,0.0665127121512945
3032.0,0.0663102910421054
3031.0,0.06615853710127872
3030.0,0.06600683616875758
3029.0,0.06580465065211571
3028.0,0.06565307326174441
3027.0,0.06545105233385295
3026.0,0.06529959828457499
3025.0,0.06509774167768612
3024.0,0.06489597884855036
3023.0,0.06469430971007495
3022.0,0.06449273417528723
3021.0,0.06429125215733666
3020.0,0.06414020196211956
3019.0,0.06393888339001164
3018.0,0.06363708040225546
3017.0,0.06333548699992453
3016.0,0.06303410289212974
3015.0,0.06268275223750575
3014.0,0.062331685600995
3013.0,0.06203099704854709
3012.0,0.061680456657844385
3011.0,0.06133019897732073
3010.0,0.06098022355133348
3009.0,0.060730413661268745
3008.0,0.06058059667068294
3007.0,0.06033101647767336
3006.0,0.060081579630943294
3005.0,0.05973260855398799
3004.0,0.05938391766259232
3003.0,0.05898575629443026
3002.0,0.05858795962645047
3001.0,0.05824018618530458
3000.0,0.05789269101064454
2999.0,0.05749589383191922
2998.0,0.057049929922901255
2997.0,0.05665390164340933
2996.0,0.056159373598738904
2995.0,0.055764156206519866
2994.0,0.05536929814372171
2993.0,0.05507339001378431
2992.0,0.05482695382609992
2991.0,0.05453141486818014
2990.0,0.05413767551038262
2989.0,0.05369514500652506
2988.0,0.053351266093323746
2987.0,0.05300765925162776
2986.0,0.05271335532220167
2985.0,0.052468254304406825
2984.0,0.05217431555754937
2983.0,0.05188057561946402
2982.0,0.05148923116234294
2981.0,0.051049389754451946
2980.0,0.05075640943173498
2979.0,0.05056119896349576
2978.0,0.050414848673348
2977.0,0.050317309204795935
2976.0,0.050171041064686284
2975.0,0.050073556332087765
2974.0,0.05002482217034632
2973.0,0.05012229596312534
2972.0,0.050414848673348
2971.0,0.050805225762017736
2970.0,0.05129369109514803
2969.0,0.05173378011970464
2968.0,0.05222329153526162
2967.0,0.052762392129333646
2966.0,0.05340037498486727
2965.0,0.05423607688882637
2964.0,0.05507339001378431
2963.0,0.055912320584565744
2962.0,0.05660442349104544
2961.0,0.057198533682059516
2960.0,0.05789269101064454
2959.0,0.05858795962645047
2958.0,0.05918479134919874
2957.0,0.05953332233647113
2956.0,0.05963295401433477
2955.0,0.05948351506743288
2954.0,0.05928434309333741
2953.0,0.059035506507200575
2952.0,0.05863766428823891
2951.0,0.05814087347462649
2950.0,0.05754547365752294
2949.0,0.057000406633959555
2948.0,0.05680236993107379
2947.0,0.056950888991593285
2946.0,0.0575950591438934
2945.0,0.058737090681050264
2944.0,0.06028111764589528
2943.0,0.062281556382736136
2942.0,0.06479513257341862
2941.0,0.06777998612288094
2940.0,0.0713481533463054
2939.0,0.07546228222451012
2938.0,0.08003329851661278
2937.0,0.08491689834879956
2936.0,0.09017663034908807
2935.0,0.09571734235437201
2934.0,0.10171372141087698
2933.0,0.1082953237608173
2932.0,0.11543118508166672
2931.0,0.12314735239865637
2930.0,0.1314731132317961
2929.0,0.1404414273739465
2928.0,0.15015080439474215
2927.0,0.1607105439938532
2926.0,0.17224313702138327
2925.0,0.18482086986058133
2924.0,0.1987335295103798
2923.0,0.2141009716156166
2922.0,0.23128791962233652
2921.0,0.25049557612385787
2920.0,0.2715650490257453
2919.0,0.2943073034622965
2918.0,0.31794522292619276
2917.0,0.3409399277590617
2916.0,0.3614109167072832
2915.0,0.3769575657536184
2914.0,0.3859468940127808
2913.0,0.3877460939035626
2912.0,0.383419469914114
2911.0,0.37468754903832613
2910.0,0.36351210364663467
2909.0,0.3515424057174774
2908.0,0.33998877871066924
2907.0,0.32938311359967454
2906.0,0.31984585826562695
2905.0,0.3113132757158765
2904.0,0.30373100325446734
2903.0,0.29696669526631414
2902.0,0.2911543619518211
2901.0,0.2860896458710447
2900.0,0.281415279972564
2899.0,0.2771193893130608
2898.0,0.27310985925817843
2897.0,0.2692984557181548
2896.0,0.26552021057442277
2895.0,0.261774551857495
2894.0,0.2581396059347365
2893.0,0.254534831329273
2892.0,0.2510371387438386
2891.0,0.24756739073852607
2890.0,0.2439727870265589
2889.0,0.24018112262517377
2888.0,0.23627259623430175
2887.0,0.23225063265442003
2886.0,0.22811867980990108
2885.0,0.22380748525292793
2884.0,0.2193227255666319
2883.0,0.2148838049780799
2882.0,0.2104897959097456
2881.0,0.20613979865733034
2880.0,0.20183294028406085
2879.0,0.19749993223560658
2878.0,0.1930742231162681
2877.0,0.1885590563258419
2876.0,0.1840903491132253
2875.0,0.17973284283903546
2874.0,0.17567887514922864
2873.0,0.1718558926962137
2872.0,0.16825816635436186
2871.0,0.16488040957545036
2870.0,0.16152872092807113
2869.0,0.1582027011256446
2868.0,0.15508812608785938
2867.0,0.15218065270476067
2866.0,0.14953756723848333
2865.0,0.1472151313194523
2864.0,0.14545106418704923
2863.0,0.14442027749828212
2862.0,0.14429916916456276
2861.0,0.14545106418704923
2860.0,0.14782509557969692
2859.0,0.15162611615539823
2858.0,0.15689185800039307
2857.0,0.16392919108485815
2856.0,0.17288931253398876
2855.0,0.18442225167573278
2854.0,0.1990081387398286
2853.0,0.21731243176503368
2852.0,0.2397283394579368
2851.0,0.26648174856551243
2850.0,0.2965366581167068
2849.0,0.32716354582860285
2848.0,0.354381261757305
2847.0,0.3737623148530995
2846.0,0.38247546511370767
2845.0,0.38090666937325723
2844.0,0.3716110699496884
2843.0,0.3580304022979406
2842.0,0.34303981725715094
2841.0,0.3279021420642825
2840.0,0.31345310093699386
2839.0,0.2999889376778877
2838.0,0.2876870913186347
2837.0,0.2765443279648143
2836.0,0.26664221207441474
2835.0,0.25798225285986165
2834.0,0.25041826513444065
2833.0,0.24359212745104175
2832.0,0.23747147755300002
2831.0,0.23202827861838116
2830.0,0.22694530663573742
2829.0,0.22235572230351508
2828.0,0.2181010806488508
2827.0,0.21424320003735708
2826.0,0.21056031543282083
2825.0,0.20725821416525125
2824.0,0.2041199826559248
2823.0,0.20114226825251436
2822.0,0.19832194096410682
2821.0,0.19579239491795852
2820.0,0.19361649817583237
2819.0,0.1917214904172322
2818.0,0.18996921359416064
2817.0,0.18822397839709626
2816.0,0.18641901143180806
2815.0,0.18468795647564096
2814.0,0.18302996224270052
2813.0,0.18137827362411096
2812.0,0.17986424812957003
2811.0,0.17829000270162365
2810.0,0.17685194018930606
2809.0,0.17535358528164813
2808.0,0.1739900222088997
2807.0,0.1726953589102651
2806.0,0.17159792150840691
2805.0,0.1705032502798176
2804.0,0.16953964996903292
2803.0,0.16857818293497795
2802.0,0.16768273007773837
2801.0,0.16672536070943655
2800.0,0.1657700971483227
2799.0,0.16488040957545036
2798.0,0.16399254087446846
2797.0,0.16316971351112097
2796.0,0.1624115617644888
2795.0,0.16184381524785207
2794.0,0.16127680996862814
2793.0,0.16058480731610647
2792.0,0.15958022226351387
2791.0,0.15845283474344662
2790.0,0.15745316350498495
2789.0,0.15664262156204445
2788.0,0.15602015552184012
2787.0,0.15552282425431851
2786.0,0.1550260618531123
2785.0,0.15440590683997568
2784.0,0.15372475758778692
2783.0,0.15298290206464582
2782.0,0.15224231160766877
2781.0,0.1515029819096334
2780.0,0.15082636690117335
2779.0,0.1502121757623145
2778.0,0.14966014541652073
2777.0,0.14917004015146906
2776.0,0.14880282382583943
2775.0,0.14837479684669086
2774.0,0.1479471913021495
2773.0,0.14739803066176504
2772.0,0.14684956355215717
2771.0,0.14624096692523136
2770.0,0.1456332219591303
2769.0,0.14520830594601453
2768.0,0.14484442282300614
2767.0,0.1446020033459312
2766.0,0.14435971910985468
2765.0,0.14405705376768396
2764.0,0.14375459920994582
2763.0,0.14345235514325205
2762.0,0.14302956651750764
2761.0,0.14260718907909875
2760.0,0.14212497447643746
2759.0,0.14176366457048695
2758.0,0.1415831222765116
2757.0,0.14140265500530758
2756.0,0.14122226269455074
2755.0,0.1409217752530305
2754.0,0.14062149557439896
2753.0,0.14038142122781938
2752.0,0.1400815147992842
2751.0,0.13978181533124334
2750.0,0.13930272594796111
2749.0,0.1388241644869712
2748.0,0.1384058553561347
2747.0,0.1380476250785483
2746.0,0.13768969004572962
2745.0,0.13739163603505822
2744.0,0.13721290176465573
2743.0,0.13721290176465573
2742.0,0.1373320497714121
2741.0,0.1373320497714121
2740.0,0.13715334001706125
2739.0,0.1369151746796402
2738.0,0.13661765155921235
2737.0,0.1363797797296844
2736.0,0.136142038116027
2735.0,0.13584504399797437
2734.0,0.13560759484941132
2733.0,0.13542959314656988
2732.0,0.1352516643703412
2731.0,0.13519237097385295
2730.0,0.13513308567147386
2729.0,0.1350738084609946
2728.0,0.13501453934020602
2727.0,0.13483678049391368
2726.0,0.134659094375416
2725.0,0.13448148092522594
2724.0,0.13430394008392943
2723.0,0.13406733180681396
2722.0,0.13383085236622927
2721.0,0.13365357725039817
2720.0,0.13353543402825974
2719.0,0.13335827943396006
2718.0,0.1331221856625011
2717.0,0.13282724882135022
2716.0,0.1325325121409484
2715.0,0.13235576609690147
2714.0,0.13229686672990226
2713.0,0.1322379753497993
2712.0,0.13212021654162043
2711.0,0.1318847946727828
2710.0,0.13159069668503998
2709.0,0.13141433344123432
2708.0,0.1312967977214634
2707.0,0.1312967977214634
2706.0,0.13123804178794973
2705.0,0.13106182166708868
2704.0,0.1308269726783169
2703.0,0.1306509192409071
2702.0,0.1304749371427727
2701.0,0.13035765534840538
2700.0,0.13024040521758962
2699.0,0.13012318673323353
2698.0,0.12994741830645506
2697.0,0.12977172098820566
2696.0,0.12965462891904034
2695.0,0.12965462891904034
2694.0,0.12965462891904034
2693.0,0.12953756841108
2692.0,0.12953756841108
2691.0,0.12953756841108
2690.0,0.1295960947209729
2689.0,0.12953756841108
2688.0,0.1294790499872358
2687.0,0.12930354201075
2686.0,0.12918657608440243
2685.0,0.12901118623942476
2684.0,0.12889429901441463
2683.0,0.1287190271420271
2682.0,0.1286022185125162
2681.0,0.1286022185125162
2680.0,0.12866061890013913
2679.0,0.1287190271420271
2678.0,0.1287190271420271
2677.0,0.1287190271420271
2676.0,0.1286022185125162
2675.0,0.12836869546244634
2674.0,0.1281352979118051
2673.0,0.1280186461566306
2672.0,0.1280186461566306
2671.0,0.1281352979118051
2670.0,0.12836869546244634
2669.0,0.12842706445412122
2668.0,0.1282519810081284
2667.0,0.12796033202671375
2666.0,0.1277271537757949
2665.0,0.12761061158217912
2664.0,0.1277271537757949
2663.0,0.12796033202671375
2662.0,0.1281352979118051
2661.0,0.1281352979118051
2660.0,0.12796033202671375
2659.0,0.1277271537757949
2658.0,0.1275523522109867
2657.0,0.12749410065407507
2656.0,0.12749410065407507
2655.0,0.12749410065407507
2654.0,0.12743585690934855
2653.0,0.12743585690934855
2652.0,0.12743585690934855
2651.0,0.12737762097471172
2650.0,0.12726117252733116
2649.0,0.12726117252733116
2648.0,0.12726117252733116
2647.0,0.12726117252733116
2646.0,0.12720296001040166
2645.0,0.1270865583796048
2644.0,0.12702836926155658
2643.0,0.12691201440971422
2642.0,0.12679569072295926
2641.0,0.12667939818460128
2640.0,0.12656313677796316
2639.0,0.12644690648638135
2638.0,0.12638880300353272
2637.0,0.12644690648638135
2636.0,0.12650501774383094
2635.0,0.12667939818460128
2634.0,0.1267375405612734
2633.0,0.1267375405612734
2632.0,0.1267375405612734
2631.0,0.12667939818460128
2630.0,0.126621263590859
2629.0,0.12656313677796316
2628.0,0.12644690648638135
2627.0,0.1263307072932056
2626.0,0.12627261935332057
2625.0,0.1263307072932056
2624.0,0.1263307072932056
2623.0,0.12621453918179926
2622.0,0.12598229613781387
2621.0,0.1258081953209289
2620.0,0.12569216687196105
2619.0,0.12557616941349803
2618.0,0.12551818230053358
2617.0,0.12546020292898974
2616.0,0.12546020292898974
2615.0,0.12534426740189897
2614.0,0.1252863112422209
2613.0,0.12522836281570182
2612.0,0.12522836281570182
2611.0,0.12534426740189897
2610.0,0.12540223129680017
2609.0,0.12534426740189897
2608.0,0.12522836281570182
2607.0,0.1251124891538875
2606.0,0.1248808345374317
2605.0,0.12476505354983503
2604.0,0.12476505354983503
2603.0,0.12482294018529605
2602.0,0.1248808345374317
2601.0,0.1249387366082999
2600.0,0.1248808345374317
2599.0,0.12470717462899183
2598.0,0.12453358413361437
2597.0,0.1244757360506914
2596.0,0.1244757360506914
2595.0,0.1244757360506914
2594.0,0.12441789567211425
2593.0,0.12430223801979201
2592.0,0.12430223801979201
2591.0,0.12424442074194553
2590.0,0.12418661116024232
2589.0,0.12418661116024232
2588.0,0.12418661116024232
2587.0,0.12424442074194553
2586.0,0.12424442074194553
2585.0,0.12418661116024232
2584.0,0.12418661116024232
2583.0,0.12412880927263426
2582.0,0.12407101507707297
2581.0,0.12401322857151209
2580.0,0.12401322857151209
2579.0,0.12412880927263426
2578.0,0.12412880927263426
2577.0,0.12401322857151209
2576.0,0.12372441132212098
2575.0,0.12343578601615435
2574.0,0.12320502379929943
2573.0,0.12314735239865637
2572.0,0.12320502379929943
2571.0,0.12326270285933538
2570.0,0.12326270285933538
2569.0,0.12326270285933538
2568.0,0.12314735239865637
2567.0,0.12308968865537295
2566.0,0.12291674334934943
2565.0,0.12285911021517903
2564.0,0.12297438413275108
2563.0,0.12314735239865637
2562.0,0.12337808396572703
2561.0,0.12355121312165873
2560.0,0.12355121312165873
2559.0,0.12337808396572703
2558.0,0.12320502379929943
2557.0,0.12297438413275108
2556.0,0.12280148472821018
2555.0,0.12268625668776156
2554.0,0.12268625668776156
2553.0,0.12274386688641381
2552.0,0.12285911021517903
2551.0,0.12285911021517903
2550.0,0.12274386688641381
2549.0,0.12262865413022594
2548.0,0.12257105921178035
2547.0,0.12257105921178035
2546.0,0.12262865413022594
2545.0,0.12262865413022594
2544.0,0.12245589228405596
2543.0,0.12228319913502328
2542.0,0.12211057462851604
2541.0,0.12211057462851604
2540.0,0.12222565000860186
2539.0,0.12234075588839133
2538.0,0.12234075588839133
2537.0,0.12222565000860186
2536.0,0.12211057462851604
2535.0,0.12205304837081177
2534.0,0.1219955297319748
2533.0,0.12193801870998744
2532.0,0.12193801870998744
2531.0,0.12193801870998744
2530.0,0.12188051530283239
2529.0,0.12188051530283239
2528.0,0.12188051530283239
2527.0,0.12188051530283239
2526.0,0.12193801870998744
2525.0,0.12205304837081177
2524.0,0.12211057462851604
2523.0,0.12216810850710624
2522.0,0.12216810850710624
2521.0,0.12211057462851604
2520.0,0.1219955297319748
2519.0,0.12193801870998744
2518.0,0.1219955297319748
2517.0,0.12205304837081177
2516.0,0.12216810850710624
2515.0,0.12222565000860186
2514.0,0.12222565000860186
2513.0,0.12211057462851604
2512.0,0.12188051530283239
2511.0,0.12170805075020397
2510.0,0.12165057778222454
2509.0,0.12165057778222454
2508.0,0.12170805075020397
2507.0,0.12170805075020397
2506.0,0.12170805075020397
2505.0,0.12165057778222454
2504.0,0.12165057778222454
2503.0,0.12165057778222454
2502.0,0.12176553132495593
2501.0,0.12188051530283239
2500.0,0.12205304837081177
2499.0,0.12222565000860186
2498.0,0.12228319913502328
2497.0,0.12234075588839133
2496.0,0.12228319913502328
2495.0,0.12211057462851604
2494.0,0.12193801870998744
2493.0,0.12188051530283239
2492.0,0.12193801870998744
2491.0,0.12205304837081177
2490.0,0.1219955297319748
2489.0,0.12182301950849372
2488.0,0.12165057778222454
2487.0,0.12147820449879343
2486.0,0.12142076193778073
2485.0,0.12136332697348307
2484.0,0.12136332697348307
2483.0,0.12124847982699793
2482.0,0.12107626603243293
2481.0,0.12101887660626365
2480.0,0.12107626603243293
2479.0,0.12124847982699793
2478.0,0.12147820449879343
2477.0,0.12165057778222454
2476.0,0.12182301950849372
2475.0,0.12193801870998744
2474.0,0.12193801870998744
2473.0,0.12193801870998744
2472.0,0.1219955297319748
2471.0,0.12211057462851604
2470.0,0.12211057462851604
2469.0,0.12205304837081177
2468.0,0.1219955297319748
2467.0,0.12188051530283239
2466.0,0.12182301950849372
2465.0,0.12170805075020397
2464.0,0.12159311241900439
2463.0,0.12147820449879343
2462.0,0.12136332697348307
2461.0,0.12136332697348307
2460.0,0.12142076193778073
2459.0,0.12147820449879343
2458.0,0.12153565465853111
2457.0,0.12153565465853111
2456.0,0.12159311241900439
2455.0,0.12165057778222454
2454.0,0.12176553132495593
2453.0,0.12188051530283239
2452.0,0.12193801870998744
2451.0,0.1219955297319748
2450.0,0.12188051530283239
2449.0,0.12176553132495593
2448.0,0.12159311241900439
2447.0,0.12153565465853111
2446.0,0.12153565465853111
2445.0,0.12159311241900439
2444.0,0.12170805075020397
2443.0,0.12182301950849372
2442.0,0.12188051530283239
2441.0,0.12188051530283239
2440.0,0.12182301950849372
2439.0,0.12176553132495593
2438.0,0.12165057778222454
2437.0,0.12165057778222454
2436.0,0.12176553132495593
2435.0,0.12176553132495593
2434.0,0.12176553132495593
2433.0,0.12165057778222454
2432.0,0.12165057778222454
2431.0,0.12182301950849372
2430.0,0.12205304837081177
2429.0,0.12216810850710624
2428.0,0.12216810850710624
2427.0,0.12205304837081177
2426.0,0.12188051530283239
2425.0,0.12188051530283239
2424.0,0.12193801870998744
2423.0,0.12205304837081177
2422.0,0.12211057462851604
2421.0,0.12205304837081177
2420.0,0.12205304837081177
2419.0,0.12205304837081177
2418.0,0.12211057462851604
2417.0,0.12222565000860186
2416.0,0.12234075588839133
2415.0,0.12245589228405596
2414.0,0.12245589228405596
2413.0,0.12239832027072817
2412.0,0.12228319913502328
2411.0,0.12222565000860186
2410.0,0.12216810850710624
2409.0,0.12216810850710624
2408.0,0.12216810850710624
2407.0,0.12228319913502328
2406.0,0.12234075588839133
2405.0,0.12234075588839133
2404.0,0.12228319913502328
2403.0,0.12228319913502328
2402.0,0.12239832027072817
2401.0,0.12257105921178035
2400.0,0.12274386688641381
2399.0,0.12280148472821018
2398.0,0.12268625668776156
2397.0,0.12262865413022594
2396.0,0.12257105921178035
2395.0,0.12262865413022594
2394.0,0.12262865413022594
2393.0,0.12257105921178035
2392.0,0.12245589228405596
2391.0,0.12234075588839133
2390.0,0.12222565000860186
2389.0,0.12222565000860186
2388.0,0.12222565000860186
2387.0,0.12216810850710624
2386.0,0.1219955297319748
2385.0,0.12176553132495593
2384.0,0.12153565465853111
2383.0,0.12147820449879343
2382.0,0.12147820449879343
2381.0,0.12142076193778073
2380.0,0.12124847982699793
2379.0,0.12084675381575383
2378.0,0.12027350336042275
2377.0,0.11958660012208333
2376.0,0.11884367892443626
2375.0,0.11815903167507247
2374.0,0.11758931562603192
2373.0,0.11736163830396129
2372.0,0.11758931562603192
2371.0,0.11804502866039956
2370.0,0.11833009232793867
2369.0,0.11815903167507247
2368.0,0.11781711236973003
2367.0,0.11776015198117662
2366.0,0.1183871275216517
2365.0,0.11970100857424737
2364.0,0.12136332697348307
2363.0,0.12262865413022594
2362.0,0.12314735239865637
2361.0,0.12285911021517903
2360.0,0.12193801870998744
2359.0,0.12044539906102569
2358.0,0.11890078161098283
2357.0,0.11827306462358211
2356.0,0.11912926746757657
2355.0,0.1207893947082408
2354.0,0.12193801870998744
2353.0,0.12234075588839133
2352.0,0.12211057462851604
2351.0,0.1213058996038916
2350.0,0.12027350336042275
2349.0,0.11970100857424737
2348.0,0.11992991593593283
2347.0,0.12027350336042275
2346.0,0.11992991593593283
2345.0,0.11872949607064243
2344.0,0.11719095860756013
2343.0,0.11582793047608719
2342.0,0.114865033936566
2341.0,0.11441264381034388
2340.0,0.11418662533951118
2339.0,0.11458223488906394
2338.0,0.11616828667054757
2337.0,0.11855827805860697
2336.0,0.12050271275057156
2335.0,0.12096149476276286
2334.0,0.1203880929341492
2333.0,0.1199871616332282
2332.0,0.12033079436794658
2331.0,0.12096149476276286
2330.0,0.12142076193778073
2329.0,0.12182301950849372
2328.0,0.12268625668776156
2327.0,0.1236666709136196
2326.0,0.1244757360506914
2325.0,0.12470717462899183
2324.0,0.12482294018529605
2323.0,0.1249387366082999
2322.0,0.124996646399959
2321.0,0.12476505354983503
2320.0,0.12424442074194553
2319.0,0.12395544975390482
2318.0,0.12395544975390482
2317.0,0.12424442074194553
2316.0,0.1244757360506914
2315.0,0.12453358413361437
2314.0,0.1244757360506914
2313.0,0.12430223801979201
2312.0,0.12436006299583169
2311.0,0.12441789567211425
2310.0,0.12459143992293642
2309.0,0.12470717462899183
2308.0,0.12476505354983503
2307.0,0.12476505354983503
2306.0,0.12482294018529605
2305.0,0.1249387366082999
2304.0,0.124996646399959
2303.0,0.125054563914468
2302.0,0.125054563914468
2301.0,0.125054563914468
2300.0,0.1249387366082999
2299.0,0.12482294018529605
2298.0,0.12482294018529605
2297.0,0.1249387366082999
2296.0,0.125054563914468
2295.0,0.1251124891538875
2294.0,0.1251124891538875
2293.0,0.12517042212027807
2292.0,0.1252863112422209
2291.0,0.12534426740189897
2290.0,0.12534426740189897
2289.0,0.12534426740189897
2288.0,0.1252863112422209
2287.0,0.1252863112422209
2286.0,0.1252863112422209
2285.0,0.12522836281570182
2284.0,0.1251124891538875
2283.0,0.125054563914468
2282.0,0.124996646399959
2281.0,0.124996646399959
2280.0,0.124996646399959
2279.0,0.1251124891538875
2278.0,0.12522836281570182
2277.0,0.12534426740189897
2276.0,0.12546020292898974
2275.0,0.12546020292898974
2274.0,0.12551818230053358
2273.0,0.12557616941349803
2272.0,0.12557616941349803
2271.0,0.12551818230053358
2270.0,0.12534426740189897
2269.0,0.12517042212027807
2268.0,0.124996646399959
2267.0,0.12482294018529605
2266.0,0.12476505354983503
2265.0,0.12476505354983503
2264.0,0.12482294018529605
2263.0,0.1248808345374317
2262.0,0.1249387366082999
2261.0,0.124996646399959
2260.0,0.125054563914468
2259.0,0.1251124891538875
2258.0,0.12517042212027807
2257.0,0.12522836281570182
2256.0,0.12517042212027807
2255.0,0.12517042212027807
2254.0,0.12517042212027807
2253.0,0.1252863112422209
2252.0,0.12540223129680017
2251.0,0.12551818230053358
2250.0,0.12557616941349803
2249.0,0.12563416426995122
2248.0,0.12575017722159698
2247.0,0.12575017722159698
2246.0,0.12563416426995122
2245.0,0.12557616941349803
2244.0,0.12557616941349803
2243.0,0.12569216687196105
2242.0,0.12575017722159698
2241.0,0.1258081953209289
2240.0,0.1258081953209289
2239.0,0.12586622117202761
2238.0,0.12592425477696523
2237.0,0.12592425477696523
2236.0,0.1258081953209289
2235.0,0.12563416426995122
2234.0,0.12563416426995122
2233.0,0.12569216687196105
2232.0,0.1258081953209289
2231.0,0.12586622117202761
2230.0,0.12592425477696523
2229.0,0.12598229613781387
2228.0,0.12598229613781387
2227.0,0.12592425477696523
2226.0,0.1258081953209289
2225.0,0.12575017722159698
2224.0,0.1258081953209289
2223.0,0.12592425477696523
2222.0,0.12598229613781387
2221.0,0.12604034525664676
2220.0,0.12604034525664676
2219.0,0.12604034525664676
2218.0,0.12604034525664676
2217.0,0.1260984021355387
2216.0,0.126156466776564
2215.0,0.12621453918179926
2214.0,0.12627261935332057
2213.0,0.12627261935332057
2212.0,0.12621453918179926
2211.0,0.1260984021355387
2210.0,0.12598229613781387
2209.0,0.12586622117202761
2208.0,0.1258081953209289
2207.0,0.1258081953209289
2206.0,0.12598229613781387
2205.0,0.126156466776564
2204.0,0.12627261935332057
2203.0,0.1263307072932056
2202.0,0.12638880300353272
2201.0,0.12638880300353272
2200.0,0.12638880300353272
2199.0,0.1263307072932056
2198.0,0.12638880300353272
2197.0,0.12644690648638135
2196.0,0.12656313677796316
2195.0,0.12656313677796316
2194.0,0.12650501774383094
2193.0,0.1263307072932056
2192.0,0.1263307072932056
2191.0,0.1263307072932056
2190.0,0.12650501774383094
2189.0,0.126621263590859
2188.0,0.1267375405612734
2187.0,0.12679569072295926
2186.0,0.12685384867174432
2185.0,0.12679569072295926
2184.0,0.12679569072295926
2183.0,0.1267375405612734
2182.0,0.12679569072295926
2181.0,0.12679569072295926
2180.0,0.12685384867174432
2179.0,0.12691201440971422
2178.0,0.12697018793895576
2177.0,0.1270865583796048
2176.0,0.12720296001040166
2175.0,0.12720296001040166
2174.0,0.12714475529518965
2173.0,0.1270865583796048
2172.0,0.1270865583796048
2171.0,0.12714475529518965
2170.0,0.12720296001040166
2169.0,0.12726117252733116
2168.0,0.12737762097471172
2167.0,0.12743585690934855
2166.0,0.12743585690934855
2165.0,0.12737762097471172
2164.0,0.12731939284807026
2163.0,0.12726117252733116
2162.0,0.12731939284807026
2161.0,0.12743585690934855
2160.0,0.12761061158217912
2159.0,0.1277271537757949
2158.0,0.1277271537757949
2157.0,0.1276688787697493
2156.0,0.1276688787697493
2155.0,0.1276688787697493
2154.0,0.12778543660241448
2153.0,0.12778543660241448
2152.0,0.12778543660241448
2151.0,0.1277271537757949
2150.0,0.1277271537757949
2149.0,0.1276688787697493
2148.0,0.1276688787697493
2147.0,0.1277271537757949
2146.0,0.1277271537757949
2145.0,0.12784372725170723
2144.0,0.12796033202671375
2143.0,0.1280769681176266
2142.0,0.1281352979118051
2141.0,0.1281352979118051
2140.0,0.1280186461566306
2139.0,0.12784372725170723
2138.0,0.1277271537757949
2137.0,0.12778543660241448
2136.0,0.12796033202671375
2135.0,0.1281352979118051
2134.0,0.1282519810081284
2133.0,0.1282519810081284
2132.0,0.1281352979118051
2131.0,0.1280769681176266
2130.0,0.1280186461566306
2129.0,0.1281352979118051
2128.0,0.12836869546244634
2127.0,0.12854382597704617
2126.0,0.12854382597704617
2125.0,0.1284854412916181
2124.0,0.12842706445412122
2123.0,0.12836869546244634
2122.0,0.12836869546244634
2121.0,0.1284854412916181
2120.0,0.12854382597704617
2119.0,0.12854382597704617
2118.0,0.12854382597704617
2117.0,0.1284854412916181
2116.0,0.1284854412916181
2115.0,0.1284854412916181
2114.0,0.12854382597704617
2113.0,0.1286022185125162
2112.0,0.12866061890013913
2111.0,0.12877744324029283
2110.0,0.12883586719705065
2109.0,0.12877744324029283
2108.0,0.12883586719705065
2107.0,0.12889429901441463
2106.0,0.1290696416513042
2105.0,0.12918657608440243
2104.0,0.12918657608440243
2103.0,0.1290696416513042
2102.0,0.12889429901441463
2101.0,0.12883586719705065
2100.0,0.12883586719705065
2099.0,0.12889429901441463
2098.0,0.12889429901441463
2097.0,0.12883586719705065
2096.0,0.12877744324029283
2095.0,0.1287190271420271
2094.0,0.12877744324029283
2093.0,0.12895273869450063
2092.0,0.12924505510985984
2091.0,0.12942053944731513
2090.0,0.12953756841108
2089.0,0.1294790499872358
2088.0,0.12942053944731513
2087.0,0.12936203678919433
2086.0,0.12936203678919433
2085.0,0.12930354201075
2084.0,0.12930354201075
2083.0,0.12936203678919433
2082.0,0.12942053944731513
2081.0,0.1294790499872358
2080.0,0.12953756841108
2079.0,0.1294790499872358
2078.0,0.12936203678919433
2077.0,0.12936203678919433
2076.0,0.1294790499872358
2075.0,0.12971317100740865
2074.0,0.13000599987825812
2073.0,0.13012318673323353
2072.0,0.13018179202067182
2071.0,0.13012318673323353
2070.0,0.13012318673323353
2069.0,0.13012318673323353
2068.0,0.13000599987825812
2067.0,0.12988884463559924
2066.0,0.12977172098820566
2065.0,0.12988884463559924
2064.0,0.13006458935314003
2063.0,0.13018179202067182
2062.0,0.13018179202067182
2061.0,0.13012318673323353
2060.0,0.13006458935314003
2059.0,0.13012318673323353
2058.0,0.13018179202067182
2057.0,0.1302990263261221
2056.0,0.13041629228657614
2055.0,0.1304749371427727
2054.0,0.13041629228657614
2053.0,0.1304749371427727
2052.0,0.13053358991913355
2051.0,0.1305922506177981
2050.0,0.1305922506177981
2049.0,0.13053358991913355
2048.0,0.13053358991913355
2047.0,0.1304749371427727
2046.0,0.13041629228657614
2045.0,0.13041629228657614
2044.0,0.13041629228657614
2043.0,0.13053358991913355
2042.0,0.1306509192409071
2041.0,0.13076828026902376
2040.0,0.1308269726783169
2039.0,0.1308856730206247
2038.0,0.13094438129809216
2037.0,0.13094438129809216
2036.0,0.13100309751286465
2035.0,0.13100309751286465
2034.0,0.13094438129809216
2033.0,0.1308856730206247
2032.0,0.1308856730206247
2031.0,0.13100309751286465
2030.0,0.1311205537629121
2029.0,0.1312967977214634
2028.0,0.13141433344123432
2027.0,0.13153190097901324
2026.0,0.13170831198214428
2025.0,0.1318847946727828
2024.0,0.13194363817695853
2023.0,0.13200248965504868
2022.0,0.13194363817695853
2021.0,0.1318847946727828
2020.0,0.1318847946727828
2019.0,0.13194363817695853
2018.0,0.13194363817695853
2017.0,0.13200248965504868
2016.0,0.13200248965504868
2015.0,0.13200248965504868
2014.0,0.13194363817695853
2013.0,0.13176713157753506
2012.0,0.13170831198214428
2011.0,0.13170831198214428
2010.0,0.13176713157753506
2009.0,0.1318847946727828
2008.0,0.13194363817695853
2007.0,0.13194363817695853
2006.0,0.1318847946727828
2005.0,0.1318847946727828
2004.0,0.13200248965504868
2003.0,0.1320613491092153
2002.0,0.1320613491092153
2001.0,0.13200248965504868
2000.0,0.13200248965504868
1999.0,0.1320613491092153
1998.0,0.132179091954427
1997.0,0.13229686672990226
1996.0,0.13229686672990226
1995.0,0.1322379753497993
1994.0,0.1322379753497993
1993.0,0.13229686672990226
1992.0,0.13241467345296387
1991.0,0.1325325121409484
1990.0,0.1325325121409484
1989.0,0.13259144347720886
1988.0,0.13265038281120756
1987.0,0.13270933014511588
1986.0,0.13259144347720886
1985.0,0.13247358880025661
1984.0,0.13247358880025661
1983.0,0.13247358880025661
1982.0,0.1325325121409484
1981.0,0.13247358880025661
1980.0,0.13247358880025661
1979.0,0.13259144347720886
1978.0,0.13276828548110586
1977.0,0.13294519952329842
1976.0,0.13306318226836056
1975.0,0.13300418688935212
1974.0,0.13294519952329842
1973.0,0.13294519952329842
1972.0,0.13300418688935212
1971.0,0.1331221856625011
1970.0,0.13318119707395182
1969.0,0.13324021650489182
1968.0,0.13324021650489182
1967.0,0.13324021650489182
1966.0,0.13329924395750092
1965.0,0.13335827943396006
1964.0,0.13341732293645103
1963.0,0.13353543402825974
1962.0,0.13371266091580503
1961.0,0.13383085236622927
1960.0,0.13394907599072514
1959.0,0.13394907599072514
1958.0,0.13388996015562338
1957.0,0.13383085236622927
1956.0,0.1337717526203528
1955.0,0.1337717526203528
1954.0,0.13371266091580503
1953.0,0.13365357725039817
1952.0,0.13353543402825974
1951.0,0.13353543402825974
1950.0,0.13359450162194508
1949.0,0.13365357725039817
1948.0,0.1337717526203528
1947.0,0.13383085236622927
1946.0,0.1337717526203528
1945.0,0.13359450162194508
1944.0,0.13341732293645103
1943.0,0.13329924395750092
1942.0,0.13335827943396006
1941.0,0.13353543402825974
1940.0,0.13365357725039817
1939.0,0.1337717526203528
1938.0,0.13388996015562338
1937.0,0.13394907599072514
1936.0,0.1340081998737246
1935.0,0.1340081998737246
1934.0,0.1341264717921853
1933.0,0.13418561983203192
1932.0,0.13430394008392943
1931.0,0.13436311230037123
1930.0,0.13442229258007088
1929.0,0.13448148092522594
1928.0,0.13454067733803532
1927.0,0.13454067733803532
1926.0,0.13448148092522594
1925.0,0.13436311230037123
1924.0,0.13430394008392943
1923.0,0.13436311230037123
1922.0,0.13448148092522594
1921.0,0.134659094375416
1920.0,0.13477754370982087
1919.0,0.13489602535887202
1918.0,0.1349552783069008
1917.0,0.13501453934020602
1916.0,0.13501453934020602
1915.0,0.1349552783069008
1914.0,0.1349552783069008
1913.0,0.1349552783069008
1912.0,0.13489602535887202
1911.0,0.13477754370982087
1910.0,0.13477754370982087
1909.0,0.13489602535887202
1908.0,0.13501453934020602
1907.0,0.1350738084609946
1906.0,0.1350738084609946
1905.0,0.13519237097385295
1904.0,0.1352516643703412
1903.0,0.13537027545448765
1902.0,0.1354889189416082
1901.0,0.13566694496660703
1900.0,0.13572630319562085
1899.0,0.13578566953867033
1898.0,0.13566694496660703
1897.0,0.13566694496660703
1896.0,0.13572630319562085
1895.0,0.13584504399797437
1894.0,0.1360232160956132
1893.0,0.1360826230421397
1892.0,0.136142038116027
1891.0,0.1360826230421397
1890.0,0.1360232160956132
1889.0,0.13596381727422502
1888.0,0.13584504399797437
1887.0,0.13578566953867033
1886.0,0.13578566953867033
1885.0,0.13584504399797437
1884.0,0.13590442657575252
1883.0,0.13590442657575252
1882.0,0.13590442657575252
1881.0,0.13590442657575252
1880.0,0.13590442657575252
1879.0,0.13590442657575252
1878.0,0.13590442657575252
1877.0,0.13584504399797437
1876.0,0.13584504399797437
1875.0,0.13584504399797437
1874.0,0.13596381727422502
1873.0,0.1360826230421397
1872.0,0.13620146131949973
1871.0,0.13620146131949973
1870.0,0.136142038116027
1869.0,0.1360826230421397
1868.0,0.1360826230421397
1867.0,0.1360232160956132
1866.0,0.13596381727422502
1865.0,0.1360826230421397
1864.0,0.13626089265478303
1863.0,0.13632033212410222
1862.0,0.13632033212410222
1861.0,0.1363797797296844
1860.0,0.13643923547375736
1859.0,0.13643923547375736
1858.0,0.1363797797296844
1857.0,0.13632033212410222
1856.0,0.13632033212410222
1855.0,0.1363797797296844
1854.0,0.13643923547375736
1853.0,0.13661765155921235
1852.0,0.1366771398795441
1851.0,0.13673663634951905
1850.0,0.13673663634951905
1849.0,0.13673663634951905
1848.0,0.13673663634951905
1847.0,0.1367961409713705
1846.0,0.1369151746796402
1845.0,0.13709378643700187
1844.0,0.13727247168202528
1843.0,0.13721290176465573
1842.0,0.13697470377052956
1841.0,0.1367961409713705
1840.0,0.13673663634951905
1839.0,0.1366771398795441
1838.0,0.1366771398795441
1837.0,0.1367961409713705
1836.0,0.13697470377052956
1835.0,0.13709378643700187
1834.0,0.13709378643700187
1833.0,0.13697470377052956
1832.0,0.1367961409713705
1831.0,0.13655817138629134
1830.0,0.13649869935854997
1829.0,0.13661765155921235
1828.0,0.1367961409713705
1827.0,0.13697470377052956
1826.0,0.13709378643700187
1825.0,0.13721290176465573
1824.0,0.13727247168202528
1823.0,0.1373320497714121
1822.0,0.13727247168202528
1821.0,0.13727247168202528
1820.0,0.1373320497714121
1819.0,0.1374512304752069
1818.0,0.13751083309410284
1817.0,0.13763006287711765
1816.0,0.13780896894840278
1815.0,0.13774932540207496
1814.0,0.1375704438939911
1813.0,0.1373320497714121
1812.0,0.1373320497714121
1811.0,0.13739163603505822
1810.0,0.1374512304752069
1809.0,0.1375704438939911
1808.0,0.13774932540207496
1807.0,0.13780896894840278
1806.0,0.13780896894840278
1805.0,0.13786862068696282
1804.0,0.13780896894840278
1803.0,0.13774932540207496
1802.0,0.13763006287711765
1801.0,0.13763006287711765
1800.0,0.13774932540207496
1799.0,0.13774932540207496
1798.0,0.13768969004572962
1797.0,0.13763006287711765
1796.0,0.13763006287711765
1795.0,0.13763006287711765
1794.0,0.13763006287711765
1793.0,0.13768969004572962
1792.0,0.13798794874978348
1791.0,0.13822670328130693
1790.0,0.1384058553561347
1789.0,0.13864483980673992
1788.0,0.1388241644869712
1787.0,0.1388839558386048
1786.0,0.1388241644869712
1785.0,0.1388241644869712
1784.0,0.13870460647330418
1783.0,0.1385253311428314
1782.0,0.13828641242856565
1781.0,0.13822670328130693
1780.0,0.13828641242856565
1779.0,0.1385253311428314
1778.0,0.13864483980673992
1777.0,0.13864483980673992
1776.0,0.13864483980673992
1775.0,0.13864483980673992
1774.0,0.13870460647330418
1773.0,0.1387643813659596
1772.0,0.13894375542312654
1771.0,0.13912320359670227
1770.0,0.13918303613546223
1769.0,0.13930272594796111
1768.0,0.13948232253825377
1767.0,0.13948232253825377
1766.0,0.1394224487555844
1765.0,0.1394224487555844
1764.0,0.13948232253825377
1763.0,0.13960209487268727
1762.0,0.13978181533124334
1761.0,0.13984173868172167
1760.0,0.13990167030148193
1759.0,0.1399616101928065
1758.0,0.1399616101928065
1757.0,0.1399616101928065
1756.0,0.1399616101928065
1755.0,0.14002155835797914
1754.0,0.1400815147992842
1753.0,0.1399616101928065
1752.0,0.13978181533124334
1751.0,0.1397219002477652
1750.0,0.1397219002477652
1749.0,0.1399616101928065
1748.0,0.14026143380285316
1747.0,0.14062149557439896
1746.0,0.14086170270546927
1745.0,0.1409217752530305
1744.0,0.1409818561111058
1743.0,0.14122226269455074
1742.0,0.1414628024303608
1741.0,0.14164329470222659
1740.0,0.141884067809934
1739.0,0.14200450443907608
1738.0,0.1419442819496357
1737.0,0.1419442819496357
1736.0,0.14206473528057106
1735.0,0.14224547794055775
1734.0,0.14266750356873148
1733.0,0.14284849731250704
1732.0,0.14248658522331015
1731.0,0.1423660148499919
1730.0,0.14248658522331015
1729.0,0.1425468829647336
1728.0,0.14266750356873148
1727.0,0.14290884532648618
1726.0,0.14321071124668383
1725.0,0.14345235514325205
1724.0,0.14369413356670102
1723.0,0.14393604666690019
1722.0,0.14417809459397013
1721.0,0.14429916916456276
1720.0,0.14448084433219988
1719.0,0.14442027749828212
1718.0,0.14448084433219988
1717.0,0.1447838052666366
1716.0,0.14502632627358292
1715.0,0.1450869776921444
1714.0,0.14526898278605782
1713.0,0.1455724942121388
1712.0,0.1456939581989194
1711.0,0.1456939581989194
1710.0,0.1455724942121388
1709.0,0.14539036190420496
1708.0,0.1450869776921444
1707.0,0.1447838052666366
1706.0,0.1446020033459312
1705.0,0.1446020033459312
1704.0,0.14472319616990825
1703.0,0.14490504884137811
1702.0,0.1450869776921444
1701.0,0.14526898278605782
1700.0,0.1456332219591303
1699.0,0.1456939581989194
1698.0,0.1456332219591303
1697.0,0.14599776687301103
1696.0,0.14630178822382556
1695.0,0.1459369881335788
1694.0,0.14539036190420496
1693.0,0.14526898278605782
1692.0,0.1455724942121388
1691.0,0.1455724942121388
1690.0,0.14551177495556966
1689.0,0.14545106418704923
1688.0,0.1455724942121388
1687.0,0.1456939581989194
1686.0,0.1455724942121388
1685.0,0.14532966810466452
1684.0,0.1455724942121388
1683.0,0.1456332219591303
1682.0,0.14551177495556966
1681.0,0.14587621789883287
1680.0,0.14630178822382556
1679.0,0.1466060225493342
1678.0,0.14684956355215717
1677.0,0.14703230897118158
1676.0,0.1472151313194523
1675.0,0.14752000636314366
1674.0,0.14764201633217278
1673.0,0.14752000636314366
1672.0,0.1472760892087941
1671.0,0.14703230897118158
1670.0,0.14703230897118158
1669.0,0.1472760892087941
1668.0,0.14745901423020125
1667.0,0.1475810070629986
1666.0,0.14776406058811253
1665.0,0.14782509557969692
1664.0,0.14782509557969692
1663.0,0.1477030341730745
1662.0,0.1477030341730745
1661.0,0.14752000636314366
1660.0,0.14739803066176504
1659.0,0.14745901423020125
1658.0,0.1475810070629986
1657.0,0.14764201633217278
1656.0,0.1477030341730745
1655.0,0.1475810070629986
1654.0,0.14745901423020125
1653.0,0.14800825203784274
1652.0,0.14752000636314366
1651.0,0.1465451586319333
1650.0,0.14666689499766483
1649.0,0.14697138528701026
1648.0,0.14697138528701026
1647.0,0.1472151313194523
1646.0,0.14764201633217278
1645.0,0.14764201633217278
1644.0,0.14764201633217278
1643.0,0.14776406058811253
1642.0,0.1479471913021495
1641.0,0.14800825203784274
1640.0,0.1478861391502384
1639.0,0.1478861391502384
1638.0,0.1479471913021495
1637.0,0.1480693213597324
1636.0,0.14837479684669086
1635.0,0.14849704722945534
1634.0,0.1480693213597324
1633.0,0.14782509557969692
1632.0,0.14800825203784274
1631.0,0.1480693213597324
1630.0,0.1480693213597324
1629.0,0.1479471913021495
1628.0,0.1478861391502384
1627.0,0.1479471913021495
1626.0,0.14813039927023364
1625.0,0.1482525808667361
1624.0,0.14819148577176255
1623.0,0.1480693213597324
1622.0,0.14776406058811253
1621.0,0.14752000636314366
1620.0,0.14745901423020125
1619.0,0.14752000636314366
1618.0,0.1477030341730745
1617.0,0.1479471913021495
1616.0,0.14813039927023364
1615.0,0.14813039927023364
1614.0,0.14819148577176255
1613.0,0.14831368455757254
1612.0,0.1482525808667361
1611.0,0.14800825203784274
1610.0,0.1478861391502384
1609.0,0.1479471913021495
1608.0,0.14800825203784274
1607.0,0.1480693213597324
1606.0,0.14813039927023364
1605.0,0.1480693213597324
1604.0,0.1479471913021495
1603.0,0.1478861391502384
1602.0,0.14800825203784274
1601.0,0.14813039927023364
1600.0,0.14819148577176255
1599.0,0.14819148577176255
1598.0,0.14819148577176255
1597.0,0.14819148577176255
1596.0,0.14813039927023364
1595.0,0.14819148577176255
1594.0,0.1482525808667361
1593.0,0.1482525808667361
1592.0,0.14819148577176255
1591.0,0.14813039927023364
1590.0,0.14813039927023364
1589.0,0.14813039927023364
1588.0,0.14813039927023364
1587.0,0.14813039927023364
1586.0,0.1480693213597324
1585.0,0.1480693213597324
1584.0,0.1480693213597324
1583.0,0.14819148577176255
1582.0,0.1482525808667361
1581.0,0.14819148577176255
1580.0,0.1479471913021495
1579.0,0.14782509557969692
1578.0,0.1478861391502384
1577.0,0.1478861391502384
1576.0,0.1479471913021495
1575.0,0.1478861391502384
1574.0,0.1477030341730745
1573.0,0.14782509557969692
1572.0,0.1479471913021495
1571.0,0.1478861391502384
1570.0,0.1478861391502384
1569.0,0.1480693213597324
1568.0,0.14819148577176255
1567.0,0.14819148577176255
1566.0,0.14819148577176255
1565.0,0.14800825203784274
1564.0,0.14776406058811253
1563.0,0.14764201633217278
1562.0,0.1477030341730745
1561.0,0.14733705565543076
1560.0,0.1465451586319333
1559.0,0.14684956355215717
1558.0,0.14764201633217278
1557.0,0.1472151313194523
1556.0,0.14739803066176504
1555.0,0.1478861391502384
1554.0,0.14800825203784274
1553.0,0.1478861391502384
1552.0,0.14776406058811253
1551.0,0.14782509557969692
1550.0,0.1478861391502384
1549.0,0.1479471913021495
1548.0,0.1479471913021495
1547.0,0.14782509557969692
1546.0,0.1475810070629986
1545.0,0.14739803066176504
1544.0,0.14745901423020125
1543.0,0.14776406058811253
1542.0,0.14776406058811253
1541.0,0.1475810070629986
1540.0,0.14745901423020125
1539.0,0.14697138528701026
1538.0,0.14624096692523136
1537.0,0.14624096692523136
1536.0,0.14648430324307138
1535.0,0.14648430324307138
1534.0,0.1463626180414057
1533.0,0.14648430324307138
1532.0,0.14672777597931685
1531.0,0.14684956355215717
1530.0,0.14672777597931685
1529.0,0.1465451586319333
1528.0,0.1463626180414057
1527.0,0.14618015414323682
1526.0,0.14599776687301103
1525.0,0.14587621789883287
1524.0,0.1459369881335788
1523.0,0.1461193498754576
1522.0,0.14630178822382556
1521.0,0.1463626180414057
1520.0,0.1459369881335788
1519.0,0.14545106418704923
1518.0,0.14520830594601453
1517.0,0.14502632627358292
1516.0,0.14502632627358292
1515.0,0.14502632627358292
1514.0,0.14490504884137811
1513.0,0.14472319616990825
1512.0,0.14435971910985468
1511.0,0.143996546002779
1510.0,0.14363367634075197
1509.0,0.14333151638846497
1508.0,0.14333151638846497
1507.0,0.14381507327283027
1506.0,0.14363367634075197
1505.0,0.14260718907909875
1504.0,0.14224547794055775
1503.0,0.1423660148499919
1502.0,0.1423660148499919
1501.0,0.14212497447643746
1500.0,0.141884067809934
1499.0,0.1414628024303608
1498.0,0.1409217752530305
1497.0,0.14038142122781938
1496.0,0.1400815147992842
1495.0,0.13978181533124334
1494.0,0.1394224487555844
1493.0,0.13924287691845794
1492.0,0.13900356324280416
1491.0,0.13846558914096208
1490.0,0.1375704438939911
1489.0,0.1366771398795441
1488.0,0.13590442657575252
1487.0,0.13513308567147386
1486.0,0.13436311230037123
1485.0,0.13353543402825974
1484.0,0.13270933014511588
1483.0,0.13176713157753506
1482.0,0.13041629228657614
1481.0,0.12895273869450063
1480.0,0.1276688787697493
1479.0,0.12650501774383094
1478.0,0.12557616941349803
1477.0,0.12598229613781387
1476.0,0.12977172098820566
1475.0,0.1387643813659596
1474.0,0.1542200328881107
1473.0,0.17567887514922864
1472.0,0.19572423287090612
1471.0,0.20467623567068616
1470.0,0.20502425594886842
1469.0,0.20391157131933157
1468.0,0.20398103065285067
1467.0,0.2054422487452383
1466.0,0.2089412564081745
1465.0,0.21681130892474232
1464.0,0.22914798835785577
1463.0,0.2415423113895343
1462.0,0.24926024876464936
1461.0,0.2512694439015055
1460.0,0.2482591261890994
1459.0,0.2415423113895343
1458.0,0.23284413391781955
1457.0,0.22497239990115525
1456.0,0.21961067152904712
1455.0,0.21616785661555893
1454.0,0.21381665443236653
1453.0,0.21147811277752715
1452.0,0.2087305190897315
1451.0,0.20572113427860006
1450.0,0.20294030530002893
1449.0,0.20065945054641832
1448.0,0.198596289982645
1447.0,0.19667947642124606
1446.0,0.19511125537760865
1445.0,0.19388788983090888
1444.0,0.19300648631789286
1443.0,0.1921268679966679
1442.0,0.191383964573008
1441.0,0.19070969882368427
1440.0,0.19010375339756092
1439.0,0.1894986522334703
1438.0,0.18882730493344568
1437.0,0.18815699382352258
1436.0,0.18762148884580565
1435.0,0.18688624599210146
1434.0,0.1862189218259176
1433.0,0.1854860476317619
1432.0,0.18462151503408197
1431.0,0.1835598320438614
1430.0,0.18243463044021913
1429.0,0.18131233655848633
1428.0,0.18032448000570733
1427.0,0.17940450345550985
1426.0,0.1785519809824696
1425.0,0.17763574755845046
1424.0,0.17672144304832926
1423.0,0.17600440884403223
1422.0,0.17535358528164813
1421.0,0.17470373556903995
1420.0,0.17392519729917355
1419.0,0.1733422081241307
1418.0,0.17295398299526576
1417.0,0.17256610459922084
1416.0,0.1724368887452763
1415.0,0.17230771132555445
1414.0,0.1721140172101443
1413.0,0.1718558926962137
1412.0,0.17166239994099564
1411.0,0.1714689933548985
1410.0,0.17121125181504682
1409.0,0.17088928984470542
1408.0,0.1705032502798176
1407.0,0.1701175535565067
1406.0,0.16986061257465734
1405.0,0.16979640107429583
1404.0,0.16986061257465734
1403.0,0.16986061257465734
1402.0,0.16973219906635828
1401.0,0.1693471862025755
1400.0,0.16889843549864048
1399.0,0.16857818293497795
1398.0,0.1683221508085333
1397.0,0.16806626953325465
1396.0,0.16774662980299215
1395.0,0.16768273007773837
1394.0,0.16774662980299215
1393.0,0.16781053893148679
1392.0,0.16774662980299215
1391.0,0.1675549588258891
1390.0,0.16729952903943257
1389.0,0.16704424939540163
1388.0,0.16691666582165698
1387.0,0.16691666582165698
1386.0,0.16704424939540163
1385.0,0.16717187046064663
1384.0,0.16742722515382025
1383.0,0.16774662980299215
1382.0,0.1683221508085333
1381.0,0.16915480769138846
1380.0,0.17031035910102887
1379.0,0.17172688794793012
1378.0,0.17295398299526576
1377.0,0.17379557650074728
1376.0,0.17411970106382046
1375.0,0.17405485679615196
1374.0,0.17405485679615196
1373.0,0.17411970106382046
1372.0,0.17418455501479646
1371.0,0.17431429197824166
1370.0,0.17463880404736676
1369.0,0.17496355877864622
1368.0,0.17535358528164813
1367.0,0.17567887514922864
1366.0,0.17574396237031764
1365.0,0.17561379768122598
1364.0,0.1754186237665174
1363.0,0.17535358528164813
1362.0,0.1754186237665174
1361.0,0.17535358528164813
1360.0,0.1752235375244544
1359.0,0.17502853887630665
1358.0,0.17483362774345035
1357.0,0.17470373556903995
1356.0,0.17463880404736676
1355.0,0.17470373556903995
1354.0,0.17496355877864622
1353.0,0.17528855653526554
1352.0,0.1755487299633871
1351.0,0.17580905934741686
1350.0,0.17600440884403223
1349.0,0.17613469067548881
1348.0,0.17606954487443605
1347.0,0.17600440884403223
1346.0,0.17593928258134706
1345.0,0.17593928258134706
1344.0,0.17593928258134706
1343.0,0.17600440884403223
1342.0,0.17600440884403223
1341.0,0.17593928258134706
1340.0,0.17593928258134706
1339.0,0.17600440884403223
1338.0,0.17613469067548881
1337.0,0.17613469067548881
1336.0,0.17613469067548881
1335.0,0.17606954487443605
1334.0,0.17606954487443605
1333.0,0.17606954487443605
1332.0,0.17606954487443605
1331.0,0.17600440884403223
1330.0,0.17600440884403223
1329.0,0.17600440884403223
1328.0,0.17613469067548881
1327.0,0.17633018673186363
1326.0,0.1764605663431411
1325.0,0.1764605663431411
1324.0,0.1764605663431411
1323.0,0.1764605663431411
1322.0,0.17665620917935154
1321.0,0.17685194018930606
1320.0,0.17698247655395072
1319.0,0.17711305216584927
1318.0,0.17730898922394545
1317.0,0.1775703762206431
1316.0,0.1778319206319825
1315.0,0.17815907279954568
1314.0,0.1784864715952268
1313.0,0.17874856845405884
1312.0,0.17907641211868253
1311.0,0.17940450345550985
1310.0,0.17979854051435984
1309.0,0.18025870272698952
1308.0,0.18065351591954726
1307.0,0.1809828013109407
1306.0,0.18131233655848633
1305.0,0.18144422070219735
1304.0,0.18164212204164532
1303.0,0.18190613085336405
1302.0,0.18223636771963214
1301.0,0.18263298371240588
1300.0,0.182963773949971
1299.0,0.1831623690979649
1298.0,0.18336105510153855
1297.0,0.18342730397389695
1296.0,0.1835598320438614
1295.0,0.18369240056806024
1294.0,0.1838913292600961
1293.0,0.1840903491132253
1292.0,0.18422307970163732
1291.0,0.18435585086803474
1290.0,0.18435585086803474
1289.0,0.18435585086803474
1288.0,0.18442225167573278
1287.0,0.18455508375564977
1286.0,0.1847544080834369
1285.0,0.1849538239353694
1284.0,0.1851533313955367
1283.0,0.18521985425419518
1282.0,0.1851533313955367
1281.0,0.18521985425419518
1280.0,0.18528638730402336
1279.0,0.18535293054814383
1278.0,0.1854860476317619
1277.0,0.18555262147751228
1276.0,0.18568579979254052
1275.0,0.1859522790044006
1274.0,0.18615224577114575
1273.0,0.18628560811885508
1272.0,0.18628560811885508
1271.0,0.1862189218259176
1270.0,0.1862189218259176
1269.0,0.18635230465310326
1268.0,0.18655245573517876
1267.0,0.1867526991023949
1266.0,0.18688624599210146
1265.0,0.18701983396051958
1264.0,0.1872871332346313
1263.0,0.18762148884580565
1262.0,0.1878891587969005
1261.0,0.18809001957990112
1260.0,0.18809001957990112
1259.0,0.18815699382352258
1258.0,0.18822397839709626
1257.0,0.18822397839709626
1256.0,0.18822397839709626
1255.0,0.18822397839709626
1254.0,0.18822397839709626
1253.0,0.18815699382352258
1252.0,0.18809001957990112
1251.0,0.18809001957990112
1250.0,0.18809001957990112
1249.0,0.18809001957990112
1248.0,0.188023055663046
1247.0,0.188023055663046
1246.0,0.188023055663046
1245.0,0.18815699382352258
1244.0,0.18829097330380895
1243.0,0.18842499412940672
1242.0,0.1885590563258419
1241.0,0.1885590563258419
1240.0,0.1885590563258419
1239.0,0.1886261029461067
1238.0,0.18869315991866387
1237.0,0.18869315991866387
1236.0,0.1886261029461067
1235.0,0.1885590563258419
1234.0,0.18849202005467336
1233.0,0.18842499412940672
1232.0,0.188357978546849
1231.0,0.188357978546849
1230.0,0.188357978546849
1229.0,0.18829097330380895
1228.0,0.18822397839709626
1227.0,0.18815699382352258
1226.0,0.18822397839709626
1225.0,0.188357978546849
1224.0,0.18842499412940672
1223.0,0.188357978546849
1222.0,0.18815699382352258
1221.0,0.1878891587969005
1220.0,0.18762148884580565
1219.0,0.18742084459095332
1218.0,0.18742084459095332
1217.0,0.18748771571001743
1216.0,0.1875545971272441
1215.0,0.18768839086887623
1214.0,0.18775530319963063
1213.0,0.18775530319963063
1212.0,0.18768839086887623
1211.0,0.1875545971272441
1210.0,0.1875545971272441
1209.0,0.18762148884580565
1208.0,0.18768839086887623
1207.0,0.18768839086887623
1206.0,0.18762148884580565
1205.0,0.18748771571001743
1204.0,0.1872871332346313
1203.0,0.18708664335714453
1202.0,0.18695303483989223
1201.0,0.18708664335714453
1200.0,0.18722029299103604
1199.0,0.18735398376688117
1198.0,0.1872871332346313
1197.0,0.18722029299103604
1196.0,0.18708664335714453
1195.0,0.1871534630329288
1194.0,0.18735398376688117
1193.0,0.1875545971272441
1192.0,0.18775530319963063
1191.0,0.1878891587969005
1190.0,0.1879561020697733
1189.0,0.188023055663046
1188.0,0.18815699382352258
1187.0,0.18829097330380895
1186.0,0.18829097330380895
1185.0,0.18822397839709626
1184.0,0.188023055663046
1183.0,0.1878891587969005
1182.0,0.18775530319963063
1181.0,0.18782222584124608
1180.0,0.1878891587969005
1179.0,0.1879561020697733
1178.0,0.188023055663046
1177.0,0.188023055663046
1176.0,0.18809001957990112
1175.0,0.18809001957990112
1174.0,0.188023055663046
1173.0,0.1878891587969005
1172.0,0.18782222584124608
1171.0,0.18775530319963063
1170.0,0.18775530319963063
1169.0,0.18782222584124608
1168.0,0.188023055663046
1167.0,0.18822397839709626
1166.0,0.18842499412940672
1165.0,0.1885590563258419
1164.0,0.1885590563258419
1163.0,0.18849202005467336
1162.0,0.18842499412940672
1161.0,0.188357978546849
1160.0,0.188357978546849
1159.0,0.188357978546849
1158.0,0.18829097330380895
1157.0,0.18815699382352258
1156.0,0.188023055663046
1155.0,0.1879561020697733
1154.0,0.188023055663046
1153.0,0.18822397839709626
1152.0,0.18842499412940672
1151.0,0.18849202005467336
1150.0,0.18849202005467336
1149.0,0.18849202005467336
1148.0,0.1885590563258419
1147.0,0.1886261029461067
1146.0,0.1886261029461067
1145.0,0.1885590563258419
1144.0,0.18849202005467336
1143.0,0.18849202005467336
1142.0,0.1885590563258419
1141.0,0.1886261029461067
1140.0,0.18869315991866387
1139.0,0.1887602272467106
1138.0,0.1887602272467106
1137.0,0.18882730493344568
1136.0,0.18889439298206967
1135.0,0.18889439298206967
1134.0,0.18889439298206967
1133.0,0.18889439298206967
1132.0,0.18889439298206967
1131.0,0.18889439298206967
1130.0,0.18889439298206967
1129.0,0.18889439298206967
1128.0,0.18896149139578422
1127.0,0.18896149139578422
1126.0,0.18902860017779255
1125.0,0.18902860017779255
1124.0,0.18896149139578422
1123.0,0.18896149139578422
1122.0,0.18896149139578422
1121.0,0.18902860017779255
1120.0,0.18909571933129965
1119.0,0.18922998876563635
1118.0,0.18936429972446267
1117.0,0.1894986522334703
1116.0,0.1894986522334703
1115.0,0.18936429972446267
1114.0,0.18922998876563635
1113.0,0.18922998876563635
1112.0,0.18929713905288326
1111.0,0.1894986522334703
1110.0,0.18963304631837485
1109.0,0.189767482004916
1108.0,0.189767482004916
1107.0,0.189767482004916
1106.0,0.18970025895983111
1105.0,0.18956584407732735
1104.0,0.18936429972446267
1103.0,0.18929713905288326
1102.0,0.18922998876563635
1101.0,0.18929713905288326
1100.0,0.1894986522334703
1099.0,0.189767482004916
1098.0,0.19003647828598602
1097.0,0.19030564128307614
1096.0,0.19050762306265812
1095.0,0.19057497120296585
1094.0,0.19057497120296585
1093.0,0.19030564128307614
1092.0,0.19003647828598602
1091.0,0.189767482004916
1090.0,0.189767482004916
1089.0,0.18983471545685027
1088.0,0.19003647828598602
1087.0,0.19017103893211385
1086.0,0.19030564128307614
1085.0,0.19050762306265812
1084.0,0.19077707831057822
1083.0,0.1910467008440888
1082.0,0.19131649087103075
1081.0,0.19151894343404896
1080.0,0.1917214904172322
1079.0,0.19185657423850877
1078.0,0.19185657423850877
1077.0,0.1917214904172322
1076.0,0.19165396425960513
1075.0,0.1917214904172322
1074.0,0.19192413190869306
1073.0,0.1921268679966679
1072.0,0.19226207798589923
1071.0,0.19239733008350535
1070.0,0.19246497193114664
1069.0,0.19239733008350535
1068.0,0.19226207798589923
1067.0,0.1921268679966679
1066.0,0.1919917000896001
1065.0,0.1919917000896001
1064.0,0.19219446772937543
1063.0,0.19246497193114664
1062.0,0.1926002872405146
1061.0,0.1926002872405146
1060.0,0.19253262431572216
1059.0,0.19253262431572216
1058.0,0.1926002872405146
1057.0,0.19266796070880954
1056.0,0.19266796070880954
1055.0,0.1926002872405146
1054.0,0.19273564472389304
1053.0,0.19300648631789286
1052.0,0.1934808659192948
1051.0,0.19395576425191186
1050.0,0.19429529556613567
1049.0,0.1944311824514442
1048.0,0.19449914184159978
1047.0,0.19449914184159978
1046.0,0.19449914184159978
1045.0,0.19456711186786002
1044.0,0.19477108579657387
1043.0,0.19497515557019485
1042.0,0.19517932127883775
1041.0,0.19524739784953948
1040.0,0.19531548509305963
1039.0,0.19531548509305963
1038.0,0.19545169161194398
1037.0,0.19558794086228604
1036.0,0.19572423287090612
1035.0,0.19579239491795852
1034.0,0.19592875111433883
1033.0,0.1960651501361581
1032.0,0.19613336571501572
1031.0,0.19613336571501572
1030.0,0.19599694527038736
1029.0,0.19592875111433883
1028.0,0.19592875111433883
1027.0,0.1960651501361581
1026.0,0.19620159201032594
1025.0,0.19633807676377568
1024.0,0.19647460442346754
1023.0,0.196747788569543
1022.0,0.19722627470802445
1021.0,0.19756837356927637
1020.0,0.1977052886025361
1019.0,0.1976368256904526
1018.0,0.1976368256904526
1017.0,0.1976368256904526
1016.0,0.1977052886025361
1015.0,0.1977052886025361
1014.0,0.1976368256904526
1013.0,0.1974315016860435
1012.0,0.19729467292564795
1011.0,0.19708951058096025
1010.0,0.1969527895088714
1009.0,0.19688444510997294
1008.0,0.19702114466473808
1007.0,0.19722627470802445
1006.0,0.19729467292564795
1005.0,0.19729467292564795
1004.0,0.19722627470802445
1003.0,0.19715788726092565
1002.0,0.19708951058096025
1001.0,0.19708951058096025
1000.0,0.19702114466473808
999.0,0.19681611146465805
998.0,0.19654288435158618
997.0,0.19647460442346754
996.0,0.19654288435158618
995.0,0.196747788569543
994.0,0.19688444510997294
993.0,0.19708951058096025
992.0,0.19736308191718943
991.0,0.19756837356927637
990.0,0.19756837356927637
989.0,0.19749993223560658
988.0,0.19736308191718943
987.0,0.19736308191718943
986.0,0.1974315016860435
985.0,0.1974315016860435
984.0,0.1974315016860435
983.0,0.19736308191718943
982.0,0.1974315016860435
981.0,0.1974315016860435
980.0,0.1974315016860435
979.0,0.19729467292564795
978.0,0.19715788726092565
977.0,0.19708951058096025
976.0,0.19722627470802445
975.0,0.1974315016860435
974.0,0.1977052886025361
973.0,0.19784224681303852
972.0,0.19784224681303852
971.0,0.19777376230892996
970.0,0.1976368256904526
969.0,0.19756837356927637
968.0,0.19756837356927637
967.0,0.1977052886025361
966.0,0.19777376230892996
965.0,0.1977052886025361
964.0,0.1976368256904526
963.0,0.19749993223560658
962.0,0.1974315016860435
961.0,0.1974315016860435
960.0,0.1974315016860435
959.0,0.1974315016860435
958.0,0.1974315016860435
957.0,0.1974315016860435
956.0,0.1974315016860435
955.0,0.19749993223560658
954.0,0.1977052886025361
953.0,0.1979107421182673
952.0,0.1981162928747604
951.0,0.19825338078053978
950.0,0.1983905119726812
949.0,0.19845909380968174
948.0,0.1983905119726812
947.0,0.1981848314185628
946.0,0.1979107421182673
945.0,0.1977052886025361
944.0,0.1976368256904526
943.0,0.19777376230892996
942.0,0.1981162928747604
941.0,0.198596289982645
940.0,0.19914550849643908
939.0,0.19955787866374353
938.0,0.19962664510865036
937.0,0.1994203784308699
936.0,0.19921420967223735
935.0,0.1990081387398286
934.0,0.19887081242029603
933.0,0.19880216554085117
932.0,0.19880216554085117
931.0,0.19887081242029603
930.0,0.1990081387398286
929.0,0.19893947015214453
928.0,0.1987335295103798
927.0,0.198596289982645
926.0,0.198596289982645
925.0,0.1987335295103798
924.0,0.1990081387398286
923.0,0.19928292171761486
922.0,0.19955787866374353
921.0,0.19969542244380145
920.0,0.19983300979863605
919.0,0.19997064075586568
918.0,0.19990181982522426
917.0,0.19962664510865036
916.0,0.19928292171761486
915.0,0.19914550849643908
914.0,0.19928292171761486
913.0,0.19948912310563194
912.0,0.19969542244380145
911.0,0.19990181982522426
910.0,0.200246033588114
909.0,0.20065945054641832
908.0,0.2009352806489919
907.0,0.20114226825251436
906.0,0.20121128604875071
905.0,0.20121128604875071
904.0,0.20107326142279858
903.0,0.2010042655561186
902.0,0.20107326142279858
901.0,0.20114226825251436
900.0,0.20128031481499375
899.0,0.20134935455473113
898.0,0.20141840527145227
897.0,0.20169471797802352
896.0,0.20210951694165114
895.0,0.20245548563827365
894.0,0.20259395032361804
893.0,0.20252471246266568
892.0,0.20259395032361804
891.0,0.20280173016104097
890.0,0.20294030530002893
889.0,0.20294030530002893
888.0,0.20266319922465015
887.0,0.20245548563827365
886.0,0.20252471246266568
885.0,0.20280173016104097
884.0,0.2032175882986922
883.0,0.2036338450224786
882.0,0.20391157131933157
881.0,0.20384212309308558
880.0,0.20356444118982564
879.0,0.20342566678957041
878.0,0.20349504844670374
877.0,0.20370325994820848
876.0,0.20391157131933157
875.0,0.2040505010971967
874.0,0.20418947533259169
873.0,0.2043980201058202
872.0,0.20467623567068616
871.0,0.20481541031757589
870.0,0.20488501436963658
869.0,0.20488501436963658
868.0,0.20488501436963658
867.0,0.2049546295788751
866.0,0.20488501436963658
865.0,0.2046066650687106
864.0,0.20418947533259169
863.0,0.2037726859705613
862.0,0.20342566678957041
861.0,0.2032175882986922
860.0,0.20307892466983124
859.0,0.20307892466983124
858.0,0.2033562962148836
857.0,0.20370325994820848
856.0,0.2041199826559248
855.0,0.20432849405397824
854.0,0.2043980201058202
853.0,0.2043980201058202
852.0,0.20432849405397824
851.0,0.20418947533259169
850.0,0.20398103065285067
849.0,0.2037726859705613
848.0,0.2037726859705613
847.0,0.20398103065285067
846.0,0.20432849405397824
845.0,0.20467623567068616
844.0,0.20502425594886842
843.0,0.20523320205917894
842.0,0.2054422487452383
841.0,0.20565139610391725
840.0,0.20593041601836748
839.0,0.20606999322731534
838.0,0.20600019901552957
837.0,0.20572113427860006
836.0,0.2054422487452383
835.0,0.20523320205917894
834.0,0.20523320205917894
833.0,0.20509389348319607
832.0,0.20488501436963658
831.0,0.20474581741911724
830.0,0.20488501436963658
829.0,0.20537255533549192
828.0,0.20606999322731534
827.0,0.20669864638688495
826.0,0.20704829174986794
825.0,0.20697834015401684
824.0,0.20669864638688495
823.0,0.20641913263184408
822.0,0.20648899420714217
821.0,0.20683847075444928
820.0,0.20704829174986794
819.0,0.2069083998234198
818.0,0.20648899420714217
817.0,0.20627944318647673
816.0,0.20648899420714217
815.0,0.20676855294347907
814.0,0.2069083998234198
813.0,0.20676855294347907
812.0,0.20669864638688495
811.0,0.2069083998234198
810.0,0.20732821085843267
809.0,0.20788859091283163
808.0,0.2083093509798819
807.0,0.2085198839799991
806.0,0.20844969497266996
805.0,0.2081690523251638
804.0,0.208028798979232
803.0,0.20809891999042884
802.0,0.20823919598709506
801.0,0.20837951730718585
800.0,0.2083093509798819
799.0,0.2081690523251638
798.0,0.20809891999042884
797.0,0.20823919598709506
796.0,0.2085198839799991
795.0,0.2087305190897315
794.0,0.2088007535011247
793.0,0.2088007535011247
792.0,0.2088709992727138
791.0,0.20901152491118413
790.0,0.2088709992727138
789.0,0.2085198839799991
788.0,0.208028798979232
787.0,0.2076083105017461
786.0,0.20739821883503362
785.0,0.20739821883503362
784.0,0.2076783636484265
783.0,0.20823919598709506
782.0,0.2088007535011247
781.0,0.2090818047854217
780.0,0.2090818047854217
779.0,0.20901152491118413
778.0,0.2089412564081745
777.0,0.2088709992727138
776.0,0.20859008433283988
775.0,0.2081690523251638
774.0,0.20753826865304936
773.0,0.20683847075444928
772.0,0.2065588670223364
771.0,0.20676855294347907
770.0,0.20753826865304936
769.0,0.20837951730718585
768.0,0.2088007535011247
767.0,0.2087305190897315
766.0,0.20844969497266996
765.0,0.20809891999042884
764.0,0.20774842809673588
763.0,0.2074682380986923
762.0,0.20739821883503362
761.0,0.20753826865304936
760.0,0.2076783636484265
759.0,0.20739821883503362
758.0,0.20676855294347907
757.0,0.20620961530918125
756.0,0.20613979865733034
755.0,0.20641913263184408
754.0,0.2065588670223364
753.0,0.20641913263184408
752.0,0.20613979865733034
751.0,0.20579088365350362
750.0,0.20551195334083028
749.0,0.20537255533549192
748.0,0.20537255533549192
747.0,0.20537255533549192
746.0,0.20488501436963658
745.0,0.20384212309308558
744.0,0.20259395032361804
743.0,0.20141840527145227
742.0,0.20045269287438483
741.0,0.19962664510865036
740.0,0.1990081387398286
739.0,0.1985276864785288
738.0,0.19777376230892996
737.0,0.19647460442346754
736.0,0.19470308384201496
735.0,0.19300648631789286
734.0,0.19266796070880954
733.0,0.19558794086228604
732.0,0.20328693671910347
731.0,0.2150975501133452
730.0,0.22716507276098175
729.0,0.23500240071511946
728.0,0.23687162320086297
727.0,0.23462951970835144
726.0,0.23143589048642665
725.0,0.22922160383085233
724.0,0.2286330291422194
723.0,0.2303273359445075
722.0,0.23649713453240295
721.0,0.2491060796178748
720.0,0.2671239586372933
719.0,0.28516748756666743
718.0,0.29645070176176946
717.0,0.29860473098607976
716.0,0.29387989029729633
715.0,0.28592183501814405
714.0,0.27785987454258443
713.0,0.27091624295638805
712.0,0.26520017041115307
711.0,0.26026947143528245
710.0,0.25594183412116456
709.0,0.2522775379644915
708.0,0.24972308484600725
707.0,0.24802842526367286
706.0,0.24664678735850387
705.0,0.24488773360492888
704.0,0.2429077798810675
703.0,0.24093681183951277
702.0,0.23920068836928232
701.0,0.23784680769640532
700.0,0.23732143627256375
699.0,0.23739645043319646
698.0,0.23717144681090963
697.0,0.23604817396667577
696.0,0.23425695857895557
695.0,0.2327699018892817
694.0,0.23225063265442003
693.0,0.23247310059161808
692.0,0.23299263605019593
691.0,0.23328979273774086
690.0,0.23291837863667775
689.0,0.23150989482875484
688.0,0.22958986848609375
687.0,0.2280452510360509
686.0,0.22694530663573742
685.0,0.22592119924748122
684.0,0.22489950112097512
683.0,0.22395292881822026
682.0,0.2234440892967382
681.0,0.2231535913047007
680.0,0.22264568691579112
679.0,0.22213837582375806
678.0,0.22177637323390353
677.0,0.2216316566441261
676.0,0.22155931642876725
675.0,0.2214146721370378
674.0,0.22090879615450087
673.0,0.22018713682941948
672.0,0.22018713682941948
671.0,0.22112552799726037
670.0,0.2225731776106885
669.0,0.222500680409635
668.0,0.2193227255666319
667.0,0.21702600505595182
666.0,0.21831641549264935
665.0,0.21989880853208832
664.0,0.2199708726626617
663.0,0.2195386671382824
662.0,0.2193227255666319
661.0,0.2193227255666319
660.0,0.21910689131292105
659.0,0.21846003139405834
658.0,0.21752737583371373
657.0,0.21616785661555893
656.0,0.21438547505317596
655.0,0.21253952548158495
654.0,0.21147811277752715
653.0,0.21147811277752715
652.0,0.21239785381766252
651.0,0.21339052735134012
650.0,0.21402987486799052
649.0,0.21467016498923286
648.0,0.21588218353707678
647.0,0.21752737583371373
646.0,0.21853185715820178
645.0,0.2178141335079835
644.0,0.21559669824699146
643.0,0.21317762050081246
642.0,0.21232703531250707
641.0,0.21381665443236653
640.0,0.21767073100316314
639.0,0.22329881601158919
638.0,0.2290743853610009
637.0,0.23373590934800448
636.0,0.2366468912517845
635.0,0.2376966367122315
634.0,0.23657200643706267
633.0,0.23284413391781955
632.0,0.22723835285596783
631.0,0.2216316566441261
630.0,0.21788585252092885
629.0,0.21652521241775347
628.0,0.21702600505595182
627.0,0.21802932608744796
626.0,0.21853185715820178
625.0,0.2182446253475312
624.0,0.21788585252092885
623.0,0.21831641549264935
622.0,0.21961067152904712
621.0,0.2206199885083442
620.0,0.22076436832413648
619.0,0.2204035087421754
618.0,0.22025924882325953
617.0,0.22004294875309416
616.0,0.2193227255666319
615.0,0.21788585252092885
614.0,0.216739767127051
613.0,0.21681130892474232
612.0,0.2183882175068499
611.0,0.22083657623550135
610.0,0.2230809971579535
609.0,0.22380748525292793
608.0,0.22228326139037402
607.0,0.21903497039168318
606.0,0.21538270736712462
605.0,0.2128939069634299
604.0,0.2126103786478899
603.0,0.21431433171909875
602.0,0.21702600505595182
601.0,0.21975471613464737
600.0,0.22221081256513253
