cm-1,A
4000.0,0.010327752376126709
3999.0,0.010327752376126709
3998.0,0.010327752376126709
3997.0,0.010283280051895272
3996.0,0.010283280051895272
3995.0,0.010283280051895272
3994.0,0.010283280051895272
3993.0,0.010327752376126709
3992.0,0.01037222925484893
3991.0,0.01046119667949763
3990.0,0.01046119667949763
3989.0,0.010505687227290839
3988.0,0.010505687227290839
3987.0,0.010505687227290839
3986.0,0.010505687227290839
3985.0,0.010505687227290839
3984.0,0.010505687227290839
3983.0,0.010550182333308289
3982.0,0.010550182333308289
3981.0,0.010505687227290839
3980.0,0.010416710688994968
3979.0,0.01037222925484893
3978.0,0.010327752376126709
3977.0,0.01037222925484893
3976.0,0.01046119667949763
3975.0,0.010505687227290839
3974.0,0.01046119667949763
3973.0,0.010327752376126709
3972.0,0.01023881228122181
3971.0,0.010149890396819572
3970.0,0.010194349063173958
3969.0,0.01023881228122181
3968.0,0.01037222925484893
3967.0,0.010505687227290839
3966.0,0.010550182333308289
3965.0,0.010594681998483901
3964.0,0.010550182333308289
3963.0,0.01046119667949763
3962.0,0.01037222925484893
3961.0,0.01023881228122181
3960.0,0.010194349063173958
3959.0,0.01023881228122181
3958.0,0.01037222925484893
3957.0,0.01046119667949763
3956.0,0.010550182333308289
3955.0,0.010550182333308289
3954.0,0.010550182333308289
3953.0,0.01046119667949763
3952.0,0.01037222925484893
3951.0,0.010327752376126709
3950.0,0.01037222925484893
3949.0,0.010416710688994968
3948.0,0.01046119667949763
3947.0,0.010416710688994968
3946.0,0.010327752376126709
3945.0,0.010283280051895272
3944.0,0.010327752376126709
3943.0,0.010283280051895272
3942.0,0.01023881228122181
3941.0,0.010194349063173958
3940.0,0.010283280051895272
3939.0,0.010416710688994968
3938.0,0.010505687227290839
3937.0,0.01046119667949763
3936.0,0.010327752376126709
3935.0,0.01023881228122181
3934.0,0.010194349063173958
3933.0,0.01023881228122181
3932.0,0.010283280051895272
3931.0,0.010283280051895272
3930.0,0.010327752376126709
3929.0,0.010327752376126709
3928.0,0.010283280051895272
3927.0,0.010283280051895272
3926.0,0.01023881228122181
3925.0,0.01023881228122181
3924.0,0.01023881228122181
3923.0,0.010283280051895272
3922.0,0.010327752376126709
3921.0,0.010327752376126709
3920.0,0.01023881228122181
3919.0,0.010105436281226954
3918.0,0.010060986715464404
3917.0,0.010105436281226954
3916.0,0.010149890396819572
3915.0,0.010283280051895272
3914.0,0.01046119667949763
3913.0,0.010639186223752484
3912.0,0.010683695010048622
3911.0,0.010594681998483901
3910.0,0.01046119667949763
3909.0,0.010283280051895272
3908.0,0.010105436281226954
3907.0,0.009972101229705377
3906.0,0.009972101229705377
3905.0,0.01001654169860089
3904.0,0.009972101229705377
3903.0,0.009883233932095559
3902.0,0.009883233932095559
3901.0,0.01001654169860089
3900.0,0.010149890396819572
3899.0,0.010194349063173958
3898.0,0.010194349063173958
3897.0,0.010194349063173958
3896.0,0.010194349063173958
3895.0,0.010149890396819572
3894.0,0.010060986715464404
3893.0,0.010060986715464404
3892.0,0.010105436281226954
3891.0,0.009972101229705377
3890.0,0.00974996707218323
3889.0,0.009705553871561357
3888.0,0.009883233932095559
3887.0,0.010105436281226954
3886.0,0.010105436281226954
3885.0,0.009838807101520963
3884.0,0.009616741093766423
3883.0,0.00966114521239847
3882.0,0.009883233932095559
3881.0,0.01001654169860089
3880.0,0.009927665307847056
3879.0,0.00974996707218323
3878.0,0.00974996707218323
3877.0,0.009972101229705377
3876.0,0.010149890396819572
3875.0,0.010105436281226954
3874.0,0.009794384815193347
3873.0,0.009527946474380489
3872.0,0.009527946474380489
3871.0,0.009794384815193347
3870.0,0.009883233932095559
3869.0,0.00966114521239847
3868.0,0.009527946474380489
3867.0,0.00974996707218323
3866.0,0.01001654169860089
3865.0,0.010149890396819572
3864.0,0.010105436281226954
3863.0,0.01001654169860089
3862.0,0.009927665307847056
3861.0,0.009838807101520963
3860.0,0.009705553871561357
3859.0,0.009527946474380489
3858.0,0.009261671492462709
3857.0,0.008951223547323472
3856.0,0.008773924307505121
3855.0,0.009039900317800775
3854.0,0.009705553871561357
3853.0,0.009883233932095559
3852.0,0.00974996707218323
3851.0,0.010060986715464404
3850.0,0.010683695010048622
3849.0,0.010950843561779777
3848.0,0.01086177578421088
3847.0,0.010639186223752484
3846.0,0.01037222925484893
3845.0,0.010149890396819572
3844.0,0.009883233932095559
3843.0,0.009527946474380489
3842.0,0.009261671492462709
3841.0,0.009217308196862062
3840.0,0.009350411681145587
3839.0,0.009572341514736404
3838.0,0.00966114521239847
3837.0,0.009616741093766423
3836.0,0.009572341514736404
3835.0,0.00974996707218323
3834.0,0.01001654169860089
3833.0,0.01023881228122181
3832.0,0.010283280051895272
3831.0,0.01023881228122181
3830.0,0.010149890396819572
3829.0,0.010194349063173958
3828.0,0.010283280051895272
3827.0,0.010283280051895272
3826.0,0.010060986715464404
3825.0,0.009705553871561357
3824.0,0.009483555971770974
3823.0,0.009572341514736404
3822.0,0.009838807101520963
3821.0,0.009927665307847056
3820.0,0.00966114521239847
3819.0,0.009572341514736404
3818.0,0.009972101229705377
3817.0,0.01037222925484893
3816.0,0.010550182333308289
3815.0,0.01046119667949763
3814.0,0.01046119667949763
3813.0,0.010728208358306901
3812.0,0.01086177578421088
3811.0,0.010683695010048622
3810.0,0.01046119667949763
3809.0,0.01037222925484893
3808.0,0.010416710688994968
3807.0,0.010327752376126709
3806.0,0.009927665307847056
3805.0,0.009616741093766423
3804.0,0.009616741093766423
3803.0,0.009838807101520963
3802.0,0.010149890396819572
3801.0,0.010105436281226954
3800.0,0.009927665307847056
3799.0,0.010149890396819572
3798.0,0.010550182333308289
3797.0,0.010817248744452446
3796.0,0.01077272626946324
3795.0,0.010639186223752484
3794.0,0.010594681998483901
3793.0,0.010683695010048622
3792.0,0.010728208358306901
3791.0,0.01077272626946324
3790.0,0.010728208358306901
3789.0,0.010683695010048622
3788.0,0.010639186223752484
3787.0,0.010594681998483901
3786.0,0.010594681998483901
3785.0,0.010594681998483901
3784.0,0.010594681998483901
3783.0,0.010505687227290839
3782.0,0.010505687227290839
3781.0,0.010594681998483901
3780.0,0.010683695010048622
3779.0,0.010639186223752484
3778.0,0.010550182333308289
3777.0,0.010594681998483901
3776.0,0.010683695010048622
3775.0,0.010683695010048622
3774.0,0.010550182333308289
3773.0,0.010416710688994968
3772.0,0.010416710688994968
3771.0,0.010505687227290839
3770.0,0.010505687227290839
3769.0,0.010327752376126709
3768.0,0.01023881228122181
3767.0,0.01037222925484893
3766.0,0.010505687227290839
3765.0,0.010505687227290839
3764.0,0.01037222925484893
3763.0,0.010327752376126709
3762.0,0.010327752376126709
3761.0,0.010283280051895272
3760.0,0.010283280051895272
3759.0,0.01023881228122181
3758.0,0.010149890396819572
3757.0,0.010060986715464404
3756.0,0.009927665307847056
3755.0,0.009838807101520963
3754.0,0.009705553871561357
3753.0,0.009572341514736404
3752.0,0.009705553871561357
3751.0,0.009927665307847056
3750.0,0.009972101229705377
3749.0,0.009838807101520963
3748.0,0.009838807101520963
3747.0,0.010105436281226954
3746.0,0.010550182333308289
3745.0,0.010950843561779777
3744.0,0.010728208358306901
3743.0,0.010283280051895272
3742.0,0.010327752376126709
3741.0,0.010594681998483901
3740.0,0.01046119667949763
3739.0,0.010060986715464404
3738.0,0.009705553871561357
3737.0,0.009616741093766423
3736.0,0.009705553871561357
3735.0,0.009705553871561357
3734.0,0.00974996707218323
3733.0,0.009972101229705377
3732.0,0.01023881228122181
3731.0,0.010505687227290839
3730.0,0.01086177578421088
3729.0,0.011262724711199823
3728.0,0.011485634166333858
3727.0,0.011396456654336085
3726.0,0.011129033935354915
3725.0,0.010817248744452446
3724.0,0.010683695010048622
3723.0,0.010683695010048622
3722.0,0.010639186223752484
3721.0,0.010639186223752484
3720.0,0.01077272626946324
3719.0,0.010906307389674463
3718.0,0.010950843561779777
3717.0,0.01086177578421088
3716.0,0.010639186223752484
3715.0,0.01037222925484893
3714.0,0.010194349063173958
3713.0,0.010194349063173958
3712.0,0.01046119667949763
3711.0,0.010728208358306901
3710.0,0.01086177578421088
3709.0,0.010950843561779777
3708.0,0.011039929609661936
3707.0,0.011039929609661936
3706.0,0.010950843561779777
3705.0,0.01086177578421088
3704.0,0.01077272626946324
3703.0,0.010817248744452446
3702.0,0.010817248744452446
3701.0,0.010817248744452446
3700.0,0.01086177578421088
3699.0,0.010995384301463185
3698.0,0.01117359295472431
3697.0,0.01117359295472431
3696.0,0.010995384301463185
3695.0,0.010728208358306901
3694.0,0.010505687227290839
3693.0,0.01023881228122181
3692.0,0.010060986715464404
3691.0,0.010060986715464404
3690.0,0.01023881228122181
3689.0,0.01046119667949763
3688.0,0.010550182333308289
3687.0,0.01077272626946324
3686.0,0.01117359295472431
3685.0,0.011485634166333858
3684.0,0.011530229790124524
3683.0,0.011351874764248926
3682.0,0.011129033935354915
3681.0,0.010950843561779777
3680.0,0.010639186223752484
3679.0,0.01023881228122181
3678.0,0.009927665307847056
3677.0,0.01001654169860089
3676.0,0.010283280051895272
3675.0,0.010149890396819572
3674.0,0.009794384815193347
3673.0,0.009972101229705377
3672.0,0.01037222925484893
3671.0,0.010817248744452446
3670.0,0.011084479487313281
3669.0,0.011129033935354915
3668.0,0.011218156546359825
3667.0,0.011485634166333858
3666.0,0.011797899741219142
3665.0,0.011887159731648111
3664.0,0.011842527443247208
3663.0,0.011797899741219142
3662.0,0.011664044143949504
3661.0,0.011530229790124524
3660.0,0.011351874764248926
3659.0,0.011218156546359825
3658.0,0.011262724711199823
3657.0,0.011396456654336085
3656.0,0.011396456654336085
3655.0,0.01117359295472431
3654.0,0.010995384301463185
3653.0,0.01077272626946324
3652.0,0.010550182333308289
3651.0,0.010505687227290839
3650.0,0.010817248744452446
3649.0,0.011084479487313281
3648.0,0.01117359295472431
3647.0,0.011218156546359825
3646.0,0.011485634166333858
3645.0,0.011797899741219142
3644.0,0.012110390002254778
3643.0,0.012333735073725371
3642.0,0.012378417874516323
3641.0,0.012333735073725371
3640.0,0.012199714248127602
3639.0,0.01215504982870197
3638.0,0.012065734767841452
3637.0,0.012065734767841452
3636.0,0.01215504982870197
3635.0,0.012289056869694281
3634.0,0.012199714248127602
3633.0,0.011931796607364653
3632.0,0.011708658092512314
3631.0,0.011708658092512314
3630.0,0.012021084124518078
3629.0,0.012378417874516323
3628.0,0.012244383261476699
3627.0,0.01215504982870197
3626.0,0.012423105273012602
3625.0,0.012691326268817527
3624.0,0.012557195064198723
3623.0,0.012244383261476699
3622.0,0.011887159731648111
3621.0,0.011708658092512314
3620.0,0.011753276624621556
3619.0,0.011797899741219142
3618.0,0.011753276624621556
3617.0,0.011708658092512314
3616.0,0.011797899741219142
3615.0,0.011931796607364653
3614.0,0.0119764380713403
3613.0,0.0119764380713403
3612.0,0.011931796607364653
3611.0,0.012021084124518078
3610.0,0.012244383261476699
3609.0,0.012512493866907004
3608.0,0.01264661126420652
3607.0,0.01264661126420652
3606.0,0.01260190086298274
3605.0,0.01260190086298274
3604.0,0.01264661126420652
3603.0,0.01260190086298274
3602.0,0.012512493866907004
3601.0,0.012378417874516323
3600.0,0.012199714248127602
3599.0,0.012065734767841452
3598.0,0.012021084124518078
3597.0,0.012110390002254778
3596.0,0.012289056869694281
3595.0,0.012467797270160563
3594.0,0.012557195064198723
3593.0,0.012557195064198723
3592.0,0.012467797270160563
3591.0,0.012333735073725371
3590.0,0.012244383261476699
3589.0,0.012244383261476699
3588.0,0.012333735073725371
3587.0,0.012378417874516323
3586.0,0.012333735073725371
3585.0,0.012378417874516323
3584.0,0.012557195064198723
3583.0,0.012736045877764557
3582.0,0.012825498912458322
3581.0,0.012825498912458322
3580.0,0.012825498912458322
3579.0,0.012780770091995297
3578.0,0.012825498912458322
3577.0,0.012914970375878188
3576.0,0.013004460275618523
3575.0,0.013093968619278806
3574.0,0.013093968619278806
3573.0,0.013049212141483357
3572.0,0.012870232340102872
3571.0,0.01264661126420652
3570.0,0.012512493866907004
3569.0,0.012512493866907004
3568.0,0.012691326268817527
3567.0,0.012825498912458322
3566.0,0.012825498912458322
3565.0,0.012780770091995297
3564.0,0.012914970375878188
3563.0,0.013093968619278806
3562.0,0.013138729709955221
3561.0,0.01318349541446362
3560.0,0.01322826573375524
3559.0,0.013362604389846044
3558.0,0.013541787262693505
3557.0,0.01372104409400876
3556.0,0.01381070026317599
3555.0,0.013900374944870508
3554.0,0.01385553528947936
3553.0,0.01381070026317599
3552.0,0.013631406429727155
3551.0,0.013496984613259544
3550.0,0.013362604389846044
3549.0,0.013317820220494436
3548.0,0.013362604389846044
3547.0,0.013452186585275916
3546.0,0.013631406429727155
3545.0,0.013765869865004277
3544.0,0.01381070026317599
3543.0,0.01381070026317599
3542.0,0.01381070026317599
3541.0,0.01381070026317599
3540.0,0.01381070026317599
3539.0,0.01385553528947936
3538.0,0.01385553528947936
3537.0,0.013900374944870508
3536.0,0.013900374944870508
3535.0,0.01385553528947936
3534.0,0.01381070026317599
3533.0,0.01381070026317599
3532.0,0.013765869865004277
3531.0,0.01372104409400876
3530.0,0.013631406429727155
3529.0,0.013496984613259544
3528.0,0.013407393177789162
3527.0,0.013317820220494436
3526.0,0.013362604389846044
3525.0,0.013541787262693505
3524.0,0.01372104409400876
3523.0,0.013900374944870508
3522.0,0.013990068146738865
3521.0,0.013990068146738865
3520.0,0.013945219230304673
3519.0,0.013900374944870508
3518.0,0.013900374944870508
3517.0,0.013900374944870508
3516.0,0.013945219230304673
3515.0,0.014079779876432497
3514.0,0.014169510141607944
3513.0,0.014169510141607944
3512.0,0.014169510141607944
3511.0,0.014124642691606404
3510.0,0.014079779876432497
3509.0,0.014079779876432497
3508.0,0.01403492169512921
3507.0,0.013990068146738865
3506.0,0.013945219230304673
3505.0,0.013900374944870508
3504.0,0.013900374944870508
3503.0,0.01385553528947936
3502.0,0.01385553528947936
3501.0,0.013900374944870508
3500.0,0.013990068146738865
3499.0,0.014079779876432497
3498.0,0.014079779876432497
3497.0,0.013990068146738865
3496.0,0.013900374944870508
3495.0,0.01381070026317599
3494.0,0.013765869865004277
3493.0,0.013765869865004277
3492.0,0.01381070026317599
3491.0,0.013900374944870508
3490.0,0.013990068146738865
3489.0,0.014079779876432497
3488.0,0.014169510141607944
3487.0,0.014259258949925524
3486.0,0.014259258949925524
3485.0,0.014214382227394795
3484.0,0.014079779876432497
3483.0,0.01403492169512921
3482.0,0.013990068146738865
3481.0,0.013990068146738865
3480.0,0.01403492169512921
3479.0,0.014079779876432497
3478.0,0.014169510141607944
3477.0,0.014214382227394795
3476.0,0.014259258949925524
3475.0,0.014304140310157809
3474.0,0.014349026309051105
3473.0,0.014349026309051105
3472.0,0.014349026309051105
3471.0,0.014259258949925524
3470.0,0.014214382227394795
3469.0,0.014169510141607944
3468.0,0.014124642691606404
3467.0,0.014124642691606404
3466.0,0.014079779876432497
3465.0,0.014124642691606404
3464.0,0.014169510141607944
3463.0,0.014304140310157809
3462.0,0.014393916947563534
3461.0,0.014438812226654996
3460.0,0.0144837121472845
3459.0,0.0144837121472845
3458.0,0.0144837121472845
3457.0,0.014618439768003144
3456.0,0.014753209197138295
3455.0,0.014888020460646079
3454.0,0.014932966849499074
3453.0,0.014843078722943437
3452.0,0.014753209197138295
3451.0,0.014663358264387139
3450.0,0.014708281407112
3449.0,0.014798141635428141
3448.0,0.014932966849499074
3447.0,0.015067833932588037
3446.0,0.015112798935672522
3445.0,0.015202742910707112
3444.0,0.015337693809893471
3443.0,0.015427684378367834
3442.0,0.015517693597737248
3441.0,0.015517693597737248
3440.0,0.01547268665620738
3439.0,0.01538268676325183
3438.0,0.01538268676325183
3437.0,0.01547268665620738
3436.0,0.015652742414136167
3435.0,0.015877917138889863
3434.0,0.016103208673694303
3433.0,0.016193358021584725
3432.0,0.016238439713835096
3431.0,0.01628352608625061
3430.0,0.01632861713980338
3429.0,0.01632861713980338
3428.0,0.01628352608625061
3427.0,0.016238439713835096
3426.0,0.016193358021584725
3425.0,0.016148281008528276
3424.0,0.016103208673694303
3423.0,0.016058141016111804
3422.0,0.016013078034810446
3421.0,0.015922966097169144
3420.0,0.015877917138889863
3419.0,0.01578783323856614
3418.0,0.015742798294583915
3417.0,0.015697768020096703
3416.0,0.015652742414136167
3415.0,0.015517693597737248
3414.0,0.015427684378367834
3413.0,0.01538268676325183
3412.0,0.01538268676325183
3411.0,0.015292705517326866
3410.0,0.015202742910707112
3409.0,0.015157768594724175
3408.0,0.015202742910707112
3407.0,0.015337693809893471
3406.0,0.01547268665620738
3405.0,0.01547268665620738
3404.0,0.01538268676325183
3403.0,0.015292705517326866
3402.0,0.015157768594724175
3401.0,0.015112798935672522
3400.0,0.015112798935672522
3399.0,0.015112798935672522
3398.0,0.015067833932588037
3397.0,0.015022873584506602
3396.0,0.014932966849499074
3395.0,0.014843078722943437
3394.0,0.014843078722943437
3393.0,0.014888020460646079
3392.0,0.014932966849499074
3391.0,0.014977917890464765
3390.0,0.014977917890464765
3389.0,0.015022873584506602
3388.0,0.015112798935672522
3387.0,0.015247721884586563
3386.0,0.015337693809893471
3385.0,0.015337693809893471
3384.0,0.015202742910707112
3383.0,0.014977917890464765
3382.0,0.014798141635428141
3381.0,0.014753209197138295
3380.0,0.014798141635428141
3379.0,0.014798141635428141
3378.0,0.014753209197138295
3377.0,0.014708281407112
3376.0,0.014663358264387139
3375.0,0.014708281407112
3374.0,0.014708281407112
3373.0,0.014663358264387139
3372.0,0.014573525916998342
3371.0,0.0144837121472845
3370.0,0.014438812226654996
3369.0,0.014438812226654996
3368.0,0.014438812226654996
3367.0,0.0144837121472845
3366.0,0.014573525916998342
3365.0,0.014708281407112
3364.0,0.014798141635428141
3363.0,0.014843078722943437
3362.0,0.014843078722943437
3361.0,0.014843078722943437
3360.0,0.014888020460646079
3359.0,0.014932966849499074
3358.0,0.014932966849499074
3357.0,0.014888020460646079
3356.0,0.014798141635428141
3355.0,0.014708281407112
3354.0,0.014663358264387139
3353.0,0.014663358264387139
3352.0,0.014663358264387139
3351.0,0.014753209197138295
3350.0,0.014843078722943437
3349.0,0.014932966849499074
3348.0,0.014977917890464765
3347.0,0.014932966849499074
3346.0,0.014843078722943437
3345.0,0.014843078722943437
3344.0,0.014798141635428141
3343.0,0.014753209197138295
3342.0,0.014708281407112
3341.0,0.014708281407112
3340.0,0.014798141635428141
3339.0,0.014932966849499074
3338.0,0.015022873584506602
3337.0,0.014977917890464765
3336.0,0.014888020460646079
3335.0,0.014753209197138295
3334.0,0.014663358264387139
3333.0,0.014708281407112
3332.0,0.014753209197138295
3331.0,0.014843078722943437
3330.0,0.014843078722943437
3329.0,0.014798141635428141
3328.0,0.014708281407112
3327.0,0.014663358264387139
3326.0,0.014663358264387139
3325.0,0.014663358264387139
3324.0,0.014663358264387139
3323.0,0.014663358264387139
3322.0,0.014708281407112
3321.0,0.014753209197138295
3320.0,0.014798141635428141
3319.0,0.014753209197138295
3318.0,0.014753209197138295
3317.0,0.014753209197138295
3316.0,0.014798141635428141
3315.0,0.014798141635428141
3314.0,0.014663358264387139
3313.0,0.0144837121472845
3312.0,0.014304140310157809
3311.0,0.014259258949925524
3310.0,0.014259258949925524
3309.0,0.014393916947563534
3308.0,0.0144837121472845
3307.0,0.01452861671041239
3306.0,0.014573525916998342
3305.0,0.014663358264387139
3304.0,0.014663358264387139
3303.0,0.014708281407112
3302.0,0.014663358264387139
3301.0,0.014663358264387139
3300.0,0.014663358264387139
3299.0,0.014708281407112
3298.0,0.014708281407112
3297.0,0.014663358264387139
3296.0,0.014663358264387139
3295.0,0.014663358264387139
3294.0,0.014663358264387139
3293.0,0.014663358264387139
3292.0,0.014663358264387139
3291.0,0.014618439768003144
3290.0,0.014663358264387139
3289.0,0.014708281407112
3288.0,0.014843078722943437
3287.0,0.014843078722943437
3286.0,0.014798141635428141
3285.0,0.014663358264387139
3284.0,0.0144837121472845
3283.0,0.014393916947563534
3282.0,0.014393916947563534
3281.0,0.014393916947563534
3280.0,0.014393916947563534
3279.0,0.014393916947563534
3278.0,0.014349026309051105
3277.0,0.014349026309051105
3276.0,0.014349026309051105
3275.0,0.014393916947563534
3274.0,0.014438812226654996
3273.0,0.014438812226654996
3272.0,0.014393916947563534
3271.0,0.014349026309051105
3270.0,0.014304140310157809
3269.0,0.014304140310157809
3268.0,0.014349026309051105
3267.0,0.014393916947563534
3266.0,0.0144837121472845
3265.0,0.0144837121472845
3264.0,0.014438812226654996
3263.0,0.014349026309051105
3262.0,0.014259258949925524
3261.0,0.014169510141607944
3260.0,0.014169510141607944
3259.0,0.014259258949925524
3258.0,0.014438812226654996
3257.0,0.014573525916998342
3256.0,0.01452861671041239
3255.0,0.0144837121472845
3254.0,0.014393916947563534
3253.0,0.014349026309051105
3252.0,0.014393916947563534
3251.0,0.014393916947563534
3250.0,0.014393916947563534
3249.0,0.014349026309051105
3248.0,0.014349026309051105
3247.0,0.014393916947563534
3246.0,0.014393916947563534
3245.0,0.014438812226654996
3244.0,0.0144837121472845
3243.0,0.0144837121472845
3242.0,0.014438812226654996
3241.0,0.014438812226654996
3240.0,0.014393916947563534
3239.0,0.014438812226654996
3238.0,0.014438812226654996
3237.0,0.014438812226654996
3236.0,0.014438812226654996
3235.0,0.014438812226654996
3234.0,0.0144837121472845
3233.0,0.01452861671041239
3232.0,0.01452861671041239
3231.0,0.014573525916998342
3230.0,0.014618439768003144
3229.0,0.014663358264387139
3228.0,0.014708281407112
3227.0,0.014753209197138295
3226.0,0.014708281407112
3225.0,0.014573525916998342
3224.0,0.0144837121472845
3223.0,0.014438812226654996
3222.0,0.014393916947563534
3221.0,0.014393916947563534
3220.0,0.014438812226654996
3219.0,0.0144837121472845
3218.0,0.01452861671041239
3217.0,0.014573525916998342
3216.0,0.01452861671041239
3215.0,0.0144837121472845
3214.0,0.014393916947563534
3213.0,0.014349026309051105
3212.0,0.014349026309051105
3211.0,0.014393916947563534
3210.0,0.014393916947563534
3209.0,0.014393916947563534
3208.0,0.014393916947563534
3207.0,0.014438812226654996
3206.0,0.01452861671041239
3205.0,0.014573525916998342
3204.0,0.014618439768003144
3203.0,0.01452861671041239
3202.0,0.014438812226654996
3201.0,0.014304140310157809
3200.0,0.014214382227394795
3199.0,0.014169510141607944
3198.0,0.014214382227394795
3197.0,0.014304140310157809
3196.0,0.014393916947563534
3195.0,0.014438812226654996
3194.0,0.0144837121472845
3193.0,0.0144837121472845
3192.0,0.014438812226654996
3191.0,0.014349026309051105
3190.0,0.014304140310157809
3189.0,0.014259258949925524
3188.0,0.014214382227394795
3187.0,0.014169510141607944
3186.0,0.014124642691606404
3185.0,0.014124642691606404
3184.0,0.014124642691606404
3183.0,0.014169510141607944
3182.0,0.014259258949925524
3181.0,0.014304140310157809
3180.0,0.014349026309051105
3179.0,0.014349026309051105
3178.0,0.014304140310157809
3177.0,0.014259258949925524
3176.0,0.014214382227394795
3175.0,0.014124642691606404
3174.0,0.014079779876432497
3173.0,0.014079779876432497
3172.0,0.014124642691606404
3171.0,0.014169510141607944
3170.0,0.014169510141607944
3169.0,0.014124642691606404
3168.0,0.014124642691606404
3167.0,0.014169510141607944
3166.0,0.014169510141607944
3165.0,0.014169510141607944
3164.0,0.014214382227394795
3163.0,0.014259258949925524
3162.0,0.014304140310157809
3161.0,0.014214382227394795
3160.0,0.014124642691606404
3159.0,0.01403492169512921
3158.0,0.013990068146738865
3157.0,0.01403492169512921
3156.0,0.014124642691606404
3155.0,0.014259258949925524
3154.0,0.014349026309051105
3153.0,0.014304140310157809
3152.0,0.014214382227394795
3151.0,0.014079779876432497
3150.0,0.013990068146738865
3149.0,0.013990068146738865
3148.0,0.014079779876432497
3147.0,0.014169510141607944
3146.0,0.014169510141607944
3145.0,0.014079779876432497
3144.0,0.013945219230304673
3143.0,0.01381070026317599
3142.0,0.013676222949234651
3141.0,0.013631406429727155
3140.0,0.01372104409400876
3139.0,0.01385553528947936
3138.0,0.01403492169512921
3137.0,0.014124642691606404
3136.0,0.014169510141607944
3135.0,0.014169510141607944
3134.0,0.014124642691606404
3133.0,0.014079779876432497
3132.0,0.014079779876432497
3131.0,0.014124642691606404
3130.0,0.014169510141607944
3129.0,0.014214382227394795
3128.0,0.014214382227394795
3127.0,0.014214382227394795
3126.0,0.014214382227394795
3125.0,0.014169510141607944
3124.0,0.014169510141607944
3123.0,0.014169510141607944
3122.0,0.014214382227394795
3121.0,0.014214382227394795
3120.0,0.014169510141607944
3119.0,0.014169510141607944
3118.0,0.014169510141607944
3117.0,0.014214382227394795
3116.0,0.014259258949925524
3115.0,0.014349026309051105
3114.0,0.014438812226654996
3113.0,0.014438812226654996
3112.0,0.0144837121472845
3111.0,0.0144837121472845
3110.0,0.0144837121472845
3109.0,0.0144837121472845
3108.0,0.01452861671041239
3107.0,0.014618439768003144
3106.0,0.014708281407112
3105.0,0.014843078722943437
3104.0,0.014888020460646079
3103.0,0.014843078722943437
3102.0,0.014708281407112
3101.0,0.01452861671041239
3100.0,0.014438812226654996
3099.0,0.014393916947563534
3098.0,0.014393916947563534
3097.0,0.014393916947563534
3096.0,0.014393916947563534
3095.0,0.014438812226654996
3094.0,0.014438812226654996
3093.0,0.014438812226654996
3092.0,0.014438812226654996
3091.0,0.014438812226654996
3090.0,0.0144837121472845
3089.0,0.014573525916998342
3088.0,0.014663358264387139
3087.0,0.014753209197138295
3086.0,0.014753209197138295
3085.0,0.014753209197138295
3084.0,0.014753209197138295
3083.0,0.014798141635428141
3082.0,0.014843078722943437
3081.0,0.014843078722943437
3080.0,0.014843078722943437
3079.0,0.014843078722943437
3078.0,0.014798141635428141
3077.0,0.014798141635428141
3076.0,0.014798141635428141
3075.0,0.014888020460646079
3074.0,0.014932966849499074
3073.0,0.014977917890464765
3072.0,0.014977917890464765
3071.0,0.014932966849499074
3070.0,0.014932966849499074
3069.0,0.014932966849499074
3068.0,0.014888020460646079
3067.0,0.014888020460646079
3066.0,0.014932966849499074
3065.0,0.014977917890464765
3064.0,0.015022873584506602
3063.0,0.015067833932588037
3062.0,0.014977917890464765
3061.0,0.014932966849499074
3060.0,0.014888020460646079
3059.0,0.014932966849499074
3058.0,0.014977917890464765
3057.0,0.015022873584506602
3056.0,0.015112798935672522
3055.0,0.015157768594724175
3054.0,0.015247721884586563
3053.0,0.015247721884586563
3052.0,0.015202742910707112
3051.0,0.015112798935672522
3050.0,0.014932966849499074
3049.0,0.014753209197138295
3048.0,0.014573525916998342
3047.0,0.014393916947563534
3046.0,0.014259258949925524
3045.0,0.014169510141607944
3044.0,0.014124642691606404
3043.0,0.014079779876432497
3042.0,0.013990068146738865
3041.0,0.013990068146738865
3040.0,0.013990068146738865
3039.0,0.01403492169512921
3038.0,0.013990068146738865
3037.0,0.013900374944870508
3036.0,0.01381070026317599
3035.0,0.01372104409400876
3034.0,0.013676222949234651
3033.0,0.013631406429727155
3032.0,0.013586594534531482
3031.0,0.013541787262693505
3030.0,0.013541787262693505
3029.0,0.013586594534531482
3028.0,0.013676222949234651
3027.0,0.013765869865004277
3026.0,0.01385553528947936
3025.0,0.013990068146738865
3024.0,0.014169510141607944
3023.0,0.014304140310157809
3022.0,0.014349026309051105
3021.0,0.014349026309051105
3020.0,0.014304140310157809
3019.0,0.014304140310157809
3018.0,0.014349026309051105
3017.0,0.0144837121472845
3016.0,0.014618439768003144
3015.0,0.014753209197138295
3014.0,0.014932966849499074
3013.0,0.015112798935672522
3012.0,0.015292705517326866
3011.0,0.015427684378367834
3010.0,0.015562705203923999
3009.0,0.015652742414136167
3008.0,0.015742798294583915
3007.0,0.015922966097169144
3006.0,0.016058141016111804
3005.0,0.016238439713835096
3004.0,0.016373712875465518
3003.0,0.016509028184833463
3002.0,0.016599261819461697
3001.0,0.016689514205884493
3000.0,0.01677978535189717
2999.0,0.016870075265299933
2998.0,0.016960383953898095
2997.0,0.017050711425501408
2996.0,0.017141057687924732
2995.0,0.017186237868137555
2994.0,0.017231422748988034
2993.0,0.01727661233145472
2992.0,0.017412209298337533
2991.0,0.017547848615010242
2990.0,0.01768353030793479
2989.0,0.017774008325325275
2988.0,0.017864505196230507
2987.0,0.017955020928509757
2986.0,0.01809082990920774
2985.0,0.018271974638383703
2984.0,0.018498511851753108
2983.0,0.018770512579999288
2982.0,0.019042683770379876
2981.0,0.019315025636685412
2980.0,0.01954210772389997
2979.0,0.019860222254245663
2978.0,0.02022406727031445
2977.0,0.02058821736556471
2976.0,0.020907099361673565
2975.0,0.021135015652343103
2974.0,0.021317434843055594
2973.0,0.021499930688540836
2972.0,0.02159120737696063
2971.0,0.021728158389364705
2970.0,0.021865152601710403
2969.0,0.02204787879853809
2968.0,0.0221849739168134
2967.0,0.022322112326006227
2966.0,0.022367834754000393
2965.0,0.022413561996148967
2964.0,0.02245929405346514
2963.0,0.022413561996148967
2962.0,0.022367834754000393
2961.0,0.0221849739168134
2960.0,0.02204787879853809
2959.0,0.021865152601710403
2958.0,0.02168250325324883
2957.0,0.021499930688540836
2956.0,0.021271822861508305
2955.0,0.021043834782408455
2954.0,0.02081596632558158
2953.0,0.02058821736556471
2952.0,0.02026956933771462
2951.0,0.019996628416253603
2950.0,0.019678413991243593
2949.0,0.01940584422377989
2948.0,0.019178833355664393
2947.0,0.018906576854070378
2946.0,0.018679826740892747
2945.0,0.01840788278591865
2944.0,0.018136109008649592
2943.0,0.017909760704207134
2942.0,0.01768353030793479
2941.0,0.017547848615010242
2940.0,0.017412209298337533
2939.0,0.01727661233145472
2938.0,0.017141057687924732
2937.0,0.017005545341335804
2936.0,0.016870075265299933
2935.0,0.016734647433454652
2934.0,0.016599261819461697
2933.0,0.01646391839700767
2932.0,0.016418813294209356
2931.0,0.016509028184833463
2930.0,0.016599261819461697
2929.0,0.016689514205884493
2928.0,0.016689514205884493
2927.0,0.016599261819461697
2926.0,0.016509028184833463
2925.0,0.016373712875465518
2924.0,0.01628352608625061
2923.0,0.01628352608625061
2922.0,0.01628352608625061
2921.0,0.01628352608625061
2920.0,0.016373712875465518
2919.0,0.016509028184833463
2918.0,0.016689514205884493
2917.0,0.016915227262211507
2916.0,0.017095882207371904
2915.0,0.01727661233145472
2914.0,0.017412209298337533
2913.0,0.01759307113620534
2912.0,0.01781925440359733
2911.0,0.01809082990920774
2910.0,0.018271974638383703
2909.0,0.01831727262871463
2908.0,0.01831727262871463
2907.0,0.018271974638383703
2906.0,0.018181392829336396
2905.0,0.018136109008649592
2904.0,0.018045555530026514
2903.0,0.017909760704207134
2902.0,0.017774008325325275
2901.0,0.017638298366853045
2900.0,0.017502630802287644
2899.0,0.017412209298337533
2898.0,0.017321806616515723
2897.0,0.017231422748988034
2896.0,0.017186237868137555
2895.0,0.017095882207371904
2894.0,0.017005545341335804
2893.0,0.016960383953898095
2892.0,0.016870075265299933
2891.0,0.016824927962187042
2890.0,0.016689514205884493
2889.0,0.016599261819461697
2888.0,0.016554142658660398
2887.0,0.016599261819461697
2886.0,0.016644385668211692
2885.0,0.016599261819461697
2884.0,0.016554142658660398
2883.0,0.016418813294209356
2882.0,0.01632861713980338
2881.0,0.016238439713835096
2880.0,0.016238439713835096
2879.0,0.016238439713835096
2878.0,0.016238439713835096
2877.0,0.01628352608625061
2876.0,0.016238439713835096
2875.0,0.016103208673694303
2874.0,0.01596801972881945
2873.0,0.015832872853011715
2872.0,0.015742798294583915
2871.0,0.015697768020096703
2870.0,0.015697768020096703
2869.0,0.015652742414136167
2868.0,0.015607721475734415
2867.0,0.015562705203923999
2866.0,0.015562705203923999
2865.0,0.015562705203923999
2864.0,0.015562705203923999
2863.0,0.015562705203923999
2862.0,0.015517693597737248
2861.0,0.015427684378367834
2860.0,0.015337693809893471
2859.0,0.015337693809893471
2858.0,0.01538268676325183
2857.0,0.01547268665620738
2856.0,0.015517693597737248
2855.0,0.015562705203923999
2854.0,0.015607721475734415
2853.0,0.015562705203923999
2852.0,0.01547268665620738
2851.0,0.015337693809893471
2850.0,0.015202742910707112
2849.0,0.015112798935672522
2848.0,0.015067833932588037
2847.0,0.014977917890464765
2846.0,0.014888020460646079
2845.0,0.014753209197138295
2844.0,0.014663358264387139
2843.0,0.014573525916998342
2842.0,0.0144837121472845
2841.0,0.014349026309051105
2840.0,0.014304140310157809
2839.0,0.014259258949925524
2838.0,0.014304140310157809
2837.0,0.014349026309051105
2836.0,0.014393916947563534
2835.0,0.014393916947563534
2834.0,0.014349026309051105
2833.0,0.014259258949925524
2832.0,0.014169510141607944
2831.0,0.014079779876432497
2830.0,0.014079779876432497
2829.0,0.014124642691606404
2828.0,0.014124642691606404
2827.0,0.014079779876432497
2826.0,0.013990068146738865
2825.0,0.01385553528947936
2824.0,0.013765869865004277
2823.0,0.01372104409400876
2822.0,0.01372104409400876
2821.0,0.01372104409400876
2820.0,0.01372104409400876
2819.0,0.01372104409400876
2818.0,0.013765869865004277
2817.0,0.013765869865004277
2816.0,0.013765869865004277
2815.0,0.013765869865004277
2814.0,0.01381070026317599
2813.0,0.01385553528947936
2812.0,0.013900374944870508
2811.0,0.013990068146738865
2810.0,0.013990068146738865
2809.0,0.013945219230304673
2808.0,0.01385553528947936
2807.0,0.013765869865004277
2806.0,0.013676222949234651
2805.0,0.013676222949234651
2804.0,0.01372104409400876
2803.0,0.01372104409400876
2802.0,0.013676222949234651
2801.0,0.013631406429727155
2800.0,0.013586594534531482
2799.0,0.013496984613259544
2798.0,0.013407393177789162
2797.0,0.013362604389846044
2796.0,0.013362604389846044
2795.0,0.013452186585275916
2794.0,0.013541787262693505
2793.0,0.013586594534531482
2792.0,0.013586594534531482
2791.0,0.013541787262693505
2790.0,0.013496984613259544
2789.0,0.013452186585275916
2788.0,0.013362604389846044
2787.0,0.013362604389846044
2786.0,0.013362604389846044
2785.0,0.013362604389846044
2784.0,0.013317820220494436
2783.0,0.013273040668781544
2782.0,0.01322826573375524
2781.0,0.01318349541446362
2780.0,0.013093968619278806
2779.0,0.013049212141483357
2778.0,0.012959713020733288
2777.0,0.012959713020733288
2776.0,0.012959713020733288
2775.0,0.012959713020733288
2774.0,0.013004460275618523
2773.0,0.013049212141483357
2772.0,0.013049212141483357
2771.0,0.013049212141483357
2770.0,0.013004460275618523
2769.0,0.013004460275618523
2768.0,0.012959713020733288
2767.0,0.013004460275618523
2766.0,0.013004460275618523
2765.0,0.013004460275618523
2764.0,0.013004460275618523
2763.0,0.012959713020733288
2762.0,0.013004460275618523
2761.0,0.013004460275618523
2760.0,0.013004460275618523
2759.0,0.012959713020733288
2758.0,0.012914970375878188
2757.0,0.012870232340102872
2756.0,0.012825498912458322
2755.0,0.012780770091995297
2754.0,0.012825498912458322
2753.0,0.012914970375878188
2752.0,0.013004460275618523
2751.0,0.013049212141483357
2750.0,0.013049212141483357
2749.0,0.013004460275618523
2748.0,0.012959713020733288
2747.0,0.012914970375878188
2746.0,0.012825498912458322
2745.0,0.012780770091995297
2744.0,0.012736045877764557
2743.0,0.012736045877764557
2742.0,0.012736045877764557
2741.0,0.012736045877764557
2740.0,0.012691326268817527
2739.0,0.012691326268817527
2738.0,0.012691326268817527
2737.0,0.012691326268817527
2736.0,0.012691326268817527
2735.0,0.012736045877764557
2734.0,0.012736045877764557
2733.0,0.012780770091995297
2732.0,0.012825498912458322
2731.0,0.012825498912458322
2730.0,0.012825498912458322
2729.0,0.012780770091995297
2728.0,0.012736045877764557
2727.0,0.012691326268817527
2726.0,0.01260190086298274
2725.0,0.012557195064198723
2724.0,0.012512493866907004
2723.0,0.012557195064198723
2722.0,0.01264661126420652
2721.0,0.012691326268817527
2720.0,0.012736045877764557
2719.0,0.012736045877764557
2718.0,0.012691326268817527
2717.0,0.01260190086298274
2716.0,0.012467797270160563
2715.0,0.012378417874516323
2714.0,0.012289056869694281
2713.0,0.012244383261476699
2712.0,0.012244383261476699
2711.0,0.012244383261476699
2710.0,0.012333735073725371
2709.0,0.012467797270160563
2708.0,0.01260190086298274
2707.0,0.012736045877764557
2706.0,0.012736045877764557
2705.0,0.012736045877764557
2704.0,0.012691326268817527
2703.0,0.01260190086298274
2702.0,0.012557195064198723
2701.0,0.012467797270160563
2700.0,0.012378417874516323
2699.0,0.012333735073725371
2698.0,0.012289056869694281
2697.0,0.012244383261476699
2696.0,0.012199714248127602
2695.0,0.012199714248127602
2694.0,0.012199714248127602
2693.0,0.012199714248127602
2692.0,0.012199714248127602
2691.0,0.012244383261476699
2690.0,0.012289056869694281
2689.0,0.012333735073725371
2688.0,0.012378417874516323
2687.0,0.012378417874516323
2686.0,0.012333735073725371
2685.0,0.012244383261476699
2684.0,0.012199714248127602
2683.0,0.01215504982870197
2682.0,0.01215504982870197
2681.0,0.01215504982870197
2680.0,0.01215504982870197
2679.0,0.012110390002254778
2678.0,0.012065734767841452
2677.0,0.012021084124518078
2676.0,0.0119764380713403
2675.0,0.0119764380713403
2674.0,0.0119764380713403
2673.0,0.012021084124518078
2672.0,0.012065734767841452
2671.0,0.012110390002254778
2670.0,0.012110390002254778
2669.0,0.012110390002254778
2668.0,0.012065734767841452
2667.0,0.012065734767841452
2666.0,0.012065734767841452
2665.0,0.012021084124518078
2664.0,0.012021084124518078
2663.0,0.0119764380713403
2662.0,0.011887159731648111
2661.0,0.011842527443247208
2660.0,0.011842527443247208
2659.0,0.011797899741219142
2658.0,0.011797899741219142
2657.0,0.011753276624621556
2656.0,0.011753276624621556
2655.0,0.011753276624621556
2654.0,0.011797899741219142
2653.0,0.011887159731648111
2652.0,0.011931796607364653
2651.0,0.0119764380713403
2650.0,0.0119764380713403
2649.0,0.011887159731648111
2648.0,0.011797899741219142
2647.0,0.011664044143949504
2646.0,0.011574829993696856
2645.0,0.011619434777991433
2644.0,0.011664044143949504
2643.0,0.011753276624621556
2642.0,0.011842527443247208
2641.0,0.011931796607364653
2640.0,0.0119764380713403
2639.0,0.0119764380713403
2638.0,0.011931796607364653
2637.0,0.011842527443247208
2636.0,0.011797899741219142
2635.0,0.011753276624621556
2634.0,0.011753276624621556
2633.0,0.011753276624621556
2632.0,0.011753276624621556
2631.0,0.011842527443247208
2630.0,0.011887159731648111
2629.0,0.0119764380713403
2628.0,0.012065734767841452
2627.0,0.012110390002254778
2626.0,0.01215504982870197
2625.0,0.012110390002254778
2624.0,0.012110390002254778
2623.0,0.012110390002254778
2622.0,0.012110390002254778
2621.0,0.012065734767841452
2620.0,0.012021084124518078
2619.0,0.011931796607364653
2618.0,0.011887159731648111
2617.0,0.011842527443247208
2616.0,0.011842527443247208
2615.0,0.011842527443247208
2614.0,0.011797899741219142
2613.0,0.011753276624621556
2612.0,0.011708658092512314
2611.0,0.011664044143949504
2610.0,0.011708658092512314
2609.0,0.011708658092512314
2608.0,0.011753276624621556
2607.0,0.011753276624621556
2606.0,0.011797899741219142
2605.0,0.011842527443247208
2604.0,0.011842527443247208
2603.0,0.011887159731648111
2602.0,0.0119764380713403
2601.0,0.012065734767841452
2600.0,0.012065734767841452
2599.0,0.012021084124518078
2598.0,0.012021084124518078
2597.0,0.012021084124518078
2596.0,0.012021084124518078
2595.0,0.012021084124518078
2594.0,0.0119764380713403
2593.0,0.011887159731648111
2592.0,0.011842527443247208
2591.0,0.011842527443247208
2590.0,0.011887159731648111
2589.0,0.011931796607364653
2588.0,0.012021084124518078
2587.0,0.012065734767841452
2586.0,0.012110390002254778
2585.0,0.012110390002254778
2584.0,0.012110390002254778
2583.0,0.012065734767841452
2582.0,0.012021084124518078
2581.0,0.0119764380713403
2580.0,0.0119764380713403
2579.0,0.0119764380713403
2578.0,0.0119764380713403
2577.0,0.0119764380713403
2576.0,0.0119764380713403
2575.0,0.011931796607364653
2574.0,0.0119764380713403
2573.0,0.012065734767841452
2572.0,0.01215504982870197
2571.0,0.012199714248127602
2570.0,0.012199714248127602
2569.0,0.01215504982870197
2568.0,0.01215504982870197
2567.0,0.012110390002254778
2566.0,0.012065734767841452
2565.0,0.0119764380713403
2564.0,0.011887159731648111
2563.0,0.011842527443247208
2562.0,0.011797899741219142
2561.0,0.011797899741219142
2560.0,0.011753276624621556
2559.0,0.011797899741219142
2558.0,0.011797899741219142
2557.0,0.011842527443247208
2556.0,0.011887159731648111
2555.0,0.011887159731648111
2554.0,0.011842527443247208
2553.0,0.011842527443247208
2552.0,0.011797899741219142
2551.0,0.011842527443247208
2550.0,0.011887159731648111
2549.0,0.0119764380713403
2548.0,0.0119764380713403
2547.0,0.011931796607364653
2546.0,0.011887159731648111
2545.0,0.011842527443247208
2544.0,0.011797899741219142
2543.0,0.011797899741219142
2542.0,0.011753276624621556
2541.0,0.011753276624621556
2540.0,0.011753276624621556
2539.0,0.011753276624621556
2538.0,0.011797899741219142
2537.0,0.011842527443247208
2536.0,0.011931796607364653
2535.0,0.0119764380713403
2534.0,0.0119764380713403
2533.0,0.011931796607364653
2532.0,0.011842527443247208
2531.0,0.011753276624621556
2530.0,0.011664044143949504
2529.0,0.011619434777991433
2528.0,0.011619434777991433
2527.0,0.011664044143949504
2526.0,0.011708658092512314
2525.0,0.011753276624621556
2524.0,0.011797899741219142
2523.0,0.011842527443247208
2522.0,0.011842527443247208
2521.0,0.011887159731648111
2520.0,0.011842527443247208
2519.0,0.011797899741219142
2518.0,0.011753276624621556
2517.0,0.011708658092512314
2516.0,0.011708658092512314
2515.0,0.011708658092512314
2514.0,0.011664044143949504
2513.0,0.011574829993696856
2512.0,0.011485634166333858
2511.0,0.011441043121384498
2510.0,0.011351874764248926
2509.0,0.011351874764248926
2508.0,0.011307297450183107
2507.0,0.011351874764248926
2506.0,0.011396456654336085
2505.0,0.011396456654336085
2504.0,0.011396456654336085
2503.0,0.011396456654336085
2502.0,0.011351874764248926
2501.0,0.011307297450183107
2500.0,0.011218156546359825
2499.0,0.011129033935354915
2498.0,0.011129033935354915
2497.0,0.01117359295472431
2496.0,0.011218156546359825
2495.0,0.011218156546359825
2494.0,0.01117359295472431
2493.0,0.011129033935354915
2492.0,0.011084479487313281
2491.0,0.011129033935354915
2490.0,0.011129033935354915
2489.0,0.011084479487313281
2488.0,0.010995384301463185
2487.0,0.010950843561779777
2486.0,0.010950843561779777
2485.0,0.010995384301463185
2484.0,0.011039929609661936
2483.0,0.011084479487313281
2482.0,0.011084479487313281
2481.0,0.011039929609661936
2480.0,0.011084479487313281
2479.0,0.011129033935354915
2478.0,0.01117359295472431
2477.0,0.01117359295472431
2476.0,0.01117359295472431
2475.0,0.01117359295472431
2474.0,0.011218156546359825
2473.0,0.011218156546359825
2472.0,0.011129033935354915
2471.0,0.011039929609661936
2470.0,0.01086177578421088
2469.0,0.01077272626946324
2468.0,0.010683695010048622
2467.0,0.010728208358306901
2466.0,0.010817248744452446
2465.0,0.010906307389674463
2464.0,0.010995384301463185
2463.0,0.011039929609661936
2462.0,0.010995384301463185
2461.0,0.010906307389674463
2460.0,0.010906307389674463
2459.0,0.010906307389674463
2458.0,0.010906307389674463
2457.0,0.01077272626946324
2456.0,0.010683695010048622
2455.0,0.010639186223752484
2454.0,0.010639186223752484
2453.0,0.010683695010048622
2452.0,0.010683695010048622
2451.0,0.010683695010048622
2450.0,0.010639186223752484
2449.0,0.010639186223752484
2448.0,0.010639186223752484
2447.0,0.010683695010048622
2446.0,0.010683695010048622
2445.0,0.010683695010048622
2444.0,0.010639186223752484
2443.0,0.010639186223752484
2442.0,0.010594681998483901
2441.0,0.010594681998483901
2440.0,0.010594681998483901
2439.0,0.010594681998483901
2438.0,0.010594681998483901
2437.0,0.010639186223752484
2436.0,0.010683695010048622
2435.0,0.010728208358306901
2434.0,0.010728208358306901
2433.0,0.010683695010048622
2432.0,0.010594681998483901
2431.0,0.010550182333308289
2430.0,0.010505687227290839
2429.0,0.010550182333308289
2428.0,0.010639186223752484
2427.0,0.010728208358306901
2426.0,0.010728208358306901
2425.0,0.010683695010048622
2424.0,0.010639186223752484
2423.0,0.010550182333308289
2422.0,0.010550182333308289
2421.0,0.010594681998483901
2420.0,0.010683695010048622
2419.0,0.01077272626946324
2418.0,0.01086177578421088
2417.0,0.010906307389674463
2416.0,0.010817248744452446
2415.0,0.010728208358306901
2414.0,0.010683695010048622
2413.0,0.010639186223752484
2412.0,0.010639186223752484
2411.0,0.010683695010048622
2410.0,0.010728208358306901
2409.0,0.010728208358306901
2408.0,0.01077272626946324
2407.0,0.01077272626946324
2406.0,0.01077272626946324
2405.0,0.01077272626946324
2404.0,0.010728208358306901
2403.0,0.010683695010048622
2402.0,0.010683695010048622
2401.0,0.010683695010048622
2400.0,0.01077272626946324
2399.0,0.01077272626946324
2398.0,0.01077272626946324
2397.0,0.010728208358306901
2396.0,0.010728208358306901
2395.0,0.010728208358306901
2394.0,0.01077272626946324
2393.0,0.010817248744452446
2392.0,0.010906307389674463
2391.0,0.010995384301463185
2390.0,0.011084479487313281
2389.0,0.01117359295472431
2388.0,0.011262724711199823
2387.0,0.011307297450183107
2386.0,0.011396456654336085
2385.0,0.011441043121384498
2384.0,0.011441043121384498
2383.0,0.011351874764248926
2382.0,0.011129033935354915
2381.0,0.01077272626946324
2380.0,0.01037222925484893
2379.0,0.01001654169860089
2378.0,0.00974996707218323
2377.0,0.00966114521239847
2376.0,0.009794384815193347
2375.0,0.010105436281226954
2374.0,0.010416710688994968
2373.0,0.010639186223752484
2372.0,0.010639186223752484
2371.0,0.010505687227290839
2370.0,0.010327752376126709
2369.0,0.010149890396819572
2368.0,0.010149890396819572
2367.0,0.01023881228122181
2366.0,0.01023881228122181
2365.0,0.010105436281226954
2364.0,0.010105436281226954
2363.0,0.010327752376126709
2362.0,0.010550182333308289
2361.0,0.010550182333308289
2360.0,0.01023881228122181
2359.0,0.009705553871561357
2358.0,0.008862564879688284
2357.0,0.008021209005416363
2356.0,0.007711646202907652
2355.0,0.008198201155356077
2354.0,0.008951223547323472
2353.0,0.009350411681145587
2352.0,0.009483555971770974
2351.0,0.00974996707218323
2350.0,0.010149890396819572
2349.0,0.010283280051895272
2348.0,0.01001654169860089
2347.0,0.009527946474380489
2346.0,0.009128595198514056
2345.0,0.009172949432521227
2344.0,0.009483555971770974
2343.0,0.00974996707218323
2342.0,0.009572341514736404
2341.0,0.008995559669244813
2340.0,0.008419542825660153
2339.0,0.008153946355103248
2338.0,0.008065450281052211
2337.0,0.008065450281052211
2336.0,0.008153946355103248
2335.0,0.008330992620051436
2334.0,0.008375265465994541
2333.0,0.008153946355103248
2332.0,0.007844288957383316
2331.0,0.007800070204414977
2330.0,0.008153946355103248
2329.0,0.0087296108049002
2328.0,0.009306039320248427
2327.0,0.00966114521239847
2326.0,0.009616741093766423
2325.0,0.009306039320248427
2324.0,0.008951223547323472
2323.0,0.0087296108049002
2322.0,0.008685301823389224
2321.0,0.008906891951112605
2320.0,0.009261671492462709
2319.0,0.00966114521239847
2318.0,0.009972101229705377
2317.0,0.010060986715464404
2316.0,0.009972101229705377
2315.0,0.009838807101520963
2314.0,0.009705553871561357
2313.0,0.009705553871561357
2312.0,0.009794384815193347
2311.0,0.009927665307847056
2310.0,0.009972101229705377
2309.0,0.009927665307847056
2308.0,0.009838807101520963
2307.0,0.009794384815193347
2306.0,0.009794384815193347
2305.0,0.009883233932095559
2304.0,0.010060986715464404
2303.0,0.010283280051895272
2302.0,0.010505687227290839
2301.0,0.010594681998483901
2300.0,0.010594681998483901
2299.0,0.010550182333308289
2298.0,0.010505687227290839
2297.0,0.010505687227290839
2296.0,0.010505687227290839
2295.0,0.010550182333308289
2294.0,0.010505687227290839
2293.0,0.010505687227290839
2292.0,0.010505687227290839
2291.0,0.01046119667949763
2290.0,0.01046119667949763
2289.0,0.010416710688994968
2288.0,0.01037222925484893
2287.0,0.010327752376126709
2286.0,0.010283280051895272
2285.0,0.01023881228122181
2284.0,0.010149890396819572
2283.0,0.010149890396819572
2282.0,0.010105436281226954
2281.0,0.010149890396819572
2280.0,0.010194349063173958
2279.0,0.010283280051895272
2278.0,0.010327752376126709
2277.0,0.010327752376126709
2276.0,0.010283280051895272
2275.0,0.01023881228122181
2274.0,0.010194349063173958
2273.0,0.010194349063173958
2272.0,0.010105436281226954
2271.0,0.01001654169860089
2270.0,0.009927665307847056
2269.0,0.009838807101520963
2268.0,0.009883233932095559
2267.0,0.009927665307847056
2266.0,0.01001654169860089
2265.0,0.010060986715464404
2264.0,0.010105436281226954
2263.0,0.010149890396819572
2262.0,0.010194349063173958
2261.0,0.010149890396819572
2260.0,0.010105436281226954
2259.0,0.01001654169860089
2258.0,0.009883233932095559
2257.0,0.009794384815193347
2256.0,0.009705553871561357
2255.0,0.00966114521239847
2254.0,0.009705553871561357
2253.0,0.009794384815193347
2252.0,0.009883233932095559
2251.0,0.009972101229705377
2250.0,0.009972101229705377
2249.0,0.009883233932095559
2248.0,0.00974996707218323
2247.0,0.00966114521239847
2246.0,0.009616741093766423
2245.0,0.009616741093766423
2244.0,0.009616741093766423
2243.0,0.009616741093766423
2242.0,0.009572341514736404
2241.0,0.009527946474380489
2240.0,0.009483555971770974
2239.0,0.009439170005980158
2238.0,0.00939478857608056
2237.0,0.009306039320248427
2236.0,0.009306039320248427
2235.0,0.009350411681145587
2234.0,0.009439170005980158
2233.0,0.009483555971770974
2232.0,0.009527946474380489
2231.0,0.009527946474380489
2230.0,0.009527946474380489
2229.0,0.009439170005980158
2228.0,0.009350411681145587
2227.0,0.009217308196862062
2226.0,0.009172949432521227
2225.0,0.009172949432521227
2224.0,0.009128595198514056
2223.0,0.009128595198514056
2222.0,0.00908424549391551
2221.0,0.00908424549391551
2220.0,0.009039900317800775
2219.0,0.009039900317800775
2218.0,0.008995559669244813
2217.0,0.008906891951112605
2216.0,0.008906891951112605
2215.0,0.008906891951112605
2214.0,0.008951223547323472
2213.0,0.008951223547323472
2212.0,0.008906891951112605
2211.0,0.008862564879688284
2210.0,0.008862564879688284
2209.0,0.008818242332126802
2208.0,0.008773924307505121
2207.0,0.0087296108049002
2206.0,0.008685301823389224
2205.0,0.008596697419959609
2204.0,0.008552401996197112
2203.0,0.00850811108984062
2202.0,0.00850811108984062
2201.0,0.00850811108984062
2200.0,0.00850811108984062
2199.0,0.00850811108984062
2198.0,0.008463824699968647
2197.0,0.008419542825660153
2196.0,0.008419542825660153
2195.0,0.008419542825660153
2194.0,0.008419542825660153
2193.0,0.008419542825660153
2192.0,0.008375265465994541
2191.0,0.008330992620051436
2190.0,0.008286724286910463
2189.0,0.008242460465651913
2188.0,0.008242460465651913
2187.0,0.008242460465651913
2186.0,0.008286724286910463
2185.0,0.008286724286910463
2184.0,0.008286724286910463
2183.0,0.008242460465651913
2182.0,0.008198201155356077
2181.0,0.008153946355103248
2180.0,0.008153946355103248
2179.0,0.008109696063975047
2178.0,0.008109696063975047
2177.0,0.008109696063975047
2176.0,0.008153946355103248
2175.0,0.008198201155356077
2174.0,0.008242460465651913
2173.0,0.008242460465651913
2172.0,0.008242460465651913
2171.0,0.008198201155356077
2170.0,0.008198201155356077
2169.0,0.008153946355103248
2168.0,0.008109696063975047
2167.0,0.008065450281052211
2166.0,0.008021209005416363
2165.0,0.008021209005416363
2164.0,0.008065450281052211
2163.0,0.008198201155356077
2162.0,0.008242460465651913
2161.0,0.008286724286910463
2160.0,0.008330992620051436
2159.0,0.008330992620051436
2158.0,0.008286724286910463
2157.0,0.008198201155356077
2156.0,0.008198201155356077
2155.0,0.008198201155356077
2154.0,0.008286724286910463
2153.0,0.008330992620051436
2152.0,0.008419542825660153
2151.0,0.008419542825660153
2150.0,0.008419542825660153
2149.0,0.008375265465994541
2148.0,0.008330992620051436
2147.0,0.008330992620051436
2146.0,0.008330992620051436
2145.0,0.008375265465994541
2144.0,0.008419542825660153
2143.0,0.008463824699968647
2142.0,0.00850811108984062
2141.0,0.008419542825660153
2140.0,0.008330992620051436
2139.0,0.008242460465651913
2138.0,0.008198201155356077
2137.0,0.008242460465651913
2136.0,0.008286724286910463
2135.0,0.008286724286910463
2134.0,0.008286724286910463
2133.0,0.008330992620051436
2132.0,0.008375265465994541
2131.0,0.008463824699968647
2130.0,0.00850811108984062
2129.0,0.00850811108984062
2128.0,0.00850811108984062
2127.0,0.00850811108984062
2126.0,0.008463824699968647
2125.0,0.008463824699968647
2124.0,0.008419542825660153
2123.0,0.008419542825660153
2122.0,0.008463824699968647
2121.0,0.008463824699968647
2120.0,0.008463824699968647
2119.0,0.008463824699968647
2118.0,0.008463824699968647
2117.0,0.00850811108984062
2116.0,0.008552401996197112
2115.0,0.008596697419959609
2114.0,0.008640997362049818
2113.0,0.008596697419959609
2112.0,0.008552401996197112
2111.0,0.00850811108984062
2110.0,0.008463824699968647
2109.0,0.008419542825660153
2108.0,0.008330992620051436
2107.0,0.008330992620051436
2106.0,0.008286724286910463
2105.0,0.008242460465651913
2104.0,0.008242460465651913
2103.0,0.008330992620051436
2102.0,0.008375265465994541
2101.0,0.008375265465994541
2100.0,0.008330992620051436
2099.0,0.008286724286910463
2098.0,0.008286724286910463
2097.0,0.008286724286910463
2096.0,0.008330992620051436
2095.0,0.008330992620051436
2094.0,0.008286724286910463
2093.0,0.008242460465651913
2092.0,0.008198201155356077
2091.0,0.008153946355103248
2090.0,0.008109696063975047
2089.0,0.008109696063975047
2088.0,0.008065450281052211
2087.0,0.008021209005416363
2086.0,0.007932739972333236
2085.0,0.007844288957383316
2084.0,0.007800070204414977
2083.0,0.007800070204414977
2082.0,0.007800070204414977
2081.0,0.007800070204414977
2080.0,0.007800070204414977
2079.0,0.007844288957383316
2078.0,0.007800070204414977
2077.0,0.007755855953228474
2076.0,0.007667440952535687
2075.0,0.0075790439479759275
2074.0,0.007534852191956709
2073.0,0.0074464821678643656
2072.0,0.007358130121602358
2071.0,0.007313960837872058
2070.0,0.007313960837872058
2069.0,0.007269796045857202
2068.0,0.007181479933320523
2067.0,0.007137328610972382
2066.0,0.007049039429553483
2065.0,0.007004901568658406
2064.0,0.007004901568658406
2063.0,0.00696076819309055
2062.0,0.00696076819309055
2061.0,0.00696076819309055
2060.0,0.006916639301937977
2059.0,0.006828394969235152
2058.0,0.006740168563263094
2057.0,0.006607862550997545
2056.0,0.006519680930003435
2055.0,0.006519680930003435
2054.0,0.006519680930003435
2053.0,0.006519680930003435
2052.0,0.006519680930003435
2051.0,0.006519680930003435
2050.0,0.006519680930003435
2049.0,0.006519680930003435
2048.0,0.006475596832934416
2047.0,0.006387442061109638
2046.0,0.006343371384537999
2045.0,0.006343371384537999
2044.0,0.006343371384537999
2043.0,0.006343371384537999
2042.0,0.006343371384537999
2041.0,0.006299305179649828
2040.0,0.006167133386013823
2039.0,0.00612308505878878
2038.0,0.006079041198713275
2037.0,0.006035001804881146
2036.0,0.005946936412324799
2035.0,0.00590291041179003
2034.0,0.00590291041179003
2033.0,0.005946936412324799
2032.0,0.005990966876386672
2031.0,0.006035001804881146
2030.0,0.006035001804881146
2029.0,0.005990966876386672
2028.0,0.005946936412324799
2027.0,0.00590291041179003
2026.0,0.005814871797682919
2025.0,0.005726851026829571
2024.0,0.005682847330363394
2023.0,0.005726851026829571
2022.0,0.00577085918230158
2021.0,0.005858888873877532
2020.0,0.00590291041179003
2019.0,0.00590291041179003
2018.0,0.005858888873877532
2017.0,0.00577085918230158
2016.0,0.005726851026829571
2015.0,0.005638848091999105
2014.0,0.005638848091999105
2013.0,0.005594853310833647
2012.0,0.005594853310833647
2011.0,0.005638848091999105
2010.0,0.005638848091999105
2009.0,0.005638848091999105
2008.0,0.005682847330363394
2007.0,0.005682847330363394
2006.0,0.005726851026829571
2005.0,0.005726851026829571
2004.0,0.005682847330363394
2003.0,0.005638848091999105
2002.0,0.005550862985963967
2001.0,0.005550862985963967
2000.0,0.005550862985963967
1999.0,0.005594853310833647
1998.0,0.005638848091999105
1997.0,0.005682847330363394
1996.0,0.005726851026829571
1995.0,0.00577085918230158
1994.0,0.005814871797682919
1993.0,0.005814871797682919
1992.0,0.005814871797682919
1991.0,0.005858888873877532
1990.0,0.00590291041179003
1989.0,0.00590291041179003
1988.0,0.00590291041179003
1987.0,0.005858888873877532
1986.0,0.005858888873877532
1985.0,0.005858888873877532
1984.0,0.00590291041179003
1983.0,0.005946936412324799
1982.0,0.005946936412324799
1981.0,0.00590291041179003
1980.0,0.005858888873877532
1979.0,0.005858888873877532
1978.0,0.00590291041179003
1977.0,0.005990966876386672
1976.0,0.00612308505878878
1975.0,0.00621118618129457
1974.0,0.00625524344553785
1973.0,0.006299305179649828
1972.0,0.006343371384537999
1971.0,0.006387442061109638
1970.0,0.006431517210272464
1969.0,0.006475596832934416
1968.0,0.006519680930003435
1967.0,0.006607862550997545
1966.0,0.006740168563263094
1965.0,0.006828394969235152
1964.0,0.00696076819309055
1963.0,0.007049039429553483
1962.0,0.007137328610972382
1961.0,0.007181479933320523
1960.0,0.007269796045857202
1959.0,0.007313960837872058
1958.0,0.007402303897961815
1957.0,0.007490664932224611
1956.0,0.007534852191956709
1955.0,0.0075790439479759275
1954.0,0.0075790439479759275
1953.0,0.007534852191956709
1952.0,0.007490664932224611
1951.0,0.0074464821678643656
1950.0,0.007402303897961815
1949.0,0.007313960837872058
1948.0,0.007225635744644521
1947.0,0.007137328610972382
1946.0,0.007004901568658406
1945.0,0.006828394969235152
1944.0,0.006607862550997545
1943.0,0.006387442061109638
1942.0,0.00621118618129457
1941.0,0.00612308505878878
1940.0,0.006079041198713275
1939.0,0.006035001804881146
1938.0,0.005946936412324799
1937.0,0.005814871797682919
1936.0,0.005682847330363394
1935.0,0.005594853310833647
1934.0,0.005550862985963967
1933.0,0.005462895701502157
1932.0,0.005330978174470591
1931.0,0.005155150446602086
1930.0,0.004935465843858511
1929.0,0.004715892310740433
1928.0,0.004540313378935901
1927.0,0.004408675747646695
1926.0,0.004320939488377862
1925.0,0.004233220950025984
1924.0,0.004145520125434121
1923.0,0.0040578370074493275
1922.0,0.00401400208620073
1921.0,0.00401400208620073
1920.0,0.00401400208620073
1919.0,0.003926345514724705
1918.0,0.0037510854308679953
1917.0,0.0035758960449088217
1916.0,0.003488327845821315
1915.0,0.0034445503666347133
1914.0,0.0034445503666347133
1913.0,0.0033570086445275926
1912.0,0.0033132443998284966
1911.0,0.0032257291386954545
1910.0,0.0031382315093266833
1909.0,0.003050751504618754
1908.0,0.0029632891174733444
1907.0,0.0029195645282691363
1906.0,0.0029195645282691363
1905.0,0.0028758443407954637
1904.0,0.0028758443407954637
1903.0,0.0028758443407954637
1902.0,0.0028321285541661467
1901.0,0.0027447101798967477
1900.0,0.002569926202528716
1899.0,0.0024388843664115978
1898.0,0.0023078820582733695
1897.0,0.0022205691343961664
1896.0,0.0021332737608552588
1895.0,0.0020459959305969555
1894.0,0.0020023635919956817
1893.0,0.0019587356365717845
1892.0,0.0019587356365717845
1891.0,0.001915112063444413
1890.0,0.0017842676290416026
1889.0,0.0016970599014589638
1888.0,0.0016534626036355249
1887.0,0.0016534626036355249
1886.0,0.0016970599014589638
1885.0,0.0016970599014589638
1884.0,0.0016970599014589638
1883.0,0.0016970599014589638
1882.0,0.001609869681952425
1881.0,0.0015226969634936083
1880.0,0.0013919706849057079
1879.0,0.0012612837441823288
1878.0,0.0012177301682640973
1877.0,0.0012177301682640973
1876.0,0.0012177301682640973
1875.0,0.0012177301682640973
1874.0,0.0011306361176557367
1873.0,0.0010435595295137379
1872.0,0.0009565003968372565
1871.0,0.0008259444115150671
1870.0,0.0006954276616513155
1869.0,0.000521466320689834
1868.0,0.0003910410285830057
1867.0,0.0003910410285830057
1866.0,0.00043451177401765406
1865.0,0.000521466320689834
1864.0,0.0006084382809090627
1863.0,0.0006519307932786322
1862.0,0.0006954276616513155
1861.0,0.0006519307932786322
1860.0,0.0006519307932786322
1859.0,0.0006084382809090627
1858.0,0.0006084382809090627
1857.0,0.0005649501236701937
1856.0,0.000521466320689834
1855.0,0.000521466320689834
1854.0,0.0005649501236701937
1853.0,0.0005649501236701937
1852.0,0.0006084382809090627
1851.0,0.0006519307932786322
1850.0,0.0006954276616513155
1849.0,0.0006954276616513155
1848.0,0.0007389288868995258
1847.0,0.000869458712629001
1846.0,0.0010000277816797354
1845.0,0.0010000277816797354
1844.0,0.0009565003968372565
1843.0,0.0009129773741116676
1842.0,0.0009565003968372565
1841.0,0.0010435595295137379
1840.0,0.0011741809597138886
1839.0,0.0012612837441823288
1838.0,0.001348404001626502
1837.0,0.0014355417390583547
1836.0,0.0014791171649619628
1835.0,0.0015226969634936083
1834.0,0.0015226969634936083
1833.0,0.0015226969634936083
1832.0,0.0015226969634936083
1831.0,0.0015662811355310335
1830.0,0.0015226969634936083
1829.0,0.0014791171649619628
1828.0,0.0015226969634936083
1827.0,0.0016970599014589638
1826.0,0.0017842676290416026
1825.0,0.0017406615763013722
1824.0,0.0017406615763013722
1823.0,0.0018278780605593958
1822.0,0.0020023635919956817
1821.0,0.0020459959305969555
1820.0,0.0020459959305969555
1819.0,0.0020023635919956817
1818.0,0.001915112063444413
1817.0,0.0018278780605593958
1816.0,0.0017406615763013722
1815.0,0.0017406615763013722
1814.0,0.0017406615763013722
1813.0,0.0016534626036355249
1812.0,0.0015662811355310335
1811.0,0.0013919706849057079
1810.0,0.0012612837441823288
1809.0,0.0011306361176557367
1808.0,0.0010870956412141197
1807.0,0.0010870956412141197
1806.0,0.0010870956412141197
1805.0,0.0010870956412141197
1804.0,0.0010435595295137379
1803.0,0.0010000277816797354
1802.0,0.0009129773741116676
1801.0,0.0006954276616513155
1800.0,0.0005649501236701937
1799.0,0.0004779868710962365
1798.0,0.0004779868710962365
1797.0,0.0004779868710962365
1796.0,0.000521466320689834
1795.0,0.0006084382809090627
1794.0,0.0006519307932786322
1793.0,0.0004779868710962365
1792.0,0.00021720154586435392
1791.0,8.686758342868472e-05
1790.0,0.0001303078917322953
1789.0,0.00030411258916074324
1788.0,0.00043451177401765406
1787.0,0.0005649501236701937
1786.0,0.0006084382809090627
1785.0,0.0004779868710962365
1784.0,0.0003475746339209884
1783.0,0.00030411258916074324
1782.0,0.00026065489343207737
1781.0,0.00017375254558760211
1780.0,0.00017375254558760211
1779.0,0.00030411258916074324
1778.0,0.0004779868710962365
1777.0,0.0005649501236701937
1776.0,0.0006084382809090627
1775.0,0.0007824344698965646
1774.0,0.0009129773741116676
1773.0,0.000869458712629001
1772.0,0.0007824344698965646
1771.0,0.000869458712629001
1770.0,0.0010870956412141197
1769.0,0.0012612837441823288
1768.0,0.001348404001626502
1767.0,0.0015662811355310335
1766.0,0.0018278780605593958
1765.0,0.002089632653256679
1764.0,0.0023078820582733695
1763.0,0.0026573093983774942
1762.0,0.0029632891174733444
1761.0,0.0032257291386954545
1760.0,0.0035758960449088217
1759.0,0.004189368323957332
1758.0,0.00484762310854614
1757.0,0.005462895701502157
1756.0,0.006167133386013823
1755.0,0.007137328610972382
1754.0,0.008242460465651913
1753.0,0.009261671492462709
1752.0,0.010594681998483901
1751.0,0.012467797270160563
1750.0,0.014798141635428141
1749.0,0.017547848615010242
1748.0,0.02081596632558158
1747.0,0.024706084643793647
1746.0,0.028956208163971375
1745.0,0.03371743783253667
1744.0,0.03929144831144349
1743.0,0.0454680573730859
1742.0,0.052027420754219955
1741.0,0.05953332233647113
1740.0,0.06864384953207203
1739.0,0.07789763319239285
1738.0,0.08507535179485148
1737.0,0.09023008526723086
1736.0,0.096150661903319
1735.0,0.10729336219433439
1734.0,0.1233203895807995
1733.0,0.13643923547375736
1732.0,0.14532966810466452
1731.0,0.15415809257824264
1730.0,0.1646899991309374
1729.0,0.17593928258134706
1728.0,0.18655245573517876
1727.0,0.19667947642124606
1726.0,0.20711825461460287
1725.0,0.21867554433301217
1724.0,0.23136189875238555
1723.0,0.2439727870265589
1722.0,0.25422278211024096
1721.0,0.2613779720820575
1720.0,0.2676062401770314
1719.0,0.2781893847874535
1718.0,0.2963647624161041
1717.0,0.3143478158844757
1716.0,0.32403845035783063
1715.0,0.32725580169340085
1714.0,0.32651830292665274
1713.0,0.32093568187868726
1712.0,0.3112243447271552
1711.0,0.29912329162309637
1710.0,0.2860896458710447
1709.0,0.272214825817094
1708.0,0.2573534100612638
1707.0,0.24176959154225042
1706.0,0.22621355501880647
1705.0,0.21232703531250707
1704.0,0.20059052038487324
1703.0,0.18996921359416064
1702.0,0.1789452449531117
1701.0,0.16691666582165698
1700.0,0.15589576930248672
1699.0,0.1478861391502384
1698.0,0.1415229581866595
1697.0,0.13501453934020602
1696.0,0.1282519810081284
1695.0,0.12228319913502328
1694.0,0.11758931562603192
1693.0,0.11350927482751816
1692.0,0.10946720807225518
1691.0,0.10535169620648288
1690.0,0.10165883427249067
1689.0,0.09875969792669093
1688.0,0.09620485725896466
1687.0,0.09361107884716913
1686.0,0.09087205801073917
1685.0,0.08878910686244668
1684.0,0.08761850108119962
1683.0,0.08618614761628329
1682.0,0.08428366205400617
1681.0,0.08217951800630297
1680.0,0.08003329851661278
1679.0,0.07794959783282618
1678.0,0.07592757008963713
1677.0,0.07391491307485598
1676.0,0.07206531825882068
1675.0,0.07032568205141221
1674.0,0.06864384953207203
1673.0,0.06696850489759454
1672.0,0.06524912533642091
1671.0,0.06358680028852026
1670.0,0.062131203436140536
1669.0,0.06078036414518184
1668.0,0.05938391766259232
1667.0,0.05789269101064454
1666.0,0.05635711724787096
1665.0,0.05477768336465916
1664.0,0.053203972728539606
1663.0,0.05178270644002936
1662.0,0.05056119896349576
1661.0,0.04939177521576932
1660.0,0.048225491918274965
1659.0,0.04696554274964315
1658.0,0.04570923829887308
1657.0,0.04450467081587295
1656.0,0.043303435105349175
1655.0,0.04200982159316968
1654.0,0.04129280891271536
1653.0,0.041197296600497646
1652.0,0.040529297924893015
1651.0,0.039767126871487646
1650.0,0.03905380426616856
1649.0,0.038199360808321536
1648.0,0.03739392707587297
1647.0,0.036873558918095295
1646.0,0.03668448861388862
1645.0,0.03649550058570927
1644.0,0.03616496929785207
1643.0,0.035646070707806565
1642.0,0.03503362516890207
1641.0,0.03437503289075727
1640.0,0.03376437590141812
1639.0,0.03310770413286357
1638.0,0.032545631817259224
1637.0,0.032218091924200776
1636.0,0.03217132066984485
1635.0,0.031984286006358165
1634.0,0.03161045815293173
1633.0,0.031236951802751545
1632.0,0.03081714076773867
1631.0,0.03030458888152676
1630.0,0.029792641193145286
1629.0,0.02942069428514915
1628.0,0.029095501846216454
1627.0,0.02872415126189476
1626.0,0.02839947976994095
1625.0,0.028075050815808744
1624.0,0.027843464140506313
1623.0,0.027612000892527133
1622.0,0.02747318213414429
1621.0,0.027334407733889066
1620.0,0.027195677663422346
1619.0,0.027149444152769986
1618.0,0.02738066094037661
1617.0,0.028028723600243666
1616.0,0.02863136320857662
1615.0,0.02890978686288448
1614.0,0.02890978686288448
1613.0,0.028770552723758724
1612.0,0.028445846553939003
1611.0,0.02798240132598462
1610.0,0.02738066094037661
1609.0,0.026733563891471412
1608.0,0.026041313893296225
1607.0,0.025350165561278004
1606.0,0.02475205875931885
1605.0,0.024154774532432866
1604.0,0.023604163388120325
1603.0,0.02300845469384938
1602.0,0.02245929405346514
1601.0,0.021865152601710403
1600.0,0.021363051615525652
1599.0,0.020907099361673565
1598.0,0.020497151212598652
1597.0,0.02013307743509718
1596.0,0.019814763052665052
1595.0,0.01958753839310856
1594.0,0.019360432556262852
1593.0,0.0192242260373785
1592.0,0.019133445417920836
1591.0,0.019042683770379876
1590.0,0.01899731005860028
1589.0,0.019042683770379876
1588.0,0.019133445417920836
1587.0,0.019360432556262852
1586.0,0.019769308608968306
1585.0,0.02036058777709271
1584.0,0.02122621566987748
1583.0,0.022322112326006227
1582.0,0.02355831062115543
1581.0,0.024798037742147727
1580.0,0.025764722556973707
1579.0,0.026410376572743033
1578.0,0.026595025589939425
1577.0,0.026318081496016443
1576.0,0.02553436426275746
1575.0,0.024430342106337877
1574.0,0.023374947949272418
1573.0,0.022505030926963654
1572.0,0.02159120737696063
1571.0,0.02058821736556471
1570.0,0.01954210772389997
1569.0,0.01858915983411169
1568.0,0.017955020928509757
1567.0,0.017502630802287644
1566.0,0.017095882207371904
1565.0,0.016644385668211692
1564.0,0.016238439713835096
1563.0,0.01596801972881945
1562.0,0.015697768020096703
1561.0,0.015247721884586563
1560.0,0.014843078722943437
1559.0,0.014753209197138295
1558.0,0.014438812226654996
1557.0,0.014259258949925524
1556.0,0.014169510141607944
1555.0,0.01403492169512921
1554.0,0.01385553528947936
1553.0,0.013631406429727155
1552.0,0.013452186585275916
1551.0,0.01318349541446362
1550.0,0.012870232340102872
1549.0,0.01260190086298274
1548.0,0.012423105273012602
1547.0,0.012199714248127602
1546.0,0.011887159731648111
1545.0,0.011574829993696856
1544.0,0.011307297450183107
1543.0,0.011129033935354915
1542.0,0.010995384301463185
1541.0,0.010995384301463185
1540.0,0.010906307389674463
1539.0,0.010683695010048622
1538.0,0.010639186223752484
1537.0,0.010817248744452446
1536.0,0.010950843561779777
1535.0,0.010906307389674463
1534.0,0.010950843561779777
1533.0,0.011039929609661936
1532.0,0.011129033935354915
1531.0,0.011307297450183107
1530.0,0.011441043121384498
1529.0,0.011530229790124524
1528.0,0.011485634166333858
1527.0,0.011351874764248926
1526.0,0.01117359295472431
1525.0,0.011039929609661936
1524.0,0.010906307389674463
1523.0,0.010639186223752484
1522.0,0.01023881228122181
1521.0,0.00974996707218323
1520.0,0.009483555971770974
1519.0,0.009350411681145587
1518.0,0.009306039320248427
1517.0,0.009261671492462709
1516.0,0.009261671492462709
1515.0,0.00939478857608056
1514.0,0.009838807101520963
1513.0,0.01046119667949763
1512.0,0.011351874764248926
1511.0,0.012467797270160563
1510.0,0.013900374944870508
1509.0,0.016058141016111804
1508.0,0.02067930261797568
1507.0,0.02798240132598462
1506.0,0.033060836978886954
1505.0,0.0338113190438627
1504.0,0.032124554451966825
1503.0,0.029188389127482228
1502.0,0.025718641122169483
1501.0,0.022139270735302752
1500.0,0.018906576854070378
1499.0,0.016058141016111804
1498.0,0.013765869865004277
1497.0,0.012065734767841452
1496.0,0.010906307389674463
1495.0,0.010105436281226954
1494.0,0.00966114521239847
1493.0,0.009483555971770974
1492.0,0.009350411681145587
1491.0,0.009128595198514056
1490.0,0.009128595198514056
1489.0,0.009527946474380489
1488.0,0.01023881228122181
1487.0,0.011084479487313281
1486.0,0.012065734767841452
1485.0,0.013138729709955221
1484.0,0.014214382227394795
1483.0,0.015292705517326866
1482.0,0.01646391839700767
1481.0,0.01781925440359733
1480.0,0.019042683770379876
1479.0,0.020087589665283012
1478.0,0.0209982515252789
1477.0,0.021956506090037076
1476.0,0.02282532397981263
1475.0,0.02351246269481
1474.0,0.024246610963712723
1473.0,0.024936003904763915
1472.0,0.025258095499050004
1471.0,0.025074013910237447
1470.0,0.02475205875931885
1469.0,0.02438440203310499
1468.0,0.023971159908874107
1467.0,0.023695883447997224
1466.0,0.023695883447997224
1465.0,0.024200690320592466
1464.0,0.02498200236711723
1463.0,0.02562649291857677
1462.0,0.02613355016462182
1461.0,0.02654885597506529
1460.0,0.026872146400301444
1459.0,0.027149444152769986
1458.0,0.027843464140506313
1457.0,0.028816959143838528
1456.0,0.02942069428514915
1455.0,0.029653123769906697
1454.0,0.02969962459782227
1453.0,0.029513651152349718
1452.0,0.029095501846216454
1451.0,0.028538594975413334
1450.0,0.027889771597169544
1449.0,0.027288159452933503
1448.0,0.02664120011360227
1447.0,0.026087429580295085
1446.0,0.025718641122169483
1445.0,0.02544225514642018
1444.0,0.02512002699306959
1443.0,0.02475205875931885
1442.0,0.024292536462819925
1441.0,0.023833499868024743
1440.0,0.023329119375188556
1439.0,0.02277955336461468
1438.0,0.02200219004126036
1437.0,0.020952673052035298
1436.0,0.019678413991243593
1435.0,0.01845319495476394
1434.0,0.017367005605150476
1433.0,0.016238439713835096
1432.0,0.015022873584506602
1431.0,0.01381070026317599
1430.0,0.01264661126420652
1429.0,0.011708658092512314
1428.0,0.011084479487313281
1427.0,0.010683695010048622
1426.0,0.01037222925484893
1425.0,0.010194349063173958
1424.0,0.01037222925484893
1423.0,0.010906307389674463
1422.0,0.011708658092512314
1421.0,0.012870232340102872
1420.0,0.014977917890464765
1419.0,0.01831727262871463
1418.0,0.02259651912656535
1417.0,0.027565723042634938
1416.0,0.03352973627071565
1415.0,0.04072004986906119
1414.0,0.049148541111453614
1413.0,0.0588862729628985
1412.0,0.0692037370166998
1411.0,0.07862570458152551
1410.0,0.08555105930144569
1409.0,0.08932224525729482
1408.0,0.08964244272712252
1407.0,0.08645104209348209
1406.0,0.08039897621588898
1405.0,0.07288638806623937
1404.0,0.0654005617819271
1403.0,0.058936011780097886
1402.0,0.053449489430144714
1401.0,0.04851676924770687
1400.0,0.0437835307566099
1399.0,0.03952922246570112
1398.0,0.03616496929785207
1397.0,0.03367050483612166
1396.0,0.03151705144606498
1395.0,0.029467170231675777
1394.0,0.027658283674251827
1393.0,0.02636422658259252
1392.0,0.025488307262671706
1391.0,0.02484402159331056
1390.0,0.024292536462819925
1389.0,0.023833499868024743
1388.0,0.023604163388120325
1387.0,0.02351246269481
1386.0,0.023604163388120325
1385.0,0.023833499868024743
1384.0,0.024108863598207186
1383.0,0.024430342106337877
1382.0,0.02475205875931885
1381.0,0.025074013910237447
1380.0,0.025488307262671706
1379.0,0.025949097207122573
1378.0,0.02636422658259252
1377.0,0.026872146400301444
1376.0,0.02738066094037661
1375.0,0.02798240132598462
1374.0,0.028677754757187035
1373.0,0.029281296279810798
1372.0,0.029653123769906697
1371.0,0.029653123769906697
1370.0,0.029234840219232394
1369.0,0.02839947976994095
1368.0,0.02724191609646076
1367.0,0.025810808881832736
1366.0,0.024246610963712723
1365.0,0.022505030926963654
1364.0,0.02067930261797568
1363.0,0.018951941086827073
1362.0,0.01759307113620534
1361.0,0.01677978535189717
1360.0,0.016373712875465518
1359.0,0.016193358021584725
1358.0,0.016193358021584725
1357.0,0.016418813294209356
1356.0,0.016915227262211507
1355.0,0.017638298366853045
1354.0,0.018679826740892747
1353.0,0.02004210665933459
1352.0,0.021865152601710403
1351.0,0.024154774532432866
1350.0,0.027056991894431892
1349.0,0.030770520137356927
1348.0,0.03541041251009669
1347.0,0.041101805289228244
1346.0,0.047885915093007325
1345.0,0.055764156206519866
1344.0,0.06414020196211956
1343.0,0.07232173586200852
1342.0,0.07972010536705154
1341.0,0.08602728844902896
1340.0,0.09044397075882471
1339.0,0.09183679994445204
1338.0,0.08985603893548699
1337.0,0.08486409337798806
1336.0,0.07768983678560404
1335.0,0.06905096883247697
1334.0,0.05978244440026481
1333.0,0.050707598587974356
1332.0,0.04248848854552012
1331.0,0.035693217696063595
1330.0,0.030397735151460825
1329.0,0.02664120011360227
1328.0,0.02406295751688936
1327.0,0.02245929405346514
1326.0,0.02159120737696063
1325.0,0.021271822861508305
1324.0,0.021363051615525652
1323.0,0.021728158389364705
1322.0,0.022322112326006227
1321.0,0.023100049017062307
1320.0,0.023971159908874107
1319.0,0.024936003904763915
1318.0,0.025995203102585407
1317.0,0.027056991894431892
1316.0,0.028167720075074953
1315.0,0.02942069428514915
1314.0,0.030863766403287585
1313.0,0.032545631817259224
1312.0,0.03437503289075727
1311.0,0.03625938114211591
1310.0,0.038199360808321536
1309.0,0.04014804520039483
1308.0,0.04215336629184985
1307.0,0.04411991377462465
1306.0,0.046047116768076934
1305.0,0.047934409814949674
1304.0,0.049927370249842395
1303.0,0.05217431555754937
1302.0,0.054728418492290265
1301.0,0.057743849580535134
1300.0,0.06118017497378969
1299.0,0.06499684854634524
1298.0,0.0690000580438479
1297.0,0.07329750581735506
1296.0,0.0777417765670334
1295.0,0.08223199755224364
1294.0,0.08666307406737683
1293.0,0.0910326995816122
1292.0,0.09533854208447545
1291.0,0.09946901754724413
1290.0,0.1033635694704158
1289.0,0.10718217569042365
1288.0,0.11103465569966264
1287.0,0.11475189221861393
1286.0,0.11833009232793867
1285.0,0.12182301950849372
1284.0,0.12522836281570182
1283.0,0.12854382597704617
1282.0,0.13176713157753506
1281.0,0.1350738084609946
1280.0,0.13858508136400327
1279.0,0.14224547794055775
1278.0,0.1461193498754576
1277.0,0.15045774799498335
1276.0,0.15527437202677397
1275.0,0.16064767110457878
1274.0,0.16659787076814148
1273.0,0.17340694606595197
1272.0,0.18111458540599013
1271.0,0.18963304631837485
1270.0,0.19866490432545336
1269.0,0.2081690523251638
1268.0,0.21817284706757212
1267.0,0.22826557461323072
1266.0,0.23799703062488464
1265.0,0.24741382125959088
1264.0,0.2562551214075388
1263.0,0.26408188346870287
1262.0,0.27083521030723
1261.0,0.2766264329810155
1260.0,0.281415279972564
1259.0,0.2850000325879576
1258.0,0.2874344721266917
1257.0,0.28971335229710915
1256.0,0.2921744316677686
1255.0,0.29516339378859624
1254.0,0.29886393390747346
1253.0,0.30346888003039285
1252.0,0.3090069679001306
1251.0,0.3149752148942859
1250.0,0.32111758532926427
1249.0,0.32753268693191795
1248.0,0.3340439705460432
1247.0,0.33998877871066924
1246.0,0.34495765866879835
1245.0,0.3492069603480692
1244.0,0.35232368675912906
1243.0,0.35369431971524135
1242.0,0.3531063758322548
1241.0,0.3506651412878581
1240.0,0.3464016181567102
1239.0,0.34017884194429504
1238.0,0.33217362104928894
1237.0,0.3230321857052414
1236.0,0.3131850454926832
1235.0,0.30268345826761656
1234.0,0.29191918953176854
1233.0,0.28133226468378925
1232.0,0.27115943166002854
1231.0,0.2613779720820575
1230.0,0.2519671058698565
1229.0,0.24313577593945102
1228.0,0.23485320989197467
1227.0,0.22687207596666514
1226.0,0.21903497039168318
1225.0,0.21161948468043668
1224.0,0.2046066650687106
1223.0,0.1976368256904526
1222.0,0.19070969882368427
1221.0,0.1838250095711984
1220.0,0.17698247655395072
1219.0,0.1701175535565067
1218.0,0.16323295260579473
1217.0,0.1565803347950816
1216.0,0.1500894416985039
1215.0,0.1438755557576996
1214.0,0.13786862068696282
1213.0,0.1322379753497993
1212.0,0.12702836926155658
1211.0,0.12211057462851604
1210.0,0.1175323851046286
1209.0,0.11322735694556196
1208.0,0.10924374808178183
1207.0,0.10540705207704448
1206.0,0.10171372141087698
1205.0,0.09816040794877057
1204.0,0.09479797133768142
1203.0,0.09151498112135026
1202.0,0.08830984124613894
1201.0,0.08523386307414738
1200.0,0.0823369756726251
1199.0,0.0794592834975203
1198.0,0.07665234350217442
1197.0,0.07396640332115534
1196.0,0.0713481533463054
1195.0,0.06884736147670667
1194.0,0.06641148980334699
1193.0,0.06414020196211956
1192.0,0.06203099704854709
1191.0,0.060081579630943294
1190.0,0.0582898510583536
1189.0,0.0567528748621382
1188.0,0.05546797900801881
1187.0,0.05433450056786593
1186.0,0.0534986094304124
1185.0,0.05295859474477971
1184.0,0.05266432405126009
1183.0,0.05271335532220167
1182.0,0.05305672930217464
1181.0,0.05374429280060267
1180.0,0.05462990550969615
1179.0,0.05566540802921782
1178.0,0.05660442349104544
1177.0,0.05734718830678798
1176.0,0.05784307153250956
1175.0,0.05794231615860479
1174.0,0.05764465029232335
1173.0,0.05680236993107379
1172.0,0.05551732784983132
1171.0,0.05369514500652506
1170.0,0.05144033789103841
1169.0,0.04909991063361274
1168.0,0.04682039893436585
1167.0,0.04484161307420642
1166.0,0.04320747962950522
1165.0,0.042057664554595586
1164.0,0.041340572947066834
1163.0,0.04091088563260792
1162.0,0.040672354027829094
1161.0,0.04057697805689475
1160.0,0.04062466342415694
1159.0,0.04072004986906119
1158.0,0.040958607678906356
1157.0,0.04138834223512067
1156.0,0.042057664554595586
1155.0,0.042967683653061695
1154.0,0.04411991377462465
1153.0,0.045564513671517703
1152.0,0.04720755695590784
1151.0,0.04905128560059957
1150.0,0.051049389754451946
1149.0,0.05325306496641513
1148.0,0.05571477931124735
1147.0,0.05848856736559682
1146.0,0.06153031163235467
1145.0,0.06484555278383164
1144.0,0.06844043290919477
1143.0,0.07227044022834539
1142.0,0.07634157820669385
1141.0,0.08066036321258663
1140.0,0.08523386307414738
1139.0,0.09012318200960712
1138.0,0.09533854208447545
1137.0,0.10105553313349058
1136.0,0.10740457717110186
1135.0,0.11429961987167014
1134.0,0.12165057778222454
1133.0,0.12953756841108
1132.0,0.13774932540207496
1131.0,0.1461193498754576
1130.0,0.15465386258859137
1129.0,0.16323295260579473
1128.0,0.17192040944325404
1127.0,0.18052187163787736
1126.0,0.18882730493344568
1125.0,0.19688444510997294
1124.0,0.2046066650687106
1123.0,0.21183162885883222
1122.0,0.21831641549264935
1121.0,0.2240256688706308
1120.0,0.22885365118501477
1119.0,0.23225063265442003
1118.0,0.2341080235699846
1117.0,0.2344059446805551
1116.0,0.23321548450214102
1115.0,0.23084430928560118
1114.0,0.22811867980990108
1113.0,0.22628667472297836
1112.0,0.22621355501880647
1111.0,0.22819212100089437
1110.0,0.23232477597203993
1109.0,0.2386736775785434
1108.0,0.24695343837347083
1107.0,0.25641184984009624
1106.0,0.26640153903866093
1105.0,0.27638016448453673
1104.0,0.28617357561947543
1103.0,0.29516339378859624
1102.0,0.30303235925597694
1101.0,0.31006989598178203
1100.0,0.3159629625134803
1099.0,0.3205721033878812
1098.0,0.32358076828164006
1097.0,0.3253225321268012
1096.0,0.32569011105852286
1095.0,0.32440494361325367
1094.0,0.32166375326781993
1093.0,0.3178549236261683
1092.0,0.3133637307377066
1091.0,0.30803489723263966
1090.0,0.302073555193495
1089.0,0.29593532059143257
1088.0,0.2897979853446153
1087.0,0.2835792661534451
1086.0,0.27728383251150523
1085.0,0.2713216331490862
1084.0,0.2654401784205238
1083.0,0.2590849235187176
1082.0,0.2522775379644915
1081.0,0.24496406623222855
1080.0,0.23724643506662613
1079.0,0.22900079483605928
1078.0,0.22025924882325953
1077.0,0.21147811277752715
1076.0,0.20300960945431368
1075.0,0.1946350925335547
1074.0,0.18648572845811695
1073.0,0.1788141173911546
1072.0,0.17159792150840691
1071.0,0.16481693015095633
1070.0,0.15851539066460685
1069.0,0.15279763601907614
1068.0,0.1475810070629986
1067.0,0.14266750356873148
1066.0,0.1380476250785483
1065.0,0.13365357725039817
1064.0,0.1295960947209729
1063.0,0.1258081953209289
1062.0,0.12234075588839133
1061.0,0.11930071078129845
1060.0,0.116736140415026
1059.0,0.11446916681190777
1058.0,0.11243895906999102
1057.0,0.11075433910702048
1056.0,0.10946720807225518
1055.0,0.10851829616048003
1054.0,0.10790539730951965
1053.0,0.10768273927751948
1052.0,0.10773839308446487
1051.0,0.10790539730951965
1050.0,0.10812816955441629
1049.0,0.10851829616048003
1048.0,0.10902040301031102
1047.0,0.10946720807225518
1046.0,0.10974669484546551
1045.0,0.10991447328367476
1044.0,0.1098585399354226
1043.0,0.10946720807225518
1042.0,0.10874138309586101
1041.0,0.10768273927751948
1040.0,0.10640466618011679
1039.0,0.10479852522110678
1038.0,0.10303309806684524
1037.0,0.1012199867101744
1036.0,0.09930522554760213
1035.0,0.09734452478207412
1034.0,0.09528445472131919
1033.0,0.09339562827501968
1032.0,0.09167586072382083
1031.0,0.09023008526723086
1030.0,0.0892689019566193
1029.0,0.08916223500731646
1028.0,0.09071147583774919
1027.0,0.09447395156495153
1026.0,0.10105553313349058
1025.0,0.11053021603049262
1024.0,0.12262865413022594
1023.0,0.1367961409713705
1022.0,0.15261244897260462
1021.0,0.16941133131485575
1020.0,0.18601892436352818
1019.0,0.20010831534313467
1018.0,0.20915209603456808
1017.0,0.21119550695535172
1016.0,0.20572113427860006
1015.0,0.1940236492824372
1014.0,0.1788141173911546
1013.0,0.16310648362356628
1012.0,0.14874165128092476
1011.0,0.13655817138629134
1010.0,0.12656313677796316
1009.0,0.11844417020668851
1008.0,0.11182050608167504
1007.0,0.1062937069352865
1006.0,0.10171372141087698
1005.0,0.09794268919153337
1004.0,0.09496007192378841
1003.0,0.09248115389337075
1002.0,0.09023008526723086
1001.0,0.08820340956274775
1000.0,0.0862920860195171
999.0,0.08444188458847957
998.0,0.08280969148843575
997.0,0.08139308485501817
996.0,0.08018997982980403
995.0,0.07919861817434581
994.0,0.07831352451639795
993.0,0.07763790321520991
992.0,0.07711890879170658
991.0,0.07675598136972361
990.0,0.07649693305789551
989.0,0.0763933569825408
988.0,0.0763933569825408
987.0,0.07649693305789551
986.0,0.07665234350217442
985.0,0.07701518429111709
984.0,0.07748213975538865
983.0,0.0781575185941421
982.0,0.079094395835976
981.0,0.08034671768963575
980.0,0.08186477383364066
979.0,0.08365134772453975
978.0,0.08549817717268593
977.0,0.08735289378168276
976.0,0.08905559425002108
975.0,0.09044397075882471
974.0,0.09146136782804049
973.0,0.09205147838772776
972.0,0.0922125568893839
971.0,0.0919441259012328
970.0,0.09124698081546634
969.0,0.09017663034908807
968.0,0.08873582900163002
967.0,0.08687520961044104
966.0,0.08475850269380558
965.0,0.08254700807033655
964.0,0.08034671768963575
963.0,0.07826151631540124
962.0,0.07623803917129979
961.0,0.07432700607875953
960.0,0.07252697900472405
959.0,0.07078549626260622
958.0,0.06905096883247697
957.0,0.06737405597821788
956.0,0.0658551882075229
955.0,0.06444235490698613
954.0,0.06323500239005853
953.0,0.06218131530164395
952.0,0.06133019897732073
951.0,0.060530669156469985
950.0,0.05973260855398799
949.0,0.058936011780097886
948.0,0.05814087347462649
947.0,0.057396751157843484
946.0,0.0567528748621382
945.0,0.05610995175152733
944.0,0.05561604235915585
943.0,0.05507339001378431
942.0,0.05448217792216048
941.0,0.05389176956309405
940.0,0.05340037498486727
939.0,0.05295859474477971
938.0,0.05261529831525902
937.0,0.05227227303668425
936.0,0.05192951848105887
935.0,0.05144033789103841
934.0,0.05095170768433621
933.0,0.05051241005349638
932.0,0.05012229596312534
931.0,0.04978123335813667
930.0,0.04939177521576932
929.0,0.04905128560059957
928.0,0.0486139051197072
927.0,0.04817696468408794
926.0,0.04774046340917959
925.0,0.04740126547022694
924.0,0.04720755695590784
923.0,0.04696554274964315
922.0,0.04672366333269573
921.0,0.046481918555007384
920.0,0.04624030826677128
919.0,0.04599883231842972
918.0,0.04575749056067524
917.0,0.045516282844447975
916.0,0.04541983725624266
915.0,0.0454680573730859
914.0,0.04570923829887308
913.0,0.046047116768076934
912.0,0.04643358574299339
911.0,0.04682039893436585
910.0,0.04725597598510167
909.0,0.047885915093007325
908.0,0.04871106272232795
907.0,0.04973253198641148
906.0,0.05075640943173498
905.0,0.05178270644002936
904.0,0.05281143447390635
903.0,0.05379344615721715
902.0,0.054679159207724926
901.0,0.05546797900801881
900.0,0.05610995175152733
899.0,0.05655495097496965
898.0,0.0567528748621382
897.0,0.05670338543334519
896.0,0.05650548409389744
895.0,0.05610995175152733
894.0,0.055566682299785564
893.0,0.05502409158795207
892.0,0.05458065739693696
891.0,0.05423607688882637
890.0,0.05413767551038262
889.0,0.05438372077326825
888.0,0.05507339001378431
887.0,0.05630767289398331
886.0,0.05804158346918653
885.0,0.06038092104330195
884.0,0.06353652599525317
883.0,0.0675769736232612
882.0,0.07262963696097646
881.0,0.07857365898473456
880.0,0.08539243222891946
879.0,0.09269615116603047
878.0,0.1005078038618683
877.0,0.10896458468468917
876.0,0.11850122038501709
875.0,0.12866061890013913
874.0,0.13798794874978348
873.0,0.14417809459397013
872.0,0.14496568332411575
871.0,0.13984173868172167
870.0,0.1304749371427727
869.0,0.11958660012208333
868.0,0.10941133229451272
867.0,0.10094593200182911
866.0,0.09441997176475758
865.0,0.08969583193143116
864.0,0.08650404038287651
863.0,0.08428366205400617
862.0,0.08270459905431071
861.0,0.08160266115629988
860.0,0.08076496207674921
859.0,0.08018997982980403
858.0,0.07982447798997727
857.0,0.07977228854307139
856.0,0.08003329851661278
855.0,0.0805035121369384
854.0,0.08118360963962057
853.0,0.08207457793525874
852.0,0.08317771540408803
851.0,0.08433639649422697
850.0,0.08560394787021397
849.0,0.08687520961044104
848.0,0.08783110394037297
847.0,0.08825662214406838
846.0,0.08799062441302175
845.0,0.08719360733870762
844.0,0.08597434830367123
843.0,0.08433639649422697
842.0,0.08244197917456386
841.0,0.08055578953476306
840.0,0.07878187880504961
839.0,0.07711890879170658
838.0,0.07551395626608493
837.0,0.07391491307485598
836.0,0.07227044022834539
835.0,0.07042782092345012
834.0,0.06844043290919477
833.0,0.0665127121512945
832.0,0.06489597884855036
831.0,0.06348625752110681
830.0,0.062131203436140536
829.0,0.06078036414518184
828.0,0.05953332233647113
827.0,0.0583891978463662
826.0,0.057396751157843484
825.0,0.05655495097496965
824.0,0.05586292684190197
823.0,0.055172003656783764
822.0,0.05443294655761144
821.0,0.05379344615721715
820.0,0.05325306496641513
819.0,0.05281143447390635
818.0,0.052419250695677544
817.0,0.05207638016827354
816.0,0.05178270644002936
815.0,0.05144033789103841
814.0,0.05114709380028648
813.0,0.05100054597304693
812.0,0.05095170768433621
811.0,0.050805225762017736
810.0,0.0506099933550872
809.0,0.050414848673348
808.0,0.05036607620073763
807.0,0.050317309204795935
806.0,0.050073556332087765
805.0,0.04968383607539972
804.0,0.04919717703534143
803.0,0.04866248120408234
802.0,0.04803141550708934
801.0,0.04754660357696672
800.0,0.04740126547022694
799.0,0.04807992647970649
798.0,0.04978123335813667
797.0,0.0525172634430815
796.0,0.05581353871631256
795.0,0.058836539841526925
794.0,0.06078036414518184
793.0,0.06133019897732073
792.0,0.06068046892176193
791.0,0.059035506507200575
790.0,0.05685187064143715
789.0,0.05458065739693696
788.0,0.05237025261564554
787.0,0.050317309204795935
786.0,0.04841965509660828
785.0,0.04662694927330402
784.0,0.04503426894157925
783.0,0.043495409683302455
782.0,0.04215336629184985
781.0,0.041006334969674096
780.0,0.04010041213405646
779.0,0.03929144831144349
778.0,0.038436537637930535
777.0,0.03753595394209874
776.0,0.03658998431977123
775.0,0.035646070707806565
774.0,0.03470420418834386
773.0,0.033905220553829274
772.0,0.033154576345083564
771.0,0.03235843591698884
770.0,0.03147035562516054
769.0,0.030444315779156517
768.0,0.029281296279810798
767.0,0.028028723600243666
766.0,0.02691835039863255
765.0,0.026041313893296225
764.0,0.02553436426275746
763.0,0.025258095499050004
762.0,0.024936003904763915
761.0,0.024430342106337877
760.0,0.023741750742954926
759.0,0.02300845469384938
758.0,0.022230681908425698
757.0,0.02168250325324883
756.0,0.021499930688540836
755.0,0.02159120737696063
754.0,0.021773818325474092
753.0,0.021910826943857264
752.0,0.021956506090037076
751.0,0.021819483062586187
750.0,0.02159120737696063
749.0,0.021499930688540836
748.0,0.021728158389364705
747.0,0.022230681908425698
746.0,0.02314585342378117
745.0,0.02461415101053266
744.0,0.02691835039863255
743.0,0.03030458888152676
742.0,0.03503362516890207
741.0,0.0417706858116178
740.0,0.05100054597304693
739.0,0.0630843190547461
738.0,0.07789763319239285
737.0,0.09506817260434741
736.0,0.11396072443355765
735.0,0.13365357725039817
734.0,0.15372475758778692
733.0,0.17411970106382046
732.0,0.19545169161194398
731.0,0.21774242633669827
730.0,0.241315150117559
729.0,0.2663213443229122
728.0,0.29268536641129206
727.0,0.3183970012691315
726.0,0.3405592181296824
725.0,0.3561526897002858
724.0,0.3632113109656252
723.0,0.36121133284260165
722.0,0.35232368675912906
721.0,0.33998877871066924
720.0,0.3268868957617663
719.0,0.3141687253739365
718.0,0.3018124301338776
717.0,0.2898826348881838
716.0,0.27769521312567225
715.0,0.2650402387275548
714.0,0.2523551806717519
713.0,0.24063437834407142
712.0,0.23003219867055757
711.0,0.22004294875309416
710.0,0.2101373699536182
709.0,0.20065945054641832
708.0,0.19185657423850877
707.0,0.1838913292600961
706.0,0.17665620917935154
705.0,0.17076057185861093
704.0,0.16589734428720626
703.0,0.16102504504453208
702.0,0.15508812608785938
701.0,0.1479471913021495
700.0,0.14062149557439896
699.0,0.13406733180681396
698.0,0.12842706445412122
697.0,0.12320502379929943
696.0,0.11827306462358211
695.0,0.11396072443355765
694.0,0.11030620855581463
693.0,0.10673771411200872
692.0,0.10259286033841963
691.0,0.0978882765519955
690.0,0.09382663635595145
689.0,0.09151498112135026
688.0,0.09097914578884403
687.0,0.09119340059432579
686.0,0.0916222275676053
685.0,0.09258863922541383
684.0,0.09409623378338305
683.0,0.09517630019905599
682.0,0.09468993788391455
681.0,0.09242742120144909
680.0,0.0892155652071629
679.0,0.08618614761628329
678.0,0.08417821237960132
677.0,0.08333553545860273
676.0,0.08301995267961781
675.0,0.0823369756726251
674.0,0.08102656950704579
673.0,0.07951143534170213
672.0,0.07820951434181311
671.0,0.07675598136972361
670.0,0.07463633264589853
669.0,0.07073438174693436
668.0,0.06575411897692884
667.0,0.06358680028852026
666.0,0.06358680028852026
665.0,0.06338573802478864
664.0,0.06343599486473406
663.0,0.06393888339001164
662.0,0.06439198148213077
661.0,0.06378795567975115
660.0,0.06198090252378963
659.0,0.05988213325228142
658.0,0.05843887976392925
657.0,0.05784307153250956
656.0,0.05769424710410598
655.0,0.05734718830678798
654.0,0.05660442349104544
653.0,0.055764156206519866
652.0,0.055122694036304765
651.0,0.054679159207724926
650.0,0.05433450056786593
649.0,0.054186873412661596
648.0,0.05433450056786593
647.0,0.05443294655761144
646.0,0.05413767551038262
645.0,0.053351266093323746
644.0,0.052419250695677544
643.0,0.05163594401163074
642.0,0.05129369109514803
641.0,0.05134256785867963
640.0,0.0515870342213991
639.0,0.05192951848105887
638.0,0.05222329153526162
637.0,0.05266432405126009
636.0,0.05354773498692689
635.0,0.055172003656783764
634.0,0.0575950591438934
633.0,0.06033101647767336
632.0,0.062281556382736136
631.0,0.06243196139961715
630.0,0.06078036414518184
629.0,0.058538260652670315
628.0,0.05650548409389744
627.0,0.05507339001378431
626.0,0.05443294655761144
625.0,0.05482695382609992
624.0,0.05581353871631256
623.0,0.05660442349104544
622.0,0.05660442349104544
621.0,0.056159373598738904
620.0,0.055764156206519866
619.0,0.05536929814372171
618.0,0.05448217792216048
617.0,0.053351266093323746
616.0,0.0525172634430815
615.0,0.05237025261564554
614.0,0.052468254304406825
613.0,0.052419250695677544
612.0,0.05222329153526162
611.0,0.05178270644002936
610.0,0.05100054597304693
609.0,0.05021979163799939
608.0,0.04982994019179987
607.0,0.04963514562387683
606.0,0.04905128560059957
605.0,0.0478374257855374
604.0,0.04643358574299339
603.0,0.04537162249272897
602.0,0.04488976902944808
601.0,0.044793462458058375
600.0,0.044793462458058375
