cm-1,A
4000.0,0.042584285277331047
3999.0,0.04253638427006878
3998.0,0.04248848854552012
3997.0,0.04244059810252043
3996.0,0.042344833056508824
3995.0,0.042344833056508824
3994.0,0.042392712939904875
3993.0,0.04253638427006878
3992.0,0.04272802000705722
3991.0,0.04287180232318688
3990.0,0.04287180232318688
3989.0,0.04272802000705722
3988.0,0.04268010314465909
3987.0,0.04268010314465909
3986.0,0.04272802000705722
3985.0,0.042775942156833
3984.0,0.04282386959515394
3983.0,0.04282386959515394
3982.0,0.042775942156833
3981.0,0.04272802000705722
3980.0,0.04268010314465909
3979.0,0.04268010314465909
3978.0,0.042775942156833
3977.0,0.04287180232318688
3976.0,0.04291974034210022
3975.0,0.04291974034210022
3974.0,0.04287180232318688
3973.0,0.04287180232318688
3972.0,0.04282386959515394
3971.0,0.04282386959515394
3970.0,0.04282386959515394
3969.0,0.04291974034210022
3968.0,0.04301563225723992
3967.0,0.0431115453499229
3966.0,0.0431115453499229
3965.0,0.04301563225723992
3964.0,0.04287180232318688
3963.0,0.042775942156833
3962.0,0.04287180232318688
3961.0,0.04301563225723992
3960.0,0.04315950984076644
3959.0,0.04325545471730896
3958.0,0.04320747962950522
3957.0,0.043063586155803746
3956.0,0.04291974034210022
3955.0,0.04287180232318688
3954.0,0.04287180232318688
3953.0,0.04291974034210022
3952.0,0.04287180232318688
3951.0,0.042775942156833
3950.0,0.04268010314465909
3949.0,0.042584285277331047
3948.0,0.04253638427006878
3947.0,0.04248848854552012
3946.0,0.042392712939904875
3945.0,0.042392712939904875
3944.0,0.04244059810252043
3943.0,0.042584285277331047
3942.0,0.04268010314465909
3941.0,0.04263219156847242
3940.0,0.04263219156847242
3939.0,0.04272802000705722
3938.0,0.04291974034210022
3937.0,0.0431115453499229
3936.0,0.04315950984076644
3935.0,0.04315950984076644
3934.0,0.04320747962950522
3933.0,0.04320747962950522
3932.0,0.04315950984076644
3931.0,0.04301563225723992
3930.0,0.04287180232318688
3929.0,0.04268010314465909
3928.0,0.04263219156847242
3927.0,0.04263219156847242
3926.0,0.04272802000705722
3925.0,0.04282386959515394
3924.0,0.04291974034210022
3923.0,0.04291974034210022
3922.0,0.04287180232318688
3921.0,0.04291974034210022
3920.0,0.04291974034210022
3919.0,0.04291974034210022
3918.0,0.04291974034210022
3917.0,0.04291974034210022
3916.0,0.042967683653061695
3915.0,0.042967683653061695
3914.0,0.04301563225723992
3913.0,0.04315950984076644
3912.0,0.0433514207947967
3911.0,0.043495409683302455
3910.0,0.04359142880416744
3909.0,0.04363944632667782
3908.0,0.04359142880416744
3907.0,0.0435434165901003
3906.0,0.04339941178682327
3905.0,0.04325545471730896
3904.0,0.0431115453499229
3903.0,0.042967683653061695
3902.0,0.04291974034210022
3901.0,0.043063586155803746
3900.0,0.0433514207947967
3899.0,0.04359142880416744
3898.0,0.04368746915880539
3897.0,0.04363944632667782
3896.0,0.0435434165901003
3895.0,0.04344740808260106
3894.0,0.04325545471730896
3893.0,0.04301563225723992
3892.0,0.04291974034210022
3891.0,0.04291974034210022
3890.0,0.04291974034210022
3889.0,0.04287180232318688
3888.0,0.04291974034210022
3887.0,0.04315950984076644
3886.0,0.0433514207947967
3885.0,0.043303435105349175
3884.0,0.042967683653061695
3883.0,0.04268010314465909
3882.0,0.042775942156833
3881.0,0.0431115453499229
3880.0,0.04344740808260106
3879.0,0.0435434165901003
3878.0,0.04339941178682327
3877.0,0.04320747962950522
3876.0,0.04320747962950522
3875.0,0.04315950984076644
3874.0,0.0431115453499229
3873.0,0.04291974034210022
3872.0,0.04282386959515394
3871.0,0.042967683653061695
3870.0,0.04320747962950522
3869.0,0.0433514207947967
3868.0,0.04325545471730896
3867.0,0.04320747962950522
3866.0,0.043495409683302455
3865.0,0.043735497301724546
3864.0,0.04363944632667782
3863.0,0.04344740808260106
3862.0,0.0433514207947967
3861.0,0.04339941178682327
3860.0,0.0435434165901003
3859.0,0.04359142880416744
3858.0,0.04359142880416744
3857.0,0.043495409683302455
3856.0,0.04325545471730896
3855.0,0.042967683653061695
3854.0,0.04287180232318688
3853.0,0.04320747962950522
3852.0,0.0433514207947967
3851.0,0.04315950984076644
3850.0,0.04339941178682327
3849.0,0.0439276630048171
3848.0,0.044312249686494276
3847.0,0.044312249686494276
3846.0,0.044167989767578186
3845.0,0.04402377775167454
3844.0,0.04397571771932274
3843.0,0.04383156952463674
3842.0,0.0435434165901003
3841.0,0.04325545471730896
3840.0,0.043063586155803746
3839.0,0.0431115453499229
3838.0,0.0433514207947967
3837.0,0.0435434165901003
3836.0,0.04363944632667782
3835.0,0.0437835307566099
3834.0,0.044071843103049346
3833.0,0.044360346976747955
3832.0,0.04460091336073302
3831.0,0.04469717723830824
3830.0,0.04460091336073302
3829.0,0.04450467081587295
3828.0,0.04450467081587295
3827.0,0.04455278942230456
3826.0,0.04455278942230456
3825.0,0.044360346976747955
3824.0,0.044071843103049346
3823.0,0.0439276630048171
3822.0,0.04397571771932274
3821.0,0.044167989767578186
3820.0,0.044167989767578186
3819.0,0.04383156952463674
3818.0,0.043735497301724546
3817.0,0.04402377775167454
3816.0,0.04440844959427559
3815.0,0.044456557540257124
3814.0,0.044312249686494276
3813.0,0.044312249686494276
3812.0,0.04460091336073302
3811.0,0.04484161307420642
3810.0,0.04469717723830824
3809.0,0.044456557540257124
3808.0,0.044456557540257124
3807.0,0.04469717723830824
3806.0,0.044793462458058375
3805.0,0.04460091336073302
3804.0,0.044360346976747955
3803.0,0.044456557540257124
3802.0,0.044793462458058375
3801.0,0.04503426894157925
3800.0,0.04484161307420642
3799.0,0.04440844959427559
3798.0,0.04426415772233416
3797.0,0.04440844959427559
3796.0,0.04455278942230456
3795.0,0.04455278942230456
3794.0,0.044456557540257124
3793.0,0.044456557540257124
3792.0,0.04455278942230456
3791.0,0.04460091336073302
3790.0,0.04455278942230456
3789.0,0.044456557540257124
3788.0,0.044360346976747955
3787.0,0.04426415772233416
3786.0,0.044167989767578186
3785.0,0.044167989767578186
3784.0,0.04426415772233416
3783.0,0.044312249686494276
3782.0,0.044360346976747955
3781.0,0.044456557540257124
3780.0,0.04464904263234004
3779.0,0.044937930324967956
3778.0,0.04513062893352182
3777.0,0.04527520902093718
3776.0,0.04541983725624266
3775.0,0.045516282844447975
3774.0,0.0454680573730859
3773.0,0.0451788169482068
3772.0,0.04484161307420642
3771.0,0.04464904263234004
3770.0,0.04464904263234004
3769.0,0.04474531717982
3768.0,0.04488976902944808
3767.0,0.04503426894157925
3766.0,0.04527520902093718
3765.0,0.04541983725624266
3764.0,0.04541983725624266
3763.0,0.04527520902093718
3762.0,0.0451788169482068
3761.0,0.04513062893352182
3760.0,0.04508244626504121
3759.0,0.044986096961949995
3758.0,0.044937930324967956
3757.0,0.04484161307420642
3756.0,0.04469717723830824
3755.0,0.04450467081587295
3754.0,0.044360346976747955
3753.0,0.044167989767578186
3752.0,0.04387961360698034
3751.0,0.04383156952463674
3750.0,0.044071843103049346
3749.0,0.04426415772233416
3748.0,0.04426415772233416
3747.0,0.044360346976747955
3746.0,0.04488976902944808
3745.0,0.045660991397539874
3744.0,0.04628861957244457
3743.0,0.046047116768076934
3742.0,0.04527520902093718
3741.0,0.044937930324967956
3740.0,0.04503426894157925
3739.0,0.04508244626504121
3738.0,0.044986096961949995
3737.0,0.044937930324967956
3736.0,0.04508244626504121
3735.0,0.0451788169482068
3734.0,0.04508244626504121
3733.0,0.04513062893352182
3732.0,0.04537162249272897
3731.0,0.045660991397539874
3730.0,0.04570923829887308
3729.0,0.04570923829887308
3728.0,0.04575749056067524
3727.0,0.04585401117045196
3726.0,0.045902279520810385
3725.0,0.04580574818413763
3724.0,0.04570923829887308
3723.0,0.045660991397539874
3722.0,0.045612749855485024
3721.0,0.045564513671517703
3720.0,0.045516282844447975
3719.0,0.045612749855485024
3718.0,0.04570923829887308
3717.0,0.04580574818413763
3716.0,0.04575749056067524
3715.0,0.045660991397539874
3714.0,0.045564513671517703
3713.0,0.04541983725624266
3712.0,0.04541983725624266
3711.0,0.04570923829887308
3710.0,0.04609540658654021
3709.0,0.04643358574299339
3708.0,0.04667530361081473
3707.0,0.04686877481655505
3706.0,0.0469171560879138
3705.0,0.04686877481655505
3704.0,0.04667530361081473
3703.0,0.046481918555007384
3702.0,0.04628861957244457
3701.0,0.04609540658654021
3700.0,0.04595055323640551
3699.0,0.04599883231842972
3698.0,0.046143701775014145
3697.0,0.04633693625290869
3696.0,0.04633693625290869
3695.0,0.046047116768076934
3694.0,0.04570923829887308
3693.0,0.04541983725624266
3692.0,0.0451788169482068
3691.0,0.04508244626504121
3690.0,0.04527520902093718
3689.0,0.04575749056067524
3688.0,0.046143701775014145
3687.0,0.046192002334692894
3686.0,0.04609540658654021
3685.0,0.04624030826677128
3684.0,0.04643358574299339
3683.0,0.046481918555007384
3682.0,0.04638525830935958
3681.0,0.04628861957244457
3680.0,0.04633693625290869
3679.0,0.04638525830935958
3678.0,0.04628861957244457
3677.0,0.04628861957244457
3676.0,0.04638525830935958
3675.0,0.04653025674659861
3674.0,0.04624030826677128
3673.0,0.04580574818413763
3672.0,0.045902279520810385
3671.0,0.04633693625290869
3670.0,0.04677202844014605
3669.0,0.04696554274964315
3668.0,0.04682039893436585
3667.0,0.04662694927330402
3666.0,0.04672366333269573
3665.0,0.0469171560879138
3664.0,0.047062332249019345
3663.0,0.04720755695590784
3662.0,0.04725597598510167
3661.0,0.04720755695590784
3660.0,0.047062332249019345
3659.0,0.04686877481655505
3658.0,0.04686877481655505
3657.0,0.047062332249019345
3656.0,0.04744970610179822
3655.0,0.047643522676209304
3654.0,0.04754660357696672
3653.0,0.04740126547022694
3652.0,0.04730440041308315
3651.0,0.04715914332429838
3650.0,0.04725597598510167
3649.0,0.04778894189133087
3648.0,0.04827402457540786
3647.0,0.04841965509660828
3646.0,0.04841965509660828
3645.0,0.048565334467987054
3644.0,0.048808242065293994
3643.0,0.04900266601119507
3642.0,0.049148541111453614
3641.0,0.049245818406496555
3640.0,0.04934311749548925
3639.0,0.04948910701400333
3638.0,0.04963514562387683
3637.0,0.04978123335813667
3636.0,0.04987865248862655
3635.0,0.04997609347667353
3634.0,0.05012229596312534
3633.0,0.05012229596312534
3632.0,0.04997609347667353
3631.0,0.04978123335813667
3630.0,0.04978123335813667
3629.0,0.05021979163799939
3628.0,0.050707598587974356
3627.0,0.050707598587974356
3626.0,0.0506099933550872
3625.0,0.050805225762017736
3624.0,0.051098239029786274
3623.0,0.05114709380028648
3622.0,0.051049389754451946
3621.0,0.051049389754451946
3620.0,0.05119595406718891
3619.0,0.05153812993871654
3618.0,0.05178270644002936
3617.0,0.0518316382728683
3616.0,0.05178270644002936
3615.0,0.0518316382728683
3614.0,0.052027420754219955
3613.0,0.05222329153526162
3612.0,0.052419250695677544
3611.0,0.0525172634430815
3610.0,0.0525172634430815
3609.0,0.05266432405126009
3608.0,0.05295859474477971
3607.0,0.053351266093323746
3606.0,0.053596866100945384
3605.0,0.05379344615721715
3604.0,0.05399011523423525
3603.0,0.05413767551038262
3602.0,0.05433450056786593
3601.0,0.05448217792216048
3600.0,0.05458065739693696
3599.0,0.05462990550969615
3598.0,0.05462990550969615
3597.0,0.054679159207724926
3596.0,0.05482695382609992
3595.0,0.0549747987575373
3594.0,0.05502409158795207
3593.0,0.0549747987575373
3592.0,0.05482695382609992
3591.0,0.054679159207724926
3590.0,0.05462990550969615
3589.0,0.05462990550969615
3588.0,0.05477768336465916
3587.0,0.05507339001378431
3586.0,0.055270639696704205
3585.0,0.05536929814372171
3584.0,0.05561604235915585
3583.0,0.055912320584565744
3582.0,0.05620880107069848
3581.0,0.056406567231630955
3580.0,0.05655495097496965
3579.0,0.05665390164340933
3578.0,0.05670338543334519
3577.0,0.05680236993107379
3576.0,0.05690137699451481
3575.0,0.056950888991593285
3574.0,0.057049929922901255
3573.0,0.057198533682059516
3572.0,0.05729763111133224
3571.0,0.05734718830678798
3570.0,0.05734718830678798
3569.0,0.05729763111133224
3568.0,0.05744631966579017
3567.0,0.057743849580535134
3566.0,0.05809122563440061
3565.0,0.0582898510583536
3564.0,0.0583395216116076
3563.0,0.05843887976392925
3562.0,0.058538260652670315
3561.0,0.05863766428823891
3560.0,0.058786812414678646
3559.0,0.059035506507200575
3558.0,0.05938391766259232
3557.0,0.05968277842578207
3556.0,0.05983228596592505
3555.0,0.05988213325228142
3554.0,0.05983228596592505
3553.0,0.05988213325228142
3552.0,0.05998184499233683
3551.0,0.060131455540490375
3550.0,0.06028111764589528
3549.0,0.060430831344098435
3548.0,0.06058059667068294
3547.0,0.06083032037482261
3546.0,0.0611301784870133
3545.0,0.06143024377893891
3544.0,0.06163040254819374
3543.0,0.061780582187257016
3542.0,0.061830653609679764
3541.0,0.06193081377661436
3540.0,0.06198090252378963
3539.0,0.06203099704854709
3538.0,0.06203099704854709
3537.0,0.06203099704854709
3536.0,0.06203099704854709
3535.0,0.06208109735221967
3534.0,0.062131203436140536
3533.0,0.062281556382736136
3532.0,0.06243196139961715
3531.0,0.06263258248271053
3530.0,0.06283329628496737
3529.0,0.06293368798257193
3528.0,0.06298389253518577
3527.0,0.06303410289212974
3526.0,0.06303410289212974
3525.0,0.06313454102437754
3524.0,0.06333548699992453
3523.0,0.06348625752110681
3522.0,0.06358680028852026
3521.0,0.06378795567975115
3520.0,0.06398920428479049
3519.0,0.06434161389936577
3518.0,0.06459351024765114
3517.0,0.06469430971007495
3516.0,0.06464390705442691
3515.0,0.06459351024765114
3514.0,0.06454311928839007
3513.0,0.06459351024765114
3512.0,0.06464390705442691
3511.0,0.06474471821595262
3510.0,0.06489597884855036
3509.0,0.06514819703433927
3508.0,0.06529959828457499
3507.0,0.0653500770992892
3506.0,0.0653500770992892
3505.0,0.06529959828457499
3504.0,0.06545105233385295
3503.0,0.06580465065211571
3502.0,0.06625970050306473
3501.0,0.0666645899223488
3500.0,0.06691783763020887
3499.0,0.06701917807680191
3498.0,0.06696850489759454
3497.0,0.06691783763020887
3496.0,0.06696850489759454
3495.0,0.06712054217620067
3494.0,0.06722192993944942
3493.0,0.06727263269847072
3492.0,0.06732334137759932
3491.0,0.06742477650170953
3490.0,0.0676277178520861
3489.0,0.06788152797087754
3488.0,0.0681862960408608
3487.0,0.06844043290919477
3486.0,0.0684912781333824
3485.0,0.06844043290919477
3484.0,0.06844043290919477
3483.0,0.06844043290919477
3482.0,0.0684912781333824
3481.0,0.0685421293109949
3480.0,0.06864384953207203
3479.0,0.06879647454924775
3478.0,0.0690000580438479
3477.0,0.06925467168888666
3476.0,0.06950943469373039
3475.0,0.06961138175567827
3474.0,0.06966236426227002
3473.0,0.06961138175567827
3472.0,0.06956040523329987
3471.0,0.06956040523329987
3470.0,0.06961138175567827
3469.0,0.06971335275448043
3468.0,0.06986635415888243
3467.0,0.07007043991541217
3466.0,0.07032568205141221
3465.0,0.07058107428570715
3464.0,0.07068327324650436
3463.0,0.07073438174693436
3462.0,0.07068327324650436
3461.0,0.07063217075990047
3460.0,0.07058107428570715
3459.0,0.07052998382251041
3458.0,0.07058107428570715
3457.0,0.07068327324650436
3456.0,0.07083661679493547
3455.0,0.0709900145060387
3454.0,0.07119462910671581
3453.0,0.07145053299833615
3452.0,0.07155293679081787
3451.0,0.07155293679081787
3450.0,0.07145053299833615
3449.0,0.07139934015547578
3448.0,0.07150173187630915
3447.0,0.07175781684269089
3446.0,0.07211658966929302
3445.0,0.07237303755504598
3444.0,0.07252697900472405
3443.0,0.07262963696097646
3442.0,0.07273231918911849
3441.0,0.07283502570063005
3440.0,0.0729891310243489
3439.0,0.07304051161972436
3438.0,0.07304051161972436
3437.0,0.07304051161972436
3436.0,0.07304051161972436
3435.0,0.07304051161972436
3434.0,0.07304051161972436
3433.0,0.07309189829456408
3432.0,0.07329750581735506
3431.0,0.07355465218161061
3430.0,0.07381195089279391
3429.0,0.07396640332115534
3428.0,0.07391491307485598
3427.0,0.07381195089279391
3426.0,0.07376047895413773
3425.0,0.07386342893255127
3424.0,0.07401789967289685
3423.0,0.07427547306393745
3422.0,0.07443009045662374
3421.0,0.07458476291575367
3420.0,0.07468790850035045
3419.0,0.0748426728241014
3418.0,0.07494587968815725
3417.0,0.07494587968815725
3416.0,0.07479107858799638
3415.0,0.07458476291575367
3414.0,0.07448164182257
3413.0,0.07453319930846214
3412.0,0.07463633264589853
3411.0,0.07479107858799638
3410.0,0.07479107858799638
3409.0,0.07489427319033615
3408.0,0.07504911108438939
3407.0,0.07525564752005143
3406.0,0.07541061433058172
3405.0,0.07556563645676939
3404.0,0.0756173227980268
3403.0,0.0756173227980268
3402.0,0.07556563645676939
3401.0,0.07556563645676939
3400.0,0.07556563645676939
3399.0,0.07566901529132153
3398.0,0.07566901529132153
3397.0,0.07556563645676939
3396.0,0.07541061433058172
3395.0,0.07530729697981409
3394.0,0.07546228222451012
3393.0,0.07587584681417514
3392.0,0.07628980560343712
3391.0,0.07649693305789551
3390.0,0.07644514193245056
3389.0,0.07623803917129979
3388.0,0.07613452481449845
3387.0,0.07623803917129979
3386.0,0.07649693305789551
3385.0,0.07665234350217442
3384.0,0.07675598136972361
3383.0,0.07680780957933253
3382.0,0.07685964397479927
3381.0,0.07696333132921396
3380.0,0.07717078033335123
3379.0,0.07732643214144574
3378.0,0.07743023101428781
3377.0,0.07748213975538865
3376.0,0.07743023101428781
3375.0,0.07732643214144574
3374.0,0.07711890879170658
3373.0,0.07685964397479927
3372.0,0.07665234350217442
3371.0,0.07665234350217442
3370.0,0.07680780957933253
3369.0,0.07706704344478843
3368.0,0.0772226580712021
3367.0,0.07732643214144574
3366.0,0.07727454200674
3365.0,0.07717078033335123
3364.0,0.07717078033335123
3363.0,0.07717078033335123
3362.0,0.07727454200674
3361.0,0.07737832847680104
3360.0,0.07737832847680104
3359.0,0.07732643214144574
3358.0,0.07727454200674
3357.0,0.07732643214144574
3356.0,0.07743023101428781
3355.0,0.07753405470158659
3354.0,0.07743023101428781
3353.0,0.07732643214144574
3352.0,0.07732643214144574
3351.0,0.07753405470158659
3350.0,0.07789763319239285
3349.0,0.07810552907089763
3348.0,0.07805354577058976
3347.0,0.07784567476894111
3346.0,0.07758597585436577
3345.0,0.07753405470158659
3344.0,0.0777417765670334
3343.0,0.07800156869172903
3342.0,0.07805354577058976
3341.0,0.07794959783282618
3340.0,0.0777417765670334
3339.0,0.07768983678560404
3338.0,0.0777417765670334
3337.0,0.07789763319239285
3336.0,0.07805354577058976
3335.0,0.07805354577058976
3334.0,0.07794959783282618
3333.0,0.07768983678560404
3332.0,0.07753405470158659
3331.0,0.07748213975538865
3330.0,0.07753405470158659
3329.0,0.07763790321520991
3328.0,0.07768983678560404
3327.0,0.0777417765670334
3326.0,0.07789763319239285
3325.0,0.07794959783282618
3324.0,0.07800156869172903
3323.0,0.07805354577058976
3322.0,0.07810552907089763
3321.0,0.0781575185941421
3320.0,0.07805354577058976
3319.0,0.07784567476894111
3318.0,0.07763790321520991
3317.0,0.07753405470158659
3316.0,0.07753405470158659
3315.0,0.07753405470158659
3314.0,0.07753405470158659
3313.0,0.07748213975538865
3312.0,0.07748213975538865
3311.0,0.07758597585436577
3310.0,0.07768983678560404
3309.0,0.0777417765670334
3308.0,0.07768983678560404
3307.0,0.07763790321520991
3306.0,0.07768983678560404
3305.0,0.07768983678560404
3304.0,0.0777417765670334
3303.0,0.07779372256098371
3302.0,0.07784567476894111
3301.0,0.07794959783282618
3300.0,0.07800156869172903
3299.0,0.07789763319239285
3298.0,0.0777417765670334
3297.0,0.07763790321520991
3296.0,0.07768983678560404
3295.0,0.0777417765670334
3294.0,0.07784567476894111
3293.0,0.07789763319239285
3292.0,0.07789763319239285
3291.0,0.07779372256098371
3290.0,0.0777417765670334
3289.0,0.0777417765670334
3288.0,0.07768983678560404
3287.0,0.07768983678560404
3286.0,0.07758597585436577
3285.0,0.07748213975538865
3284.0,0.07737832847680104
3283.0,0.07737832847680104
3282.0,0.07737832847680104
3281.0,0.07737832847680104
3280.0,0.07737832847680104
3279.0,0.07737832847680104
3278.0,0.07732643214144574
3277.0,0.07737832847680104
3276.0,0.07748213975538865
3275.0,0.07763790321520991
3274.0,0.0777417765670334
3273.0,0.07779372256098371
3272.0,0.07779372256098371
3271.0,0.07779372256098371
3270.0,0.07784567476894111
3269.0,0.07779372256098371
3268.0,0.07779372256098371
3267.0,0.0777417765670334
3266.0,0.07768983678560404
3265.0,0.07758597585436577
3264.0,0.07748213975538865
3263.0,0.07737832847680104
3262.0,0.07732643214144574
3261.0,0.07737832847680104
3260.0,0.07748213975538865
3259.0,0.07758597585436577
3258.0,0.07763790321520991
3257.0,0.07758597585436577
3256.0,0.07748213975538865
3255.0,0.07737832847680104
3254.0,0.07727454200674
3253.0,0.07727454200674
3252.0,0.07732643214144574
3251.0,0.07743023101428781
3250.0,0.07748213975538865
3249.0,0.07743023101428781
3248.0,0.0772226580712021
3247.0,0.07696333132921396
3246.0,0.07665234350217442
3245.0,0.07649693305789551
3244.0,0.07649693305789551
3243.0,0.07665234350217442
3242.0,0.07685964397479927
3241.0,0.07701518429111709
3240.0,0.07711890879170658
3239.0,0.0772226580712021
3238.0,0.07727454200674
3237.0,0.07732643214144574
3236.0,0.07737832847680104
3235.0,0.07732643214144574
3234.0,0.07732643214144574
3233.0,0.0772226580712021
3232.0,0.07717078033335123
3231.0,0.07711890879170658
3230.0,0.07711890879170658
3229.0,0.07717078033335123
3228.0,0.0772226580712021
3227.0,0.0772226580712021
3226.0,0.07717078033335123
3225.0,0.07717078033335123
3224.0,0.07727454200674
3223.0,0.07732643214144574
3222.0,0.07727454200674
3221.0,0.07706704344478843
3220.0,0.07680780957933253
3219.0,0.07665234350217442
3218.0,0.07670415934449615
3217.0,0.07680780957933253
3216.0,0.07696333132921396
3215.0,0.07701518429111709
3214.0,0.07706704344478843
3213.0,0.07711890879170658
3212.0,0.07701518429111709
3211.0,0.07685964397479927
3210.0,0.07660053384128362
3209.0,0.0763933569825408
3208.0,0.07628980560343712
3207.0,0.07618627890881036
3206.0,0.07613452481449845
3205.0,0.0759792995259323
3204.0,0.07587584681417514
3203.0,0.07587584681417514
3202.0,0.07592757008963713
3201.0,0.0760310351245288
3200.0,0.07608277688689435
3199.0,0.07608277688689435
3198.0,0.07608277688689435
3197.0,0.0760310351245288
3196.0,0.07592757008963713
3195.0,0.07577241873988227
3194.0,0.0756173227980268
3193.0,0.07546228222451012
3192.0,0.07525564752005143
3191.0,0.07515236702446293
3190.0,0.07515236702446293
3189.0,0.07515236702446293
3188.0,0.07520400420208784
3187.0,0.07520400420208784
3186.0,0.07515236702446293
3185.0,0.07504911108438939
3184.0,0.07489427319033615
3183.0,0.07473949048056472
3182.0,0.07458476291575367
3181.0,0.07448164182257
3180.0,0.07448164182257
3179.0,0.07448164182257
3178.0,0.07443009045662374
3177.0,0.07437854520917098
3176.0,0.07427547306393745
3175.0,0.07427547306393745
3174.0,0.07427547306393745
3173.0,0.07427547306393745
3172.0,0.07422394616325367
3171.0,0.07412091069849924
3170.0,0.07401789967289685
3169.0,0.07386342893255127
3168.0,0.07370901311513656
3167.0,0.07355465218161061
3166.0,0.07340034609297241
3165.0,0.07329750581735506
3164.0,0.0732460948102629
3163.0,0.07314329105030759
3162.0,0.0729891310243489
3161.0,0.07283502570063005
3160.0,0.07273231918911849
3159.0,0.07278366940873537
3158.0,0.07288638806623937
3157.0,0.07293775650699996
3156.0,0.07288638806623937
3155.0,0.07273231918911849
3154.0,0.0725783049495814
3153.0,0.07242434530888953
3152.0,0.07221915065262552
3151.0,0.07196279359311708
3150.0,0.0718090519612431
3149.0,0.07170658776779781
3148.0,0.0716553647351379
3147.0,0.07160414774328627
3146.0,0.07155293679081787
3145.0,0.07150173187630915
3144.0,0.07139934015547578
3143.0,0.07119462910671581
3142.0,0.07093887591523451
3141.0,0.07068327324650436
3140.0,0.07047889936889606
3139.0,0.07042782092345012
3138.0,0.07042782092345012
3137.0,0.07042782092345012
3136.0,0.0702746216219956
3135.0,0.07012147634321675
3134.0,0.0699173666076287
3133.0,0.06981534770138009
3132.0,0.06976434723371505
3131.0,0.06976434723371505
3130.0,0.06971335275448043
3129.0,0.06956040523329987
3128.0,0.06945847013556561
3127.0,0.06940751155740177
3126.0,0.06940751155740177
3125.0,0.06945847013556561
3124.0,0.06940751155740177
3123.0,0.06930561233546473
3122.0,0.0692037370166998
3121.0,0.0691018855898955
3120.0,0.06894915322260897
3119.0,0.06874559358358656
3118.0,0.06859298644342648
3117.0,0.068389593637038
3116.0,0.0681862960408608
3115.0,0.06803388527182741
3114.0,0.06788152797087754
3113.0,0.06772922410050963
3112.0,0.0675769736232612
3111.0,0.06742477650170953
3110.0,0.06722192993944942
3109.0,0.06701917807680191
3108.0,0.06691783763020887
3107.0,0.06676587128519196
3106.0,0.06661395809694559
3105.0,0.06646209802829528
3104.0,0.06641148980334699
3103.0,0.0665127121512945
3102.0,0.0666645899223488
3101.0,0.06676587128519196
3100.0,0.06671522765130522
3099.0,0.06646209802829528
3098.0,0.06620911585658007
3097.0,0.06600683616875758
3096.0,0.0658551882075229
3095.0,0.0658551882075229
3094.0,0.0658551882075229
3093.0,0.0659562809644747
3092.0,0.0659562809644747
3091.0,0.0658551882075229
3090.0,0.06560255921901192
3089.0,0.0653500770992892
3088.0,0.06499684854634524
3087.0,0.06474471821595262
3086.0,0.06464390705442691
3085.0,0.06464390705442691
3084.0,0.06469430971007495
3083.0,0.06474471821595262
3082.0,0.06469430971007495
3081.0,0.06454311928839007
3080.0,0.06439198148213077
3079.0,0.06429125215733666
3078.0,0.06424089625468832
3077.0,0.06414020196211956
3076.0,0.06398920428479049
3075.0,0.06378795567975115
3074.0,0.06358680028852026
3073.0,0.06348625752110681
3072.0,0.06338573802478864
3071.0,0.06323500239005853
3070.0,0.0630843190547461
3069.0,0.06298389253518577
3068.0,0.06288348923294618
3067.0,0.06278310913729457
3066.0,0.06263258248271053
3065.0,0.06243196139961715
3064.0,0.06223143295006417
3063.0,0.06208109735221967
3062.0,0.061830653609679764
3061.0,0.061580354206806964
3060.0,0.06133019897732073
3059.0,0.06118017497378969
3058.0,0.0611301784870133
3057.0,0.06118017497378969
3056.0,0.06123017721688262
3055.0,0.06118017497378969
3054.0,0.06108018775522828
3053.0,0.06093025007657582
3052.0,0.06083032037482261
3051.0,0.06068046892176193
3050.0,0.060530669156469985
3049.0,0.06028111764589528
3048.0,0.06003170944866376
3047.0,0.05978244440026481
3046.0,0.0595831353183347
3045.0,0.05943371350990989
3044.0,0.05933412752417122
3043.0,0.05928434309333741
3042.0,0.05918479134919874
3041.0,0.059035506507200575
3040.0,0.058836539841526925
3039.0,0.058538260652670315
3038.0,0.0582898510583536
3037.0,0.05809122563440061
3036.0,0.05794231615860479
3035.0,0.057743849580535134
3034.0,0.05749589383191922
3033.0,0.05729763111133224
3032.0,0.05709945885970602
3031.0,0.056950888991593285
3030.0,0.05680236993107379
3029.0,0.05665390164340933
3028.0,0.05655495097496965
3027.0,0.056406567231630955
3026.0,0.05625823416868636
3025.0,0.05606053552778367
3024.0,0.05571477931124735
3023.0,0.05536929814372171
3022.0,0.0549747987575373
3021.0,0.054728418492290265
3020.0,0.05453141486818014
3019.0,0.05438372077326825
3018.0,0.054186873412661596
3017.0,0.05394093961487645
3016.0,0.053646002773725554
3015.0,0.05340037498486727
3014.0,0.053203972728539606
3013.0,0.05310580489767336
3012.0,0.05286048235717078
3011.0,0.0525172634430815
3010.0,0.05212534510230182
3009.0,0.05178270644002936
3008.0,0.05153812993871654
3007.0,0.05139145012356372
3006.0,0.05119595406718891
3005.0,0.05100054597304693
3004.0,0.050707598587974356
3003.0,0.050414848673348
3002.0,0.05002482217034632
3001.0,0.04968383607539972
3000.0,0.04934311749548925
2999.0,0.04905128560059957
2998.0,0.04875964967565971
2997.0,0.04837110616336182
2996.0,0.04803141550708934
2995.0,0.04774046340917959
2994.0,0.04754660357696672
2993.0,0.04744970610179822
2992.0,0.047352830241056854
2991.0,0.04715914332429838
2990.0,0.0469171560879138
2989.0,0.04662694927330402
2988.0,0.04628861957244457
2987.0,0.04595055323640551
2986.0,0.045660991397539874
2985.0,0.04541983725624266
2984.0,0.04522701031028298
2983.0,0.044986096961949995
2982.0,0.04469717723830824
2981.0,0.04450467081587295
2980.0,0.04440844959427559
2979.0,0.04440844959427559
2978.0,0.044456557540257124
2977.0,0.04450467081587295
2976.0,0.04450467081587295
2975.0,0.04450467081587295
2974.0,0.04460091336073302
2973.0,0.04488976902944808
2972.0,0.04527520902093718
2971.0,0.04575749056067524
2970.0,0.04628861957244457
2969.0,0.0469171560879138
2968.0,0.047643522676209304
2967.0,0.04841965509660828
2966.0,0.04919717703534143
2965.0,0.049927370249842395
2964.0,0.05065879322950262
2963.0,0.05134256785867963
2962.0,0.05212534510230182
2961.0,0.05300765925162776
2960.0,0.05389176956309405
2959.0,0.05462990550969615
2958.0,0.05522131887649295
2957.0,0.05561604235915585
2956.0,0.05586292684190197
2955.0,0.055961719945581745
2954.0,0.055912320584565744
2953.0,0.055764156206519866
2952.0,0.05541863577307371
2951.0,0.0549747987575373
2950.0,0.05462990550969615
2949.0,0.05448217792216048
2948.0,0.05462990550969615
2947.0,0.055172003656783764
2946.0,0.056159373598738904
2945.0,0.05754547365752294
2944.0,0.05948351506743288
2943.0,0.061880730805688344
2942.0,0.06479513257341862
2941.0,0.06823711151882228
2940.0,0.07206531825882068
2939.0,0.07628980560343712
2938.0,0.08086958613938555
2937.0,0.08592141461088798
2936.0,0.09151498112135026
2935.0,0.0975619438013351
2934.0,0.10413564875270076
2933.0,0.11114683301706374
2932.0,0.11872949607064243
2931.0,0.12685384867174432
2930.0,0.13566694496660703
2929.0,0.14514763758216587
2928.0,0.15546069787099204
2927.0,0.16672536070943655
2926.0,0.17907641211868253
2925.0,0.19266796070880954
2924.0,0.20774842809673588
2923.0,0.22453519065426075
2922.0,0.2432878398352285
2921.0,0.26408188346870287
2920.0,0.2868455981627016
2919.0,0.3109576609718283
2918.0,0.3352640314812949
2917.0,0.3578323655950548
2916.0,0.37582107425197764
2915.0,0.38668683854454056
2914.0,0.389020620077003
2913.0,0.383419469914114
2912.0,0.37202001017001995
2911.0,0.3576344191550267
2910.0,0.34256167729703746
2909.0,0.3279945549770482
2908.0,0.31461659019851274
2907.0,0.30268345826761656
2906.0,0.292089334286894
2905.0,0.2829122750729809
2904.0,0.27482369858086275
2903.0,0.26768667252875744
2902.0,0.26145725907121475
2901.0,0.2560201347581572
2900.0,0.2511919950413979
2899.0,0.24687675531828734
2898.0,0.24275584897802993
2897.0,0.2386736775785434
2896.0,0.23462951970835144
2895.0,0.2306226739238615
2894.0,0.2267256516625462
2893.0,0.22279074185431513
2892.0,0.21881927906273835
2891.0,0.2148838049780799
2890.0,0.2108425080885603
2889.0,0.20662875108104428
2888.0,0.20224787134928923
2887.0,0.19777376230892996
2886.0,0.19334527600813955
2885.0,0.18889439298206967
2884.0,0.18435585086803474
2883.0,0.17986424812957003
2882.0,0.17528855653526554
2881.0,0.17076057185861093
2880.0,0.16640670600154372
2879.0,0.16222223044626682
2878.0,0.15814019022493886
2877.0,0.15428198203334142
2876.0,0.15051916275601385
2875.0,0.14697138528701026
2874.0,0.14363367634075197
2873.0,0.14068153490288382
2872.0,0.13786862068696282
2871.0,0.1352516643703412
2870.0,0.13270933014511588
2869.0,0.13035765534840538
2868.0,0.1282519810081284
2867.0,0.12656313677796316
2866.0,0.12534426740189897
2865.0,0.12476505354983503
2864.0,0.1249387366082999
2863.0,0.12586622117202761
2862.0,0.1276688787697493
2861.0,0.1304749371427727
2860.0,0.13454067733803532
2859.0,0.14002155835797914
2858.0,0.1472151313194523
2857.0,0.15639352807548912
2856.0,0.16781053893148679
2855.0,0.18210424283820448
2854.0,0.19983300979863605
2853.0,0.22155931642876725
2852.0,0.24756739073852607
2851.0,0.27728383251150523
2850.0,0.3087416418668889
2849.0,0.3380927072339792
2848.0,0.3604139133265736
2847.0,0.37140674414874075
2846.0,0.3696738451960533
2845.0,0.35773338109732644
2844.0,0.339608901597533
2843.0,0.31948319061874497
2842.0,0.29955589897224844
2841.0,0.28100036212128177
2840.0,0.264241462556261
2839.0,0.24949160514865376
2838.0,0.23672178898102136
2837.0,0.22570206150072258
2836.0,0.21616785661555893
2835.0,0.20781850385032108
2834.0,0.20038379551850105
2833.0,0.19382002601611292
2832.0,0.1879561020697733
2831.0,0.1827652695745019
2830.0,0.17802818235795725
2829.0,0.17360121781238225
2828.0,0.16960382351653092
2827.0,0.16602462872009371
2826.0,0.16291684917681404
2825.0,0.1600822243213189
2824.0,0.15751557558842988
2823.0,0.15508812608785938
2822.0,0.15279763601907614
2821.0,0.15058058620310066
2820.0,0.14849704722945534
2819.0,0.1466060225493342
2818.0,0.14496568332411575
2817.0,0.14333151638846497
2816.0,0.14170347546611461
2815.0,0.1400815147992842
2814.0,0.13858508136400327
2813.0,0.13715334001706125
2812.0,0.13590442657575252
2811.0,0.13471831500438958
2810.0,0.13359450162194508
2809.0,0.1325325121409484
2808.0,0.13141433344123432
2807.0,0.13024040521758962
2806.0,0.12912810493225724
2805.0,0.1280769681176266
2804.0,0.12720296001040166
2803.0,0.12638880300353272
2802.0,0.12563416426995122
2801.0,0.1248808345374317
2800.0,0.12401322857151209
2799.0,0.12314735239865637
2798.0,0.12228319913502328
2797.0,0.12147820449879343
2796.0,0.12067469921519258
2795.0,0.11992991593593283
2794.0,0.11930071078129845
2793.0,0.11872949607064243
2792.0,0.11815903167507247
2791.0,0.1175323851046286
2790.0,0.11684980031672243
2789.0,0.11628179803604044
2788.0,0.11577123036739612
2787.0,0.11526126223036814
2786.0,0.11475189221861393
2785.0,0.1141301390960936
2784.0,0.11350927482751816
2783.0,0.11288929687511629
2782.0,0.11227020271196975
2781.0,0.11176432672943282
2780.0,0.11125903931710734
2779.0,0.11081038795292675
2778.0,0.11030620855581463
2777.0,0.1098585399354226
2776.0,0.10946720807225518
2775.0,0.10907622851098608
2774.0,0.10868560061785693
2773.0,0.1082953237608173
2772.0,0.10784972209863586
2771.0,0.10746019534136453
2770.0,0.10701544928928342
2769.0,0.10657115822045493
2768.0,0.10612732120491852
2767.0,0.10573933555301185
2766.0,0.10535169620648288
2765.0,0.10496440254767725
2764.0,0.10452220372428545
2763.0,0.10413564875270076
2762.0,0.1038045895457893
2761.0,0.10363915453068362
2760.0,0.10347378251044459
2759.0,0.10330847343711591
2758.0,0.10314322726279568
2757.0,0.1028679566179056
2756.0,0.10253786198693682
2755.0,0.10215306842042837
2754.0,0.1017686154869033
2753.0,0.10149421446564144
2752.0,0.10127481841050656
2751.0,0.10116516193172598
2750.0,0.10094593200182911
2749.0,0.10072681268239614
2748.0,0.1005078038618683
2747.0,0.10034361969436434
2746.0,0.10023419805561384
2745.0,0.10007011727213588
2744.0,0.09990609845660159
2743.0,0.09963287134352972
2742.0,0.09935981601739963
2741.0,0.09914149529800831
2740.0,0.09892328427374508
2739.0,0.09881421986284966
2738.0,0.09875969792669093
2737.0,0.09865067458435761
2736.0,0.09854167860388774
2735.0,0.09832376867362447
2734.0,0.09821485469640057
2733.0,0.09810596802617932
2732.0,0.09799710864927058
2731.0,0.09783387072894878
2730.0,0.09767069414168117
2729.0,0.09745322068600859
2728.0,0.0972358560759139
2727.0,0.09707290398273716
2726.0,0.09696430321150284
2725.0,0.09685572959046151
2724.0,0.09669292003582619
2723.0,0.0964759355287379
2722.0,0.096150661903319
2721.0,0.09582563171583658
2720.0,0.09560907998763835
2719.0,0.0955549589230904
2718.0,0.0955549589230904
2717.0,0.09560907998763835
2716.0,0.09560907998763835
2715.0,0.0955549589230904
2714.0,0.09544673702322726
2713.0,0.09528445472131919
2712.0,0.09512223303659528
2711.0,0.09485199814398393
2710.0,0.09452793807529569
2709.0,0.09431203228814788
2708.0,0.09409623378338305
2707.0,0.09398837472858723
2706.0,0.09388054245443844
2705.0,0.09382663635595145
2704.0,0.09371884422784693
2703.0,0.09366495819490939
2702.0,0.0935572061829677
2701.0,0.09339562827501968
2700.0,0.09328794305703592
2699.0,0.09318028453345462
2698.0,0.09312646527792956
2697.0,0.09301884677114591
2696.0,0.09291125492570451
2695.0,0.09274991711867164
2694.0,0.09253489323414388
2693.0,0.09242742120144909
2692.0,0.09237369515673355
2691.0,0.09237369515673355
2690.0,0.09237369515673355
2689.0,0.09237369515673355
2688.0,0.09231997575758011
2687.0,0.09226626300234453
2686.0,0.09210516458371698
2685.0,0.0919977988274463
2684.0,0.09189045960744768
2683.0,0.09183679994445204
2682.0,0.0917295005042762
2681.0,0.09167586072382083
2680.0,0.0916222275676053
2679.0,0.0916222275676053
2678.0,0.0916222275676053
2677.0,0.09156860103399356
2676.0,0.09151498112135026
2675.0,0.09140776115243066
2674.0,0.09130056764777605
2673.0,0.09124698081546634
2672.0,0.09124698081546634
2671.0,0.09124698081546634
2670.0,0.09119340059432579
2669.0,0.09108625997902897
2668.0,0.09097914578884403
2667.0,0.09092559859909577
2666.0,0.09097914578884403
2665.0,0.0910326995816122
2664.0,0.09108625997902897
2663.0,0.0910326995816122
2662.0,0.09092559859909577
2661.0,0.0908185240221473
2660.0,0.09076499663169257
2659.0,0.09065796163869155
2658.0,0.0905509530187334
2657.0,0.0905509530187334
2656.0,0.0905509530187334
2655.0,0.09044397075882471
2654.0,0.09033701484598189
2653.0,0.09023008526723086
2652.0,0.09017663034908807
2651.0,0.09023008526723086
2650.0,0.09028354676565531
2649.0,0.09033701484598189
2648.0,0.09028354676565531
2647.0,0.09012318200960712
2646.0,0.08996287644694911
2645.0,0.08980263003399913
2644.0,0.08974922769985194
2643.0,0.08969583193143116
2642.0,0.08964244272712252
2641.0,0.08953568400438638
2640.0,0.08948231448273347
2639.0,0.08942895151874142
2638.0,0.08942895151874142
2637.0,0.08953568400438638
2636.0,0.08958906008531176
2635.0,0.08964244272712252
2634.0,0.08958906008531176
2633.0,0.08953568400438638
2632.0,0.08948231448273347
2631.0,0.08937559511079884
2630.0,0.0892155652071629
2629.0,0.08905559425002108
2628.0,0.08900228368935714
2627.0,0.08900228368935714
2626.0,0.08910891135547172
2625.0,0.0892689019566193
2624.0,0.08932224525729482
2623.0,0.0892689019566193
2622.0,0.08916223500731646
2621.0,0.08900228368935714
2620.0,0.08884239126002336
2619.0,0.08862929288386212
2618.0,0.0884695376928375
2617.0,0.08830984124613894
2616.0,0.08820340956274775
2615.0,0.08820340956274775
2614.0,0.08820340956274775
2613.0,0.0881502035005799
2612.0,0.0881502035005799
2611.0,0.0880970039559672
2610.0,0.08793744441149753
2609.0,0.08783110394037297
2608.0,0.08767164203958999
2607.0,0.08751223866767632
2606.0,0.08745911720936239
2605.0,0.08751223866767632
2604.0,0.08767164203958999
2603.0,0.08772478950118767
2602.0,0.08767164203958999
2601.0,0.08751223866767632
2600.0,0.08735289378168276
2599.0,0.0872997918091396
2598.0,0.0872997918091396
2597.0,0.0872997918091396
2596.0,0.08719360733870762
2595.0,0.0870343792958963
2594.0,0.08687520961044104
2593.0,0.0867160982395816
2592.0,0.08666307406737683
2591.0,0.08661005636824437
2590.0,0.08661005636824437
2589.0,0.08661005636824437
2588.0,0.08655704514060414
2587.0,0.08650404038287651
2586.0,0.08639805027084257
2585.0,0.08634506491338012
2584.0,0.0862920860195171
2583.0,0.086239113587677
2582.0,0.086239113587677
2581.0,0.086239113587677
2580.0,0.086239113587677
2579.0,0.0862920860195171
2578.0,0.0862920860195171
2577.0,0.086239113587677
2576.0,0.08618614761628329
2575.0,0.08608023504853413
2574.0,0.08597434830367123
2573.0,0.08586848736910624
2572.0,0.08581556657675371
2571.0,0.08570974433405087
2570.0,0.08555105930144569
2569.0,0.0854453014823664
2568.0,0.08539243222891946
2567.0,0.08539243222891946
2566.0,0.08539243222891946
2565.0,0.08539243222891946
2564.0,0.08539243222891946
2563.0,0.08533956941077814
2562.0,0.08528671302637614
2561.0,0.08523386307414738
2560.0,0.08523386307414738
2559.0,0.08528671302637614
2558.0,0.08528671302637614
2557.0,0.08523386307414738
2556.0,0.08518101955252688
2555.0,0.08502252755566908
2554.0,0.08491689834879956
2553.0,0.08491689834879956
2552.0,0.08502252755566908
2551.0,0.08507535179485148
2550.0,0.08512818245994969
2549.0,0.08512818245994969
2548.0,0.08507535179485148
2547.0,0.08496970974083906
2546.0,0.08496970974083906
2545.0,0.08496970974083906
2544.0,0.08491689834879956
2543.0,0.08481129482684358
2542.0,0.08465293767580806
2541.0,0.08454739831152125
2540.0,0.08444188458847957
2539.0,0.08433639649422697
2538.0,0.08428366205400617
2537.0,0.08433639649422697
2536.0,0.08444188458847957
2535.0,0.08454739831152125
2534.0,0.08465293767580806
2533.0,0.08465293767580806
2532.0,0.08460016478773014
2531.0,0.08449463824562353
2530.0,0.08438913733853282
2529.0,0.08438913733853282
2528.0,0.08444188458847957
2527.0,0.08449463824562353
2526.0,0.08454739831152125
2525.0,0.08454739831152125
2524.0,0.08449463824562353
2523.0,0.08444188458847957
2522.0,0.08433639649422697
2521.0,0.08423093401631587
2520.0,0.08412549714230844
2519.0,0.08407278830288423
2518.0,0.08407278830288423
2517.0,0.08402008585977572
2516.0,0.08396738981143059
2515.0,0.0838620168928248
2514.0,0.08380934001946239
2513.0,0.0838620168928248
2512.0,0.08402008585977572
2511.0,0.08417821237960132
2510.0,0.08428366205400617
2509.0,0.08433639649422697
2508.0,0.08428366205400617
2507.0,0.08417821237960132
2506.0,0.08402008585977572
2505.0,0.0838620168928248
2504.0,0.08380934001946239
2503.0,0.0838620168928248
2502.0,0.0838620168928248
2501.0,0.0838620168928248
2500.0,0.0838620168928248
2499.0,0.0838620168928248
2498.0,0.0838620168928248
2497.0,0.0838620168928248
2496.0,0.0838620168928248
2495.0,0.08375666953466032
2494.0,0.08365134772453975
2493.0,0.08354605145007499
2492.0,0.08359869639612438
2491.0,0.08365134772453975
2490.0,0.08370400543686918
2489.0,0.08370400543686918
2488.0,0.08365134772453975
2487.0,0.08365134772453975
2486.0,0.08354605145007499
2485.0,0.08349341288484435
2484.0,0.08344078069888616
2483.0,0.08344078069888616
2482.0,0.08349341288484435
2481.0,0.08354605145007499
2480.0,0.08354605145007499
2479.0,0.08354605145007499
2478.0,0.08349341288484435
2477.0,0.08344078069888616
2476.0,0.08333553545860273
2475.0,0.0832303157168639
2474.0,0.08317771540408803
2473.0,0.0832303157168639
2472.0,0.08333553545860273
2471.0,0.08344078069888616
2470.0,0.08349341288484435
2469.0,0.08354605145007499
2468.0,0.08354605145007499
2467.0,0.08354605145007499
2466.0,0.08349341288484435
2465.0,0.08349341288484435
2464.0,0.08354605145007499
2463.0,0.08354605145007499
2462.0,0.08354605145007499
2461.0,0.08354605145007499
2460.0,0.08354605145007499
2459.0,0.08359869639612438
2458.0,0.08359869639612438
2457.0,0.08365134772453975
2456.0,0.08359869639612438
2455.0,0.08354605145007499
2454.0,0.08344078069888616
2453.0,0.08344078069888616
2452.0,0.08344078069888616
2451.0,0.08344078069888616
2450.0,0.08344078069888616
2449.0,0.0833881548906541
2448.0,0.08344078069888616
2447.0,0.08349341288484435
2446.0,0.08354605145007499
2445.0,0.08349341288484435
2444.0,0.08349341288484435
2443.0,0.08344078069888616
2442.0,0.08344078069888616
2441.0,0.08349341288484435
2440.0,0.08354605145007499
2439.0,0.08354605145007499
2438.0,0.08354605145007499
2437.0,0.08349341288484435
2436.0,0.08349341288484435
2435.0,0.08349341288484435
2434.0,0.08349341288484435
2433.0,0.08354605145007499
2432.0,0.08359869639612438
2431.0,0.08365134772453975
2430.0,0.08365134772453975
2429.0,0.08359869639612438
2428.0,0.08349341288484435
2427.0,0.08349341288484435
2426.0,0.08354605145007499
2425.0,0.08365134772453975
2424.0,0.08370400543686918
2423.0,0.08370400543686918
2422.0,0.08370400543686918
2421.0,0.08370400543686918
2420.0,0.08375666953466032
2419.0,0.08375666953466032
2418.0,0.08375666953466032
2417.0,0.08380934001946239
2416.0,0.08380934001946239
2415.0,0.08380934001946239
2414.0,0.08380934001946239
2413.0,0.0838620168928248
2412.0,0.0838620168928248
2411.0,0.0839147001562972
2410.0,0.0839147001562972
2409.0,0.0839147001562972
2408.0,0.08396738981143059
2407.0,0.08396738981143059
2406.0,0.08396738981143059
2405.0,0.08396738981143059
2404.0,0.08396738981143059
2403.0,0.0839147001562972
2402.0,0.08375666953466032
2401.0,0.08365134772453975
2400.0,0.08365134772453975
2399.0,0.08370400543686918
2398.0,0.08375666953466032
2397.0,0.08380934001946239
2396.0,0.08380934001946239
2395.0,0.08375666953466032
2394.0,0.08370400543686918
2393.0,0.08365134772453975
2392.0,0.08370400543686918
2391.0,0.08380934001946239
2390.0,0.08396738981143059
2389.0,0.08417821237960132
2388.0,0.08438913733853282
2387.0,0.08454739831152125
2386.0,0.08454739831152125
2385.0,0.08454739831152125
2384.0,0.08465293767580806
2383.0,0.08481129482684358
2382.0,0.08507535179485148
2381.0,0.08523386307414738
2380.0,0.08533956941077814
2379.0,0.08528671302637614
2378.0,0.08518101955252688
2377.0,0.08512818245994969
2376.0,0.08507535179485148
2375.0,0.08496970974083906
2374.0,0.08486409337798806
2373.0,0.08496970974083906
2372.0,0.08549817717268593
2371.0,0.08634506491338012
2370.0,0.08719360733870762
2369.0,0.08751223866767632
2368.0,0.0872466963286771
2367.0,0.0867691288864394
2366.0,0.08650404038287651
2365.0,0.08655704514060414
2364.0,0.08645104209348209
2363.0,0.08602728844902896
2362.0,0.08560394787021397
2361.0,0.08555105930144569
2360.0,0.08560394787021397
2359.0,0.08539243222891946
2358.0,0.0854453014823664
2357.0,0.0862920860195171
2356.0,0.08740600224789441
2355.0,0.08761850108119962
2354.0,0.08682216600953208
2353.0,0.08576265223225898
2352.0,0.08528671302637614
2351.0,0.08549817717268593
2350.0,0.08618614761628329
2349.0,0.08692825969074924
2348.0,0.0872466963286771
2347.0,0.08714052483764512
2346.0,0.08682216600953208
2345.0,0.08666307406737683
2344.0,0.08661005636824437
2343.0,0.0862920860195171
2342.0,0.08570974433405087
2341.0,0.08518101955252688
2340.0,0.08502252755566908
2339.0,0.0854453014823664
2338.0,0.0862920860195171
2337.0,0.08714052483764512
2336.0,0.08740600224789441
2335.0,0.08698131625203986
2334.0,0.08618614761628329
2333.0,0.08560394787021397
2332.0,0.08555105930144569
2331.0,0.08586848736910624
2330.0,0.086239113587677
2329.0,0.08661005636824437
2328.0,0.08698131625203986
2327.0,0.08708744882390307
2326.0,0.08687520961044104
2325.0,0.08639805027084257
2324.0,0.08592141461088798
2323.0,0.0856568428805593
2322.0,0.0856568428805593
2321.0,0.08597434830367123
2320.0,0.08645104209348209
2319.0,0.08687520961044104
2318.0,0.0870343792958963
2317.0,0.08692825969074924
2316.0,0.08687520961044104
2315.0,0.08698131625203986
2314.0,0.0872997918091396
2313.0,0.08772478950118767
2312.0,0.08804381092731295
2311.0,0.08820340956274775
2310.0,0.0881502035005799
2309.0,0.08804381092731295
2308.0,0.08788427092114603
2307.0,0.0877779434675845
2306.0,0.08767164203958999
2305.0,0.08756536662442538
2304.0,0.08745911720936239
2303.0,0.08740600224789441
2302.0,0.08740600224789441
2301.0,0.08745911720936239
2300.0,0.08751223866767632
2299.0,0.08745911720936239
2298.0,0.08740600224789441
2297.0,0.0872997918091396
2296.0,0.08719360733870762
2295.0,0.08714052483764512
2294.0,0.08708744882390307
2293.0,0.08698131625203986
2292.0,0.08687520961044104
2291.0,0.0867160982395816
2290.0,0.08661005636824437
2289.0,0.08655704514060414
2288.0,0.08655704514060414
2287.0,0.08645104209348209
2286.0,0.086239113587677
2285.0,0.08608023504853413
2284.0,0.08602728844902896
2283.0,0.0861331881037608
2282.0,0.08634506491338012
2281.0,0.08655704514060414
2280.0,0.08661005636824437
2279.0,0.08650404038287651
2278.0,0.08634506491338012
2277.0,0.086239113587677
2276.0,0.0861331881037608
2275.0,0.08608023504853413
2274.0,0.08608023504853413
2273.0,0.08608023504853413
2272.0,0.08618614761628329
2271.0,0.0862920860195171
2270.0,0.08645104209348209
2269.0,0.08655704514060414
2268.0,0.08655704514060414
2267.0,0.08634506491338012
2266.0,0.0861331881037608
2265.0,0.08586848736910624
2264.0,0.08576265223225898
2263.0,0.08570974433405087
2262.0,0.08581556657675371
2261.0,0.08602728844902896
2260.0,0.08618614761628329
2259.0,0.086239113587677
2258.0,0.086239113587677
2257.0,0.08618614761628329
2256.0,0.08618614761628329
2255.0,0.086239113587677
2254.0,0.0862920860195171
2253.0,0.08634506491338012
2252.0,0.08639805027084257
2251.0,0.08639805027084257
2250.0,0.08634506491338012
2249.0,0.0862920860195171
2248.0,0.08618614761628329
2247.0,0.0861331881037608
2246.0,0.08618614761628329
2245.0,0.086239113587677
2244.0,0.08634506491338012
2243.0,0.08639805027084257
2242.0,0.08645104209348209
2241.0,0.08645104209348209
2240.0,0.08645104209348209
2239.0,0.08650404038287651
2238.0,0.08661005636824437
2237.0,0.08666307406737683
2236.0,0.08666307406737683
2235.0,0.08661005636824437
2234.0,0.08645104209348209
2233.0,0.08634506491338012
2232.0,0.08634506491338012
2231.0,0.08639805027084257
2230.0,0.08650404038287651
2229.0,0.08655704514060414
2228.0,0.08650404038287651
2227.0,0.08634506491338012
2226.0,0.086239113587677
2225.0,0.0861331881037608
2224.0,0.0861331881037608
2223.0,0.0861331881037608
2222.0,0.08618614761628329
2221.0,0.0862920860195171
2220.0,0.08645104209348209
2219.0,0.08655704514060414
2218.0,0.08661005636824437
2217.0,0.08655704514060414
2216.0,0.08650404038287651
2215.0,0.08639805027084257
2214.0,0.08639805027084257
2213.0,0.08645104209348209
2212.0,0.08661005636824437
2211.0,0.0867160982395816
2210.0,0.0867160982395816
2209.0,0.0867691288864394
2208.0,0.08682216600953208
2207.0,0.08687520961044104
2206.0,0.08687520961044104
2205.0,0.08682216600953208
2204.0,0.0867691288864394
2203.0,0.0867691288864394
2202.0,0.0867691288864394
2201.0,0.08682216600953208
2200.0,0.08682216600953208
2199.0,0.08682216600953208
2198.0,0.08682216600953208
2197.0,0.08687520961044104
2196.0,0.08692825969074924
2195.0,0.08698131625203986
2194.0,0.08698131625203986
2193.0,0.08698131625203986
2192.0,0.0870343792958963
2191.0,0.0870343792958963
2190.0,0.08708744882390307
2189.0,0.08714052483764512
2188.0,0.0872466963286771
2187.0,0.0872997918091396
2186.0,0.0872997918091396
2185.0,0.0872997918091396
2184.0,0.08735289378168276
2183.0,0.08745911720936239
2182.0,0.08740600224789441
2181.0,0.08735289378168276
2180.0,0.08735289378168276
2179.0,0.08740600224789441
2178.0,0.08756536662442538
2177.0,0.08767164203958999
2176.0,0.08772478950118767
2175.0,0.08772478950118767
2174.0,0.08767164203958999
2173.0,0.08756536662442538
2172.0,0.08751223866767632
2171.0,0.08751223866767632
2170.0,0.08761850108119962
2169.0,0.08772478950118767
2168.0,0.0877779434675845
2167.0,0.08772478950118767
2166.0,0.08767164203958999
2165.0,0.08761850108119962
2164.0,0.08761850108119962
2163.0,0.08761850108119962
2162.0,0.08761850108119962
2161.0,0.08761850108119962
2160.0,0.08767164203958999
2159.0,0.0877779434675845
2158.0,0.08788427092114603
2157.0,0.08799062441302175
2156.0,0.08804381092731295
2155.0,0.0880970039559672
2154.0,0.0881502035005799
2153.0,0.0881502035005799
2152.0,0.0881502035005799
2151.0,0.0880970039559672
2150.0,0.0880970039559672
2149.0,0.0880970039559672
2148.0,0.0880970039559672
2147.0,0.0881502035005799
2146.0,0.08820340956274775
2145.0,0.08825662214406838
2144.0,0.08830984124613894
2143.0,0.08836306687055773
2142.0,0.08830984124613894
2141.0,0.08825662214406838
2140.0,0.08820340956274775
2139.0,0.08825662214406838
2138.0,0.08820340956274775
2137.0,0.0880970039559672
2136.0,0.08799062441302175
2135.0,0.08799062441302175
2134.0,0.0880970039559672
2133.0,0.08820340956274775
2132.0,0.08830984124613894
2131.0,0.08836306687055773
2130.0,0.08836306687055773
2129.0,0.0884695376928375
2128.0,0.0885227828938977
2127.0,0.08857603462370545
2126.0,0.0885227828938977
2125.0,0.0884695376928375
2124.0,0.08841629901892434
2123.0,0.08841629901892434
2122.0,0.08841629901892434
2121.0,0.0884695376928375
2120.0,0.0884695376928375
2119.0,0.0885227828938977
2118.0,0.08857603462370545
2117.0,0.08862929288386212
2116.0,0.08862929288386212
2115.0,0.08862929288386212
2114.0,0.08862929288386212
2113.0,0.08857603462370545
2112.0,0.08857603462370545
2111.0,0.08857603462370545
2110.0,0.08857603462370545
2109.0,0.08857603462370545
2108.0,0.08862929288386212
2107.0,0.08873582900163002
2106.0,0.08884239126002336
2105.0,0.08889568219596411
2104.0,0.08889568219596411
2103.0,0.08884239126002336
2102.0,0.08884239126002336
2101.0,0.08889568219596411
2100.0,0.08905559425002108
2099.0,0.08916223500731646
2098.0,0.0892155652071629
2097.0,0.08916223500731646
2096.0,0.08900228368935714
2095.0,0.08889568219596411
2094.0,0.08878910686244668
2093.0,0.08878910686244668
2092.0,0.08889568219596411
2091.0,0.08910891135547172
2090.0,0.0892689019566193
2089.0,0.08937559511079884
2088.0,0.08942895151874142
2087.0,0.08937559511079884
2086.0,0.08937559511079884
2085.0,0.08932224525729482
2084.0,0.0892689019566193
2083.0,0.0892689019566193
2082.0,0.0892689019566193
2081.0,0.08932224525729482
2080.0,0.08937559511079884
2079.0,0.08942895151874142
2078.0,0.08948231448273347
2077.0,0.08958906008531176
2076.0,0.08964244272712252
2075.0,0.08964244272712252
2074.0,0.08958906008531176
2073.0,0.08953568400438638
2072.0,0.08953568400438638
2071.0,0.08953568400438638
2070.0,0.08953568400438638
2069.0,0.08958906008531176
2068.0,0.08958906008531176
2067.0,0.08958906008531176
2066.0,0.08958906008531176
2065.0,0.08953568400438638
2064.0,0.08948231448273347
2063.0,0.08942895151874142
2062.0,0.08937559511079884
2061.0,0.08937559511079884
2060.0,0.08948231448273347
2059.0,0.08964244272712252
2058.0,0.08985603893548699
2057.0,0.0900163050601559
2056.0,0.0900697402471693
2055.0,0.0900697402471693
2054.0,0.08996287644694911
2053.0,0.08980263003399913
2052.0,0.08974922769985194
2051.0,0.08974922769985194
2050.0,0.08985603893548699
2049.0,0.08996287644694911
2048.0,0.0900697402471693
2047.0,0.09012318200960712
2046.0,0.09023008526723086
2045.0,0.09028354676565531
2044.0,0.09023008526723086
2043.0,0.09023008526723086
2042.0,0.09028354676565531
2041.0,0.09039048950983108
2040.0,0.09049745859458458
2039.0,0.0905509530187334
2038.0,0.0905509530187334
2037.0,0.09049745859458458
2036.0,0.09039048950983108
2035.0,0.09039048950983108
2034.0,0.09039048950983108
2033.0,0.09049745859458458
2032.0,0.0905509530187334
2031.0,0.09060445403289452
2030.0,0.09065796163869155
2029.0,0.09076499663169257
2028.0,0.09087205801073917
2027.0,0.09092559859909577
2026.0,0.09097914578884403
2025.0,0.09097914578884403
2024.0,0.0910326995816122
2023.0,0.09108625997902897
2022.0,0.09119340059432579
2021.0,0.09124698081546634
2020.0,0.09124698081546634
2019.0,0.09124698081546634
2018.0,0.09130056764777605
2017.0,0.09130056764777605
2016.0,0.09130056764777605
2015.0,0.09113982698272349
2014.0,0.0910326995816122
2013.0,0.09097914578884403
2012.0,0.09097914578884403
2011.0,0.09097914578884403
2010.0,0.0910326995816122
2009.0,0.0910326995816122
2008.0,0.09108625997902897
2007.0,0.09113982698272349
2006.0,0.09113982698272349
2005.0,0.09119340059432579
2004.0,0.09119340059432579
2003.0,0.09108625997902897
2002.0,0.0910326995816122
2001.0,0.0910326995816122
2000.0,0.09108625997902897
1999.0,0.09113982698272349
1998.0,0.09113982698272349
1997.0,0.0910326995816122
1996.0,0.0908185240221473
1995.0,0.09065796163869155
1994.0,0.0905509530187334
1993.0,0.09065796163869155
1992.0,0.0908185240221473
1991.0,0.09108625997902897
1990.0,0.09124698081546634
1989.0,0.09135416109288674
1988.0,0.09135416109288674
1987.0,0.09130056764777605
1986.0,0.09124698081546634
1985.0,0.09124698081546634
1984.0,0.09130056764777605
1983.0,0.09140776115243066
1982.0,0.09140776115243066
1981.0,0.09140776115243066
1980.0,0.09140776115243066
1979.0,0.09140776115243066
1978.0,0.09140776115243066
1977.0,0.09146136782804049
1976.0,0.09156860103399356
1975.0,0.09167586072382083
1974.0,0.0917295005042762
1973.0,0.09167586072382083
1972.0,0.09167586072382083
1971.0,0.0917831469106074
1970.0,0.09189045960744768
1969.0,0.0919441259012328
1968.0,0.0919441259012328
1967.0,0.09189045960744768
1966.0,0.0917831469106074
1965.0,0.09167586072382083
1964.0,0.09167586072382083
1963.0,0.0917295005042762
1962.0,0.0917295005042762
1961.0,0.09183679994445204
1960.0,0.09189045960744768
1959.0,0.0919977988274463
1958.0,0.09205147838772776
1957.0,0.09205147838772776
1956.0,0.09205147838772776
1955.0,0.0919977988274463
1954.0,0.0919977988274463
1953.0,0.0919977988274463
1952.0,0.0919977988274463
1951.0,0.0919977988274463
1950.0,0.0919441259012328
1949.0,0.09189045960744768
1948.0,0.09189045960744768
1947.0,0.09189045960744768
1946.0,0.0919441259012328
1945.0,0.0919441259012328
1944.0,0.0919441259012328
1943.0,0.0919977988274463
1942.0,0.0919977988274463
1941.0,0.09210516458371698
1940.0,0.09215885741705532
1939.0,0.09226626300234453
1938.0,0.09242742120144909
1937.0,0.09248115389337075
1936.0,0.09253489323414388
1935.0,0.09253489323414388
1934.0,0.09253489323414388
1933.0,0.09258863922541383
1932.0,0.09258863922541383
1931.0,0.09258863922541383
1930.0,0.09253489323414388
1929.0,0.09248115389337075
1928.0,0.09248115389337075
1927.0,0.09242742120144909
1926.0,0.09237369515673355
1925.0,0.09231997575758011
1924.0,0.09237369515673355
1923.0,0.09248115389337075
1922.0,0.09258863922541383
1921.0,0.09269615116603047
1920.0,0.09280368972839836
1919.0,0.09291125492570451
1918.0,0.09296504751658308
1917.0,0.09301884677114591
1916.0,0.09301884677114591
1915.0,0.09296504751658308
1914.0,0.09296504751658308
1913.0,0.09296504751658308
1912.0,0.09307265269104414
1911.0,0.09312646527792956
1910.0,0.09312646527792956
1909.0,0.09312646527792956
1908.0,0.09312646527792956
1907.0,0.09307265269104414
1906.0,0.09312646527792956
1905.0,0.09318028453345462
1904.0,0.09328794305703592
1903.0,0.09339562827501968
1902.0,0.09344948089854999
1901.0,0.0935572061829677
1900.0,0.09361107884716913
1899.0,0.09366495819490939
1898.0,0.09371884422784693
1897.0,0.0937727369476411
1896.0,0.09382663635595145
1895.0,0.09382663635595145
1894.0,0.0937727369476411
1893.0,0.09366495819490939
1892.0,0.09361107884716913
1891.0,0.09361107884716913
1890.0,0.09361107884716913
1889.0,0.09371884422784693
1888.0,0.09371884422784693
1887.0,0.09366495819490939
1886.0,0.09366495819490939
1885.0,0.09371884422784693
1884.0,0.0937727369476411
1883.0,0.0937727369476411
1882.0,0.0937727369476411
1881.0,0.09382663635595145
1880.0,0.09388054245443844
1879.0,0.09388054245443844
1878.0,0.09393445524476318
1877.0,0.09388054245443844
1876.0,0.09388054245443844
1875.0,0.09388054245443844
1874.0,0.09388054245443844
1873.0,0.09382663635595145
1872.0,0.0937727369476411
1871.0,0.09366495819490939
1870.0,0.09361107884716913
1869.0,0.09361107884716913
1868.0,0.09371884422784693
1867.0,0.0937727369476411
1866.0,0.0937727369476411
1865.0,0.09388054245443844
1864.0,0.09398837472858723
1863.0,0.09409623378338305
1862.0,0.09420411963213149
1861.0,0.09425807260839858
1860.0,0.09436599867304518
1859.0,0.09431203228814788
1858.0,0.09425807260839858
1857.0,0.09415017335768128
1856.0,0.09415017335768128
1855.0,0.09415017335768128
1854.0,0.09415017335768128
1853.0,0.09415017335768128
1852.0,0.09420411963213149
1851.0,0.09415017335768128
1850.0,0.09404230090757282
1849.0,0.09393445524476318
1848.0,0.09382663635595145
1847.0,0.0937727369476411
1846.0,0.09393445524476318
1845.0,0.09420411963213149
1844.0,0.09447395156495153
1843.0,0.09452793807529569
1842.0,0.09436599867304518
1841.0,0.09425807260839858
1840.0,0.09420411963213149
1839.0,0.09420411963213149
1838.0,0.09409623378338305
1837.0,0.09404230090757282
1836.0,0.09404230090757282
1835.0,0.09415017335768128
1834.0,0.09431203228814788
1833.0,0.09441997176475758
1832.0,0.09441997176475758
1831.0,0.09436599867304518
1830.0,0.09436599867304518
1829.0,0.09447395156495153
1828.0,0.09452793807529569
1827.0,0.09458193129745807
1826.0,0.09468993788391455
1825.0,0.09474395125154866
1824.0,0.09485199814398393
1823.0,0.09485199814398393
1822.0,0.09474395125154866
1821.0,0.09463593123310776
1820.0,0.09452793807529569
1819.0,0.09441997176475758
1818.0,0.09436599867304518
1817.0,0.09441997176475758
1816.0,0.09447395156495153
1815.0,0.09452793807529569
1814.0,0.09447395156495153
1813.0,0.09447395156495153
1812.0,0.09447395156495153
1811.0,0.09447395156495153
1810.0,0.09452793807529569
1809.0,0.09463593123310776
1808.0,0.09468993788391455
1807.0,0.09474395125154866
1806.0,0.09468993788391455
1805.0,0.09463593123310776
1804.0,0.09463593123310776
1803.0,0.09463593123310776
1802.0,0.09458193129745807
1801.0,0.09463593123310776
1800.0,0.09479797133768142
1799.0,0.09490603167212863
1798.0,0.09496007192378841
1797.0,0.09496007192378841
1796.0,0.09496007192378841
1795.0,0.09496007192378841
1794.0,0.09496007192378841
1793.0,0.09512223303659528
1792.0,0.09533854208447545
1791.0,0.09550084460218011
1790.0,0.0955549589230904
1789.0,0.0955549589230904
1788.0,0.09566320779750503
1787.0,0.09566320779750503
1786.0,0.09560907998763835
1785.0,0.0955549589230904
1784.0,0.09550084460218011
1783.0,0.09539263618455207
1782.0,0.09533854208447545
1781.0,0.09544673702322726
1780.0,0.0955549589230904
1779.0,0.09566320779750503
1778.0,0.0957714836599215
1777.0,0.09587978652380036
1776.0,0.09598811640261173
1775.0,0.0960964733098364
1774.0,0.09604229147682952
1773.0,0.09598811640261173
1772.0,0.09587978652380036
1771.0,0.09582563171583658
1770.0,0.09587978652380036
1769.0,0.0960964733098364
1768.0,0.09631326826349751
1767.0,0.09642170633694569
1766.0,0.09642170633694569
1765.0,0.09636748391576244
1764.0,0.09636748391576244
1763.0,0.09631326826349751
1762.0,0.09631326826349751
1761.0,0.09631326826349751
1760.0,0.09636748391576244
1759.0,0.0964759355287379
1758.0,0.09653017149282994
1757.0,0.09663866374468144
1756.0,0.09680145295702158
1755.0,0.09707290398273716
1754.0,0.09729018703012282
1753.0,0.09745322068600859
1752.0,0.09750757884139638
1751.0,0.09750757884139638
1750.0,0.0975619438013351
1749.0,0.09761631556752848
1748.0,0.09767069414168117
1747.0,0.09772507952549825
1746.0,0.09772507952549825
1745.0,0.09772507952549825
1744.0,0.09783387072894878
1743.0,0.09805153492691598
1742.0,0.09816040794877057
1741.0,0.09832376867362447
1740.0,0.09859617317474823
1739.0,0.09886874864462802
1738.0,0.0989778267519208
1737.0,0.0989778267519208
1736.0,0.0989778267519208
1735.0,0.09886874864462802
1734.0,0.09886874864462802
1733.0,0.09892328427374508
1732.0,0.0989778267519208
1731.0,0.09914149529800831
1730.0,0.09946901754724413
1729.0,0.09968750301627338
1728.0,0.09990609845660159
1727.0,0.10007011727213588
1726.0,0.10017949757290379
1725.0,0.10034361969436434
1724.0,0.1005078038618683
1723.0,0.10067205012234592
1722.0,0.10072681268239614
1721.0,0.10072681268239614
1720.0,0.10067205012234592
1719.0,0.10061729446673495
1718.0,0.10067205012234592
1717.0,0.10094593200182911
1716.0,0.10116516193172598
1715.0,0.10127481841050656
1714.0,0.1014393550602879
1713.0,0.10154908080162528
1712.0,0.10165883427249067
1711.0,0.10171372141087698
1710.0,0.10171372141087698
1709.0,0.1017686154869033
1708.0,0.10182351650232357
1707.0,0.10187842445889239
1706.0,0.10182351650232357
1705.0,0.1017686154869033
1704.0,0.10171372141087698
1703.0,0.10171372141087698
1702.0,0.10187842445889239
1701.0,0.1022080180607754
1700.0,0.10270287794050348
1699.0,0.10275789719463457
1698.0,0.10253786198693682
1697.0,0.10253786198693682
1696.0,0.10264786565568684
1695.0,0.10259286033841963
1694.0,0.10248287059947447
1693.0,0.10259286033841963
1692.0,0.10292299679057959
1691.0,0.10314322726279568
1690.0,0.10325338439259446
1689.0,0.10330847343711591
1688.0,0.10330847343711591
1687.0,0.1033635694704158
1686.0,0.10341867249426717
1685.0,0.10363915453068362
1684.0,0.10424605792627206
1683.0,0.10446696051592963
1682.0,0.10441172433373724
1681.0,0.10457745396059215
1680.0,0.10479852522110678
1679.0,0.10485381062400778
1678.0,0.10496440254767725
1677.0,0.10507502264045665
1676.0,0.10529634739076998
1675.0,0.10557316203581202
1674.0,0.10573933555301185
1673.0,0.10579474085791629
1672.0,0.10590557267730127
1671.0,0.10601643278815298
1670.0,0.10623823794205656
1669.0,0.10646015643533868
1668.0,0.10662666975397506
1667.0,0.10673771411200872
1666.0,0.10684878687013422
1665.0,0.10690433390377163
1664.0,0.10701544928928342
1663.0,0.1071265931112344
1662.0,0.10729336219433439
1661.0,0.10734896612269962
1660.0,0.10734896612269962
1659.0,0.10740457717110186
1658.0,0.10740457717110186
1657.0,0.10746019534136453
1656.0,0.10757145305477
1655.0,0.10784972209863586
1654.0,0.1082953237608173
1653.0,0.10902040301031102
1652.0,0.10890877353227624
1651.0,0.10840679565103484
1650.0,0.1082953237608173
1649.0,0.1082953237608173
1648.0,0.10823959854332843
1647.0,0.1082953237608173
1646.0,0.10835105612944096
1645.0,0.1082953237608173
1644.0,0.1082953237608173
1643.0,0.10835105612944096
1642.0,0.10835105612944096
1641.0,0.10835105612944096
1640.0,0.10823959854332843
1639.0,0.10807246577932506
1638.0,0.10796107965870849
1637.0,0.10790539730951965
1636.0,0.10812816955441629
1635.0,0.10840679565103484
1634.0,0.10846254232743546
1633.0,0.10846254232743546
1632.0,0.10840679565103484
1631.0,0.10823959854332843
1630.0,0.10801676914803293
1629.0,0.10784972209863586
1628.0,0.10779405402422748
1627.0,0.10779405402422748
1626.0,0.10768273927751948
1625.0,0.1075158206353124
1624.0,0.10740457717110186
1623.0,0.10734896612269962
1622.0,0.10729336219433439
1621.0,0.10729336219433439
1620.0,0.10734896612269962
1619.0,0.10734896612269962
1618.0,0.10723776538418317
1617.0,0.10718217569042365
1616.0,0.1071265931112344
1615.0,0.10701544928928342
1614.0,0.10695988804288215
1613.0,0.10695988804288215
1612.0,0.10690433390377163
1611.0,0.10679324694015202
1610.0,0.10662666975397506
1609.0,0.10646015643533868
1608.0,0.1062937069352865
1607.0,0.10623823794205656
1606.0,0.10623823794205656
1605.0,0.1063491830140364
1604.0,0.10640466618011679
1603.0,0.1063491830140364
1602.0,0.1061827760325369
1601.0,0.1060718734573931
1600.0,0.1060718734573931
1599.0,0.1060718734573931
1598.0,0.10612732120491852
1597.0,0.1060718734573931
1596.0,0.10601643278815298
1595.0,0.10596099919539115
1594.0,0.10585015323207791
1593.0,0.10573933555301185
1592.0,0.10568393731556158
1591.0,0.10568393731556158
1590.0,0.10573933555301185
1589.0,0.10579474085791629
1588.0,0.10579474085791629
1587.0,0.10579474085791629
1586.0,0.10579474085791629
1585.0,0.10568393731556158
1584.0,0.10557316203581202
1583.0,0.10546241500425357
1582.0,0.10535169620648288
1581.0,0.1052410056281079
1580.0,0.10513034325474746
1579.0,0.10501970907203151
1578.0,0.10490910306560064
1577.0,0.10479852522110678
1576.0,0.10479852522110678
1575.0,0.10485381062400778
1574.0,0.10479852522110678
1573.0,0.10479852522110678
1572.0,0.10479852522110678
1571.0,0.10468797552421272
1570.0,0.10468797552421272
1569.0,0.10479852522110678
1568.0,0.10490910306560064
1567.0,0.10490910306560064
1566.0,0.10485381062400778
1565.0,0.10468797552421272
1564.0,0.10463271122663809
1563.0,0.10457745396059215
1562.0,0.10457745396059215
1561.0,0.10452220372428545
1560.0,0.10441172433373724
1559.0,0.10468797552421272
1558.0,0.10479852522110678
1557.0,0.10468797552421272
1556.0,0.10496440254767725
1555.0,0.10513034325474746
1554.0,0.10507502264045665
1553.0,0.10485381062400778
1552.0,0.10468797552421272
1551.0,0.10446696051592963
1550.0,0.10424605792627206
1549.0,0.10408045468998406
1548.0,0.10402526764093545
1547.0,0.10397008760377302
1546.0,0.10385974855798041
1545.0,0.10369429253391926
1544.0,0.10363915453068362
1543.0,0.10369429253391926
1542.0,0.10358402352687701
1541.0,0.10352889952072264
1540.0,0.10369429253391926
1539.0,0.10374943753836186
1538.0,0.10347378251044459
1537.0,0.1033635694704158
1536.0,0.10330847343711591
1535.0,0.10325338439259446
1534.0,0.10319830233507843
1533.0,0.10325338439259446
1532.0,0.10330847343711591
1531.0,0.10325338439259446
1530.0,0.10308815917397474
1529.0,0.1028679566179056
1528.0,0.10270287794050348
1527.0,0.10248287059947447
1526.0,0.10231793820358015
1525.0,0.10215306842042837
1524.0,0.10209812573177213
1523.0,0.10193333935836524
1522.0,0.10160395406999112
1521.0,0.10138450258381404
1520.0,0.10138450258381404
1519.0,0.10154908080162528
1518.0,0.10154908080162528
1517.0,0.1014393550602879
1516.0,0.1012199867101744
1515.0,0.10094593200182911
1514.0,0.10078158214862709
1513.0,0.10067205012234592
1512.0,0.10061729446673495
1511.0,0.10039834085387778
1510.0,0.10007011727213588
1509.0,0.09974214156222239
1508.0,0.09963287134352972
1507.0,0.09979678698310646
1506.0,0.09957824654226233
1505.0,0.09930522554760213
1504.0,0.09930522554760213
1503.0,0.09925064193892053
1502.0,0.09903237608087578
1501.0,0.09875969792669093
1500.0,0.09865067458435761
1499.0,0.09854167860388774
1498.0,0.09832376867362447
1497.0,0.09805153492691598
1496.0,0.09772507952549825
1495.0,0.09729018703012282
1494.0,0.09685572959046151
1493.0,0.0964759355287379
1492.0,0.09625905937846135
1491.0,0.09587978652380036
1490.0,0.09528445472131919
1489.0,0.09474395125154866
1488.0,0.09441997176475758
1487.0,0.09404230090757282
1486.0,0.0935572061829677
1485.0,0.09312646527792956
1484.0,0.09274991711867164
1483.0,0.0922125568893839
1482.0,0.09146136782804049
1481.0,0.09065796163869155
1480.0,0.09012318200960712
1479.0,0.08990945440593179
1478.0,0.09044397075882471
1477.0,0.09307265269104414
1476.0,0.09957824654226233
1475.0,0.11092250734993603
1474.0,0.12778543660241448
1473.0,0.14855818532794496
1472.0,0.16481693015095633
1471.0,0.1699248335702499
1470.0,0.16928305056310244
1469.0,0.1685141607513425
1468.0,0.16909070045355667
1467.0,0.1711468403233598
1466.0,0.17606954487443605
1465.0,0.185819018959813
1464.0,0.1983905119726812
1463.0,0.20781850385032108
1462.0,0.21098367320662526
1461.0,0.2085198839799991
1460.0,0.20197120659592693
1459.0,0.1928033392890527
1458.0,0.18283142761894444
1457.0,0.17444406770964305
1456.0,0.16896251435997467
1455.0,0.16551571466519466
1454.0,0.16285365609093994
1453.0,0.1600822243213189
1452.0,0.15695418946543072
1451.0,0.1538485234711846
1450.0,0.15119529894819617
1449.0,0.1490476002065071
1448.0,0.14709324120304634
1447.0,0.14539036190420496
1446.0,0.14417809459397013
1445.0,0.14333151638846497
1444.0,0.1425468829647336
1443.0,0.14176366457048695
1442.0,0.1409818561111058
1441.0,0.14026143380285316
1440.0,0.13954220457652888
1439.0,0.1388241644869712
1438.0,0.1381073096085541
1437.0,0.13727247168202528
1436.0,0.13626089265478303
1435.0,0.13537027545448765
1434.0,0.1345998818206986
1433.0,0.13388996015562338
1432.0,0.13294519952329842
1431.0,0.1318847946727828
1430.0,0.1308269726783169
1429.0,0.12994741830645506
1428.0,0.12912810493225724
1427.0,0.12836869546244634
1426.0,0.12761061158217912
1425.0,0.12667939818460128
1424.0,0.12569216687196105
1423.0,0.1248808345374317
1422.0,0.12441789567211425
1421.0,0.12407101507707297
1420.0,0.12360893818081231
1419.0,0.12326270285933538
1418.0,0.12291674334934943
1417.0,0.12262865413022594
1416.0,0.12228319913502328
1415.0,0.12205304837081177
1414.0,0.12176553132495593
1413.0,0.12153565465853111
1412.0,0.1213058996038916
1411.0,0.12113366304327466
1410.0,0.12096149476276286
1409.0,0.1207320431753871
1408.0,0.12044539906102569
1407.0,0.12027350336042275
1406.0,0.1201016756699902
1405.0,0.11981544717356662
1404.0,0.11947222180119477
1403.0,0.11930071078129845
1402.0,0.11918640771920863
1401.0,0.11912926746757657
1400.0,0.11890078161098283
1399.0,0.11861534322942724
1398.0,0.1183871275216517
1397.0,0.11810202642698875
1396.0,0.11787408022996826
1395.0,0.11764625361128611
1394.0,0.11758931562603192
1393.0,0.1175323851046286
1392.0,0.1175323851046286
1391.0,0.11758931562603192
1390.0,0.11764625361128611
1389.0,0.11764625361128611
1388.0,0.11764625361128611
1387.0,0.11764625361128611
1386.0,0.11776015198117662
1385.0,0.11798803837334138
1384.0,0.11833009232793867
1383.0,0.11884367892443626
1382.0,0.11958660012208333
1381.0,0.12056003400478299
1380.0,0.12176553132495593
1379.0,0.12297438413275108
1378.0,0.12401322857151209
1377.0,0.12464930342071079
1376.0,0.12476505354983503
1375.0,0.12453358413361437
1374.0,0.12430223801979201
1373.0,0.12418661116024232
1372.0,0.12430223801979201
1371.0,0.12459143992293642
1370.0,0.12482294018529605
1369.0,0.125054563914468
1368.0,0.12517042212027807
1367.0,0.1252863112422209
1366.0,0.1252863112422209
1365.0,0.1251124891538875
1364.0,0.1248808345374317
1363.0,0.12459143992293642
1362.0,0.12430223801979201
1361.0,0.12407101507707297
1360.0,0.12389767862220635
1359.0,0.12372441132212098
1358.0,0.1236666709136196
1357.0,0.1236666709136196
1356.0,0.12378215940835768
1355.0,0.12389767862220635
1354.0,0.12407101507707297
1353.0,0.12412880927263426
1352.0,0.12412880927263426
1351.0,0.12401322857151209
1350.0,0.12395544975390482
1349.0,0.12389767862220635
1348.0,0.12383991517437187
1347.0,0.12383991517437187
1346.0,0.12389767862220635
1345.0,0.12395544975390482
1344.0,0.12395544975390482
1343.0,0.12389767862220635
1342.0,0.12378215940835768
1341.0,0.12360893818081231
1340.0,0.1233203895807995
1339.0,0.12297438413275108
1338.0,0.12274386688641381
1337.0,0.12262865413022594
1336.0,0.12251347193039863
1335.0,0.12245589228405596
1334.0,0.12234075588839133
1333.0,0.12222565000860186
1332.0,0.12216810850710624
1331.0,0.12211057462851604
1330.0,0.12205304837081177
1329.0,0.12205304837081177
1328.0,0.1219955297319748
1327.0,0.12193801870998744
1326.0,0.12193801870998744
1325.0,0.12193801870998744
1324.0,0.1219955297319748
1323.0,0.12205304837081177
1322.0,0.12216810850710624
1321.0,0.12222565000860186
1320.0,0.12222565000860186
1319.0,0.12228319913502328
1318.0,0.12245589228405596
1317.0,0.12274386688641381
1316.0,0.12297438413275108
1315.0,0.12320502379929943
1314.0,0.12343578601615435
1313.0,0.12355121312165873
1312.0,0.12378215940835768
1311.0,0.12401322857151209
1310.0,0.12424442074194553
1309.0,0.1244757360506914
1308.0,0.12464930342071079
1307.0,0.12482294018529605
1306.0,0.1249387366082999
1305.0,0.1251124891538875
1304.0,0.1252863112422209
1303.0,0.12540223129680017
1302.0,0.12551818230053358
1301.0,0.12563416426995122
1300.0,0.12575017722159698
1299.0,0.12586622117202761
1298.0,0.12592425477696523
1297.0,0.12592425477696523
1296.0,0.12592425477696523
1295.0,0.12592425477696523
1294.0,0.12592425477696523
1293.0,0.12592425477696523
1292.0,0.12598229613781387
1291.0,0.12604034525664676
1290.0,0.1260984021355387
1289.0,0.12604034525664676
1288.0,0.12598229613781387
1287.0,0.12598229613781387
1286.0,0.12604034525664676
1285.0,0.1260984021355387
1284.0,0.12621453918179926
1283.0,0.12627261935332057
1282.0,0.1263307072932056
1281.0,0.12627261935332057
1280.0,0.126156466776564
1279.0,0.12604034525664676
1278.0,0.12604034525664676
1277.0,0.126156466776564
1276.0,0.12627261935332057
1275.0,0.12644690648638135
1274.0,0.126621263590859
1273.0,0.1267375405612734
1272.0,0.12679569072295926
1271.0,0.1267375405612734
1270.0,0.1267375405612734
1269.0,0.12679569072295926
1268.0,0.12691201440971422
1267.0,0.12702836926155658
1266.0,0.1270865583796048
1265.0,0.12714475529518965
1264.0,0.12714475529518965
1263.0,0.12714475529518965
1262.0,0.12726117252733116
1261.0,0.12731939284807026
1260.0,0.12731939284807026
1259.0,0.12726117252733116
1258.0,0.12714475529518965
1257.0,0.12714475529518965
1256.0,0.12720296001040166
1255.0,0.12726117252733116
1254.0,0.12731939284807026
1253.0,0.12737762097471172
1252.0,0.12743585690934855
1251.0,0.12749410065407507
1250.0,0.1275523522109867
1249.0,0.12761061158217912
1248.0,0.12761061158217912
1247.0,0.1275523522109867
1246.0,0.1275523522109867
1245.0,0.1275523522109867
1244.0,0.1275523522109867
1243.0,0.1275523522109867
1242.0,0.1275523522109867
1241.0,0.1275523522109867
1240.0,0.12761061158217912
1239.0,0.1276688787697493
1238.0,0.12778543660241448
1237.0,0.12790202572577325
1236.0,0.12796033202671375
1235.0,0.1280186461566306
1234.0,0.1280186461566306
1233.0,0.1280186461566306
1232.0,0.1280186461566306
1231.0,0.1280769681176266
1230.0,0.1281352979118051
1229.0,0.12819363554127072
1228.0,0.1281352979118051
1227.0,0.1280769681176266
1226.0,0.1280769681176266
1225.0,0.1281352979118051
1224.0,0.1283103343144847
1223.0,0.1284854412916181
1222.0,0.12854382597704617
1221.0,0.1286022185125162
1220.0,0.1287190271420271
1219.0,0.12889429901441463
1218.0,0.1290696416513042
1217.0,0.12930354201075
1216.0,0.12942053944731513
1215.0,0.12942053944731513
1214.0,0.1294790499872358
1213.0,0.12953756841108
1212.0,0.12965462891904034
1211.0,0.12983027886355947
1210.0,0.13006458935314003
1209.0,0.1302990263261221
1208.0,0.13041629228657614
1207.0,0.1304749371427727
1206.0,0.13053358991913355
1205.0,0.1305922506177981
1204.0,0.13070959579060148
1203.0,0.1308856730206247
1202.0,0.13100309751286465
1201.0,0.1311792938024825
1200.0,0.1312967977214634
1199.0,0.13135556160517425
1198.0,0.13141433344123432
1197.0,0.1314731132317961
1196.0,0.13159069668503998
1195.0,0.13176713157753506
1194.0,0.13200248965504868
1193.0,0.1322379753497993
1192.0,0.13241467345296387
1191.0,0.1325325121409484
1190.0,0.13259144347720886
1189.0,0.13265038281120756
1188.0,0.13282724882135022
1187.0,0.13306318226836056
1186.0,0.13335827943396006
1185.0,0.13365357725039817
1184.0,0.13383085236622927
1183.0,0.13388996015562338
1182.0,0.1340081998737246
1181.0,0.13418561983203192
1180.0,0.13436311230037123
1179.0,0.1345998818206986
1178.0,0.13483678049391368
1177.0,0.1350738084609946
1176.0,0.1352516643703412
1175.0,0.13542959314656988
1174.0,0.13554825284181704
1173.0,0.13560759484941132
1172.0,0.13566694496660703
1171.0,0.13572630319562085
1170.0,0.13584504399797437
1169.0,0.1360826230421397
1168.0,0.1363797797296844
1167.0,0.1366771398795441
1166.0,0.13697470377052956
1165.0,0.13715334001706125
1164.0,0.13721290176465573
1163.0,0.13727247168202528
1162.0,0.1374512304752069
1161.0,0.13774932540207496
1160.0,0.1380476250785483
1159.0,0.13828641242856565
1158.0,0.13834612978608907
1157.0,0.1384058553561347
1156.0,0.13846558914096208
1155.0,0.13864483980673992
1154.0,0.1388241644869712
1153.0,0.13900356324280416
1152.0,0.13924287691845794
1151.0,0.1394224487555844
1150.0,0.13960209487268727
1149.0,0.1397219002477652
1148.0,0.13984173868172167
1147.0,0.14002155835797914
1146.0,0.14026143380285316
1145.0,0.1404414273739465
1144.0,0.14056146454494378
1143.0,0.14062149557439896
1142.0,0.14068153490288382
1141.0,0.1408016384661226
1140.0,0.1408016384661226
1139.0,0.1408016384661226
1138.0,0.1407415825326932
1137.0,0.14068153490288382
1136.0,0.1407415825326932
1135.0,0.1409217752530305
1134.0,0.14116214857141451
1133.0,0.1413425159091921
1132.0,0.1414628024303608
1131.0,0.1415229581866595
1130.0,0.1415229581866595
1129.0,0.1415831222765116
1128.0,0.1415831222765116
1127.0,0.14164329470222659
1126.0,0.14176366457048695
1125.0,0.141884067809934
1124.0,0.14206473528057106
1123.0,0.14224547794055775
1122.0,0.1423660148499919
1121.0,0.14242629585250421
1120.0,0.14242629585250421
1119.0,0.1423660148499919
1118.0,0.14224547794055775
1117.0,0.14218522202899342
1116.0,0.14212497447643746
1115.0,0.14212497447643746
1114.0,0.14218522202899342
1113.0,0.14224547794055775
1112.0,0.1423660148499919
1111.0,0.14248658522331015
1110.0,0.14260718907909875
1109.0,0.1427278264359586
1108.0,0.1427881576831076
1107.0,0.14284849731250704
1106.0,0.14284849731250704
1105.0,0.14290884532648618
1104.0,0.14296920172737604
1103.0,0.14302956651750764
1102.0,0.1430899396992138
1101.0,0.14315032127482774
1100.0,0.14321071124668383
1099.0,0.14333151638846497
1098.0,0.14339193156306385
1097.0,0.14345235514325205
1096.0,0.14345235514325205
1095.0,0.14351278713136928
1094.0,0.14357322752975565
1093.0,0.14357322752975565
1092.0,0.14351278713136928
1091.0,0.14345235514325205
1090.0,0.14351278713136928
1089.0,0.14369413356670102
1088.0,0.14393604666690019
1087.0,0.14417809459397013
1086.0,0.14435971910985468
1085.0,0.14448084433219988
1084.0,0.14442027749828212
1083.0,0.14435971910985468
1082.0,0.14429916916456276
1081.0,0.14423862766005224
1080.0,0.14417809459397013
1079.0,0.14405705376768396
1078.0,0.14381507327283027
1077.0,0.14363367634075197
1076.0,0.14363367634075197
1075.0,0.14381507327283027
1074.0,0.1441175699639643
1073.0,0.14435971910985468
1072.0,0.14448084433219988
1071.0,0.14454141961396383
1070.0,0.14454141961396383
1069.0,0.14454141961396383
1068.0,0.14435971910985468
1067.0,0.1441175699639643
1066.0,0.14393604666690019
1065.0,0.14393604666690019
1064.0,0.14417809459397013
1063.0,0.14454141961396383
1062.0,0.14484442282300614
1061.0,0.1450869776921444
1060.0,0.14526898278605782
1059.0,0.14532966810466452
1058.0,0.14532966810466452
1057.0,0.14526898278605782
1056.0,0.14520830594601453
1055.0,0.14532966810466452
1054.0,0.14545106418704923
1053.0,0.1456332219591303
1052.0,0.14575470293388149
1051.0,0.14575470293388149
1050.0,0.14581545616639335
1049.0,0.14599776687301103
1048.0,0.14630178822382556
1047.0,0.14648430324307138
1046.0,0.1465451586319333
1045.0,0.1465451586319333
1044.0,0.1466060225493342
1043.0,0.14666689499766483
1042.0,0.14684956355215717
1041.0,0.14697138528701026
1040.0,0.1472760892087941
1039.0,0.1475810070629986
1038.0,0.1478861391502384
1037.0,0.14819148577176255
1036.0,0.14855818532794496
1035.0,0.148864004988426
1034.0,0.14917004015146906
1033.0,0.14929251462546267
1032.0,0.14941502364796855
1031.0,0.14953756723848333
1030.0,0.14978275820161047
1029.0,0.1500894416985039
1028.0,0.1503963419175529
1027.0,0.15064201833870117
1026.0,0.15082636690117335
1025.0,0.15107228677292173
1024.0,0.1514414278762366
1023.0,0.1517492853229574
1022.0,0.15187248943212528
1021.0,0.15193410459600853
1020.0,0.1519957285027318
1019.0,0.15205736115477642
1018.0,0.15211900255462485
1017.0,0.15211900255462485
1016.0,0.15218065270476067
1015.0,0.15224231160766877
1014.0,0.1523039792658345
1013.0,0.15236565568174498
1012.0,0.15236565568174498
1011.0,0.15236565568174498
1010.0,0.1523039792658345
1009.0,0.15211900255462485
1008.0,0.1519957285027318
1007.0,0.15193410459600853
1006.0,0.15193410459600853
1005.0,0.15187248943212528
1004.0,0.1517492853229574
1003.0,0.15162611615539823
1002.0,0.1515645446685292
1001.0,0.1515645446685292
1000.0,0.15162611615539823
999.0,0.1517492853229574
998.0,0.15181088300860135
997.0,0.15168769637271562
996.0,0.1515029819096334
995.0,0.1513798825658661
994.0,0.1514414278762366
993.0,0.1514414278762366
992.0,0.1514414278762366
991.0,0.15131834597604965
990.0,0.15125681810431635
989.0,0.15125681810431635
988.0,0.15125681810431635
987.0,0.15125681810431635
986.0,0.15125681810431635
985.0,0.15125681810431635
984.0,0.15131834597604965
983.0,0.15125681810431635
982.0,0.15113378850522063
981.0,0.15088783381542248
980.0,0.1507034591652734
979.0,0.15058058620310066
978.0,0.15051916275601385
977.0,0.15045774799498335
976.0,0.15045774799498335
975.0,0.15058058620310066
974.0,0.15064201833870117
973.0,0.1507034591652734
972.0,0.1507034591652734
971.0,0.15076490868527737
970.0,0.15088783381542248
969.0,0.15101079374883275
968.0,0.15113378850522063
967.0,0.15113378850522063
966.0,0.15107228677292173
965.0,0.15113378850522063
964.0,0.15125681810431635
963.0,0.1513798825658661
962.0,0.1515645446685292
961.0,0.15162611615539823
960.0,0.1515645446685292
959.0,0.1515645446685292
958.0,0.15162611615539823
957.0,0.1517492853229574
956.0,0.15187248943212528
955.0,0.15193410459600853
954.0,0.15187248943212528
953.0,0.15181088300860135
952.0,0.1517492853229574
951.0,0.1517492853229574
950.0,0.15187248943212528
949.0,0.15211900255462485
948.0,0.1523039792658345
947.0,0.15242734085788778
946.0,0.15236565568174498
945.0,0.1523039792658345
944.0,0.15224231160766877
943.0,0.1523039792658345
942.0,0.15236565568174498
941.0,0.1524890347967518
940.0,0.15267416921457633
939.0,0.15285938258659382
938.0,0.15292113793428452
937.0,0.15285938258659382
936.0,0.15267416921457633
935.0,0.15261244897260462
934.0,0.1527358982292355
933.0,0.15285938258659382
932.0,0.15298290206464582
931.0,0.1531682471767426
930.0,0.15335367142288248
929.0,0.15347733158371324
928.0,0.15347733158371324
927.0,0.1534154971019539
926.0,0.15335367142288248
925.0,0.1532918545439932
924.0,0.15323004646278116
923.0,0.1532918545439932
922.0,0.1535391748706676
921.0,0.1537866361206126
920.0,0.15397232463562127
919.0,0.15397232463562127
918.0,0.1538485234711846
917.0,0.15366288787019466
916.0,0.15347733158371324
915.0,0.15360102696532518
914.0,0.15397232463562127
913.0,0.15440590683997568
912.0,0.15471587365200845
911.0,0.15477789357098626
910.0,0.15477789357098626
909.0,0.1548399223480541
908.0,0.15490195998574308
907.0,0.1550260618531123
906.0,0.15508812608785938
905.0,0.15515019919336104
904.0,0.15521228117215347
903.0,0.15527437202677397
902.0,0.15539858037365328
901.0,0.15552282425431851
900.0,0.15552282425431851
899.0,0.15552282425431851
898.0,0.15558495952617557
897.0,0.15570925674565683
896.0,0.15577141869837208
895.0,0.1558335895497993
894.0,0.1558335895497993
893.0,0.15589576930248672
892.0,0.1559579579589836
891.0,0.15602015552184012
890.0,0.15602015552184012
889.0,0.15614457737683884
888.0,0.15633127702085625
887.0,0.15645578805436489
886.0,0.1565803347950816
885.0,0.1565803347950816
884.0,0.1565803347950816
883.0,0.1567049172634929
882.0,0.15682953548010214
881.0,0.15701652987778258
880.0,0.15720360482441986
879.0,0.15726598105173029
878.0,0.15745316350498495
877.0,0.15757799664235028
876.0,0.15776531365276036
875.0,0.15776531365276036
874.0,0.1577028656719348
873.0,0.1576404266693252
872.0,0.1577028656719348
871.0,0.15789023655938994
870.0,0.15801519540988607
869.0,0.15814019022493886
868.0,0.15807768832054925
867.0,0.15795271149036205
866.0,0.1577028656719348
865.0,0.15751557558842988
864.0,0.15745316350498495
863.0,0.15745316350498495
862.0,0.15745316350498495
861.0,0.15745316350498495
860.0,0.15732836623921154
859.0,0.15714123755470633
858.0,0.15695418946543072
857.0,0.15695418946543072
856.0,0.15714123755470633
855.0,0.1576404266693252
854.0,0.15814019022493886
853.0,0.15845283474344662
852.0,0.15851539066460685
851.0,0.1583902878315646
850.0,0.15814019022493886
849.0,0.15789023655938994
848.0,0.1576404266693252
847.0,0.15757799664235028
846.0,0.1576404266693252
845.0,0.15782777061438424
844.0,0.15814019022493886
843.0,0.15826522102525642
842.0,0.1582027011256446
841.0,0.15807768832054925
840.0,0.15801519540988607
839.0,0.15807768832054925
838.0,0.15826522102525642
837.0,0.15832774992636556
836.0,0.15826522102525642
835.0,0.15814019022493886
834.0,0.15814019022493886
833.0,0.1583902878315646
832.0,0.158765704493959
831.0,0.1588909155318461
830.0,0.158765704493959
829.0,0.15845283474344662
828.0,0.1582027011256446
827.0,0.15826522102525642
826.0,0.15857795559764076
825.0,0.15895353459069628
824.0,0.15939212099070987
823.0,0.15983115075924403
822.0,0.1602706247936121
821.0,0.16058480731610647
820.0,0.16058480731610647
819.0,0.1602706247936121
818.0,0.15976840504189105
817.0,0.15945481236316117
816.0,0.15964294079664376
815.0,0.16020781555467067
814.0,0.1607105439938532
813.0,0.16102504504453208
812.0,0.16102504504453208
811.0,0.16083631708534996
810.0,0.16064767110457878
809.0,0.16064767110457878
808.0,0.16089921729284673
807.0,0.16133977401105848
806.0,0.1619068615544017
805.0,0.16234844215360744
804.0,0.16253782851400533
803.0,0.1624115617644888
802.0,0.16209605540705763
801.0,0.16178077809237412
800.0,0.16159172150581314
799.0,0.16165473122400909
798.0,0.16184381524785207
797.0,0.16203298163134527
796.0,0.16209605540705763
795.0,0.16215913834447737
794.0,0.16222223044626682
793.0,0.16247469055039865
792.0,0.1626009756579776
791.0,0.1626009756579776
790.0,0.1624115617644888
789.0,0.16228533171508874
788.0,0.16247469055039865
787.0,0.1627904721987936
786.0,0.16316971351112097
785.0,0.16348600110932865
784.0,0.16367588429324842
783.0,0.16380251922107458
782.0,0.16386585053462532
781.0,0.16386585053462532
780.0,0.1637391971415132
779.0,0.1637391971415132
778.0,0.16418264570652719
777.0,0.16494389827988365
776.0,0.16551571466519466
775.0,0.16551571466519466
774.0,0.16500739626697003
773.0,0.16456310519814177
772.0,0.1644362483309032
771.0,0.16462654752999129
770.0,0.1646899991309374
769.0,0.16462654752999129
768.0,0.16462654752999129
767.0,0.16481693015095633
766.0,0.16513442009996204
765.0,0.16545214231905137
764.0,0.16551571466519466
763.0,0.16519794595130088
762.0,0.16481693015095633
761.0,0.16475346000368907
760.0,0.165261481096159
759.0,0.16589734428720626
758.0,0.16634300310712757
757.0,0.16640670600154372
756.0,0.16627930955536674
755.0,0.16583371605737995
754.0,0.16507090353942422
753.0,0.16418264570652719
752.0,0.16354928627984533
751.0,0.16323295260579473
750.0,0.16316971351112097
749.0,0.16323295260579473
748.0,0.16329620091026875
747.0,0.16342272515935097
746.0,0.16342272515935097
745.0,0.16323295260579473
744.0,0.16285365609093994
743.0,0.16228533171508874
742.0,0.16165473122400909
741.0,0.16096212661169407
740.0,0.1602706247936121
739.0,0.15945481236316117
738.0,0.15864052954514496
737.0,0.15782777061438424
736.0,0.15720360482441986
735.0,0.15707887924001773
734.0,0.15870311250971825
733.0,0.16380251922107458
732.0,0.17340694606595197
731.0,0.1862189218259176
730.0,0.19845909380968174
729.0,0.20613979865733034
728.0,0.20781850385032108
727.0,0.20516354218543853
726.0,0.20121128604875071
725.0,0.19825338078053978
724.0,0.19777376230892996
723.0,0.20128031481499375
722.0,0.2104897959097456
721.0,0.2261404476233131
720.0,0.24557521072274135
719.0,0.2618539112879401
718.0,0.2688142923659995
717.0,0.26600071346161314
716.0,0.2573534100612638
715.0,0.24733705687902807
714.0,0.23844801143581806
713.0,0.23143589048642665
712.0,0.22592119924748122
711.0,0.22119779598676126
710.0,0.21702600505595182
709.0,0.2134615195021976
708.0,0.2107013888405589
707.0,0.20859008433283988
706.0,0.2065588670223364
705.0,0.20446755728984556
704.0,0.20245548563827365
703.0,0.2010042655561186
702.0,0.200246033588114
701.0,0.19976421067264605
700.0,0.1990081387398286
699.0,0.1977052886025361
698.0,0.1960651501361581
697.0,0.19449914184159978
696.0,0.19334527600813955
695.0,0.19266796070880954
694.0,0.19239733008350535
693.0,0.19219446772937543
692.0,0.19192413190869306
691.0,0.19145144875959463
690.0,0.19091186865365373
689.0,0.19077707831057822
688.0,0.1911815749078758
687.0,0.19185657423850877
686.0,0.19219446772937543
685.0,0.1917214904172322
684.0,0.19091186865365373
683.0,0.19017103893211385
682.0,0.18996921359416064
681.0,0.19003647828598602
680.0,0.189767482004916
679.0,0.1887602272467106
678.0,0.1871534630329288
677.0,0.18555262147751228
676.0,0.18462151503408197
675.0,0.18448866263723573
674.0,0.1848873418101875
673.0,0.1851533313955367
672.0,0.1851533313955367
671.0,0.18435585086803474
670.0,0.18263298371240588
669.0,0.17999569319168218
668.0,0.17698247655395072
667.0,0.17600440884403223
666.0,0.17796275192741495
665.0,0.18052187163787736
664.0,0.1821703002543944
663.0,0.18269912160667867
662.0,0.18236853280948462
661.0,0.18190613085336405
660.0,0.18164212204164532
659.0,0.1818401136028147
658.0,0.18197215814074386
657.0,0.18170810920000413
656.0,0.1811804924524636
655.0,0.18104868835982724
654.0,0.18144422070219735
653.0,0.18190613085336405
652.0,0.18197215814074386
651.0,0.18157614490792118
650.0,0.18091692425629735
649.0,0.18032448000570733
648.0,0.18006143064460467
647.0,0.18019293540924397
646.0,0.18065351591954726
645.0,0.18131233655848633
644.0,0.18190613085336405
643.0,0.18223636771963214
642.0,0.18230244523697592
641.0,0.18243463044021913
640.0,0.18269912160667867
639.0,0.18349356295364294
638.0,0.18535293054814383
637.0,0.18889439298206967
636.0,0.19361649817583237
635.0,0.19797924822802404
634.0,0.19948912310563194
633.0,0.1977052886025361
632.0,0.19409154492580294
631.0,0.19057497120296585
630.0,0.188023055663046
629.0,0.18635230465310326
628.0,0.18541948398968144
627.0,0.18521985425419518
626.0,0.1854860476317619
625.0,0.18615224577114575
624.0,0.18688624599210146
623.0,0.18735398376688117
622.0,0.18735398376688117
621.0,0.18688624599210146
620.0,0.18635230465310326
619.0,0.1862189218259176
618.0,0.18655245573517876
617.0,0.1871534630329288
616.0,0.18782222584124608
615.0,0.18842499412940672
614.0,0.18896149139578422
613.0,0.18970025895983111
612.0,0.19050762306265812
611.0,0.19111413264018795
610.0,0.19097927951632743
609.0,0.18970025895983111
608.0,0.1872871332346313
607.0,0.18508681872492616
606.0,0.18455508375564977
605.0,0.18641901143180806
604.0,0.18916284885951162
603.0,0.19084446825281964
602.0,0.1912490276504053
601.0,0.1917214904172322
600.0,0.19314197048118253
