cm-1,A
4000.0,0.08428366205400617
3999.0,0.08428366205400617
3998.0,0.08428366205400617
3997.0,0.08423093401631587
3996.0,0.08423093401631587
3995.0,0.08417821237960132
3994.0,0.08407278830288423
3993.0,0.08402008585977572
3992.0,0.08396738981143059
3991.0,0.08396738981143059
3990.0,0.0839147001562972
3989.0,0.0838620168928248
3988.0,0.08380934001946239
3987.0,0.08380934001946239
3986.0,0.08380934001946239
3985.0,0.0838620168928248
3984.0,0.08396738981143059
3983.0,0.08412549714230844
3982.0,0.08428366205400617
3981.0,0.08438913733853282
3980.0,0.08433639649422697
3979.0,0.08428366205400617
3978.0,0.08428366205400617
3977.0,0.08433639649422697
3976.0,0.08444188458847957
3975.0,0.08444188458847957
3974.0,0.08438913733853282
3973.0,0.08438913733853282
3972.0,0.08438913733853282
3971.0,0.08444188458847957
3970.0,0.08454739831152125
3969.0,0.08465293767580806
3968.0,0.08475850269380558
3967.0,0.08486409337798806
3966.0,0.08475850269380558
3965.0,0.08454739831152125
3964.0,0.08428366205400617
3963.0,0.08423093401631587
3962.0,0.08449463824562353
3961.0,0.08486409337798806
3960.0,0.08502252755566908
3959.0,0.08486409337798806
3958.0,0.08444188458847957
3957.0,0.0839147001562972
3956.0,0.08359869639612438
3955.0,0.08349341288484435
3954.0,0.08359869639612438
3953.0,0.08375666953466032
3952.0,0.0839147001562972
3951.0,0.08402008585977572
3950.0,0.08412549714230844
3949.0,0.08428366205400617
3948.0,0.08444188458847957
3947.0,0.08454739831152125
3946.0,0.08454739831152125
3945.0,0.08444188458847957
3944.0,0.08438913733853282
3943.0,0.08449463824562353
3942.0,0.08454739831152125
3941.0,0.08460016478773014
3940.0,0.08465293767580806
3939.0,0.08486409337798806
3938.0,0.08507535179485148
3937.0,0.08502252755566908
3936.0,0.08475850269380558
3935.0,0.08444188458847957
3934.0,0.08417821237960132
3933.0,0.08402008585977572
3932.0,0.0838620168928248
3931.0,0.0838620168928248
3930.0,0.08402008585977572
3929.0,0.08417821237960132
3928.0,0.08412549714230844
3927.0,0.08396738981143059
3926.0,0.0838620168928248
3925.0,0.0839147001562972
3924.0,0.08396738981143059
3923.0,0.0838620168928248
3922.0,0.08380934001946239
3921.0,0.08396738981143059
3920.0,0.08423093401631587
3919.0,0.08438913733853282
3918.0,0.08465293767580806
3917.0,0.08507535179485148
3916.0,0.08560394787021397
3915.0,0.08586848736910624
3914.0,0.08608023504853413
3913.0,0.08639805027084257
3912.0,0.0867160982395816
3911.0,0.0867691288864394
3910.0,0.08650404038287651
3909.0,0.08602728844902896
3908.0,0.0854453014823664
3907.0,0.08486409337798806
3906.0,0.08449463824562353
3905.0,0.08433639649422697
3904.0,0.08423093401631587
3903.0,0.0838620168928248
3902.0,0.08333553545860273
3901.0,0.08317771540408803
3900.0,0.08375666953466032
3899.0,0.08465293767580806
3898.0,0.08518101955252688
3897.0,0.08528671302637614
3896.0,0.08523386307414738
3895.0,0.08507535179485148
3894.0,0.08465293767580806
3893.0,0.08407278830288423
3892.0,0.0839147001562972
3891.0,0.08412549714230844
3890.0,0.08402008585977572
3889.0,0.08328292240118751
3888.0,0.08301995267961781
3887.0,0.08380934001946239
3886.0,0.08481129482684358
3885.0,0.08507535179485148
3884.0,0.08423093401631587
3883.0,0.08312512146131668
3882.0,0.08296737783760655
3881.0,0.08370400543686918
3880.0,0.08454739831152125
3879.0,0.08475850269380558
3878.0,0.08417821237960132
3877.0,0.08375666953466032
3876.0,0.08412549714230844
3875.0,0.08460016478773014
3874.0,0.08444188458847957
3873.0,0.08354605145007499
3872.0,0.08254700807033655
3871.0,0.08249449044745338
3870.0,0.0832303157168639
3869.0,0.08344078069888616
3868.0,0.08254700807033655
3867.0,0.08181233864107451
3866.0,0.08238947425013277
3865.0,0.0833881548906541
3864.0,0.08365134772453975
3863.0,0.08365134772453975
3862.0,0.08396738981143059
3861.0,0.08438913733853282
3860.0,0.08465293767580806
3859.0,0.08460016478773014
3858.0,0.08428366205400617
3857.0,0.08359869639612438
3856.0,0.08270459905431071
3855.0,0.08196966321511989
3854.0,0.08212704480115218
3853.0,0.08370400543686918
3852.0,0.08486409337798806
3851.0,0.08370400543686918
3850.0,0.0830725338870073
3849.0,0.08428366205400617
3848.0,0.0854453014823664
3847.0,0.08576265223225898
3846.0,0.08570974433405087
3845.0,0.08549817717268593
3844.0,0.08512818245994969
3843.0,0.08438913733853282
3842.0,0.08317771540408803
3841.0,0.08175990977858505
3840.0,0.08066036321258663
3839.0,0.08029446545087904
3838.0,0.08076496207674921
3837.0,0.08155025759884227
3836.0,0.08207457793525874
3835.0,0.08238947425013277
3834.0,0.0830725338870073
3833.0,0.08417821237960132
3832.0,0.08533956941077814
3831.0,0.08592141461088798
3830.0,0.08586848736910624
3829.0,0.08560394787021397
3828.0,0.08549817717268593
3827.0,0.0856568428805593
3826.0,0.08555105930144569
3825.0,0.08470571697731355
3824.0,0.08359869639612438
3823.0,0.08317771540408803
3822.0,0.08349341288484435
3821.0,0.0839147001562972
3820.0,0.08349341288484435
3819.0,0.08181233864107451
3818.0,0.08086958613938555
3817.0,0.08207457793525874
3816.0,0.0838620168928248
3815.0,0.08475850269380558
3814.0,0.08460016478773014
3813.0,0.08481129482684358
3812.0,0.08597434830367123
3811.0,0.0870343792958963
3810.0,0.08708744882390307
3809.0,0.0867160982395816
3808.0,0.0867691288864394
3807.0,0.08708744882390307
3806.0,0.0867691288864394
3805.0,0.08518101955252688
3804.0,0.08380934001946239
3803.0,0.08380934001946239
3802.0,0.08465293767580806
3801.0,0.08502252755566908
3800.0,0.08417821237960132
3799.0,0.08265206237222844
3798.0,0.08254700807033655
3797.0,0.08402008585977572
3796.0,0.08549817717268593
3795.0,0.086239113587677
3794.0,0.08661005636824437
3793.0,0.0872466963286771
3792.0,0.0880970039559672
3791.0,0.08868255767596933
3790.0,0.08873582900163002
3789.0,0.08857603462370545
3788.0,0.08820340956274775
3787.0,0.0877779434675845
3786.0,0.08745911720936239
3785.0,0.0872997918091396
3784.0,0.08708744882390307
3783.0,0.08666307406737683
3782.0,0.0862920860195171
3781.0,0.08634506491338012
3780.0,0.08682216600953208
3779.0,0.0872466963286771
3778.0,0.0872997918091396
3777.0,0.08708744882390307
3776.0,0.08714052483764512
3775.0,0.08751223866767632
3774.0,0.08767164203958999
3773.0,0.08740600224789441
3772.0,0.0872997918091396
3771.0,0.08767164203958999
3770.0,0.0881502035005799
3769.0,0.0881502035005799
3768.0,0.08745911720936239
3767.0,0.08692825969074924
3766.0,0.08714052483764512
3765.0,0.08767164203958999
3764.0,0.08756536662442538
3763.0,0.0870343792958963
3762.0,0.08661005636824437
3761.0,0.08666307406737683
3760.0,0.08666307406737683
3759.0,0.08650404038287651
3758.0,0.08634506491338012
3757.0,0.08608023504853413
3756.0,0.0854453014823664
3755.0,0.08481129482684358
3754.0,0.08433639649422697
3753.0,0.08375666953466032
3752.0,0.08270459905431071
3751.0,0.08170748724464438
3750.0,0.08165507103772507
3749.0,0.08170748724464438
3748.0,0.08113125661901543
3747.0,0.08113125661901543
3746.0,0.08296737783760655
3745.0,0.08576265223225898
3744.0,0.08804381092731295
3743.0,0.08799062441302175
3742.0,0.08618614761628329
3741.0,0.0854453014823664
3740.0,0.08592141461088798
3739.0,0.0856568428805593
3738.0,0.08444188458847957
3737.0,0.08317771540408803
3736.0,0.08228448344050654
3735.0,0.08175990977858505
3734.0,0.08186477383364066
3733.0,0.08286224724355584
3732.0,0.08438913733853282
3731.0,0.08549817717268593
3730.0,0.08576265223225898
3729.0,0.08586848736910624
3728.0,0.08634506491338012
3727.0,0.08682216600953208
3726.0,0.08687520961044104
3725.0,0.08666307406737683
3724.0,0.08645104209348209
3723.0,0.08645104209348209
3722.0,0.08639805027084257
3721.0,0.08634506491338012
3720.0,0.08650404038287651
3719.0,0.08708744882390307
3718.0,0.08783110394037297
3717.0,0.08825662214406838
3716.0,0.0881502035005799
3715.0,0.08767164203958999
3714.0,0.0872466963286771
3713.0,0.0867160982395816
3712.0,0.0861331881037608
3711.0,0.08576265223225898
3710.0,0.08581556657675371
3709.0,0.08586848736910624
3708.0,0.08608023504853413
3707.0,0.0867160982395816
3706.0,0.08740600224789441
3705.0,0.0877779434675845
3704.0,0.08783110394037297
3703.0,0.08772478950118767
3702.0,0.08772478950118767
3701.0,0.08788427092114603
3700.0,0.08799062441302175
3699.0,0.08799062441302175
3698.0,0.08825662214406838
3697.0,0.08857603462370545
3696.0,0.0884695376928375
3695.0,0.08772478950118767
3694.0,0.08666307406737683
3693.0,0.08555105930144569
3692.0,0.08438913733853282
3691.0,0.08344078069888616
3690.0,0.0833881548906541
3689.0,0.08438913733853282
3688.0,0.08539243222891946
3687.0,0.08528671302637614
3686.0,0.08502252755566908
3685.0,0.08576265223225898
3684.0,0.0870343792958963
3683.0,0.08772478950118767
3682.0,0.08767164203958999
3681.0,0.08719360733870762
3680.0,0.08645104209348209
3679.0,0.08528671302637614
3678.0,0.08380934001946239
3677.0,0.08286224724355584
3676.0,0.08301995267961781
3675.0,0.08402008585977572
3674.0,0.08412549714230844
3673.0,0.0832303157168639
3672.0,0.08380934001946239
3671.0,0.08576265223225898
3670.0,0.0872997918091396
3669.0,0.08788427092114603
3668.0,0.08751223866767632
3667.0,0.08714052483764512
3666.0,0.08767164203958999
3665.0,0.08857603462370545
3664.0,0.08916223500731646
3663.0,0.08932224525729482
3662.0,0.08937559511079884
3661.0,0.0892689019566193
3660.0,0.08894897967187343
3659.0,0.0885227828938977
3658.0,0.08836306687055773
3657.0,0.08862929288386212
3656.0,0.08894897967187343
3655.0,0.08862929288386212
3654.0,0.08761850108119962
3653.0,0.0867691288864394
3652.0,0.08639805027084257
3651.0,0.08592141461088798
3650.0,0.08528671302637614
3649.0,0.0854453014823664
3648.0,0.08618614761628329
3647.0,0.0862920860195171
3646.0,0.08618614761628329
3645.0,0.0867691288864394
3644.0,0.08799062441302175
3643.0,0.0892689019566193
3642.0,0.09012318200960712
3641.0,0.09060445403289452
3640.0,0.09087205801073917
3639.0,0.09108625997902897
3638.0,0.09124698081546634
3637.0,0.09119340059432579
3636.0,0.09113982698272349
3635.0,0.09119340059432579
3634.0,0.09119340059432579
3633.0,0.09065796163869155
3632.0,0.08969583193143116
3631.0,0.08900228368935714
3630.0,0.08900228368935714
3629.0,0.08969583193143116
3628.0,0.0908185240221473
3627.0,0.09113982698272349
3626.0,0.09092559859909577
3625.0,0.09146136782804049
3624.0,0.09215885741705532
3623.0,0.09215885741705532
3622.0,0.0916222275676053
3621.0,0.09119340059432579
3620.0,0.0910326995816122
3619.0,0.09097914578884403
3618.0,0.09076499663169257
3617.0,0.09017663034908807
3616.0,0.08974922769985194
3615.0,0.08990945440593179
3614.0,0.09039048950983108
3613.0,0.09076499663169257
3612.0,0.09092559859909577
3611.0,0.09113982698272349
3610.0,0.0917831469106074
3609.0,0.09296504751658308
3608.0,0.09420411963213149
3607.0,0.09523037409340485
3606.0,0.0957714836599215
3605.0,0.09587978652380036
3604.0,0.09571734235437201
3603.0,0.09544673702322726
3602.0,0.09496007192378841
3601.0,0.09447395156495153
3600.0,0.09415017335768128
3599.0,0.09393445524476318
3598.0,0.09382663635595145
3597.0,0.09366495819490939
3596.0,0.0935033402006471
3595.0,0.09339562827501968
3594.0,0.09371884422784693
3593.0,0.09425807260839858
3592.0,0.09485199814398393
3591.0,0.09512223303659528
3590.0,0.09523037409340485
3589.0,0.09523037409340485
3588.0,0.09533854208447545
3587.0,0.09582563171583658
3586.0,0.09636748391576244
3585.0,0.09663866374468144
3584.0,0.09680145295702158
3583.0,0.09707290398273716
3582.0,0.09734452478207412
3581.0,0.09745322068600859
3580.0,0.0975619438013351
3579.0,0.09767069414168117
3578.0,0.09783387072894878
3577.0,0.09794268919153337
3576.0,0.09816040794877057
3575.0,0.09848719087006019
3574.0,0.09870518283443275
3573.0,0.09881421986284966
3572.0,0.09865067458435761
3571.0,0.09832376867362447
3570.0,0.09783387072894878
3569.0,0.0972358560759139
3568.0,0.09658441423091357
3567.0,0.09604229147682952
3566.0,0.09566320779750503
3565.0,0.09544673702322726
3564.0,0.09560907998763835
3563.0,0.09636748391576244
3562.0,0.09750757884139638
3561.0,0.09848719087006019
3560.0,0.0990869322623309
3559.0,0.09946901754724413
3558.0,0.09979678698310646
3557.0,0.10012480397898926
3556.0,0.10039834085387778
3555.0,0.10039834085387778
3554.0,0.10028890542885538
3553.0,0.10023419805561384
3552.0,0.10028890542885538
3551.0,0.10039834085387778
3550.0,0.10034361969436434
3549.0,0.10001543745060903
3548.0,0.09963287134352972
3547.0,0.09941441335003853
3546.0,0.09952362861074304
3545.0,0.10007011727213588
3544.0,0.10078158214862709
3543.0,0.10132965703447017
3542.0,0.10165883427249067
3541.0,0.10187842445889239
3540.0,0.10204318999304807
3539.0,0.10215306842042837
3538.0,0.10226297465457268
3537.0,0.10248287059947447
3536.0,0.10275789719463457
3535.0,0.1028679566179056
3534.0,0.10275789719463457
3533.0,0.10253786198693682
3532.0,0.10231793820358015
3531.0,0.10209812573177213
3530.0,0.10193333935836524
3529.0,0.10165883427249067
3528.0,0.10149421446564144
3527.0,0.10149421446564144
3526.0,0.1017686154869033
3525.0,0.10231793820358015
3524.0,0.10292299679057959
3523.0,0.10325338439259446
3522.0,0.10330847343711591
3521.0,0.10319830233507843
3520.0,0.10319830233507843
3519.0,0.10347378251044459
3518.0,0.1038045895457893
3517.0,0.10408045468998406
3516.0,0.10424605792627206
3515.0,0.10430127304069425
3514.0,0.10424605792627206
3513.0,0.10413564875270076
3512.0,0.10408045468998406
3511.0,0.10408045468998406
3510.0,0.10413564875270076
3509.0,0.10430127304069425
3508.0,0.10452220372428545
3507.0,0.10468797552421272
3506.0,0.1047432468551055
3505.0,0.10485381062400778
3504.0,0.10490910306560064
3503.0,0.10496440254767725
3502.0,0.10501970907203151
3501.0,0.10501970907203151
3500.0,0.10513034325474746
3499.0,0.10540705207704448
3498.0,0.10579474085791629
3497.0,0.1060718734573931
3496.0,0.10623823794205656
3495.0,0.10623823794205656
3494.0,0.1061827760325369
3493.0,0.10601643278815298
3492.0,0.10579474085791629
3491.0,0.10557316203581202
3490.0,0.10540705207704448
3489.0,0.10540705207704448
3488.0,0.10568393731556158
3487.0,0.1060718734573931
3486.0,0.1063491830140364
3485.0,0.10640466618011679
3484.0,0.1060718734573931
3483.0,0.10568393731556158
3482.0,0.10535169620648288
3481.0,0.10529634739076998
3480.0,0.10562854614376227
3479.0,0.10612732120491852
3478.0,0.10662666975397506
3477.0,0.10695988804288215
3476.0,0.10707101764479421
3475.0,0.10701544928928342
3474.0,0.10690433390377163
3473.0,0.10695988804288215
3472.0,0.10723776538418317
3471.0,0.10773839308446487
3470.0,0.1082953237608173
3469.0,0.10874138309586101
3468.0,0.10896458468468917
3467.0,0.10890877353227624
3466.0,0.10874138309586101
3465.0,0.10846254232743546
3464.0,0.10823959854332843
3463.0,0.10823959854332843
3462.0,0.1082953237608173
3461.0,0.10846254232743546
3460.0,0.10862982530385179
3459.0,0.10885296955122903
3458.0,0.10907622851098608
3457.0,0.10929960230112479
3456.0,0.10941133229451272
3455.0,0.10946720807225518
3454.0,0.10952309103982927
3453.0,0.10969078310005154
3452.0,0.11002636159600376
3451.0,0.11036219959333216
3450.0,0.11047420332880886
3449.0,0.11030620855581463
3448.0,0.10980261378997125
3447.0,0.10935546370475246
3446.0,0.10918790104487552
3445.0,0.10929960230112479
3444.0,0.10941133229451272
3443.0,0.10952309103982927
3442.0,0.10946720807225518
3441.0,0.10941133229451272
3440.0,0.10946720807225518
3439.0,0.10969078310005154
3438.0,0.10997041383658313
3437.0,0.11019424813191447
3436.0,0.11030620855581463
3435.0,0.11030620855581463
3434.0,0.11019424813191447
3433.0,0.11008231656379408
3432.0,0.11002636159600376
3431.0,0.11008231656379408
3430.0,0.11013827874181148
3429.0,0.11036219959333216
3428.0,0.11069829749368965
3427.0,0.11097857790477517
3426.0,0.11109074073646874
3425.0,0.11097857790477517
3424.0,0.11075433910702048
3423.0,0.11053021603049262
3422.0,0.11041819785037621
3421.0,0.11053021603049262
3420.0,0.11069829749368965
3419.0,0.11075433910702048
3418.0,0.1106422631110684
3417.0,0.11047420332880886
3416.0,0.11030620855581463
3415.0,0.11041819785037621
3414.0,0.1106422631110684
3413.0,0.11092250734993603
3412.0,0.11114683301706374
3411.0,0.11125903931710734
3410.0,0.11131515334030118
3409.0,0.11142740314240007
3408.0,0.11153968196461372
3407.0,0.1117081546434846
3406.0,0.1117081546434846
3405.0,0.1114835389250548
3404.0,0.11120293254331926
3403.0,0.11097857790477517
3402.0,0.11114683301706374
3401.0,0.11159583226295333
3400.0,0.11198908775497118
3399.0,0.11221396516162851
3398.0,0.11221396516162851
3397.0,0.11221396516162851
3396.0,0.11221396516162851
3395.0,0.1120452961911984
3394.0,0.11187669270209155
3393.0,0.11176432672943282
3392.0,0.11198908775497118
3391.0,0.11243895906999102
3390.0,0.11288929687511629
3389.0,0.11305829401658474
3388.0,0.112945621949043
3387.0,0.11260778102815316
3386.0,0.11227020271196975
3385.0,0.11210151190312767
3384.0,0.11215773489264302
3383.0,0.11238269966426384
3382.0,0.11266406960083297
3381.0,0.11288929687511629
3380.0,0.1130019543289007
3379.0,0.11305829401658474
3378.0,0.11305829401658474
3377.0,0.112945621949043
3376.0,0.1128329791052256
3375.0,0.11260778102815316
3374.0,0.11249522576462212
3373.0,0.11260778102815316
3372.0,0.112945621949043
3371.0,0.11350927482751816
3370.0,0.1141301390960936
3369.0,0.11463877996848804
3368.0,0.114865033936566
3367.0,0.11475189221861393
3366.0,0.11435612816423602
3365.0,0.11396072443355765
3364.0,0.11367851344052027
3363.0,0.1137349409702435
3362.0,0.1141301390960936
3361.0,0.1145256971708426
3360.0,0.11469533241103202
3359.0,0.11446916681190777
3358.0,0.11407366019856902
3357.0,0.1136220932414278
3356.0,0.11339648571328764
3355.0,0.11356568037106163
3354.0,0.11396072443355765
3353.0,0.11441264381034388
3352.0,0.1148084593931522
3351.0,0.11503480179926728
3350.0,0.11503480179926728
3349.0,0.11475189221861393
3348.0,0.11441264381034388
3347.0,0.11407366019856902
3346.0,0.11396072443355765
3345.0,0.11396072443355765
3344.0,0.1141301390960936
3343.0,0.11429961987167014
3342.0,0.11446916681190777
3341.0,0.11469533241103202
3340.0,0.11492161585077598
3339.0,0.11526126223036814
3338.0,0.11554450392951199
3337.0,0.1157145376603248
3336.0,0.11565785235294102
3335.0,0.11531789579397489
3334.0,0.1149782051377024
3333.0,0.11469533241103202
3332.0,0.11446916681190777
3331.0,0.11424311893073247
3330.0,0.11418662533951118
3329.0,0.11429961987167014
3328.0,0.11458223488906394
3327.0,0.11503480179926728
3326.0,0.11537453674376552
3325.0,0.11554450392951199
3324.0,0.11543118508166672
3323.0,0.11514801725400226
3322.0,0.1148084593931522
3321.0,0.11469533241103202
3320.0,0.114865033936566
3319.0,0.11520463605101905
3318.0,0.11537453674376552
3317.0,0.11543118508166672
3316.0,0.11548784080960606
3315.0,0.11565785235294102
3314.0,0.11588463798833115
3313.0,0.11594135290606156
3312.0,0.11582793047608719
3311.0,0.1157145376603248
3310.0,0.11577123036739612
3309.0,0.11594135290606156
3308.0,0.11611154211151953
3307.0,0.11611154211151953
3306.0,0.11599807523121286
3305.0,0.11582793047608719
3304.0,0.11565785235294102
3303.0,0.11543118508166672
3302.0,0.11526126223036814
3301.0,0.11526126223036814
3300.0,0.11537453674376552
3299.0,0.11548784080960606
3298.0,0.11548784080960606
3297.0,0.11543118508166672
3296.0,0.11537453674376552
3295.0,0.11526126223036814
3294.0,0.11526126223036814
3293.0,0.11531789579397489
3292.0,0.11554450392951199
3291.0,0.11577123036739612
3290.0,0.11582793047608719
3289.0,0.11560117444331386
3288.0,0.11526126223036814
3287.0,0.11509140583739286
3286.0,0.11526126223036814
3285.0,0.11560117444331386
3284.0,0.11582793047608719
3283.0,0.1157145376603248
3282.0,0.11543118508166672
3281.0,0.11509140583739286
3280.0,0.1149782051377024
3279.0,0.11520463605101905
3278.0,0.11565785235294102
3277.0,0.11599807523121286
3276.0,0.11611154211151953
3275.0,0.11599807523121286
3274.0,0.11577123036739612
3273.0,0.11582793047608719
3272.0,0.11622503864474187
3271.0,0.11684980031672243
3270.0,0.11730473761840288
3269.0,0.11730473761840288
3268.0,0.11684980031672243
3267.0,0.1163953390777075
3266.0,0.11622503864474187
3265.0,0.11633856484638239
3264.0,0.1165657063169907
3263.0,0.1165657063169907
3262.0,0.11645212073195621
3261.0,0.11628179803604044
3260.0,0.11616828667054757
3259.0,0.11622503864474187
3258.0,0.11645212073195621
3257.0,0.116736140415026
3256.0,0.11690664142431006
3255.0,0.11702034596270106
3254.0,0.1169634899723202
3253.0,0.1169634899723202
3252.0,0.1169634899723202
3251.0,0.11702034596270106
3250.0,0.11702034596270106
3249.0,0.1169634899723202
3248.0,0.11679296664760996
3247.0,0.116736140415026
3246.0,0.11667932161702477
3245.0,0.116736140415026
3244.0,0.116736140415026
3243.0,0.11662251025166115
3242.0,0.11633856484638239
3241.0,0.11605480496572018
3240.0,0.11588463798833115
3239.0,0.11594135290606156
3238.0,0.11616828667054757
3237.0,0.11645212073195621
3236.0,0.116736140415026
3235.0,0.11679296664760996
3234.0,0.116736140415026
3233.0,0.1165657063169907
3232.0,0.11645212073195621
3231.0,0.1163953390777075
3230.0,0.11622503864474187
3229.0,0.11594135290606156
3228.0,0.11565785235294102
3227.0,0.11554450392951199
3226.0,0.11565785235294102
3225.0,0.11594135290606156
3224.0,0.11622503864474187
3223.0,0.1165089098110701
3222.0,0.11679296664760996
3221.0,0.1169634899723202
3220.0,0.1169634899723202
3219.0,0.11679296664760996
3218.0,0.1165089098110701
3217.0,0.11633856484638239
3216.0,0.11622503864474187
3215.0,0.11622503864474187
3214.0,0.11622503864474187
3213.0,0.11622503864474187
3212.0,0.11616828667054757
3211.0,0.11599807523121286
3210.0,0.1157145376603248
3209.0,0.11537453674376552
3208.0,0.11537453674376552
3207.0,0.1157145376603248
3206.0,0.11616828667054757
3205.0,0.1165657063169907
3204.0,0.11679296664760996
3203.0,0.11679296664760996
3202.0,0.116736140415026
3201.0,0.11667932161702477
3200.0,0.11667932161702477
3199.0,0.11667932161702477
3198.0,0.1165089098110701
3197.0,0.11628179803604044
3196.0,0.11594135290606156
3195.0,0.1157145376603248
3194.0,0.11554450392951199
3193.0,0.11537453674376552
3192.0,0.11526126223036814
3191.0,0.11526126223036814
3190.0,0.11531789579397489
3189.0,0.11526126223036814
3188.0,0.11503480179926728
3187.0,0.11492161585077598
3186.0,0.1149782051377024
3185.0,0.11526126223036814
3184.0,0.11554450392951199
3183.0,0.11565785235294102
3182.0,0.1157145376603248
3181.0,0.11565785235294102
3180.0,0.11554450392951199
3179.0,0.11543118508166672
3178.0,0.11526126223036814
3177.0,0.11514801725400226
3176.0,0.1149782051377024
3175.0,0.11469533241103202
3174.0,0.11441264381034388
3173.0,0.11424311893073247
3172.0,0.11435612816423602
3171.0,0.11458223488906394
3170.0,0.1148084593931522
3169.0,0.11492161585077598
3168.0,0.11492161585077598
3167.0,0.1148084593931522
3166.0,0.11458223488906394
3165.0,0.11441264381034388
3164.0,0.11429961987167014
3163.0,0.11435612816423602
3162.0,0.11446916681190777
3161.0,0.11458223488906394
3160.0,0.11469533241103202
3159.0,0.11469533241103202
3158.0,0.11458223488906394
3157.0,0.1145256971708426
3156.0,0.11458223488906394
3155.0,0.11469533241103202
3154.0,0.114865033936566
3153.0,0.1148084593931522
3152.0,0.11458223488906394
3151.0,0.11424311893073247
3150.0,0.11396072443355765
3149.0,0.1136220932414278
3148.0,0.1133401021387972
3147.0,0.11305829401658474
3146.0,0.112945621949043
3145.0,0.11288929687511629
3144.0,0.112945621949043
3143.0,0.1128329791052256
3142.0,0.11272036546997688
3141.0,0.11260778102815316
3140.0,0.11260778102815316
3139.0,0.11266406960083297
3138.0,0.11277666863747693
3137.0,0.11277666863747693
3136.0,0.11260778102815316
3135.0,0.11221396516162851
3134.0,0.11176432672943282
3133.0,0.11137127461477392
3132.0,0.11114683301706374
3131.0,0.11097857790477517
3130.0,0.11097857790477517
3129.0,0.11103465569966264
3128.0,0.11120293254331926
3127.0,0.11142740314240007
3126.0,0.11153968196461372
3125.0,0.1114835389250548
3124.0,0.11125903931710734
3123.0,0.11092250734993603
3122.0,0.11053021603049262
3121.0,0.11019424813191447
3120.0,0.11013827874181148
3119.0,0.11047420332880886
3118.0,0.11092250734993603
3117.0,0.11125903931710734
3116.0,0.11114683301706374
3115.0,0.11058623595729111
3114.0,0.10980261378997125
3113.0,0.10918790104487552
3112.0,0.10896458468468917
3111.0,0.10913206118855912
3110.0,0.10946720807225518
3109.0,0.10969078310005154
3108.0,0.10974669484546551
3107.0,0.10963487855187593
3106.0,0.10952309103982927
3105.0,0.10929960230112479
3104.0,0.10907622851098608
3103.0,0.10885296955122903
3102.0,0.10868560061785693
3101.0,0.10862982530385179
3100.0,0.10868560061785693
3099.0,0.10868560061785693
3098.0,0.10857405715200596
3097.0,0.10840679565103484
3096.0,0.1082953237608173
3095.0,0.10823959854332843
3094.0,0.10812816955441629
3093.0,0.10801676914803293
3092.0,0.10784972209863586
3091.0,0.10784972209863586
3090.0,0.10779405402422748
3089.0,0.10779405402422748
3088.0,0.10768273927751948
3087.0,0.10757145305477
3086.0,0.10746019534136453
3085.0,0.10729336219433439
3084.0,0.10718217569042365
3083.0,0.10707101764479421
3082.0,0.10695988804288215
3081.0,0.10684878687013422
3080.0,0.10673771411200872
3079.0,0.10662666975397506
3078.0,0.10662666975397506
3077.0,0.10657115822045493
3076.0,0.10646015643533868
3075.0,0.10640466618011679
3074.0,0.1063491830140364
3073.0,0.10623823794205656
3072.0,0.1061827760325369
3071.0,0.10601643278815298
3070.0,0.10579474085791629
3069.0,0.10557316203581202
3068.0,0.10535169620648288
3067.0,0.10507502264045665
3066.0,0.1047432468551055
3065.0,0.10441172433373724
3064.0,0.10413564875270076
3063.0,0.10402526764093545
3062.0,0.10402526764093545
3061.0,0.10413564875270076
3060.0,0.10419084983086901
3059.0,0.10419084983086901
3058.0,0.10408045468998406
3057.0,0.10369429253391926
3056.0,0.10319830233507843
3055.0,0.10275789719463457
3054.0,0.10242788617426934
3053.0,0.1022080180607754
3052.0,0.10204318999304807
3051.0,0.10187842445889239
3050.0,0.1017686154869033
3049.0,0.1017686154869033
3048.0,0.10182351650232357
3047.0,0.10182351650232357
3046.0,0.10165883427249067
3045.0,0.10138450258381404
3044.0,0.1012199867101744
3043.0,0.1012199867101744
3042.0,0.1012199867101744
3041.0,0.10111034407341357
3040.0,0.10078158214862709
3039.0,0.10034361969436434
3038.0,0.09990609845660159
3037.0,0.09941441335003853
3036.0,0.09892328427374508
3035.0,0.09837823590664274
3034.0,0.09777947172068524
3033.0,0.09729018703012282
3032.0,0.09685572959046151
3031.0,0.0964759355287379
3030.0,0.09620485725896466
3029.0,0.09593394808549704
3028.0,0.09582563171583658
3027.0,0.0957714836599215
3026.0,0.09560907998763835
3025.0,0.09523037409340485
3024.0,0.09474395125154866
3023.0,0.09425807260839858
3022.0,0.09388054245443844
3021.0,0.0935033402006471
3020.0,0.09301884677114591
3019.0,0.09253489323414388
3018.0,0.09205147838772776
3017.0,0.09167586072382083
3016.0,0.09135416109288674
3015.0,0.09092559859909577
3014.0,0.09033701484598189
3013.0,0.08964244272712252
3012.0,0.08894897967187343
3011.0,0.08825662214406838
3010.0,0.08761850108119962
3009.0,0.0870343792958963
3008.0,0.08645104209348209
3007.0,0.08592141461088798
3006.0,0.08549817717268593
3005.0,0.08507535179485148
3004.0,0.08454739831152125
3003.0,0.0839147001562972
3002.0,0.0832303157168639
3001.0,0.08249449044745338
3000.0,0.08175990977858505
2999.0,0.0809742354126397
2998.0,0.08018997982980403
2997.0,0.07951143534170213
2996.0,0.07893810920972144
2995.0,0.07841755960658348
2994.0,0.07794959783282618
2993.0,0.07748213975538865
2992.0,0.07685964397479927
2991.0,0.07587584681417514
2990.0,0.07468790850035045
2989.0,0.07350321072677968
2988.0,0.07273231918911849
2987.0,0.07237303755504598
2986.0,0.07221915065262552
2985.0,0.0720140529005715
2984.0,0.0716553647351379
2983.0,0.07124579782334672
2982.0,0.07078549626260622
2981.0,0.07032568205141221
2980.0,0.06981534770138009
2979.0,0.06935655895783555
2978.0,0.0688982543673613
2977.0,0.06828793294324442
2976.0,0.06767846801070698
2975.0,0.06712054217620067
2974.0,0.06661395809694559
2973.0,0.06610796423578891
2972.0,0.06570359318059427
2971.0,0.0653500770992892
2970.0,0.06509774167768612
2969.0,0.06484555278383164
2968.0,0.06469430971007495
2967.0,0.06469430971007495
2966.0,0.06489597884855036
2965.0,0.06519865825346338
2964.0,0.0653500770992892
2963.0,0.0653500770992892
2962.0,0.06514819703433927
2961.0,0.06484555278383164
2960.0,0.06449273417528723
2959.0,0.06419054619006714
2958.0,0.06393888339001164
2957.0,0.06358680028852026
2956.0,0.06318476880236723
2955.0,0.06268275223750575
2954.0,0.062131203436140536
2953.0,0.06153031163235467
2952.0,0.06078036414518184
2951.0,0.06003170944866376
2950.0,0.05933412752417122
2949.0,0.058737090681050264
2948.0,0.0583891978463662
2947.0,0.0583891978463662
2946.0,0.05863766428823891
2945.0,0.05908526241971446
2944.0,0.05983228596592505
2943.0,0.060880282351513104
2942.0,0.06248210798265341
2941.0,0.06454311928839007
2940.0,0.06701917807680191
2939.0,0.06986635415888243
2938.0,0.07309189829456408
2937.0,0.07665234350217442
2936.0,0.08066036321258663
2935.0,0.08502252755566908
2934.0,0.08985603893548699
2933.0,0.09523037409340485
2932.0,0.10116516193172598
2931.0,0.10768273927751948
2930.0,0.11475189221861393
2929.0,0.12245589228405596
2928.0,0.13100309751286465
2927.0,0.14068153490288382
2926.0,0.1515645446685292
2925.0,0.16386585053462532
2924.0,0.17796275192741495
2923.0,0.19409154492580294
2922.0,0.21232703531250707
2921.0,0.23284413391781955
2920.0,0.25547232652743346
2919.0,0.2801717137456652
2918.0,0.3066248489748147
2917.0,0.3333884315809701
2916.0,0.3581294545236873
2915.0,0.3774751375964318
2914.0,0.38827669199265813
2913.0,0.389020620077003
2912.0,0.38111551500454954
2911.0,0.36764395376092684
2910.0,0.35242144578754475
2909.0,0.33799812061008283
2908.0,0.3253225321268012
2907.0,0.31461659019851274
2906.0,0.30548254618884374
2905.0,0.2975694635544748
2904.0,0.2906452241656039
2903.0,0.28458167740494367
2902.0,0.2795099315499485
2901.0,0.2753146117626406
2900.0,0.2719710455794817
2899.0,0.26913700795350604
2898.0,0.26664221207441474
2897.0,0.2641616656829262
2896.0,0.261774551857495
2895.0,0.25916379294268843
2894.0,0.25649023527157033
2893.0,0.2536772349100471
2892.0,0.2509597312965428
2891.0,0.24841299491768987
2890.0,0.2461106685401666
2889.0,0.2439727870265589
2888.0,0.24169381827469305
2887.0,0.23920068836928232
2886.0,0.2364222755333547
2885.0,0.23336411368973242
2884.0,0.23003219867055757
2883.0,0.22657927670938993
2882.0,0.22322619758789308
2881.0,0.21989880853208832
2880.0,0.21652521241775347
2879.0,0.2128939069634299
2878.0,0.20901152491118413
2877.0,0.2049546295788751
2876.0,0.20086630669793704
2875.0,0.19667947642124606
2874.0,0.19239733008350535
2873.0,0.1879561020697733
2872.0,0.18342730397389695
2871.0,0.17901082358395048
2870.0,0.17483362774345035
2869.0,0.17082492608291244
2868.0,0.16698045292346864
2867.0,0.16316971351112097
2866.0,0.15920410115290617
2865.0,0.15533647175976073
2864.0,0.15187248943212528
2863.0,0.14898639317633
2862.0,0.14684956355215717
2861.0,0.14551177495556966
2860.0,0.14502632627358292
2859.0,0.14587621789883287
2858.0,0.14843591773651155
2857.0,0.1532918545439932
2856.0,0.16089921729284673
2855.0,0.17172688794793012
2854.0,0.1862189218259176
2853.0,0.20488501436963658
2852.0,0.22753159694671954
2851.0,0.2536772349100471
2850.0,0.28166442109149337
2849.0,0.30856484785593796
2848.0,0.33096219911484415
2847.0,0.3457271729022895
2846.0,0.35212823469376753
2845.0,0.35124978730198064
2844.0,0.34543844525825684
2843.0,0.3369590251060257
2842.0,0.3273480771599975
2841.0,0.31767438133219295
2840.0,0.3084764778318456
2839.0,0.2998156703778023
2838.0,0.29191918953176854
2837.0,0.28441444810680383
2836.0,0.27761290582287623
2835.0,0.27140275661656843
2834.0,0.2658404867555333
2833.0,0.2609025538825249
2832.0,0.25633347855378696
2831.0,0.2521222941802099
2830.0,0.24810531195625263
2829.0,0.24435378054332002
2828.0,0.24078556876575608
2827.0,0.23739645043319646
2826.0,0.23433144524098592
2825.0,0.23136189875238555
2824.0,0.2286330291422194
2823.0,0.2261404476233131
2822.0,0.22373478173189043
2821.0,0.22155931642876725
2820.0,0.2193946941610303
2819.0,0.2173840679683965
2818.0,0.21538270736712462
2817.0,0.2135325232597176
2816.0,0.21176090261783198
2815.0,0.21034879120659045
2814.0,0.2092223986623063
2813.0,0.2081690523251638
2812.0,0.20718822875185294
2811.0,0.20613979865733034
2810.0,0.2049546295788751
2809.0,0.2037726859705613
2808.0,0.20259395032361804
2807.0,0.20141840527145227
2806.0,0.20038379551850105
2805.0,0.19948912310563194
2804.0,0.1987335295103798
2803.0,0.1979107421182673
2802.0,0.19702114466473808
2801.0,0.19613336571501572
2800.0,0.19538358301274483
2799.0,0.1946350925335547
2798.0,0.19395576425191186
2797.0,0.1932097284159331
2796.0,0.19232969876951622
2795.0,0.191383964573008
2794.0,0.19050762306265812
2793.0,0.18970025895983111
2792.0,0.18896149139578422
2791.0,0.18829097330380895
2790.0,0.1878891587969005
2789.0,0.1875545971272441
2788.0,0.18722029299103604
2787.0,0.18668594105416525
2786.0,0.18588564387087447
2785.0,0.1849538239353694
2784.0,0.18402399902801458
2783.0,0.18329481633348466
2782.0,0.18269912160667867
2781.0,0.1821703002543944
2780.0,0.18170810920000413
2779.0,0.1812464095022832
2778.0,0.18085105719286587
2777.0,0.18045606445813123
2776.0,0.180127178049454
2775.0,0.17979854051435984
2774.0,0.17927323717616583
2773.0,0.17868302940890257
2772.0,0.17815907279954568
2771.0,0.1775703762206431
2770.0,0.17711305216584927
2769.0,0.17672144304832926
2768.0,0.17633018673186363
2767.0,0.17587416608345108
2766.0,0.17535358528164813
2765.0,0.17476867680009978
2764.0,0.1742494186519723
2763.0,0.17386038206408516
2762.0,0.17360121781238225
2761.0,0.1733422081241307
2760.0,0.1730833528150797
2759.0,0.17276000049435458
2758.0,0.1725014918665413
2757.0,0.17224313702138327
2756.0,0.17198493577602325
2755.0,0.17179138553205453
2754.0,0.17159792150840691
2753.0,0.1713401034646802
2752.0,0.17101804599207693
2751.0,0.17076057185861093
2750.0,0.1705032502798176
2749.0,0.17031035910102887
2748.0,0.17018181256112253
2747.0,0.1701175535565067
2746.0,0.17005330405836405
2745.0,0.16979640107429583
2744.0,0.16953964996903292
2743.0,0.16921892439363884
2742.0,0.16889843549864048
2741.0,0.16857818293497795
2740.0,0.1683221508085333
2739.0,0.16819419132560887
2738.0,0.16806626953325465
2737.0,0.16793838540927308
2736.0,0.16768273007773837
2735.0,0.1673633724032968
2734.0,0.16704424939540163
2733.0,0.1667891197173912
2732.0,0.1666616110606025
2731.0,0.1666616110606025
2730.0,0.1666616110606025
2729.0,0.16653413982930765
2728.0,0.16621562534352097
2727.0,0.16583371605737995
2726.0,0.16545214231905137
2725.0,0.165261481096159
2724.0,0.165261481096159
2723.0,0.165261481096159
2722.0,0.16513442009996204
2721.0,0.16488040957545036
2720.0,0.16449967213268124
2719.0,0.16418264570652719
2718.0,0.16392919108485815
2717.0,0.16380251922107458
2716.0,0.16367588429324842
2715.0,0.16348600110932865
2714.0,0.163359458427226
2713.0,0.16323295260579473
2712.0,0.16316971351112097
2711.0,0.16310648362356628
2710.0,0.16298005145909156
2709.0,0.1627904721987936
2708.0,0.1624115617644888
2707.0,0.16196991701467978
2706.0,0.16165473122400909
2705.0,0.16146572948813143
2704.0,0.16152872092807113
2703.0,0.16165473122400909
2702.0,0.16184381524785207
2701.0,0.16184381524785207
2700.0,0.16184381524785207
2699.0,0.16171775008531153
2698.0,0.16152872092807113
2697.0,0.16133977401105848
2696.0,0.16108797259400132
2695.0,0.16077342598656452
2694.0,0.16039627052916305
2693.0,0.160145015398115
2692.0,0.1600822243213189
2691.0,0.1600822243213189
2690.0,0.16020781555467067
2689.0,0.16020781555467067
2688.0,0.160145015398115
2687.0,0.1600822243213189
2686.0,0.15989390554324223
2685.0,0.15964294079664376
2684.0,0.15945481236316117
2683.0,0.15932943866659088
2682.0,0.15939212099070987
2681.0,0.15945481236316117
2680.0,0.15958022226351387
2679.0,0.15976840504189105
2678.0,0.1600194423216572
2677.0,0.1600822243213189
2676.0,0.1600194423216572
2675.0,0.15970566838856382
2674.0,0.15939212099070987
2673.0,0.15920410115290617
2672.0,0.15901616267962204
2671.0,0.1588909155318461
2670.0,0.1588909155318461
2669.0,0.15914144595812063
2668.0,0.15939212099070987
2667.0,0.15945481236316117
2666.0,0.15932943866659088
2665.0,0.15920410115290617
2664.0,0.15914144595812063
2663.0,0.15914144595812063
2662.0,0.15914144595812063
2661.0,0.15914144595812063
2660.0,0.1590787998012282
2659.0,0.1590787998012282
2658.0,0.15901616267962204
2657.0,0.15895353459069628
2656.0,0.158765704493959
2655.0,0.15851539066460685
2654.0,0.15826522102525642
2653.0,0.15814019022493886
2652.0,0.15807768832054925
2651.0,0.15795271149036205
2650.0,0.15795271149036205
2649.0,0.15795271149036205
2648.0,0.15795271149036205
2647.0,0.15801519540988607
2646.0,0.15801519540988607
2645.0,0.15814019022493886
2644.0,0.1583902878315646
2643.0,0.15857795559764076
2642.0,0.15870311250971825
2641.0,0.15870311250971825
2640.0,0.15857795559764076
2639.0,0.15845283474344662
2638.0,0.1583902878315646
2637.0,0.15832774992636556
2636.0,0.1582027011256446
2635.0,0.15807768832054925
2634.0,0.15795271149036205
2633.0,0.15789023655938994
2632.0,0.15801519540988607
2631.0,0.15814019022493886
2630.0,0.15832774992636556
2629.0,0.15851539066460685
2628.0,0.15870311250971825
2627.0,0.15870311250971825
2626.0,0.15851539066460685
2625.0,0.1582027011256446
2624.0,0.15782777061438424
2623.0,0.15751557558842988
2622.0,0.15732836623921154
2621.0,0.15732836623921154
2620.0,0.15745316350498495
2619.0,0.15757799664235028
2618.0,0.1576404266693252
2617.0,0.15751557558842988
2616.0,0.15732836623921154
2615.0,0.15714123755470633
2614.0,0.15714123755470633
2613.0,0.15732836623921154
2612.0,0.15751557558842988
2611.0,0.1576404266693252
2610.0,0.15757799664235028
2609.0,0.15726598105173029
2608.0,0.15689185800039307
2607.0,0.1565180569600424
2606.0,0.15645578805436489
2605.0,0.1565803347950816
2604.0,0.1567049172634929
2603.0,0.1567049172634929
2602.0,0.15645578805436489
2601.0,0.1562068016740874
2600.0,0.1560823619936076
2599.0,0.1560823619936076
2598.0,0.1559579579589836
2597.0,0.15577141869837208
2596.0,0.15570925674565683
2595.0,0.1558335895497993
2594.0,0.1560823619936076
2593.0,0.15633127702085625
2592.0,0.15645578805436489
2591.0,0.15639352807548912
2590.0,0.1560823619936076
2589.0,0.15570925674565683
2588.0,0.15533647175976073
2587.0,0.15521228117215347
2586.0,0.15527437202677397
2585.0,0.15539858037365328
2584.0,0.15558495952617557
2583.0,0.15564710368910672
2582.0,0.15558495952617557
2581.0,0.15546069787099204
2580.0,0.15533647175976073
2579.0,0.15533647175976073
2578.0,0.15546069787099204
2577.0,0.15552282425431851
2576.0,0.15546069787099204
2575.0,0.15539858037365328
2574.0,0.15527437202677397
2573.0,0.15515019919336104
2572.0,0.1550260618531123
2571.0,0.15490195998574308
2570.0,0.15477789357098626
2569.0,0.15465386258859137
2568.0,0.15452986701832638
2567.0,0.15446788250642451
2566.0,0.15440590683997568
2565.0,0.15446788250642451
2564.0,0.15452986701832638
2563.0,0.15471587365200845
2562.0,0.15490195998574308
2561.0,0.1550260618531123
2560.0,0.15508812608785938
2559.0,0.15496400648658493
2558.0,0.15490195998574308
2557.0,0.1548399223480541
2556.0,0.1548399223480541
2555.0,0.15477789357098626
2554.0,0.15465386258859137
2553.0,0.15440590683997568
2552.0,0.15415809257824264
2551.0,0.15403423845451636
2550.0,0.15403423845451636
2549.0,0.1542200328881107
2548.0,0.15434394001645568
2547.0,0.15440590683997568
2546.0,0.15446788250642451
2545.0,0.15440590683997568
2544.0,0.15434394001645568
2543.0,0.15428198203334142
2542.0,0.15428198203334142
2541.0,0.15440590683997568
2540.0,0.15446788250642451
2539.0,0.15446788250642451
2538.0,0.15434394001645568
2537.0,0.15428198203334142
2536.0,0.1542200328881107
2535.0,0.15415809257824264
2534.0,0.1542200328881107
2533.0,0.1542200328881107
2532.0,0.15415809257824264
2531.0,0.1540961611012175
2530.0,0.15397232463562127
2529.0,0.15391041964201602
2528.0,0.1538485234711846
2527.0,0.1538485234711846
2526.0,0.1538485234711846
2525.0,0.1537866361206126
2524.0,0.15372475758778692
2523.0,0.15366288787019466
2522.0,0.15366288787019466
2521.0,0.15366288787019466
2520.0,0.15372475758778692
2519.0,0.1538485234711846
2518.0,0.15397232463562127
2517.0,0.1542200328881107
2516.0,0.15434394001645568
2515.0,0.15434394001645568
2514.0,0.1542200328881107
2513.0,0.15403423845451636
2512.0,0.15391041964201602
2511.0,0.15397232463562127
2510.0,0.15403423845451636
2509.0,0.15397232463562127
2508.0,0.1537866361206126
2507.0,0.15360102696532518
2506.0,0.15347733158371324
2505.0,0.15360102696532518
2504.0,0.1537866361206126
2503.0,0.15403423845451636
2502.0,0.15415809257824264
2501.0,0.15415809257824264
2500.0,0.1540961611012175
2499.0,0.15397232463562127
2498.0,0.1537866361206126
2497.0,0.15372475758778692
2496.0,0.1537866361206126
2495.0,0.15391041964201602
2494.0,0.1540961611012175
2493.0,0.1540961611012175
2492.0,0.15397232463562127
2491.0,0.1537866361206126
2490.0,0.15366288787019466
2489.0,0.15360102696532518
2488.0,0.1535391748706676
2487.0,0.15335367142288248
2486.0,0.1531682471767426
2485.0,0.15323004646278116
2484.0,0.15360102696532518
2483.0,0.15397232463562127
2482.0,0.15403423845451636
2481.0,0.15391041964201602
2480.0,0.15366288787019466
2479.0,0.1535391748706676
2478.0,0.1535391748706676
2477.0,0.15360102696532518
2476.0,0.1537866361206126
2475.0,0.1538485234711846
2474.0,0.1538485234711846
2473.0,0.1537866361206126
2472.0,0.15366288787019466
2471.0,0.1535391748706676
2470.0,0.1534154971019539
2469.0,0.15335367142288248
2468.0,0.1534154971019539
2467.0,0.15347733158371324
2466.0,0.1535391748706676
2465.0,0.1535391748706676
2464.0,0.1534154971019539
2463.0,0.1532918545439932
2462.0,0.15335367142288248
2461.0,0.1534154971019539
2460.0,0.1535391748706676
2459.0,0.15347733158371324
2458.0,0.1532918545439932
2457.0,0.1531682471767426
2456.0,0.15335367142288248
2455.0,0.15372475758778692
2454.0,0.15415809257824264
2453.0,0.15434394001645568
2452.0,0.15428198203334142
2451.0,0.15397232463562127
2450.0,0.15366288787019466
2449.0,0.1535391748706676
2448.0,0.15360102696532518
2447.0,0.15372475758778692
2446.0,0.1537866361206126
2445.0,0.15372475758778692
2444.0,0.15360102696532518
2443.0,0.1534154971019539
2442.0,0.15323004646278116
2441.0,0.15323004646278116
2440.0,0.1532918545439932
2439.0,0.1535391748706676
2438.0,0.15372475758778692
2437.0,0.1538485234711846
2436.0,0.1538485234711846
2435.0,0.1538485234711846
2434.0,0.1538485234711846
2433.0,0.1538485234711846
2432.0,0.15391041964201602
2431.0,0.15391041964201602
2430.0,0.15397232463562127
2429.0,0.15403423845451636
2428.0,0.1540961611012175
2427.0,0.1542200328881107
2426.0,0.15428198203334142
2425.0,0.15434394001645568
2424.0,0.15440590683997568
2423.0,0.15446788250642451
2422.0,0.15446788250642451
2421.0,0.15440590683997568
2420.0,0.15434394001645568
2419.0,0.15440590683997568
2418.0,0.1545918603782066
2417.0,0.15465386258859137
2416.0,0.15465386258859137
2415.0,0.15446788250642451
2414.0,0.15434394001645568
2413.0,0.1542200328881107
2412.0,0.1540961611012175
2411.0,0.15403423845451636
2410.0,0.1538485234711846
2409.0,0.15372475758778692
2408.0,0.15366288787019466
2407.0,0.15372475758778692
2406.0,0.15391041964201602
2405.0,0.15415809257824264
2404.0,0.15434394001645568
2403.0,0.15440590683997568
2402.0,0.15434394001645568
2401.0,0.15428198203334142
2400.0,0.15434394001645568
2399.0,0.15452986701832638
2398.0,0.15477789357098626
2397.0,0.15496400648658493
2396.0,0.15496400648658493
2395.0,0.15490195998574308
2394.0,0.15477789357098626
2393.0,0.15452986701832638
2392.0,0.15434394001645568
2391.0,0.15415809257824264
2390.0,0.15403423845451636
2389.0,0.15397232463562127
2388.0,0.1538485234711846
2387.0,0.15366288787019466
2386.0,0.15335367142288248
2385.0,0.15310645668337486
2384.0,0.15298290206464582
2383.0,0.15292113793428452
2382.0,0.15279763601907614
2381.0,0.15255073750082726
2380.0,0.15205736115477642
2379.0,0.1513798825658661
2378.0,0.15064201833870117
2377.0,0.14990540561329913
2376.0,0.14929251462546267
2375.0,0.1490476002065071
2374.0,0.14917004015146906
2373.0,0.14966014541652073
2372.0,0.15027355580367208
2371.0,0.15064201833870117
2370.0,0.15033494452126717
2369.0,0.1491088158640761
2368.0,0.1471541819850033
2367.0,0.14502632627358292
2366.0,0.14363367634075197
2365.0,0.14296920172737604
2364.0,0.1427881576831076
2363.0,0.14357322752975565
2362.0,0.14605855411951008
2361.0,0.1499667423102311
2360.0,0.1531682471767426
2359.0,0.15403423845451636
2358.0,0.1538485234711846
2357.0,0.15415809257824264
2356.0,0.15508812608785938
2355.0,0.15564710368910672
2354.0,0.15552282425431851
2353.0,0.15533647175976073
2352.0,0.1548399223480541
2351.0,0.15360102696532518
2350.0,0.15211900255462485
2349.0,0.15168769637271562
2348.0,0.15285938258659382
2347.0,0.1537866361206126
2346.0,0.15298290206464582
2345.0,0.15076490868527737
2344.0,0.1491088158640761
2343.0,0.14929251462546267
2342.0,0.15131834597604965
2341.0,0.15452986701832638
2340.0,0.1567049172634929
2339.0,0.15676722190199066
2338.0,0.15552282425431851
2337.0,0.15452986701832638
2336.0,0.15446788250642451
2335.0,0.1548399223480541
2334.0,0.15539858037365328
2333.0,0.1562068016740874
2332.0,0.15695418946543072
2331.0,0.15664262156204445
2330.0,0.15527437202677397
2329.0,0.15428198203334142
2328.0,0.15539858037365328
2327.0,0.15807768832054925
2326.0,0.16089921729284673
2325.0,0.16247469055039865
2324.0,0.16310648362356628
2323.0,0.16298005145909156
2322.0,0.16228533171508874
2321.0,0.16121385505340546
2320.0,0.159956669396506
2319.0,0.1590787998012282
2318.0,0.15870311250971825
2317.0,0.15895353459069628
2316.0,0.159517512786558
2315.0,0.160145015398115
2314.0,0.16058480731610647
2313.0,0.1605219526258017
2312.0,0.16039627052916305
2311.0,0.1600194423216572
2310.0,0.15976840504189105
2309.0,0.15939212099070987
2308.0,0.15895353459069628
2307.0,0.15845283474344662
2306.0,0.15807768832054925
2305.0,0.15782777061438424
2304.0,0.15795271149036205
2303.0,0.1582027011256446
2302.0,0.15864052954514496
2301.0,0.15895353459069628
2300.0,0.15901616267962204
2299.0,0.158765704493959
2298.0,0.15857795559764076
2297.0,0.15857795559764076
2296.0,0.15870311250971825
2295.0,0.15870311250971825
2294.0,0.15857795559764076
2293.0,0.1583902878315646
2292.0,0.15826522102525642
2291.0,0.1582027011256446
2290.0,0.1582027011256446
2289.0,0.15832774992636556
2288.0,0.15851539066460685
2287.0,0.15864052954514496
2286.0,0.15864052954514496
2285.0,0.15851539066460685
2284.0,0.15826522102525642
2283.0,0.15801519540988607
2282.0,0.1576404266693252
2281.0,0.15732836623921154
2280.0,0.15707887924001773
2279.0,0.15701652987778258
2278.0,0.15701652987778258
2277.0,0.15707887924001773
2276.0,0.15707887924001773
2275.0,0.15701652987778258
2274.0,0.15701652987778258
2273.0,0.15701652987778258
2272.0,0.15720360482441986
2271.0,0.15751557558842988
2270.0,0.15776531365276036
2269.0,0.15795271149036205
2268.0,0.15795271149036205
2267.0,0.15776531365276036
2266.0,0.15751557558842988
2265.0,0.15732836623921154
2264.0,0.15720360482441986
2263.0,0.15720360482441986
2262.0,0.15726598105173029
2261.0,0.15745316350498495
2260.0,0.15776531365276036
2259.0,0.15807768832054925
2258.0,0.1583902878315646
2257.0,0.15851539066460685
2256.0,0.15857795559764076
2255.0,0.15851539066460685
2254.0,0.15832774992636556
2253.0,0.15814019022493886
2252.0,0.15807768832054925
2251.0,0.15814019022493886
2250.0,0.15832774992636556
2249.0,0.15857795559764076
2248.0,0.15870311250971825
2247.0,0.158765704493959
2246.0,0.158765704493959
2245.0,0.15882830550046778
2244.0,0.1588909155318461
2243.0,0.15882830550046778
2242.0,0.158765704493959
2241.0,0.15864052954514496
2240.0,0.15864052954514496
2239.0,0.15857795559764076
2238.0,0.1583902878315646
2237.0,0.1582027011256446
2236.0,0.15807768832054925
2235.0,0.1582027011256446
2234.0,0.15851539066460685
2233.0,0.15870311250971825
2232.0,0.158765704493959
2231.0,0.158765704493959
2230.0,0.15882830550046778
2229.0,0.15895353459069628
2228.0,0.15901616267962204
2227.0,0.1590787998012282
2226.0,0.15901616267962204
2225.0,0.15901616267962204
2224.0,0.1588909155318461
2223.0,0.158765704493959
2222.0,0.15870311250971825
2221.0,0.158765704493959
2220.0,0.1588909155318461
2219.0,0.1590787998012282
2218.0,0.15914144595812063
2217.0,0.15920410115290617
2216.0,0.15920410115290617
2215.0,0.15920410115290617
2214.0,0.15926676538819318
2213.0,0.15926676538819318
2212.0,0.15920410115290617
2211.0,0.1590787998012282
2210.0,0.1588909155318461
2209.0,0.15882830550046778
2208.0,0.1588909155318461
2207.0,0.15895353459069628
2206.0,0.15901616267962204
2205.0,0.1590787998012282
2204.0,0.15920410115290617
2203.0,0.15932943866659088
2202.0,0.15945481236316117
2201.0,0.159517512786558
2200.0,0.15958022226351387
2199.0,0.159517512786558
2198.0,0.15945481236316117
2197.0,0.15939212099070987
2196.0,0.15939212099070987
2195.0,0.15945481236316117
2194.0,0.159517512786558
2193.0,0.15958022226351387
2192.0,0.159517512786558
2191.0,0.159517512786558
2190.0,0.15958022226351387
2189.0,0.15976840504189105
2188.0,0.15983115075924403
2187.0,0.15983115075924403
2186.0,0.15976840504189105
2185.0,0.15970566838856382
2184.0,0.15976840504189105
2183.0,0.159956669396506
2182.0,0.160145015398115
2181.0,0.1602706247936121
2180.0,0.1602706247936121
2179.0,0.1602706247936121
2178.0,0.1602706247936121
2177.0,0.1603334431175667
2176.0,0.1603334431175667
2175.0,0.16020781555467067
2174.0,0.1600822243213189
2173.0,0.1600822243213189
2172.0,0.16020781555467067
2171.0,0.16039627052916305
2170.0,0.1605219526258017
2169.0,0.1605219526258017
2168.0,0.16045910703103106
2167.0,0.16045910703103106
2166.0,0.1605219526258017
2165.0,0.16064767110457878
2164.0,0.16077342598656452
2163.0,0.16083631708534996
2162.0,0.16083631708534996
2161.0,0.16096212661169407
2160.0,0.16115090926274478
2159.0,0.16121385505340546
2158.0,0.16115090926274478
2157.0,0.16102504504453208
2156.0,0.16102504504453208
2155.0,0.16115090926274478
2154.0,0.16127680996862814
2153.0,0.16127680996862814
2152.0,0.16115090926274478
2151.0,0.16108797259400132
2150.0,0.16102504504453208
2149.0,0.16108797259400132
2148.0,0.16121385505340546
2147.0,0.1614027471833437
2146.0,0.16159172150581314
2145.0,0.16165473122400909
2144.0,0.16159172150581314
2143.0,0.1614027471833437
2142.0,0.16127680996862814
2141.0,0.16127680996862814
2140.0,0.16146572948813143
2139.0,0.16165473122400909
2138.0,0.16178077809237412
2137.0,0.16184381524785207
2136.0,0.16184381524785207
2135.0,0.16178077809237412
2134.0,0.16165473122400909
2133.0,0.16165473122400909
2132.0,0.16178077809237412
2131.0,0.16209605540705763
2130.0,0.16234844215360744
2129.0,0.16247469055039865
2128.0,0.1624115617644888
2127.0,0.16228533171508874
2126.0,0.16215913834447737
2125.0,0.16215913834447737
2124.0,0.16215913834447737
2123.0,0.16209605540705763
2122.0,0.16203298163134527
2121.0,0.16196991701467978
2120.0,0.16184381524785207
2119.0,0.16184381524785207
2118.0,0.1619068615544017
2117.0,0.16196991701467978
2116.0,0.16215913834447737
2115.0,0.16234844215360744
2114.0,0.16253782851400533
2113.0,0.16266413198498508
2112.0,0.1627904721987936
2111.0,0.16285365609093994
2110.0,0.16291684917681404
2109.0,0.16298005145909156
2108.0,0.16298005145909156
2107.0,0.16291684917681404
2106.0,0.1627904721987936
2105.0,0.16272729749769965
2104.0,0.1627904721987936
2103.0,0.16285365609093994
2102.0,0.16291684917681404
2101.0,0.16298005145909156
2100.0,0.16304326294044946
2099.0,0.16316971351112097
2098.0,0.16323295260579473
2097.0,0.16329620091026875
2096.0,0.16323295260579473
2095.0,0.16316971351112097
2094.0,0.16304326294044946
2093.0,0.16291684917681404
2092.0,0.16285365609093994
2091.0,0.16291684917681404
2090.0,0.16304326294044946
2089.0,0.16316971351112097
2088.0,0.16329620091026875
2087.0,0.163359458427226
2086.0,0.16354928627984533
2085.0,0.1637391971415132
2084.0,0.16386585053462532
2083.0,0.16380251922107458
2082.0,0.16361258067358908
2081.0,0.16342272515935097
2080.0,0.16342272515935097
2079.0,0.16348600110932865
2078.0,0.16361258067358908
2077.0,0.1637391971415132
2076.0,0.1637391971415132
2075.0,0.16386585053462532
2074.0,0.16405589990615188
2073.0,0.16424603248061653
2072.0,0.1644362483309032
2071.0,0.16449967213268124
2070.0,0.1644362483309032
2069.0,0.16430942850757435
2068.0,0.16411926818260536
2067.0,0.16399254087446846
2066.0,0.16405589990615188
2065.0,0.16424603248061653
2064.0,0.16456310519814177
2063.0,0.16488040957545036
2062.0,0.16507090353942422
2061.0,0.16507090353942422
2060.0,0.16500739626697003
2059.0,0.16481693015095633
2058.0,0.16475346000368907
2057.0,0.16481693015095633
2056.0,0.16488040957545036
2055.0,0.16494389827988365
2054.0,0.16494389827988365
2053.0,0.16494389827988365
2052.0,0.16494389827988365
2051.0,0.16494389827988365
2050.0,0.16500739626697003
2049.0,0.16519794595130088
2048.0,0.16538857927731287
2047.0,0.16551571466519466
2046.0,0.16564288728159493
2045.0,0.16564288728159493
2044.0,0.16557929631846746
2043.0,0.16545214231905137
2042.0,0.16538857927731287
2041.0,0.16538857927731287
2040.0,0.16551571466519466
2039.0,0.16557929631846746
2038.0,0.16551571466519466
2037.0,0.16551571466519466
2036.0,0.16551571466519466
2035.0,0.16564288728159493
2034.0,0.165706487557304
2033.0,0.1657700971483227
2032.0,0.1657700971483227
2031.0,0.165706487557304
2030.0,0.16564288728159493
2029.0,0.165706487557304
2028.0,0.16583371605737995
2027.0,0.1660882849286216
2026.0,0.16634300310712757
2025.0,0.16659787076814148
2024.0,0.16691666582165698
2023.0,0.16710805524020933
2022.0,0.16717187046064663
2021.0,0.16710805524020933
2020.0,0.16698045292346864
2019.0,0.16685288808721488
2018.0,0.16685288808721488
2017.0,0.16691666582165698
2016.0,0.16710805524020933
2015.0,0.16723569505946845
2014.0,0.16729952903943257
2013.0,0.16723569505946845
2012.0,0.16704424939540163
2011.0,0.1667891197173912
2010.0,0.16653413982930765
2009.0,0.16653413982930765
2008.0,0.1667891197173912
2007.0,0.16698045292346864
2006.0,0.16704424939540163
2005.0,0.16704424939540163
2004.0,0.16704424939540163
2003.0,0.16710805524020933
2002.0,0.16717187046064663
2001.0,0.1673633724032968
2000.0,0.1675549588258891
1999.0,0.167618839752959
1998.0,0.167618839752959
1997.0,0.1674910872937636
1996.0,0.1673633724032968
1995.0,0.16717187046064663
1994.0,0.16704424939540163
1993.0,0.16691666582165698
1992.0,0.16691666582165698
1991.0,0.16704424939540163
1990.0,0.16723569505946845
1989.0,0.16742722515382025
1988.0,0.16768273007773837
1987.0,0.16787445746599094
1986.0,0.16813022571949832
1985.0,0.16819419132560887
1984.0,0.16813022571949832
1983.0,0.16787445746599094
1982.0,0.16768273007773837
1981.0,0.1674910872937636
1980.0,0.16742722515382025
1979.0,0.1673633724032968
1978.0,0.16729952903943257
1977.0,0.16729952903943257
1976.0,0.1674910872937636
1975.0,0.16781053893148679
1974.0,0.16813022571949832
1973.0,0.1683221508085333
1972.0,0.16819419132560887
1971.0,0.16800232276410365
1970.0,0.16774662980299215
1969.0,0.167618839752959
1968.0,0.16768273007773837
1967.0,0.16793838540927308
1966.0,0.16813022571949832
1965.0,0.16825816635436186
1964.0,0.16845014800424418
1963.0,0.1686422145579325
1962.0,0.16877030613293664
1961.0,0.16870625562299035
1960.0,0.16845014800424418
1959.0,0.16825816635436186
1958.0,0.16813022571949832
1957.0,0.16813022571949832
1956.0,0.16838614469090118
1955.0,0.16877030613293664
1954.0,0.16896251435997467
1953.0,0.16896251435997467
1952.0,0.16870625562299035
1951.0,0.1685141607513425
1950.0,0.16845014800424418
1949.0,0.16838614469090118
1948.0,0.16838614469090118
1947.0,0.16838614469090118
1946.0,0.1683221508085333
1945.0,0.16825816635436186
1944.0,0.16825816635436186
1943.0,0.16857818293497795
1942.0,0.16915480769138846
1941.0,0.16953964996903292
1940.0,0.16947548590274142
1939.0,0.16921892439363884
1938.0,0.16902660267734948
1937.0,0.16896251435997467
1936.0,0.16902660267734948
1935.0,0.16909070045355667
1934.0,0.16915480769138846
1933.0,0.16909070045355667
1932.0,0.16902660267734948
1931.0,0.16902660267734948
1930.0,0.16909070045355667
1929.0,0.16928305056310244
1928.0,0.16947548590274142
1927.0,0.16947548590274142
1926.0,0.16941133131485575
1925.0,0.16921892439363884
1924.0,0.16915480769138846
1923.0,0.16915480769138846
1922.0,0.16921892439363884
1921.0,0.1693471862025755
1920.0,0.16960382351653092
1919.0,0.1699248335702499
1918.0,0.17018181256112253
1917.0,0.17024608107502504
1916.0,0.17024608107502504
1915.0,0.17018181256112253
1914.0,0.17018181256112253
1913.0,0.17018181256112253
1912.0,0.16998906406388214
1911.0,0.16979640107429583
1910.0,0.16979640107429583
1909.0,0.1699248335702499
1908.0,0.1701175535565067
1907.0,0.17037464664195068
1906.0,0.17056756638240134
1905.0,0.17076057185861093
1904.0,0.17088928984470542
1903.0,0.17088928984470542
1902.0,0.17088928984470542
1901.0,0.17108243838331405
1900.0,0.17121125181504682
1899.0,0.1712756728612086
1898.0,0.1712756728612086
1897.0,0.1712756728612086
1896.0,0.17121125181504682
1895.0,0.1711468403233598
1894.0,0.1711468403233598
1893.0,0.17121125181504682
1892.0,0.1712756728612086
1891.0,0.1712756728612086
1890.0,0.1712756728612086
1889.0,0.1713401034646802
1888.0,0.1713401034646802
1887.0,0.17121125181504682
1886.0,0.17121125181504682
1885.0,0.1712756728612086
1884.0,0.1712756728612086
1883.0,0.1712756728612086
1882.0,0.1712756728612086
1881.0,0.1714045436282976
1880.0,0.1714045436282976
1879.0,0.1712756728612086
1878.0,0.1711468403233598
1877.0,0.1711468403233598
1876.0,0.17121125181504682
1875.0,0.1712756728612086
1874.0,0.17121125181504682
1873.0,0.17108243838331405
1872.0,0.17108243838331405
1871.0,0.1711468403233598
1870.0,0.17108243838331405
1869.0,0.1711468403233598
1868.0,0.17121125181504682
1867.0,0.1712756728612086
1866.0,0.1713401034646802
1865.0,0.17153345264732156
1864.0,0.17166239994099564
1863.0,0.17166239994099564
1862.0,0.17166239994099564
1861.0,0.17166239994099564
1860.0,0.17172688794793012
1859.0,0.1718558926962137
1858.0,0.17192040944325404
1857.0,0.17204947169736973
1856.0,0.17198493577602325
1855.0,0.17179138553205453
1854.0,0.17159792150840691
1853.0,0.17166239994099564
1852.0,0.17166239994099564
1851.0,0.17166239994099564
1850.0,0.17153345264732156
1849.0,0.1714045436282976
1848.0,0.17121125181504682
1847.0,0.1711468403233598
1846.0,0.1714689933548985
1845.0,0.17204947169736973
1844.0,0.17263072694617465
1843.0,0.17288931253398876
1842.0,0.17276000049435458
1841.0,0.1726953589102651
1840.0,0.17263072694617465
1839.0,0.17230771132555445
1838.0,0.17192040944325404
1837.0,0.17179138553205453
1836.0,0.1718558926962137
1835.0,0.17198493577602325
1834.0,0.17204947169736973
1833.0,0.17204947169736973
1832.0,0.17192040944325404
1831.0,0.17172688794793012
1830.0,0.17153345264732156
1829.0,0.17153345264732156
1828.0,0.17166239994099564
1827.0,0.1718558926962137
1826.0,0.17224313702138327
1825.0,0.17263072694617465
1824.0,0.17282465170130723
1823.0,0.17282465170130723
1822.0,0.1726953589102651
1821.0,0.17263072694617465
1820.0,0.1726953589102651
1819.0,0.17282465170130723
1818.0,0.1730186630880064
1817.0,0.17314805217935603
1816.0,0.17327747983100794
1815.0,0.1730833528150797
1814.0,0.17276000049435458
1813.0,0.1724368887452763
1812.0,0.17230771132555445
1811.0,0.17230771132555445
1810.0,0.17224313702138327
1809.0,0.17237229523256659
1808.0,0.1726953589102651
1807.0,0.17288931253398876
1806.0,0.17288931253398876
1805.0,0.17288931253398876
1804.0,0.17276000049435458
1803.0,0.1725014918665413
1802.0,0.17230771132555445
1801.0,0.1724368887452763
1800.0,0.17282465170130723
1799.0,0.17288931253398876
1798.0,0.1726953589102651
1797.0,0.1725014918665413
1796.0,0.1725014918665413
1795.0,0.17256610459922084
1794.0,0.17276000049435458
1793.0,0.1730186630880064
1792.0,0.17360121781238225
1791.0,0.1739900222088997
1790.0,0.17405485679615196
1789.0,0.17411970106382046
1788.0,0.17431429197824166
1787.0,0.1743791749964998
1786.0,0.17431429197824166
1785.0,0.17431429197824166
1784.0,0.17431429197824166
1783.0,0.17418455501479646
1782.0,0.17411970106382046
1781.0,0.17405485679615196
1780.0,0.17411970106382046
1779.0,0.17411970106382046
1778.0,0.17405485679615196
1777.0,0.1739900222088997
1776.0,0.1739900222088997
1775.0,0.17405485679615196
1774.0,0.17418455501479646
1773.0,0.17411970106382046
1772.0,0.17405485679615196
1771.0,0.17411970106382046
1770.0,0.17431429197824166
1769.0,0.17483362774345035
1768.0,0.1755487299633871
1767.0,0.17580905934741686
1766.0,0.1755487299633871
1765.0,0.17535358528164813
1764.0,0.17535358528164813
1763.0,0.17535358528164813
1762.0,0.17535358528164813
1761.0,0.1752235375244544
1760.0,0.1751585282462993
1759.0,0.17535358528164813
1758.0,0.17574396237031764
1757.0,0.17613469067548881
1756.0,0.17639537164484187
1755.0,0.1765909851074554
1754.0,0.1769172034671962
1753.0,0.17711305216584927
1752.0,0.17711305216584927
1751.0,0.17711305216584927
1750.0,0.17711305216584927
1749.0,0.17724366704860928
1748.0,0.1775703762206431
1747.0,0.1778973313530796
1746.0,0.17809362264767703
1745.0,0.17822453281653639
1744.0,0.1784864715952268
1743.0,0.17887967622317635
1742.0,0.1791420105603001
1741.0,0.17920761891179637
1740.0,0.17933886535640453
1739.0,0.17940450345550985
1738.0,0.17940450345550985
1737.0,0.17992996568767428
1736.0,0.18071935302751885
1735.0,0.1811804924524636
1734.0,0.1812464095022832
1733.0,0.18078520011761579
1732.0,0.17992996568767428
1731.0,0.17992996568767428
1730.0,0.180587688790675
1729.0,0.18111458540599013
1728.0,0.1812464095022832
1727.0,0.1812464095022832
1726.0,0.18111458540599013
1725.0,0.18085105719286587
1724.0,0.18078520011761579
1723.0,0.18085105719286587
1722.0,0.1809828013109407
1721.0,0.18131233655848633
1720.0,0.18164212204164532
1719.0,0.18170810920000413
1718.0,0.18144422070219735
1717.0,0.18164212204164532
1716.0,0.18203819546800593
1715.0,0.18230244523697592
1714.0,0.18250073813224166
1713.0,0.18263298371240588
1712.0,0.18269912160667867
1711.0,0.18256685588861554
1710.0,0.18250073813224166
1709.0,0.18243463044021913
1708.0,0.18243463044021913
1707.0,0.18243463044021913
1706.0,0.18250073813224166
1705.0,0.18269912160667867
1704.0,0.18302996224270052
1703.0,0.1838250095711984
1702.0,0.1848873418101875
1701.0,0.18541948398968144
1700.0,0.18528638730402336
1699.0,0.18448866263723573
1698.0,0.1842894602110372
1697.0,0.18568579979254052
1696.0,0.1872871332346313
1695.0,0.1875545971272441
1694.0,0.1867526991023949
1693.0,0.18648572845811695
1692.0,0.18695303483989223
1691.0,0.18695303483989223
1690.0,0.1866191932661443
1689.0,0.18641901143180806
1688.0,0.18668594105416525
1687.0,0.1872871332346313
1686.0,0.18762148884580565
1685.0,0.18748771571001743
1684.0,0.18815699382352258
1683.0,0.18889439298206967
1682.0,0.18902860017779255
1681.0,0.18963304631837485
1680.0,0.19030564128307614
1679.0,0.19064232978889417
1678.0,0.1910467008440888
1677.0,0.19158644859963192
1676.0,0.19192413190869306
1675.0,0.1920592787845008
1674.0,0.19178902707577805
1673.0,0.19131649087103075
1672.0,0.1912490276504053
1671.0,0.19151894343404896
1670.0,0.1921268679966679
1669.0,0.19314197048118253
1668.0,0.19361649817583237
1667.0,0.1935486767527379
1666.0,0.1935486767527379
1665.0,0.1934808659192948
1664.0,0.19327749692381868
1663.0,0.1932097284159331
1662.0,0.19341306567219707
1661.0,0.19361649817583237
1660.0,0.19375217280420953
1659.0,0.19388788983090888
1658.0,0.19375217280420953
1657.0,0.19341306567219707
1656.0,0.19341306567219707
1655.0,0.19341306567219707
1654.0,0.19334527600813955
1653.0,0.19470308384201496
1652.0,0.1948390984005659
1651.0,0.1928033392890527
1650.0,0.19239733008350535
1649.0,0.19273564472389304
1648.0,0.19246497193114664
1647.0,0.1928033392890527
1646.0,0.1941594511853273
1645.0,0.19477108579657387
1644.0,0.1946350925335547
1643.0,0.19456711186786002
1642.0,0.19456711186786002
1641.0,0.1944311824514442
1640.0,0.19409154492580294
1639.0,0.19388788983090888
1638.0,0.19382002601611292
1637.0,0.19388788983090888
1636.0,0.19456711186786002
1635.0,0.19572423287090612
1634.0,0.19586056766464965
1633.0,0.19551981089400727
1632.0,0.19545169161194398
1631.0,0.19531548509305963
1630.0,0.19490712165732704
1629.0,0.1944311824514442
1628.0,0.1940236492824372
1627.0,0.19361649817583237
1626.0,0.1935486767527379
1625.0,0.19368433019188647
1624.0,0.19395576425191186
1623.0,0.1944311824514442
1622.0,0.19470308384201496
1621.0,0.19449914184159978
1620.0,0.19429529556613567
1619.0,0.19436323369406505
1618.0,0.1944311824514442
1617.0,0.19449914184159978
1616.0,0.19449914184159978
1615.0,0.19422736806433094
1614.0,0.19422736806433094
1613.0,0.19456711186786002
1612.0,0.1946350925335547
1611.0,0.19429529556613567
1610.0,0.19395576425191186
1609.0,0.19375217280420953
1608.0,0.1935486767527379
1607.0,0.19327749692381868
1606.0,0.19327749692381868
1605.0,0.1932097284159331
1604.0,0.19314197048118253
1603.0,0.19314197048118253
1602.0,0.19314197048118253
1601.0,0.19300648631789286
1600.0,0.1928710444075783
1599.0,0.1928033392890527
1598.0,0.1928710444075783
1597.0,0.19300648631789286
1596.0,0.19300648631789286
1595.0,0.19300648631789286
1594.0,0.19300648631789286
1593.0,0.19300648631789286
1592.0,0.1928710444075783
1591.0,0.1928033392890527
1590.0,0.19273564472389304
1589.0,0.19266796070880954
1588.0,0.19253262431572216
1587.0,0.19246497193114664
1586.0,0.1926002872405146
1585.0,0.1928033392890527
1584.0,0.1928033392890527
1583.0,0.192938760082761
1582.0,0.19300648631789286
1581.0,0.192938760082761
1580.0,0.19266796070880954
1579.0,0.19253262431572216
1578.0,0.19246497193114664
1577.0,0.1921268679966679
1576.0,0.1919917000896001
1575.0,0.19192413190869306
1574.0,0.19185657423850877
1573.0,0.1921268679966679
1572.0,0.19232969876951622
1571.0,0.1920592787845008
1570.0,0.19165396425960513
1569.0,0.19151894343404896
1568.0,0.19145144875959463
1567.0,0.19158644859963192
1566.0,0.19185657423850877
1565.0,0.19185657423850877
1564.0,0.19165396425960513
1563.0,0.19185657423850877
1562.0,0.19239733008350535
1561.0,0.19246497193114664
1560.0,0.1910467008440888
1559.0,0.19064232978889417
1558.0,0.19232969876951622
1557.0,0.1917214904172322
1556.0,0.19158644859963192
1555.0,0.1921268679966679
1554.0,0.19232969876951622
1553.0,0.19192413190869306
1552.0,0.19158644859963192
1551.0,0.19151894343404896
1550.0,0.19158644859963192
1549.0,0.19165396425960513
1548.0,0.19165396425960513
1547.0,0.19165396425960513
1546.0,0.191383964573008
1545.0,0.19077707831057822
1544.0,0.1902383348928749
1543.0,0.18990195931885712
1542.0,0.18929713905288326
1541.0,0.1887602272467106
1540.0,0.18963304631837485
1539.0,0.19064232978889417
1538.0,0.18983471545685027
1537.0,0.18922998876563635
1536.0,0.18943147078358713
1535.0,0.18943147078358713
1534.0,0.18909571933129965
1533.0,0.18896149139578422
1532.0,0.18909571933129965
1531.0,0.18909571933129965
1530.0,0.18882730493344568
1529.0,0.18842499412940672
1528.0,0.188023055663046
1527.0,0.18775530319963063
1526.0,0.18742084459095332
1525.0,0.18708664335714453
1524.0,0.18695303483989223
1523.0,0.18688624599210146
1522.0,0.18681946741398825
1521.0,0.18688624599210146
1520.0,0.18668594105416525
1519.0,0.18628560811885508
1518.0,0.18601892436352818
1517.0,0.18575240426807982
1516.0,0.18561920553006184
1515.0,0.1854860476317619
1514.0,0.18541948398968144
1513.0,0.18521985425419518
1512.0,0.1848873418101875
1511.0,0.1842894602110372
1510.0,0.18369240056806024
1509.0,0.18329481633348466
1508.0,0.1832285876666535
1507.0,0.18442225167573278
1506.0,0.18555262147751228
1505.0,0.18395765907800343
1504.0,0.18250073813224166
1503.0,0.18203819546800593
1502.0,0.18164212204164532
1501.0,0.18104868835982724
1500.0,0.18052187163787736
1499.0,0.18025870272698952
1498.0,0.18006143064460467
1497.0,0.17973284283903546
1496.0,0.17920761891179637
1495.0,0.17815907279954568
1494.0,0.17704775945251838
1493.0,0.17633018673186363
1492.0,0.17567887514922864
1491.0,0.1745089701205691
1490.0,0.1730186630880064
1489.0,0.17198493577602325
1488.0,0.1714689933548985
1487.0,0.17076057185861093
1486.0,0.16953964996903292
1485.0,0.16819419132560887
1484.0,0.16685288808721488
1483.0,0.16538857927731287
1482.0,0.163359458427226
1481.0,0.16089921729284673
1480.0,0.15857795559764076
1479.0,0.15664262156204445
1478.0,0.15515019919336104
1477.0,0.15533647175976073
1476.0,0.159517512786558
1475.0,0.16973219906635828
1474.0,0.18775530319963063
1473.0,0.21502629004559926
1472.0,0.24458253718906375
1471.0,0.2607441967314894
1470.0,0.2624098337142784
1469.0,0.2587695889745292
1468.0,0.2546909400591719
1467.0,0.2511145599904834
1466.0,0.2487208960166578
1465.0,0.24956875133979795
1464.0,0.2553159367231137
1463.0,0.2636831920958911
1462.0,0.2705112308204387
1461.0,0.27384353382724513
1460.0,0.27310985925817843
1459.0,0.2684918164039747
1458.0,0.2613779720820575
1457.0,0.25430077339749424
1456.0,0.2487208960166578
1455.0,0.24458253718906375
1454.0,0.24176959154225042
1453.0,0.23965292147009354
1452.0,0.23732143627256375
1451.0,0.23485320989197467
1450.0,0.2326214758858196
1449.0,0.23091821288178105
1448.0,0.2296635589048508
1447.0,0.2287800980504664
1446.0,0.2280452510360509
1445.0,0.22731164531785852
1444.0,0.22657927670938993
1443.0,0.22592119924748122
1442.0,0.2251911696892941
1441.0,0.224608028303388
1440.0,0.22424396215590203
1439.0,0.22417118553538762
1438.0,0.2240256688706308
1437.0,0.22388020094701222
1436.0,0.22373478173189043
1435.0,0.2231535913047007
1434.0,0.22228326139037402
1433.0,0.22155931642876725
1432.0,0.22083657623550135
1431.0,0.22004294875309416
1430.0,0.2193946941610303
1429.0,0.21896306137886823
1428.0,0.21846003139405834
1427.0,0.21795758337944582
1426.0,0.21731243176503368
1425.0,0.21652521241775347
1424.0,0.2158107946190393
1423.0,0.21531140049857878
1422.0,0.21516882187553077
1421.0,0.21495504166845603
1420.0,0.21467016498923286
1419.0,0.21438547505317596
1418.0,0.21424320003735708
1417.0,0.21388771628017356
1416.0,0.2135325232597176
1415.0,0.21310667473868428
1414.0,0.21253952548158495
1413.0,0.2119731159041962
1412.0,0.21147811277752715
1411.0,0.2111248842245832
1410.0,0.2107013888405589
1409.0,0.2102078322693246
1408.0,0.20971483596675822
1407.0,0.2093630380682967
1406.0,0.2090818047854217
1405.0,0.20901152491118413
1404.0,0.20901152491118413
1403.0,0.20901152491118413
1402.0,0.2089412564081745
1401.0,0.2087305190897315
1400.0,0.20844969497266996
1399.0,0.2081690523251638
1398.0,0.20795868928791772
1397.0,0.20774842809673588
1396.0,0.20732821085843267
1395.0,0.20683847075444928
1394.0,0.20648899420714217
1393.0,0.206349282292827
1392.0,0.2065588670223364
1391.0,0.20704829174986794
1390.0,0.20753826865304936
1389.0,0.2076783636484265
1388.0,0.2076083105017461
1387.0,0.20753826865304936
1386.0,0.20739821883503362
1385.0,0.20725821416525125
1384.0,0.20711825461460287
1383.0,0.20711825461460287
1382.0,0.20725821416525125
1381.0,0.2074682380986923
1380.0,0.20781850385032108
1379.0,0.20809891999042884
1378.0,0.2083093509798819
1377.0,0.20844969497266996
1376.0,0.20859008433283988
1375.0,0.2088007535011247
1374.0,0.2093630380682967
1373.0,0.20992605157369537
1372.0,0.21027830601907826
1371.0,0.21041928783557462
1370.0,0.21077194273266486
1369.0,0.21119550695535172
1368.0,0.21161948468043668
1367.0,0.21204387671606817
1366.0,0.2122562283535332
1365.0,0.21232703531250707
1364.0,0.21239785381766252
1363.0,0.21253952548158495
1362.0,0.21282300752944616
1361.0,0.21310667473868428
1360.0,0.21310667473868428
1359.0,0.2130357405642671
1358.0,0.2128939069634299
1357.0,0.2128939069634299
1356.0,0.2130357405642671
1355.0,0.21324857785443885
1354.0,0.2135325232597176
1353.0,0.2137456042102197
1352.0,0.21395878975744576
1351.0,0.21402987486799052
1350.0,0.21417208000413446
1349.0,0.21438547505317596
1348.0,0.21467016498923286
1347.0,0.2148838049780799
1346.0,0.21502629004559926
1345.0,0.21495504166845603
1344.0,0.21474136664229881
1343.0,0.21452779669361166
1342.0,0.21431433171909875
1341.0,0.21424320003735708
1340.0,0.21438547505317596
1339.0,0.21481257997063818
1338.0,0.21531140049857878
1337.0,0.21559669824699146
1336.0,0.21573941743391623
1335.0,0.2158107946190393
1334.0,0.2158107946190393
1333.0,0.21588218353707678
1332.0,0.2159535841918867
1331.0,0.2160964207272651
1330.0,0.21623930425607596
1329.0,0.21631076365268354
1328.0,0.21631076365268354
1327.0,0.21631076365268354
1326.0,0.21638223480925123
1325.0,0.21659671887743648
1324.0,0.21688286250953293
1323.0,0.21716919479740815
1322.0,0.21752737583371373
1321.0,0.21774242633669827
1320.0,0.21788585252092885
1319.0,0.2181010806488508
1318.0,0.21846003139405834
1317.0,0.21889116427053357
1316.0,0.2193227255666319
1315.0,0.2196826878598488
1314.0,0.2199708726626617
1313.0,0.22025924882325953
1312.0,0.22047565667521019
1311.0,0.22076436832413648
1310.0,0.22098102808512943
1309.0,0.22119779598676126
1308.0,0.22148698826107527
1307.0,0.22184874961635637
1306.0,0.22221081256513253
1305.0,0.22242819530859004
1304.0,0.2225731776106885
1303.0,0.22271820832898515
1302.0,0.2228632874958274
1301.0,0.22300841514359493
1300.0,0.22322619758789308
1299.0,0.2234440892967382
1298.0,0.22373478173189043
1297.0,0.22395292881822026
1296.0,0.22417118553538762
1295.0,0.2243167509739561
1294.0,0.22446236521904295
1293.0,0.224608028303388
1292.0,0.22475374025976347
1291.0,0.22489950112097512
1290.0,0.22504531091986135
1289.0,0.22504531091986135
1288.0,0.22504531091986135
1287.0,0.22504531091986135
1286.0,0.2252641174482466
1285.0,0.22548303427145044
1284.0,0.22562904015008334
1283.0,0.2258481410452895
1282.0,0.22606735253235488
1281.0,0.22621355501880647
1280.0,0.22628667472297836
1279.0,0.22643295107394135
1278.0,0.22650610772902935
1277.0,0.22650610772902935
1276.0,0.22657927670938993
1275.0,0.22657927670938993
1274.0,0.2267256516625462
1273.0,0.22687207596666514
1272.0,0.22709180502872828
1271.0,0.22716507276098175
1270.0,0.22723835285596783
1269.0,0.22738495015082916
1268.0,0.22767829327708022
1267.0,0.2278984307229881
1266.0,0.22811867980990108
1265.0,0.22811867980990108
1264.0,0.22811867980990108
1263.0,0.22819212100089437
1262.0,0.22819212100089437
1261.0,0.2280452510360509
1260.0,0.2278984307229881
1259.0,0.2277516600281464
1258.0,0.2277516600281464
1257.0,0.2278984307229881
1256.0,0.2280452510360509
1255.0,0.22811867980990108
1254.0,0.22811867980990108
1253.0,0.2280452510360509
1252.0,0.22797183467514515
1251.0,0.2278984307229881
1250.0,0.2278984307229881
1249.0,0.22797183467514515
1248.0,0.22819212100089437
1247.0,0.22855951336008817
1246.0,0.22885365118501477
1245.0,0.2290743853610009
1244.0,0.2290743853610009
1243.0,0.22885365118501477
1242.0,0.22855951336008817
1241.0,0.22833904065111255
1240.0,0.22833904065111255
1239.0,0.22848601002033342
1238.0,0.2286330291422194
1237.0,0.22855951336008817
1236.0,0.22841251911874472
1235.0,0.22819212100089437
1234.0,0.22819212100089437
1233.0,0.22819212100089437
1232.0,0.22819212100089437
1231.0,0.22819212100089437
1230.0,0.22819212100089437
1229.0,0.22819212100089437
1228.0,0.22826557461323072
1227.0,0.22826557461323072
1226.0,0.22811867980990108
1225.0,0.2278984307229881
1224.0,0.22767829327708022
1223.0,0.2274582673590566
1222.0,0.2274582673590566
1221.0,0.22753159694671954
1220.0,0.2277516600281464
1219.0,0.2280452510360509
1218.0,0.22819212100089437
1217.0,0.22826557461323072
1216.0,0.22819212100089437
1215.0,0.22811867980990108
1214.0,0.22811867980990108
1213.0,0.22819212100089437
1212.0,0.22833904065111255
1211.0,0.22855951336008817
1210.0,0.2286330291422194
1209.0,0.22855951336008817
1208.0,0.22848601002033342
1207.0,0.22848601002033342
1206.0,0.22870655737094037
1205.0,0.22892721677880523
1204.0,0.22922160383085233
1203.0,0.22944252514900487
1202.0,0.22951619056889205
1201.0,0.22958986848609375
1200.0,0.22951619056889205
1199.0,0.22951619056889205
1198.0,0.22944252514900487
1197.0,0.22944252514900487
1196.0,0.22944252514900487
1195.0,0.22936887222219338
1194.0,0.22922160383085233
1193.0,0.22914798835785577
1192.0,0.22914798835785577
1191.0,0.22929523178422073
1190.0,0.22951619056889205
1189.0,0.2296635589048508
1188.0,0.2296635589048508
1187.0,0.22973726182940668
1186.0,0.2298847052128985
1185.0,0.2299584456803314
1184.0,0.23003219867055757
1183.0,0.23003219867055757
1182.0,0.23003219867055757
1181.0,0.23003219867055757
1180.0,0.23003219867055757
1179.0,0.2301059641878309
1178.0,0.2303273359445075
1177.0,0.2306965398109182
1176.0,0.23099212905622624
1175.0,0.23113999915704286
1174.0,0.23106605781321843
1173.0,0.23099212905622624
1172.0,0.23106605781321843
1171.0,0.23128791962233652
1170.0,0.23173198354845193
1169.0,0.23202827861838116
1168.0,0.23195418589758332
1167.0,0.23173198354845193
1166.0,0.23150989482875484
1165.0,0.23136189875238555
1164.0,0.23128791962233652
1163.0,0.23128791962233652
1162.0,0.23128791962233652
1161.0,0.23128791962233652
1160.0,0.23143589048642665
1159.0,0.23158391178366822
1158.0,0.23158391178366822
1157.0,0.23143589048642665
1156.0,0.23128791962233652
1155.0,0.23106605781321843
1154.0,0.23099212905622624
1153.0,0.23091821288178105
1152.0,0.23091821288178105
1151.0,0.23106605781321843
1150.0,0.2312139530919859
1149.0,0.23136189875238555
1148.0,0.23136189875238555
1147.0,0.2312139530919859
1146.0,0.2312139530919859
1145.0,0.2312139530919859
1144.0,0.23128791962233652
1143.0,0.23128791962233652
1142.0,0.23128791962233652
1141.0,0.23128791962233652
1140.0,0.23136189875238555
1139.0,0.23136189875238555
1138.0,0.23128791962233652
1137.0,0.23128791962233652
1136.0,0.2312139530919859
1135.0,0.23113999915704286
1134.0,0.23113999915704286
1133.0,0.23106605781321843
1132.0,0.23084430928560118
1131.0,0.2306226739238615
1130.0,0.23040115161255348
1129.0,0.23040115161255348
1128.0,0.2306226739238615
1127.0,0.23091821288178105
1126.0,0.2312139530919859
1125.0,0.23136189875238555
1124.0,0.23136189875238555
1123.0,0.23136189875238555
1122.0,0.23128791962233652
1121.0,0.2312139530919859
1120.0,0.23128791962233652
1119.0,0.23158391178366822
1118.0,0.23173198354845193
1117.0,0.23173198354845193
1116.0,0.23158391178366822
1115.0,0.23136189875238555
1114.0,0.2312139530919859
1113.0,0.23113999915704286
1112.0,0.2312139530919859
1111.0,0.2312139530919859
1110.0,0.23113999915704286
1109.0,0.23091821288178105
1108.0,0.2306226739238615
1107.0,0.23040115161255348
1106.0,0.2301797422364078
1105.0,0.2299584456803314
1104.0,0.2298847052128985
1103.0,0.2298847052128985
1102.0,0.23003219867055757
1101.0,0.2301797422364078
1100.0,0.2302535328205466
1099.0,0.2303273359445075
1098.0,0.2304749798289496
1097.0,0.2306226739238615
1096.0,0.23084430928560118
1095.0,0.23099212905622624
1094.0,0.23099212905622624
1093.0,0.2306965398109182
1092.0,0.2303273359445075
1091.0,0.2298847052128985
1090.0,0.22958986848609375
1089.0,0.22922160383085233
1088.0,0.22885365118501477
1087.0,0.22833904065111255
1086.0,0.2277516600281464
1085.0,0.22723835285596783
1084.0,0.2267988576436557
1083.0,0.22665245801917688
1082.0,0.22657927670938993
1081.0,0.22643295107394135
1080.0,0.22606735253235488
1079.0,0.22570206150072258
1078.0,0.2254100497352054
1077.0,0.22504531091986135
1076.0,0.22475374025976347
1075.0,0.2246808781705225
1074.0,0.22489950112097512
1073.0,0.22533707746217768
1072.0,0.2258481410452895
1071.0,0.22621355501880647
1070.0,0.22621355501880647
1069.0,0.22577509513108107
1068.0,0.2251182341812037
1067.0,0.224608028303388
1066.0,0.2246808781705225
1065.0,0.2252641174482466
1064.0,0.2261404476233131
1063.0,0.22694530663573742
1062.0,0.2274582673590566
1061.0,0.22767829327708022
1060.0,0.2274582673590566
1059.0,0.22716507276098175
1058.0,0.22694530663573742
1057.0,0.22687207596666514
1056.0,0.22687207596666514
1055.0,0.2267988576436557
1054.0,0.22665245801917688
1053.0,0.22643295107394135
1052.0,0.22643295107394135
1051.0,0.2267988576436557
1050.0,0.22731164531785852
1049.0,0.22782503917538577
1048.0,0.22819212100089437
1047.0,0.22841251911874472
1046.0,0.2287800980504664
1045.0,0.22922160383085233
1044.0,0.22973726182940668
1043.0,0.2303273359445075
1042.0,0.23091821288178105
1041.0,0.23136189875238555
1040.0,0.23158391178366822
1039.0,0.23173198354845193
1038.0,0.23202827861838116
1037.0,0.23254728190222673
1036.0,0.23328979273774086
1035.0,0.2341080235699846
1034.0,0.23500240071511946
1033.0,0.23574912456122687
1032.0,0.23627259623430175
1031.0,0.2363474294354697
1030.0,0.2361229685043451
1029.0,0.23574912456122687
1028.0,0.23552497256559102
1027.0,0.23559967704361195
1026.0,0.23597339230796277
1025.0,0.23649713453240295
1024.0,0.23702150913225695
1023.0,0.23732143627256375
1022.0,0.2376215706880358
1021.0,0.2377717157135255
1020.0,0.23784680769640532
1019.0,0.23799703062488464
1018.0,0.23814730553361696
1017.0,0.23837281543841726
1016.0,0.23852322045529828
1015.0,0.23859844250136897
1014.0,0.2386736775785434
1013.0,0.23882418684426865
1012.0,0.23905004858910273
1011.0,0.23927602785804836
1010.0,0.2393513804186438
1009.0,0.23942674605560588
1008.0,0.2395021247734732
1007.0,0.2395021247734732
1006.0,0.23942674605560588
1005.0,0.2393513804186438
1004.0,0.23927602785804836
1003.0,0.2391253619478111
1002.0,0.23905004858910273
1001.0,0.2389747482886273
1000.0,0.23889946104185777
999.0,0.23874892569133732
998.0,0.23859844250136897
997.0,0.23844801143581806
996.0,0.23837281543841726
995.0,0.23837281543841726
994.0,0.23829763245858726
993.0,0.23829763245858726
992.0,0.23844801143581806
991.0,0.2386736775785434
990.0,0.23874892569133732
989.0,0.23859844250136897
988.0,0.23844801143581806
987.0,0.23829763245858726
986.0,0.23822246249182188
985.0,0.23822246249182188
984.0,0.23822246249182188
983.0,0.23829763245858726
982.0,0.23844801143581806
981.0,0.23859844250136897
980.0,0.2386736775785434
979.0,0.23882418684426865
978.0,0.23889946104185777
977.0,0.2391253619478111
976.0,0.2393513804186438
975.0,0.23957751657678794
974.0,0.23957751657678794
973.0,0.23942674605560588
972.0,0.2391253619478111
971.0,0.2389747482886273
970.0,0.23889946104185777
969.0,0.2389747482886273
968.0,0.23920068836928232
967.0,0.2395021247734732
966.0,0.2398037705448659
965.0,0.2399546720341894
964.0,0.2401056259745007
963.0,0.2401056259745007
962.0,0.2401056259745007
961.0,0.2399546720341894
960.0,0.23965292147009354
959.0,0.2393513804186438
958.0,0.2391253619478111
957.0,0.23889946104185777
956.0,0.23874892569133732
955.0,0.23874892569133732
954.0,0.23874892569133732
953.0,0.23882418684426865
952.0,0.23874892569133732
951.0,0.23852322045529828
950.0,0.23837281543841726
949.0,0.23829763245858726
948.0,0.23844801143581806
947.0,0.23859844250136897
946.0,0.23889946104185777
945.0,0.23927602785804836
944.0,0.23942674605560588
943.0,0.2393513804186438
942.0,0.23905004858910273
941.0,0.23874892569133732
940.0,0.2386736775785434
939.0,0.2386736775785434
938.0,0.23874892569133732
937.0,0.23889946104185777
936.0,0.2393513804186438
935.0,0.2398037705448659
934.0,0.2401056259745007
933.0,0.2401056259745007
932.0,0.2399546720341894
931.0,0.23987921473543228
930.0,0.2397283394579368
929.0,0.23957751657678794
928.0,0.23927602785804836
927.0,0.2389747482886273
926.0,0.23882418684426865
925.0,0.23874892569133732
924.0,0.23889946104185777
923.0,0.23905004858910273
922.0,0.2393513804186438
921.0,0.2398037705448659
920.0,0.24003014244569276
919.0,0.2399546720341894
918.0,0.23965292147009354
917.0,0.2393513804186438
916.0,0.23920068836928232
915.0,0.2391253619478111
914.0,0.2389747482886273
913.0,0.23874892569133732
912.0,0.23859844250136897
911.0,0.23852322045529828
910.0,0.23844801143581806
909.0,0.23837281543841726
908.0,0.23844801143581806
907.0,0.23859844250136897
906.0,0.23874892569133732
905.0,0.23874892569133732
904.0,0.2386736775785434
903.0,0.23852322045529828
902.0,0.23837281543841726
901.0,0.23837281543841726
900.0,0.23844801143581806
899.0,0.2386736775785434
898.0,0.23889946104185777
897.0,0.2389747482886273
896.0,0.23889946104185777
895.0,0.23874892569133732
894.0,0.23882418684426865
893.0,0.2389747482886273
892.0,0.23927602785804836
891.0,0.2395021247734732
890.0,0.23965292147009354
889.0,0.23957751657678794
888.0,0.2395021247734732
887.0,0.23942674605560588
886.0,0.2395021247734732
885.0,0.23957751657678794
884.0,0.23957751657678794
883.0,0.23965292147009354
882.0,0.23957751657678794
881.0,0.23957751657678794
880.0,0.2397283394579368
879.0,0.2401056259745007
878.0,0.24063437834407142
877.0,0.24116377525304178
876.0,0.2415423113895343
875.0,0.24169381827469305
874.0,0.24169381827469305
873.0,0.2415423113895343
872.0,0.2412394560900204
871.0,0.24078556876575608
870.0,0.24055880286630238
869.0,0.24063437834407142
868.0,0.24108810760202637
867.0,0.24161805822532467
866.0,0.2420728168866706
865.0,0.24222450898807435
864.0,0.24214865631442017
863.0,0.24199699070020086
862.0,0.24169381827469305
861.0,0.2414665777627134
860.0,0.24139085734025634
859.0,0.24139085734025634
858.0,0.2414665777627134
857.0,0.24139085734025634
856.0,0.24139085734025634
855.0,0.2414665777627134
854.0,0.24184537803260997
853.0,0.2420728168866706
852.0,0.2420728168866706
851.0,0.24176959154225042
850.0,0.24161805822532467
849.0,0.24169381827469305
848.0,0.24192117775038735
847.0,0.2420728168866706
846.0,0.24214865631442017
845.0,0.2423003749122612
844.0,0.24252805223433205
843.0,0.24252805223433205
842.0,0.242376254091611
841.0,0.24245214653075609
840.0,0.24275584897802993
839.0,0.24313577593945102
838.0,0.243439956993317
837.0,0.24374435124576666
836.0,0.2440489589958681
835.0,0.24420134302616936
834.0,0.2440489589958681
833.0,0.24382048315619098
832.0,0.24382048315619098
831.0,0.24412514432750854
830.0,0.2445062715848807
829.0,0.24458253718906375
828.0,0.24443001937120012
827.0,0.2440489589958681
826.0,0.24382048315619098
825.0,0.24382048315619098
824.0,0.2439727870265589
823.0,0.24420134302616936
822.0,0.24435378054332002
821.0,0.24465881618845242
820.0,0.24519314464557662
819.0,0.24595761321456378
818.0,0.24641694110709333
817.0,0.24664678735850387
816.0,0.2467234298155816
815.0,0.2465701584245772
814.0,0.24626377782498987
813.0,0.24580461181016156
812.0,0.2453459307445678
811.0,0.2450404122782901
810.0,0.2450404122782901
809.0,0.24526953097624649
808.0,0.24572813131654092
807.0,0.2461106685401666
806.0,0.24634035271400134
805.0,0.24664678735850387
804.0,0.24695343837347083
803.0,0.24733705687902807
802.0,0.24741382125959088
801.0,0.24710684511540615
800.0,0.24664678735850387
799.0,0.24618721643529784
798.0,0.2461106685401666
797.0,0.24626377782498987
796.0,0.24664678735850387
795.0,0.24695343837347083
794.0,0.24726030606467186
793.0,0.24756739073852607
792.0,0.24779784682347894
791.0,0.24779784682347894
790.0,0.24764419584649922
789.0,0.24733705687902807
788.0,0.24710684511540615
787.0,0.24710684511540615
786.0,0.24726030606467186
785.0,0.24741382125959088
784.0,0.24756739073852607
783.0,0.24756739073852607
782.0,0.24733705687902807
781.0,0.24710684511540615
780.0,0.24695343837347083
779.0,0.24664678735850387
778.0,0.2461106685401666
777.0,0.2453459307445678
776.0,0.24473510858775338
775.0,0.24443001937120012
774.0,0.24443001937120012
773.0,0.2448114143916751
772.0,0.24526953097624649
771.0,0.2454987706130829
770.0,0.24542234395526963
769.0,0.24511677174783242
768.0,0.24488773360492888
767.0,0.24458253718906375
766.0,0.24420134302616936
765.0,0.24382048315619098
764.0,0.24359212745104175
763.0,0.24374435124576666
762.0,0.24389662841489446
761.0,0.24382048315619098
760.0,0.243439956993317
759.0,0.24313577593945102
758.0,0.24321180123188202
757.0,0.24366823267894233
756.0,0.24420134302616936
755.0,0.24427755509654192
754.0,0.24374435124576666
753.0,0.2429077798810675
752.0,0.2420728168866706
751.0,0.241315150117559
750.0,0.24055880286630238
749.0,0.23987921473543228
748.0,0.23905004858910273
747.0,0.23799703062488464
746.0,0.23709647150094293
745.0,0.23679669962922834
744.0,0.23724643506662613
743.0,0.23754651763645307
742.0,0.23702150913225695
741.0,0.23545028093553277
740.0,0.23336411368973242
739.0,0.23128791962233652
738.0,0.22914798835785577
737.0,0.22687207596666514
736.0,0.22409842110832567
735.0,0.22119779598676126
734.0,0.2196826878598488
733.0,0.22206595116222072
732.0,0.2301797422364078
731.0,0.2429077798810675
730.0,0.2562551214075388
729.0,0.2654401784205238
728.0,0.26833066817136375
727.0,0.26640153903866093
726.0,0.2620126736665691
725.0,0.2571963415308345
724.0,0.25328797748333964
723.0,0.2519671058698565
722.0,0.2555505425532014
721.0,0.2658404867555333
720.0,0.28216313251307445
719.0,0.30024896831048564
718.0,0.3149752148942859
717.0,0.3237637832366884
716.0,0.32679471822095474
715.0,0.3250470519514348
714.0,0.3196644865854368
713.0,0.3123818704282302
712.0,0.304781081094849
711.0,0.2977418368379059
710.0,0.2915790998652872
709.0,0.2868455981627016
708.0,0.2839966563652008
707.0,0.28249592523579814
706.0,0.28149831113272583
705.0,0.28042014228627665
704.0,0.2794272796357391
703.0,0.2787666299827225
702.0,0.27769521312567225
701.0,0.27605202356835656
700.0,0.2740883677049517
699.0,0.272214825817094
698.0,0.27075419277469326
697.0,0.26978315943130604
696.0,0.26937920211271726
695.0,0.2692984557181548
694.0,0.2690563065722642
693.0,0.2684918164039747
692.0,0.2676062401770314
691.0,0.2669633170664205
690.0,0.26648174856551243
689.0,0.2658404867555333
688.0,0.26520017041115307
687.0,0.26464066699828925
686.0,0.26432127409409545
685.0,0.2639223629960543
684.0,0.26312563835157743
683.0,0.2618539112879401
682.0,0.2604276555499081
681.0,0.25940048718884356
680.0,0.25900606841511387
679.0,0.2587695889745292
678.0,0.2584544832237907
677.0,0.2585332382302452
676.0,0.259321574772545
675.0,0.2605067692183851
674.0,0.2609025538825249
673.0,0.26011134491545684
672.0,0.2590849235187176
671.0,0.2586907911004306
670.0,0.25884840114821506
669.0,0.2586907911004306
668.0,0.2571178285627269
667.0,0.2560984495148211
666.0,0.2577463300934064
665.0,0.259321574772545
664.0,0.2596373105057561
663.0,0.26003230324049054
662.0,0.26058589730130466
661.0,0.26034855629062315
660.0,0.25884840114821506
659.0,0.25641184984009624
658.0,0.2539888922480742
657.0,0.2522775379644915
656.0,0.2511919950413979
655.0,0.25026368443093894
654.0,0.2487208960166578
653.0,0.24710684511540615
652.0,0.24641694110709333
651.0,0.2465701584245772
650.0,0.24634035271400134
649.0,0.24519314464557662
648.0,0.24435378054332002
647.0,0.24565166428898122
646.0,0.24918315735024543
645.0,0.2536772349100471
644.0,0.2571178285627269
643.0,0.25798225285986165
642.0,0.2562551214075388
641.0,0.25359935550843904
640.0,0.25266589038409504
639.0,0.2546128786799913
638.0,0.2584544832237907
637.0,0.26288690569403883
636.0,0.2675258227188064
635.0,0.272214825817094
634.0,0.27523275435368966
633.0,0.2740883677049517
632.0,0.26970233790285025
631.0,0.264880365918128
630.0,0.26145725907121475
629.0,0.259321574772545
628.0,0.25758911941950746
627.0,0.25570701687732367
626.0,0.2536772349100471
625.0,0.2521222941802099
624.0,0.25188953250501633
623.0,0.25297682254837217
622.0,0.25391095694379984
621.0,0.25313237214957063
620.0,0.25134690657573255
619.0,0.25041826513444065
618.0,0.2516568955124505
617.0,0.25375512827980184
616.0,0.2548471049230996
615.0,0.2546909400591719
614.0,0.25422278211024096
613.0,0.2539888922480742
612.0,0.2539888922480742
611.0,0.25352149006996894
610.0,0.2522775379644915
609.0,0.25018641470706227
608.0,0.24848994972995864
607.0,0.2487208960166578
606.0,0.2509597312965428
605.0,0.25297682254837217
604.0,0.252432837262375
603.0,0.2494144726589913
602.0,0.24695343837347083
601.0,0.24703013497091586
600.0,0.24879790541164692
