cm-1,A
4000.0,0.03437503289075727
3999.0,0.03442204208947208
3998.0,0.03442204208947208
3997.0,0.034469056377139484
3996.0,0.034516075754861264
3995.0,0.03456310022373987
3994.0,0.03437503289075727
3993.0,0.034187046963396917
3992.0,0.03409308450480819
3991.0,0.03409308450480819
3990.0,0.034187046963396917
3989.0,0.03428102975577918
3988.0,0.03428102975577918
3987.0,0.03423403581731388
3986.0,0.03414006319292828
3985.0,0.03409308450480819
3984.0,0.034046110897937076
3983.0,0.03409308450480819
3982.0,0.03414006319292828
3981.0,0.034187046963396917
3980.0,0.034187046963396917
3979.0,0.03409308450480819
3978.0,0.034046110897937076
3977.0,0.033952178923546183
3976.0,0.033952178923546183
3975.0,0.03399914237121604
3974.0,0.03409308450480819
3973.0,0.034187046963396917
3972.0,0.034187046963396917
3971.0,0.03414006319292828
3970.0,0.034046110897937076
3969.0,0.03399914237121604
3968.0,0.033952178923546183
3967.0,0.033952178923546183
3966.0,0.033952178923546183
3965.0,0.034046110897937076
3964.0,0.03414006319292828
3963.0,0.03428102975577918
3962.0,0.03442204208947208
3961.0,0.03442204208947208
3960.0,0.03432802877989327
3959.0,0.03423403581731388
3958.0,0.03414006319292828
3957.0,0.03409308450480819
3956.0,0.034046110897937076
3955.0,0.03399914237121604
3954.0,0.033952178923546183
3953.0,0.033905220553829274
3952.0,0.0338113190438627
3951.0,0.03367050483612166
3950.0,0.033482823553208085
3949.0,0.033295223342125535
3948.0,0.033154576345083564
3947.0,0.03310770413286357
3946.0,0.03310770413286357
3945.0,0.0332483359486222
3944.0,0.03352973627071565
3943.0,0.0338113190438627
3942.0,0.03399914237121604
3941.0,0.034046110897937076
3940.0,0.034046110897937076
3939.0,0.03423403581731388
3938.0,0.034469056377139484
3937.0,0.034469056377139484
3936.0,0.034187046963396917
3935.0,0.0338113190438627
3934.0,0.03362357691107709
3933.0,0.03362357691107709
3932.0,0.03367050483612166
3931.0,0.03371743783253667
3930.0,0.03371743783253667
3929.0,0.03367050483612166
3928.0,0.03352973627071565
3927.0,0.03343591590268957
3926.0,0.03343591590268957
3925.0,0.033482823553208085
3924.0,0.03343591590268957
3923.0,0.03334211579824231
3922.0,0.03338901331806565
3921.0,0.03367050483612166
3920.0,0.03399914237121604
3919.0,0.03414006319292828
3918.0,0.03423403581731388
3917.0,0.03437503289075727
3916.0,0.034516075754861264
3915.0,0.034469056377139484
3914.0,0.034469056377139484
3913.0,0.03456310022373987
3912.0,0.03479829897408804
3911.0,0.0349394793888016
3910.0,0.0349394793888016
3909.0,0.03470420418834386
3908.0,0.03432802877989327
3907.0,0.033905220553829274
3906.0,0.033482823553208085
3905.0,0.033201453616638954
3904.0,0.03301397488206215
3903.0,0.032873418923587305
3902.0,0.03282657704446046
3901.0,0.033154576345083564
3900.0,0.033952178923546183
3899.0,0.03461012978487776
3898.0,0.03470420418834386
3897.0,0.034469056377139484
3896.0,0.03428102975577918
3895.0,0.03432802877989327
3894.0,0.03442204208947208
3893.0,0.034469056377139484
3892.0,0.03470420418834386
3891.0,0.03498654972775217
3890.0,0.03479829897408804
3889.0,0.03414006319292828
3888.0,0.033905220553829274
3887.0,0.03442204208947208
3886.0,0.03512779136222477
3885.0,0.03522197797762394
3884.0,0.03442204208947208
3883.0,0.03343591590268957
3882.0,0.033201453616638954
3881.0,0.03367050483612166
3880.0,0.034187046963396917
3879.0,0.034187046963396917
3878.0,0.03376437590141812
3877.0,0.03357665405630694
3876.0,0.033905220553829274
3875.0,0.03423403581731388
3874.0,0.03399914237121604
3873.0,0.0332483359486222
3872.0,0.03263926003405038
3871.0,0.032873418923587305
3870.0,0.0338113190438627
3869.0,0.03428102975577918
3868.0,0.03371743783253667
3867.0,0.033060836978886954
3866.0,0.03334211579824231
3865.0,0.033905220553829274
3864.0,0.03399914237121604
3863.0,0.03376437590141812
3862.0,0.03367050483612166
3861.0,0.0338113190438627
3860.0,0.033905220553829274
3859.0,0.03376437590141812
3858.0,0.03338901331806565
3857.0,0.03277974021703267
3856.0,0.03207779326948268
3855.0,0.03142366482450232
3854.0,0.03133029827960798
3853.0,0.032031037121307726
3852.0,0.032686081712916426
3851.0,0.03249882527715853
3850.0,0.033060836978886954
3849.0,0.03465716443937783
3848.0,0.035740369803151095
3847.0,0.03592902944204468
3846.0,0.035693217696063595
3845.0,0.03541041251009669
3844.0,0.03508070571335731
3843.0,0.034516075754861264
3842.0,0.03376437590141812
3841.0,0.03301397488206215
3840.0,0.03263926003405038
3839.0,0.032873418923587305
3838.0,0.03343591590268957
3837.0,0.033952178923546183
3836.0,0.03414006319292828
3835.0,0.03409308450480819
3834.0,0.034187046963396917
3833.0,0.03442204208947208
3832.0,0.03456310022373987
3831.0,0.03456310022373987
3830.0,0.03432802877989327
3829.0,0.03423403581731388
3828.0,0.034469056377139484
3827.0,0.03484535401307465
3826.0,0.03489241415094413
3825.0,0.03432802877989327
3824.0,0.033482823553208085
3823.0,0.033154576345083564
3822.0,0.03362357691107709
3821.0,0.03442204208947208
3820.0,0.03475124903287918
3819.0,0.03414006319292828
3818.0,0.03385826726096752
3817.0,0.03475124903287918
3816.0,0.03588185684851508
3815.0,0.0360705779734416
3814.0,0.03541041251009669
3813.0,0.0349394793888016
3812.0,0.03531618502395939
3811.0,0.035740369803151095
3810.0,0.03559892883726867
3809.0,0.035363296211498474
3808.0,0.03559892883726867
3807.0,0.03621217265444465
3806.0,0.03625938114211591
3805.0,0.03526907894637077
3804.0,0.03423403581731388
3803.0,0.03414006319292828
3802.0,0.03470420418834386
3801.0,0.03508070571335731
3800.0,0.03470420418834386
3799.0,0.0338113190438627
3798.0,0.03385826726096752
3797.0,0.03484535401307465
3796.0,0.035646070707806565
3795.0,0.03583468937826462
3794.0,0.035740369803151095
3793.0,0.03588185684851508
3792.0,0.03625938114211591
3791.0,0.03649550058570927
3790.0,0.03649550058570927
3789.0,0.03630659476198117
3788.0,0.03602339000339416
3787.0,0.035693217696063595
3786.0,0.03550466044490741
3785.0,0.03545753392086315
3784.0,0.03550466044490741
3783.0,0.03541041251009669
3782.0,0.03526907894637077
3781.0,0.03541041251009669
3780.0,0.035693217696063595
3779.0,0.03597620715996652
3778.0,0.03597620715996652
3777.0,0.03578752703018084
3776.0,0.03583468937826462
3775.0,0.0360705779734416
3774.0,0.036117771071222604
3773.0,0.03583468937826462
3772.0,0.03555179208333925
3771.0,0.03559892883726867
3770.0,0.03592902944204468
3769.0,0.03597620715996652
3768.0,0.035646070707806565
3767.0,0.03541041251009669
3766.0,0.035646070707806565
3765.0,0.03602339000339416
3764.0,0.0360705779734416
3763.0,0.035740369803151095
3762.0,0.03555179208333925
3761.0,0.03555179208333925
3760.0,0.03545753392086315
3759.0,0.03517488211661135
3758.0,0.0349394793888016
3757.0,0.03479829897408804
3756.0,0.03456310022373987
3755.0,0.03423403581731388
3754.0,0.034046110897937076
3753.0,0.0338113190438627
3752.0,0.03343591590268957
3751.0,0.03310770413286357
3750.0,0.033154576345083564
3749.0,0.03310770413286357
3748.0,0.032686081712916426
3747.0,0.03263926003405038
3746.0,0.03357665405630694
3745.0,0.03508070571335731
3744.0,0.03616496929785207
3743.0,0.03588185684851508
3742.0,0.03465716443937783
3741.0,0.03432802877989327
3740.0,0.03489241415094413
3739.0,0.03475124903287918
3738.0,0.033952178923546183
3737.0,0.03334211579824231
3736.0,0.033295223342125535
3735.0,0.03343591590268957
3734.0,0.03352973627071565
3733.0,0.03367050483612166
3732.0,0.03414006319292828
3731.0,0.03461012978487776
3730.0,0.03470420418834386
3729.0,0.03475124903287918
3728.0,0.03508070571335731
3727.0,0.03541041251009669
3726.0,0.03541041251009669
3725.0,0.03498654972775217
3724.0,0.03456310022373987
3723.0,0.03432802877989327
3722.0,0.03432802877989327
3721.0,0.03442204208947208
3720.0,0.03470420418834386
3719.0,0.03517488211661135
3718.0,0.03559892883726867
3717.0,0.035693217696063595
3716.0,0.03541041251009669
3715.0,0.03498654972775217
3714.0,0.03479829897408804
3713.0,0.03489241415094413
3712.0,0.03517488211661135
3711.0,0.035646070707806565
3710.0,0.03597620715996652
3709.0,0.0360705779734416
3708.0,0.03616496929785207
3707.0,0.03644826642590382
3706.0,0.036731748473764814
3705.0,0.03682628362474838
3704.0,0.036731748473764814
3703.0,0.03663723389626394
3702.0,0.03668448861388862
3701.0,0.036731748473764814
3700.0,0.03668448861388862
3699.0,0.03668448861388862
3698.0,0.03692083935817303
3697.0,0.037251946641359446
3696.0,0.037251946641359446
3695.0,0.036873558918095295
3694.0,0.03630659476198117
3693.0,0.03578752703018084
3692.0,0.035363296211498474
3691.0,0.03503362516890207
3690.0,0.03512779136222477
3689.0,0.035693217696063595
3688.0,0.03621217265444465
3687.0,0.03625938114211591
3686.0,0.03625938114211591
3685.0,0.036873558918095295
3684.0,0.03772539537668518
3683.0,0.038151940981675736
3682.0,0.03796231343498735
3681.0,0.03753595394209874
3680.0,0.037062711569998186
3679.0,0.03635381351515665
3678.0,0.03555179208333925
3677.0,0.03517488211661135
3676.0,0.035693217696063595
3675.0,0.036542739883292485
3674.0,0.03649550058570927
3673.0,0.03555179208333925
3672.0,0.03559892883726867
3671.0,0.03658998431977123
3670.0,0.03739392707587297
3669.0,0.03777276864991497
3668.0,0.03786753070176463
3667.0,0.038199360808321536
3666.0,0.03910132267333921
3665.0,0.03995754427315856
3664.0,0.0402909757535701
3663.0,0.04014804520039483
3662.0,0.03986232513620536
3661.0,0.03957679292217042
3660.0,0.03929144831144349
3659.0,0.03905380426616856
3658.0,0.03910132267333921
3657.0,0.03952922246570112
3656.0,0.03995754427315856
3655.0,0.039909932095080425
3654.0,0.03919637508823026
3653.0,0.038436537637930535
3652.0,0.03791491948264003
3651.0,0.037346595106788616
3650.0,0.036731748473764814
3649.0,0.03682628362474838
3648.0,0.03753595394209874
3647.0,0.03796231343498735
3646.0,0.038199360808321536
3645.0,0.03862637240519895
3644.0,0.03929144831144349
3643.0,0.03995754427315856
3642.0,0.04038628892895613
3641.0,0.04057697805689475
3640.0,0.04076775094900409
3639.0,0.040958607678906356
3638.0,0.041006334969674096
3637.0,0.04076775094900409
3636.0,0.04038628892895613
3635.0,0.04010041213405646
3634.0,0.03995754427315856
3633.0,0.039767126871487646
3632.0,0.03929144831144349
3631.0,0.038911280232103884
3630.0,0.038721320914956836
3629.0,0.038911280232103884
3628.0,0.03938654235209116
3627.0,0.03952922246570112
3626.0,0.039767126871487646
3625.0,0.04057697805689475
3624.0,0.04124505013091051
3623.0,0.041149548320321694
3622.0,0.04057697805689475
3621.0,0.0400527842915015
3620.0,0.03981472339538916
3619.0,0.03981472339538916
3618.0,0.03986232513620536
3617.0,0.03981472339538916
3616.0,0.039909932095080425
3615.0,0.04019568349166214
3614.0,0.04043395336207234
3613.0,0.04043395336207234
3612.0,0.040338629726504704
3611.0,0.04043395336207234
3610.0,0.04086316882962593
3609.0,0.041579471947481794
3608.0,0.042201225070002124
3607.0,0.04244059810252043
3606.0,0.04244059810252043
3605.0,0.042392712939904875
3604.0,0.04244059810252043
3603.0,0.04253638427006878
3602.0,0.04253638427006878
3601.0,0.04253638427006878
3600.0,0.04253638427006878
3599.0,0.042584285277331047
3598.0,0.04263219156847242
3597.0,0.04272802000705722
3596.0,0.04282386959515394
3595.0,0.04291974034210022
3594.0,0.043063586155803746
3593.0,0.04320747962950522
3592.0,0.043303435105349175
3591.0,0.04339941178682327
3590.0,0.0433514207947967
3589.0,0.043303435105349175
3588.0,0.043303435105349175
3587.0,0.04363944632667782
3586.0,0.04402377775167454
3585.0,0.04426415772233416
3584.0,0.04460091336073302
3583.0,0.04508244626504121
3582.0,0.045516282844447975
3581.0,0.04575749056067524
3580.0,0.04599883231842972
3579.0,0.046192002334692894
3578.0,0.04633693625290869
3577.0,0.046481918555007384
3576.0,0.04653025674659861
3575.0,0.04653025674659861
3574.0,0.04653025674659861
3573.0,0.046481918555007384
3572.0,0.04638525830935958
3571.0,0.04628861957244457
3570.0,0.04609540658654021
3569.0,0.045902279520810385
3568.0,0.04575749056067524
3567.0,0.04580574818413763
3566.0,0.04595055323640551
3565.0,0.046143701775014145
3564.0,0.04643358574299339
3563.0,0.047062332249019345
3562.0,0.04774046340917959
3561.0,0.04817696468408794
3560.0,0.04837110616336182
3559.0,0.04832256265669943
3558.0,0.04832256265669943
3557.0,0.048468209457651845
3556.0,0.048808242065293994
3555.0,0.049148541111453614
3554.0,0.04939177521576932
3553.0,0.04953778109440221
3552.0,0.04963514562387683
3551.0,0.04968383607539972
3550.0,0.04973253198641148
3549.0,0.04982994019179987
3548.0,0.04997609347667353
3547.0,0.05012229596312534
3546.0,0.05026854768429301
3545.0,0.050414848673348
3544.0,0.05056119896349576
3543.0,0.050707598587974356
3542.0,0.05100054597304693
3541.0,0.05144033789103841
3540.0,0.05192951848105887
3539.0,0.05232126006306337
3538.0,0.05261529831525902
3537.0,0.05271335532220167
3536.0,0.05266432405126009
3535.0,0.0525172634430815
3534.0,0.052468254304406825
3533.0,0.05266432405126009
3532.0,0.05295859474477971
3531.0,0.05325306496641513
3530.0,0.053449489430144714
3529.0,0.0534986094304124
3528.0,0.0534986094304124
3527.0,0.0534986094304124
3526.0,0.053596866100945384
3525.0,0.053842605077627725
3524.0,0.054186873412661596
3523.0,0.05453141486818014
3522.0,0.054728418492290265
3521.0,0.05482695382609992
3520.0,0.05507339001378431
3519.0,0.05551732784983132
3518.0,0.05610995175152733
3517.0,0.05660442349104544
3516.0,0.056950888991593285
3515.0,0.0571489934456626
3514.0,0.057198533682059516
3513.0,0.057396751157843484
3512.0,0.057743849580535134
3511.0,0.05824018618530458
3510.0,0.05863766428823891
3509.0,0.058786812414678646
3508.0,0.058737090681050264
3507.0,0.058538260652670315
3506.0,0.05848856736559682
3505.0,0.05858795962645047
3504.0,0.058737090681050264
3503.0,0.0588862729628985
3502.0,0.05898575629443026
3501.0,0.05898575629443026
3500.0,0.059035506507200575
3499.0,0.05923456436878238
3498.0,0.05953332233647113
3497.0,0.05988213325228142
3496.0,0.0601813371786204
3495.0,0.06038092104330195
3494.0,0.06048074738138154
3493.0,0.06058059667068294
3492.0,0.06068046892176193
3491.0,0.060730413661268745
3490.0,0.06083032037482261
3489.0,0.06093025007657582
3488.0,0.06093025007657582
3487.0,0.06093025007657582
3486.0,0.060880282351513104
3485.0,0.060880282351513104
3484.0,0.06103020277710969
3483.0,0.06123017721688262
3482.0,0.06143024377893891
3481.0,0.061580354206806964
3480.0,0.06163040254819374
3479.0,0.061680456657844385
3478.0,0.06163040254819374
3477.0,0.061580354206806964
3476.0,0.06148027482350815
3475.0,0.06148027482350815
3474.0,0.06153031163235467
3473.0,0.061580354206806964
3472.0,0.06163040254819374
3471.0,0.061580354206806964
3470.0,0.06143024377893891
3469.0,0.06133019897732073
3468.0,0.06133019897732073
3467.0,0.06143024377893891
3466.0,0.06148027482350815
3465.0,0.06148027482350815
3464.0,0.06143024377893891
3463.0,0.061380218497318895
3462.0,0.061380218497318895
3461.0,0.06148027482350815
3460.0,0.061780582187257016
3459.0,0.06208109735221967
3458.0,0.062281556382736136
3457.0,0.062281556382736136
3456.0,0.062131203436140536
3455.0,0.062131203436140536
3454.0,0.062281556382736136
3453.0,0.06253226035662252
3452.0,0.06288348923294618
3451.0,0.0630843190547461
3450.0,0.0630843190547461
3449.0,0.06298389253518577
3448.0,0.06278310913729457
3447.0,0.06258241852286206
3446.0,0.06243196139961715
3445.0,0.062381820606176586
3444.0,0.06248210798265341
3443.0,0.06268275223750575
3442.0,0.06293368798257193
3441.0,0.06323500239005853
3440.0,0.06363708040225546
3439.0,0.06403953101083348
3438.0,0.06439198148213077
3437.0,0.06459351024765114
3436.0,0.06464390705442691
3435.0,0.06464390705442691
3434.0,0.06469430971007495
3433.0,0.06479513257341862
3432.0,0.06484555278383164
3431.0,0.06479513257341862
3430.0,0.06459351024765114
3429.0,0.06429125215733666
3428.0,0.06414020196211956
3427.0,0.06424089625468832
3426.0,0.06459351024765114
3425.0,0.06499684854634524
3424.0,0.0653500770992892
3423.0,0.06550154875643233
3422.0,0.0655520510510299
3421.0,0.06550154875643233
3420.0,0.0654005617819271
3419.0,0.06524912533642091
3418.0,0.06509774167768612
3417.0,0.06514819703433927
3416.0,0.06550154875643233
3415.0,0.06590573164451952
3414.0,0.06636088747507496
3413.0,0.06671522765130522
3412.0,0.06696850489759454
3411.0,0.0671712330991534
3410.0,0.06722192993944942
3409.0,0.0671712330991534
3408.0,0.06701917807680191
3407.0,0.06671522765130522
3406.0,0.06656333217371957
3405.0,0.06656333217371957
3404.0,0.06671522765130522
3403.0,0.06691783763020887
3402.0,0.06706985716921054
3401.0,0.06712054217620067
3400.0,0.06727263269847072
3399.0,0.06742477650170953
3398.0,0.06752623532284674
3397.0,0.0675769736232612
3396.0,0.0675769736232612
3395.0,0.0675769736232612
3394.0,0.06772922410050963
3393.0,0.06798309356579857
3392.0,0.06823711151882228
3391.0,0.06844043290919477
3390.0,0.06844043290919477
3389.0,0.06828793294324442
3388.0,0.0680846829187538
3387.0,0.06788152797087754
3386.0,0.06788152797087754
3385.0,0.0680846829187538
3384.0,0.068389593637038
3383.0,0.06874559358358656
3382.0,0.06894915322260897
3381.0,0.0690000580438479
3380.0,0.06879647454924775
3379.0,0.0684912781333824
3378.0,0.06823711151882228
3377.0,0.06813548650796819
3376.0,0.06823711151882228
3375.0,0.0684912781333824
3374.0,0.06884736147670667
3373.0,0.06925467168888666
3372.0,0.06961138175567827
3371.0,0.06981534770138009
3370.0,0.0699173666076287
3369.0,0.0699173666076287
3368.0,0.06986635415888243
3367.0,0.06986635415888243
3366.0,0.0699173666076287
3365.0,0.06986635415888243
3364.0,0.06986635415888243
3363.0,0.06976434723371505
3362.0,0.06976434723371505
3361.0,0.06981534770138009
3360.0,0.06996838504902692
3359.0,0.07022356719509815
3358.0,0.07037674848475972
3357.0,0.07047889936889606
3356.0,0.07047889936889606
3355.0,0.07047889936889606
3354.0,0.07052998382251041
3353.0,0.07063217075990047
3352.0,0.07073438174693436
3351.0,0.07083661679493547
3350.0,0.07083661679493547
3349.0,0.07078549626260622
3348.0,0.07073438174693436
3347.0,0.07068327324650436
3346.0,0.07063217075990047
3345.0,0.07063217075990047
3344.0,0.07073438174693436
3343.0,0.07088774334533943
3342.0,0.07109230975604719
3341.0,0.07114346641808922
3340.0,0.07109230975604719
3339.0,0.0710411591191702
3338.0,0.0710411591191702
3337.0,0.0709900145060387
3336.0,0.07093887591523451
3335.0,0.07078549626260622
3334.0,0.07073438174693436
3333.0,0.07078549626260622
3332.0,0.07109230975604719
3331.0,0.07150173187630915
3330.0,0.07196279359311708
3329.0,0.07232173586200852
3328.0,0.07247565912497134
3327.0,0.07252697900472405
3326.0,0.07242434530888953
3325.0,0.07227044022834539
3324.0,0.07206531825882068
3323.0,0.07196279359311708
3322.0,0.0720140529005715
3321.0,0.07216786713341827
3320.0,0.07237303755504598
3319.0,0.07247565912497134
3318.0,0.07252697900472405
3317.0,0.0725783049495814
3316.0,0.07273231918911849
3315.0,0.07293775650699996
3314.0,0.07314329105030759
3313.0,0.0732460948102629
3312.0,0.07329750581735506
3311.0,0.07329750581735506
3310.0,0.07334892291111106
3309.0,0.07329750581735506
3308.0,0.07319468988839395
3307.0,0.07304051161972436
3306.0,0.07293775650699996
3305.0,0.0729891310243489
3304.0,0.07314329105030759
3303.0,0.07334892291111106
3302.0,0.07355465218161061
3301.0,0.07370901311513656
3300.0,0.07376047895413773
3299.0,0.07376047895413773
3298.0,0.07365755337434488
3297.0,0.07355465218161061
3296.0,0.07355465218161061
3295.0,0.07360609973031784
3294.0,0.07370901311513656
3293.0,0.07376047895413773
3292.0,0.07370901311513656
3291.0,0.07365755337434488
3290.0,0.07365755337434488
3289.0,0.07365755337434488
3288.0,0.07365755337434488
3287.0,0.07370901311513656
3286.0,0.07370901311513656
3285.0,0.07376047895413773
3284.0,0.07376047895413773
3283.0,0.07365755337434488
3282.0,0.07350321072677968
3281.0,0.07334892291111106
3280.0,0.07329750581735506
3279.0,0.07334892291111106
3278.0,0.0734517753643813
3277.0,0.07365755337434488
3276.0,0.07386342893255127
3275.0,0.07381195089279391
3274.0,0.07350321072677968
3273.0,0.07293775650699996
3272.0,0.07252697900472405
3271.0,0.07247565912497134
3270.0,0.07273231918911849
3269.0,0.07293775650699996
3268.0,0.07288638806623937
3267.0,0.07268097504034388
3266.0,0.07247565912497134
3265.0,0.07242434530888953
3264.0,0.07252697900472405
3263.0,0.07268097504034388
3262.0,0.07278366940873537
3261.0,0.07278366940873537
3260.0,0.07278366940873537
3259.0,0.07283502570063005
3258.0,0.0729891310243489
3257.0,0.07319468988839395
3256.0,0.07329750581735506
3255.0,0.07329750581735506
3254.0,0.07319468988839395
3253.0,0.07304051161972436
3252.0,0.07288638806623937
3251.0,0.07283502570063005
3250.0,0.07283502570063005
3249.0,0.07283502570063005
3248.0,0.07273231918911849
3247.0,0.0725783049495814
3246.0,0.07221915065262552
3245.0,0.0718090519612431
3244.0,0.07145053299833615
3243.0,0.0713481533463054
3242.0,0.07145053299833615
3241.0,0.07175781684269089
3240.0,0.0720140529005715
3239.0,0.0720140529005715
3238.0,0.0718090519612431
3237.0,0.07145053299833615
3236.0,0.07119462910671581
3235.0,0.07114346641808922
3234.0,0.07114346641808922
3233.0,0.07114346641808922
3232.0,0.07114346641808922
3231.0,0.07114346641808922
3230.0,0.07114346641808922
3229.0,0.0710411591191702
3228.0,0.07093887591523451
3227.0,0.07083661679493547
3226.0,0.07083661679493547
3225.0,0.07088774334533943
3224.0,0.0709900145060387
3223.0,0.07114346641808922
3222.0,0.07124579782334672
3221.0,0.0713481533463054
3220.0,0.07145053299833615
3219.0,0.07150173187630915
3218.0,0.07155293679081787
3217.0,0.07150173187630915
3216.0,0.07145053299833615
3215.0,0.07129697256940304
3214.0,0.0710411591191702
3213.0,0.07083661679493547
3212.0,0.07078549626260622
3211.0,0.07078549626260622
3210.0,0.07083661679493547
3209.0,0.07083661679493547
3208.0,0.07083661679493547
3207.0,0.07078549626260622
3206.0,0.07078549626260622
3205.0,0.07073438174693436
3204.0,0.07052998382251041
3203.0,0.0702746216219956
3202.0,0.07007043991541217
3201.0,0.07001940948448526
3200.0,0.07001940948448526
3199.0,0.06996838504902692
3198.0,0.06981534770138009
3197.0,0.06966236426227002
3196.0,0.06956040523329987
3195.0,0.06956040523329987
3194.0,0.06956040523329987
3193.0,0.06956040523329987
3192.0,0.06966236426227002
3191.0,0.06976434723371505
3190.0,0.06986635415888243
3189.0,0.06986635415888243
3188.0,0.06971335275448043
3187.0,0.06945847013556561
3186.0,0.06925467168888666
3185.0,0.06915280831750303
3184.0,0.0692037370166998
3183.0,0.06930561233546473
3182.0,0.06950943469373039
3181.0,0.06961138175567827
3180.0,0.06961138175567827
3179.0,0.06945847013556561
3178.0,0.06935655895783555
3177.0,0.06930561233546473
3176.0,0.0692037370166998
3175.0,0.0691018855898955
3174.0,0.06894915322260897
3173.0,0.06874559358358656
3172.0,0.0685421293109949
3171.0,0.06828793294324442
3170.0,0.06798309356579857
3169.0,0.06788152797087754
3168.0,0.06798309356579857
3167.0,0.06813548650796819
3166.0,0.06823711151882228
3165.0,0.0681862960408608
3164.0,0.0680846829187538
3163.0,0.06793230779927839
3162.0,0.0676277178520861
3161.0,0.06727263269847072
3160.0,0.06701917807680191
3159.0,0.06691783763020887
3158.0,0.06696850489759454
3157.0,0.06706985716921054
3156.0,0.06722192993944942
3155.0,0.06732334137759932
3154.0,0.06732334137759932
3153.0,0.06712054217620067
3152.0,0.06686717627326577
3151.0,0.06656333217371957
3150.0,0.06636088747507496
3149.0,0.06620911585658007
3148.0,0.06615853710127872
3147.0,0.06610796423578891
3146.0,0.06605739725873905
3145.0,0.06605739725873905
3144.0,0.06610796423578891
3143.0,0.0663102910421054
3142.0,0.06646209802829528
3141.0,0.06646209802829528
3140.0,0.0663102910421054
3139.0,0.06615853710127872
3138.0,0.06605739725873905
3137.0,0.06605739725873905
3136.0,0.06605739725873905
3135.0,0.0659562809644747
3134.0,0.06580465065211571
3133.0,0.06565307326174441
3132.0,0.0655520510510299
3131.0,0.0655520510510299
3130.0,0.0655520510510299
3129.0,0.0655520510510299
3128.0,0.0655520510510299
3127.0,0.0655520510510299
3126.0,0.06545105233385295
3125.0,0.06524912533642091
3124.0,0.06509774167768612
3123.0,0.06494641076893504
3122.0,0.06494641076893504
3121.0,0.06499684854634524
3120.0,0.06509774167768612
3119.0,0.06504729218214189
3118.0,0.06489597884855036
3117.0,0.06464390705442691
3116.0,0.06439198148213077
3115.0,0.06419054619006714
3114.0,0.06408986356949264
3113.0,0.06414020196211956
3112.0,0.06424089625468832
3111.0,0.06439198148213077
3110.0,0.06459351024765114
3109.0,0.06484555278383164
3108.0,0.06504729218214189
3107.0,0.06504729218214189
3106.0,0.06499684854634524
3105.0,0.06479513257341862
3104.0,0.06464390705442691
3103.0,0.06449273417528723
3102.0,0.06439198148213077
3101.0,0.06429125215733666
3100.0,0.06408986356949264
3099.0,0.06378795567975115
3098.0,0.06353652599525317
3097.0,0.06338573802478864
3096.0,0.06338573802478864
3095.0,0.06343599486473406
3094.0,0.06353652599525317
3093.0,0.0636873663378068
3092.0,0.06383825908884244
3091.0,0.06393888339001164
3090.0,0.06388856832514578
3089.0,0.0636873663378068
3088.0,0.06348625752110681
3087.0,0.06338573802478864
3086.0,0.06328524178879635
3085.0,0.06313454102437754
3084.0,0.06298389253518577
3083.0,0.06288348923294618
3082.0,0.06283329628496737
3081.0,0.06283329628496737
3080.0,0.06288348923294618
3079.0,0.06303410289212974
3078.0,0.06313454102437754
3077.0,0.06318476880236723
3076.0,0.06303410289212974
3075.0,0.06278310913729457
3074.0,0.06253226035662252
3073.0,0.06248210798265341
3072.0,0.06258241852286206
3071.0,0.06278310913729457
3070.0,0.06288348923294618
3069.0,0.06283329628496737
3068.0,0.06268275223750575
3067.0,0.06248210798265341
3066.0,0.062331685600995
3065.0,0.062331685600995
3064.0,0.062331685600995
3063.0,0.06243196139961715
3062.0,0.06248210798265341
3061.0,0.06248210798265341
3060.0,0.06243196139961715
3059.0,0.062281556382736136
3058.0,0.062131203436140536
3057.0,0.06198090252378963
3056.0,0.061880730805688344
3055.0,0.06173051653708872
3054.0,0.06163040254819374
3053.0,0.06153031163235467
3052.0,0.061380218497318895
3051.0,0.06118017497378969
3050.0,0.06103020277710969
3049.0,0.060880282351513104
3048.0,0.06083032037482261
3047.0,0.06083032037482261
3046.0,0.060880282351513104
3045.0,0.06093025007657582
3044.0,0.06093025007657582
3043.0,0.060880282351513104
3042.0,0.06078036414518184
3041.0,0.06068046892176193
3040.0,0.06058059667068294
3039.0,0.060530669156469985
3038.0,0.06038092104330195
3037.0,0.060081579630943294
3036.0,0.05973260855398799
3035.0,0.05943371350990989
3034.0,0.05933412752417122
3033.0,0.05933412752417122
3032.0,0.05933412752417122
3031.0,0.05933412752417122
3030.0,0.05938391766259232
3029.0,0.05948351506743288
3028.0,0.05963295401433477
3027.0,0.05978244440026481
3026.0,0.05983228596592505
3025.0,0.05983228596592505
3024.0,0.05973260855398799
3023.0,0.05968277842578207
3022.0,0.05973260855398799
3021.0,0.05993198626064755
3020.0,0.060231224546650086
3019.0,0.06063052992534024
3018.0,0.06108018775522828
3017.0,0.06153031163235467
3016.0,0.061880730805688344
3015.0,0.06218131530164395
3014.0,0.06253226035662252
3013.0,0.06303410289212974
3012.0,0.0636873663378068
3011.0,0.06444235490698613
3010.0,0.06519865825346338
3009.0,0.06590573164451952
3008.0,0.06671522765130522
3007.0,0.06767846801070698
3006.0,0.0688982543673613
3005.0,0.07032568205141221
3004.0,0.07170658776779781
3003.0,0.07309189829456408
3002.0,0.07443009045662374
3001.0,0.07582412969807906
3000.0,0.07732643214144574
2999.0,0.07883394936226118
2998.0,0.08029446545087904
2997.0,0.08149786036382611
2996.0,0.08249449044745338
2995.0,0.08333553545860273
2994.0,0.0839147001562972
2993.0,0.08417821237960132
2992.0,0.08407278830288423
2991.0,0.08349341288484435
2990.0,0.08259953204474924
2989.0,0.08149786036382611
2988.0,0.08034671768963575
2987.0,0.07925073872429178
2986.0,0.0781575185941421
2985.0,0.07711890879170658
2984.0,0.07623803917129979
2983.0,0.07541061433058172
2982.0,0.07458476291575367
2981.0,0.07376047895413773
2980.0,0.07304051161972436
2979.0,0.07252697900472405
2978.0,0.07216786713341827
2977.0,0.07191154033502922
2976.0,0.07175781684269089
2975.0,0.0716553647351379
2974.0,0.07145053299833615
2973.0,0.07119462910671581
2972.0,0.07088774334533943
2971.0,0.07068327324650436
2970.0,0.07063217075990047
2969.0,0.07078549626260622
2968.0,0.07093887591523451
2967.0,0.07109230975604719
2966.0,0.07124579782334672
2965.0,0.0713481533463054
2964.0,0.07150173187630915
2963.0,0.07155293679081787
2962.0,0.07155293679081787
2961.0,0.07155293679081787
2960.0,0.07170658776779781
2959.0,0.0720140529005715
2958.0,0.07242434530888953
2957.0,0.07283502570063005
2956.0,0.07329750581735506
2955.0,0.07381195089279391
2954.0,0.07437854520917098
2953.0,0.07504911108438939
2952.0,0.07592757008963713
2951.0,0.07691148455760066
2950.0,0.07800156869172903
2949.0,0.07904229404455076
2948.0,0.08003329851661278
2947.0,0.08092190762392604
2946.0,0.08160266115629988
2945.0,0.08207457793525874
2944.0,0.08238947425013277
2943.0,0.08254700807033655
2942.0,0.08244197917456386
2941.0,0.08212704480115218
2940.0,0.08160266115629988
2939.0,0.08086958613938555
2938.0,0.07992887570247587
2937.0,0.07899019850296574
2936.0,0.07805354577058976
2935.0,0.0772226580712021
2934.0,0.07649693305789551
2933.0,0.07587584681417514
2932.0,0.07525564752005143
2931.0,0.07463633264589853
2930.0,0.07401789967289685
2929.0,0.07355465218161061
2928.0,0.0732460948102629
2927.0,0.07304051161972436
2926.0,0.07283502570063005
2925.0,0.07247565912497134
2924.0,0.07206531825882068
2923.0,0.07155293679081787
2922.0,0.0709900145060387
2921.0,0.07047889936889606
2920.0,0.07007043991541217
2919.0,0.06986635415888243
2918.0,0.06971335275448043
2917.0,0.06956040523329987
2916.0,0.06935655895783555
2915.0,0.0691018855898955
2914.0,0.06879647454924775
2913.0,0.06859298644342648
2912.0,0.0684912781333824
2911.0,0.068389593637038
2910.0,0.06828793294324442
2909.0,0.0680846829187538
2908.0,0.0678307540792078
2907.0,0.06767846801070698
2906.0,0.0675769736232612
2905.0,0.0675769736232612
2904.0,0.0676277178520861
2903.0,0.0675769736232612
2902.0,0.06742477650170953
2901.0,0.06722192993944942
2900.0,0.0671712330991534
2899.0,0.06727263269847072
2898.0,0.06747550294945781
2897.0,0.0675769736232612
2896.0,0.0676277178520861
2895.0,0.06752623532284674
2894.0,0.06732334137759932
2893.0,0.06706985716921054
2892.0,0.06686717627326577
2891.0,0.06681652082538614
2890.0,0.06686717627326577
2889.0,0.06701917807680191
2888.0,0.0671712330991534
2887.0,0.06727263269847072
2886.0,0.06737405597821788
2885.0,0.06752623532284674
2884.0,0.06767846801070698
2883.0,0.06788152797087754
2882.0,0.06803388527182741
2881.0,0.0681862960408608
2880.0,0.068389593637038
2879.0,0.06864384953207203
2878.0,0.06884736147670667
2877.0,0.06879647454924775
2876.0,0.0685421293109949
2875.0,0.06813548650796819
2874.0,0.0678307540792078
2873.0,0.06752623532284674
2872.0,0.0671712330991534
2871.0,0.06681652082538614
2870.0,0.06636088747507496
2869.0,0.0659562809644747
2868.0,0.06560255921901192
2867.0,0.06524912533642091
2866.0,0.06499684854634524
2865.0,0.06484555278383164
2864.0,0.06479513257341862
2863.0,0.06474471821595262
2862.0,0.06464390705442691
2861.0,0.06444235490698613
2860.0,0.06419054619006714
2859.0,0.06393888339001164
2858.0,0.0636873663378068
2857.0,0.06353652599525317
2856.0,0.06343599486473406
2855.0,0.06343599486473406
2854.0,0.06348625752110681
2853.0,0.06353652599525317
2852.0,0.06353652599525317
2851.0,0.06353652599525317
2850.0,0.06343599486473406
2849.0,0.06333548699992453
2848.0,0.06318476880236723
2847.0,0.06303410289212974
2846.0,0.06293368798257193
2845.0,0.06283329628496737
2844.0,0.06283329628496737
2843.0,0.06288348923294618
2842.0,0.06283329628496737
2841.0,0.06258241852286206
2840.0,0.062281556382736136
2839.0,0.06208109735221967
2838.0,0.06203099704854709
2837.0,0.062131203436140536
2836.0,0.06223143295006417
2835.0,0.06223143295006417
2834.0,0.06223143295006417
2833.0,0.06223143295006417
2832.0,0.06223143295006417
2831.0,0.062131203436140536
2830.0,0.06198090252378963
2829.0,0.061880730805688344
2828.0,0.061880730805688344
2827.0,0.06193081377661436
2826.0,0.06193081377661436
2825.0,0.061880730805688344
2824.0,0.061780582187257016
2823.0,0.06173051653708872
2822.0,0.061680456657844385
2821.0,0.061680456657844385
2820.0,0.061580354206806964
2819.0,0.06143024377893891
2818.0,0.06133019897732073
2817.0,0.06123017721688262
2816.0,0.0611301784870133
2815.0,0.06108018775522828
2814.0,0.06103020277710969
2813.0,0.06093025007657582
2812.0,0.06098022355133348
2811.0,0.06108018775522828
2810.0,0.06118017497378969
2809.0,0.06128018521761747
2808.0,0.06128018521761747
2807.0,0.06123017721688262
2806.0,0.0611301784870133
2805.0,0.06103020277710969
2804.0,0.06093025007657582
2803.0,0.06083032037482261
2802.0,0.06068046892176193
2801.0,0.060530669156469985
2800.0,0.06038092104330195
2799.0,0.06033101647767336
2798.0,0.06038092104330195
2797.0,0.06048074738138154
2796.0,0.060530669156469985
2795.0,0.06048074738138154
2794.0,0.06033101647767336
2793.0,0.0601813371786204
2792.0,0.060131455540490375
2791.0,0.060081579630943294
2790.0,0.060131455540490375
2789.0,0.0601813371786204
2788.0,0.060231224546650086
2787.0,0.06033101647767336
2786.0,0.06033101647767336
2785.0,0.06033101647767336
2784.0,0.06028111764589528
2783.0,0.060131455540490375
2782.0,0.06003170944866376
2781.0,0.05988213325228142
2780.0,0.05983228596592505
2779.0,0.05983228596592505
2778.0,0.05983228596592505
2777.0,0.05978244440026481
2776.0,0.05978244440026481
2775.0,0.05988213325228142
2774.0,0.05998184499233683
2773.0,0.06003170944866376
2772.0,0.05993198626064755
2771.0,0.05983228596592505
2770.0,0.05968277842578207
2769.0,0.0595831353183347
2768.0,0.05953332233647113
2767.0,0.05963295401433477
2766.0,0.05978244440026481
2765.0,0.05988213325228142
2764.0,0.05983228596592505
2763.0,0.0595831353183347
2762.0,0.05933412752417122
2761.0,0.05918479134919874
2760.0,0.05928434309333741
2759.0,0.05943371350990989
2758.0,0.05953332233647113
2757.0,0.05953332233647113
2756.0,0.05948351506743288
2755.0,0.05943371350990989
2754.0,0.05943371350990989
2753.0,0.05938391766259232
2752.0,0.05933412752417122
2751.0,0.05928434309333741
2750.0,0.05928434309333741
2749.0,0.05923456436878238
2748.0,0.05923456436878238
2747.0,0.05923456436878238
2746.0,0.05928434309333741
2745.0,0.05938391766259232
2744.0,0.05943371350990989
2743.0,0.05948351506743288
2742.0,0.05943371350990989
2741.0,0.05938391766259232
2740.0,0.05933412752417122
2739.0,0.05928434309333741
2738.0,0.05928434309333741
2737.0,0.05923456436878238
2736.0,0.05918479134919874
2735.0,0.059135024033278416
2734.0,0.059135024033278416
2733.0,0.05908526241971446
2732.0,0.059035506507200575
2731.0,0.059035506507200575
2730.0,0.059035506507200575
2729.0,0.05908526241971446
2728.0,0.059135024033278416
2727.0,0.05918479134919874
2726.0,0.05918479134919874
2725.0,0.05923456436878238
2724.0,0.05918479134919874
2723.0,0.059035506507200575
2722.0,0.0588862729628985
2721.0,0.058836539841526925
2720.0,0.058836539841526925
2719.0,0.058936011780097886
2718.0,0.05898575629443026
2717.0,0.058836539841526925
2716.0,0.058737090681050264
2715.0,0.05868737463933793
2714.0,0.058786812414678646
2713.0,0.05898575629443026
2712.0,0.05923456436878238
2711.0,0.05928434309333741
2710.0,0.05923456436878238
2709.0,0.059135024033278416
2708.0,0.05908526241971446
2707.0,0.059135024033278416
2706.0,0.05918479134919874
2705.0,0.05918479134919874
2704.0,0.05908526241971446
2703.0,0.058936011780097886
2702.0,0.0588862729628985
2701.0,0.0588862729628985
2700.0,0.058936011780097886
2699.0,0.059035506507200575
2698.0,0.05908526241971446
2697.0,0.05918479134919874
2696.0,0.05923456436878238
2695.0,0.05923456436878238
2694.0,0.059135024033278416
2693.0,0.059035506507200575
2692.0,0.0588862729628985
2691.0,0.058737090681050264
2690.0,0.058538260652670315
2689.0,0.0583891978463662
2688.0,0.0583395216116076
2687.0,0.0583891978463662
2686.0,0.058538260652670315
2685.0,0.05863766428823891
2684.0,0.05858795962645047
2683.0,0.05858795962645047
2682.0,0.05858795962645047
2681.0,0.05868737463933793
2680.0,0.058737090681050264
2679.0,0.058737090681050264
2678.0,0.05863766428823891
2677.0,0.05863766428823891
2676.0,0.05863766428823891
2675.0,0.05863766428823891
2674.0,0.05868737463933793
2673.0,0.058737090681050264
2672.0,0.0588862729628985
2671.0,0.05898575629443026
2670.0,0.059035506507200575
2669.0,0.059035506507200575
2668.0,0.059035506507200575
2667.0,0.059035506507200575
2666.0,0.058936011780097886
2665.0,0.0588862729628985
2664.0,0.058936011780097886
2663.0,0.05908526241971446
2662.0,0.05923456436878238
2661.0,0.05923456436878238
2660.0,0.05908526241971446
2659.0,0.0588862729628985
2658.0,0.05868737463933793
2657.0,0.05868737463933793
2656.0,0.058786812414678646
2655.0,0.058936011780097886
2654.0,0.05898575629443026
2653.0,0.058936011780097886
2652.0,0.058936011780097886
2651.0,0.058936011780097886
2650.0,0.05898575629443026
2649.0,0.059035506507200575
2648.0,0.059035506507200575
2647.0,0.05898575629443026
2646.0,0.058936011780097886
2645.0,0.0588862729628985
2644.0,0.058786812414678646
2643.0,0.058737090681050264
2642.0,0.058786812414678646
2641.0,0.0588862729628985
2640.0,0.05898575629443026
2639.0,0.05908526241971446
2638.0,0.059035506507200575
2637.0,0.05898575629443026
2636.0,0.0588862729628985
2635.0,0.058786812414678646
2634.0,0.05863766428823891
2633.0,0.058538260652670315
2632.0,0.058538260652670315
2631.0,0.05863766428823891
2630.0,0.05868737463933793
2629.0,0.05868737463933793
2628.0,0.05868737463933793
2627.0,0.05868737463933793
2626.0,0.05868737463933793
2625.0,0.058538260652670315
2624.0,0.05843887976392925
2623.0,0.0583891978463662
2622.0,0.05848856736559682
2621.0,0.05858795962645047
2620.0,0.05868737463933793
2619.0,0.05868737463933793
2618.0,0.05863766428823891
2617.0,0.05848856736559682
2616.0,0.05843887976392925
2615.0,0.0583891978463662
2614.0,0.0583891978463662
2613.0,0.0583891978463662
2612.0,0.0583395216116076
2611.0,0.0583395216116076
2610.0,0.0583395216116076
2609.0,0.0583891978463662
2608.0,0.05848856736559682
2607.0,0.05858795962645047
2606.0,0.05858795962645047
2605.0,0.05848856736559682
2604.0,0.0583891978463662
2603.0,0.0582898510583536
2602.0,0.05824018618530458
2601.0,0.0582898510583536
2600.0,0.0583395216116076
2599.0,0.0583891978463662
2598.0,0.0583891978463662
2597.0,0.0583891978463662
2596.0,0.0583891978463662
2595.0,0.05843887976392925
2594.0,0.05848856736559682
2593.0,0.05858795962645047
2592.0,0.058737090681050264
2591.0,0.0588862729628985
2590.0,0.058936011780097886
2589.0,0.05898575629443026
2588.0,0.0588862729628985
2587.0,0.058737090681050264
2586.0,0.058538260652670315
2585.0,0.0583891978463662
2584.0,0.0583395216116076
2583.0,0.0583395216116076
2582.0,0.05843887976392925
2581.0,0.05863766428823891
2580.0,0.058786812414678646
2579.0,0.058786812414678646
2578.0,0.05868737463933793
2577.0,0.058538260652670315
2576.0,0.05848856736559682
2575.0,0.05843887976392925
2574.0,0.05848856736559682
2573.0,0.058538260652670315
2572.0,0.05863766428823891
2571.0,0.058737090681050264
2570.0,0.058737090681050264
2569.0,0.058737090681050264
2568.0,0.05863766428823891
2567.0,0.05863766428823891
2566.0,0.05858795962645047
2565.0,0.05858795962645047
2564.0,0.05858795962645047
2563.0,0.05848856736559682
2562.0,0.0583891978463662
2561.0,0.0582898510583536
2560.0,0.058190526991161784
2559.0,0.058190526991161784
2558.0,0.05824018618530458
2557.0,0.0583395216116076
2556.0,0.05843887976392925
2555.0,0.05843887976392925
2554.0,0.05843887976392925
2553.0,0.05848856736559682
2552.0,0.05858795962645047
2551.0,0.05858795962645047
2550.0,0.05848856736559682
2549.0,0.0583395216116076
2548.0,0.05824018618530458
2547.0,0.05824018618530458
2546.0,0.0582898510583536
2545.0,0.05843887976392925
2544.0,0.05858795962645047
2543.0,0.05863766428823891
2542.0,0.05858795962645047
2541.0,0.05848856736559682
2540.0,0.05843887976392925
2539.0,0.05843887976392925
2538.0,0.0583891978463662
2537.0,0.0583395216116076
2536.0,0.0582898510583536
2535.0,0.0583395216116076
2534.0,0.05843887976392925
2533.0,0.058538260652670315
2532.0,0.05858795962645047
2531.0,0.05858795962645047
2530.0,0.05858795962645047
2529.0,0.05858795962645047
2528.0,0.05863766428823891
2527.0,0.058786812414678646
2526.0,0.0588862729628985
2525.0,0.0588862729628985
2524.0,0.058786812414678646
2523.0,0.05863766428823891
2522.0,0.05843887976392925
2521.0,0.0582898510583536
2520.0,0.05824018618530458
2519.0,0.0583395216116076
2518.0,0.058538260652670315
2517.0,0.05863766428823891
2516.0,0.05863766428823891
2515.0,0.058538260652670315
2514.0,0.05843887976392925
2513.0,0.05843887976392925
2512.0,0.058538260652670315
2511.0,0.05868737463933793
2510.0,0.0588862729628985
2509.0,0.059035506507200575
2508.0,0.059035506507200575
2507.0,0.058936011780097886
2506.0,0.058737090681050264
2505.0,0.05858795962645047
2504.0,0.058538260652670315
2503.0,0.05848856736559682
2502.0,0.05848856736559682
2501.0,0.058538260652670315
2500.0,0.05858795962645047
2499.0,0.05863766428823891
2498.0,0.05863766428823891
2497.0,0.05863766428823891
2496.0,0.05863766428823891
2495.0,0.05858795962645047
2494.0,0.058538260652670315
2493.0,0.05848856736559682
2492.0,0.058538260652670315
2491.0,0.05868737463933793
2490.0,0.058786812414678646
2489.0,0.058836539841526925
2488.0,0.058786812414678646
2487.0,0.05868737463933793
2486.0,0.058538260652670315
2485.0,0.0583891978463662
2484.0,0.0583395216116076
2483.0,0.0583395216116076
2482.0,0.0583395216116076
2481.0,0.0583395216116076
2480.0,0.0583395216116076
2479.0,0.05848856736559682
2478.0,0.05863766428823891
2477.0,0.058786812414678646
2476.0,0.058836539841526925
2475.0,0.058836539841526925
2474.0,0.058786812414678646
2473.0,0.05868737463933793
2472.0,0.05858795962645047
2471.0,0.05848856736559682
2470.0,0.05843887976392925
2469.0,0.05843887976392925
2468.0,0.058538260652670315
2467.0,0.05863766428823891
2466.0,0.05863766428823891
2465.0,0.058538260652670315
2464.0,0.05848856736559682
2463.0,0.05843887976392925
2462.0,0.0583891978463662
2461.0,0.0582898510583536
2460.0,0.058190526991161784
2459.0,0.05804158346918653
2458.0,0.05789269101064454
2457.0,0.05779345772290467
2456.0,0.05784307153250956
2455.0,0.05794231615860479
2454.0,0.05814087347462649
2453.0,0.058190526991161784
2452.0,0.058190526991161784
2451.0,0.05814087347462649
2450.0,0.05814087347462649
2449.0,0.05824018618530458
2448.0,0.05843887976392925
2447.0,0.05858795962645047
2446.0,0.05863766428823891
2445.0,0.05863766428823891
2444.0,0.05868737463933793
2443.0,0.058737090681050264
2442.0,0.058836539841526925
2441.0,0.058836539841526925
2440.0,0.058786812414678646
2439.0,0.058786812414678646
2438.0,0.058836539841526925
2437.0,0.058936011780097886
2436.0,0.059035506507200575
2435.0,0.059035506507200575
2434.0,0.05898575629443026
2433.0,0.058936011780097886
2432.0,0.05898575629443026
2431.0,0.05908526241971446
2430.0,0.059135024033278416
2429.0,0.05928434309333741
2428.0,0.05943371350990989
2427.0,0.05953332233647113
2426.0,0.05953332233647113
2425.0,0.05938391766259232
2424.0,0.05928434309333741
2423.0,0.05918479134919874
2422.0,0.059135024033278416
2421.0,0.05918479134919874
2420.0,0.05933412752417122
2419.0,0.0595831353183347
2418.0,0.05973260855398799
2417.0,0.05978244440026481
2416.0,0.05973260855398799
2415.0,0.05973260855398799
2414.0,0.05968277842578207
2413.0,0.05968277842578207
2412.0,0.05968277842578207
2411.0,0.05973260855398799
2410.0,0.05978244440026481
2409.0,0.05983228596592505
2408.0,0.05983228596592505
2407.0,0.05983228596592505
2406.0,0.05973260855398799
2405.0,0.05968277842578207
2404.0,0.0595831353183347
2403.0,0.05953332233647113
2402.0,0.0595831353183347
2401.0,0.05973260855398799
2400.0,0.05993198626064755
2399.0,0.060081579630943294
2398.0,0.0601813371786204
2397.0,0.060131455540490375
2396.0,0.060131455540490375
2395.0,0.060081579630943294
2394.0,0.060131455540490375
2393.0,0.060231224546650086
2392.0,0.06033101647767336
2391.0,0.060430831344098435
2390.0,0.06038092104330195
2389.0,0.06028111764589528
2388.0,0.060081579630943294
2387.0,0.05983228596592505
2386.0,0.0595831353183347
2385.0,0.05933412752417122
2384.0,0.05918479134919874
2383.0,0.05898575629443026
2382.0,0.05863766428823891
2381.0,0.05799194697768684
2380.0,0.057198533682059516
2379.0,0.05655495097496965
2378.0,0.056159373598738904
2377.0,0.05581353871631256
2376.0,0.05546797900801881
2375.0,0.055122694036304765
2374.0,0.05477768336465916
2373.0,0.05458065739693696
2372.0,0.05448217792216048
2371.0,0.05448217792216048
2370.0,0.05453141486818014
2369.0,0.05462990550969615
2368.0,0.05482695382609992
2367.0,0.055122694036304765
2366.0,0.05541863577307371
2365.0,0.05601112492622806
2364.0,0.05709945885970602
2363.0,0.05779345772290467
2362.0,0.05680236993107379
2361.0,0.05438372077326825
2360.0,0.05232126006306337
2359.0,0.05227227303668425
2358.0,0.05374429280060267
2357.0,0.05482695382609992
2356.0,0.054728418492290265
2355.0,0.05394093961487645
2354.0,0.053449489430144714
2353.0,0.054088483180726676
2352.0,0.055172003656783764
2351.0,0.05566540802921782
2350.0,0.055122694036304765
2349.0,0.05438372077326825
2348.0,0.054088483180726676
2347.0,0.054088483180726676
2346.0,0.05428528594013993
2345.0,0.05438372077326825
2344.0,0.05443294655761144
2343.0,0.05433450056786593
2342.0,0.054088483180726676
2341.0,0.05389176956309405
2340.0,0.05369514500652506
2339.0,0.05354773498692689
2338.0,0.053449489430144714
2337.0,0.05325306496641513
2336.0,0.05271335532220167
2335.0,0.0518316382728683
2334.0,0.05085404758005607
2333.0,0.050317309204795935
2332.0,0.050805225762017736
2331.0,0.05212534510230182
2330.0,0.05369514500652506
2329.0,0.054876229877880656
2328.0,0.05571477931124735
2327.0,0.05630767289398331
2326.0,0.05680236993107379
2325.0,0.05680236993107379
2324.0,0.056406567231630955
2323.0,0.055764156206519866
2322.0,0.055270639696704205
2321.0,0.055270639696704205
2320.0,0.05566540802921782
2319.0,0.05620880107069848
2318.0,0.0567528748621382
2317.0,0.0571489934456626
2316.0,0.05734718830678798
2315.0,0.05729763111133224
2314.0,0.057049929922901255
2313.0,0.05660442349104544
2312.0,0.05620880107069848
2311.0,0.055912320584565744
2310.0,0.05571477931124735
2309.0,0.05561604235915585
2308.0,0.05566540802921782
2307.0,0.05586292684190197
2306.0,0.05606053552778367
2305.0,0.05625823416868636
2304.0,0.056406567231630955
2303.0,0.05655495097496965
2302.0,0.05680236993107379
2301.0,0.057049929922901255
2300.0,0.05729763111133224
2299.0,0.05749589383191922
2298.0,0.0575950591438934
2297.0,0.05764465029232335
2296.0,0.057743849580535134
2295.0,0.057743849580535134
2294.0,0.05779345772290467
2293.0,0.05784307153250956
2292.0,0.05804158346918653
2291.0,0.0583395216116076
2290.0,0.05858795962645047
2289.0,0.058786812414678646
2288.0,0.058936011780097886
2287.0,0.05908526241971446
2286.0,0.05918479134919874
2285.0,0.059135024033278416
2284.0,0.059035506507200575
2283.0,0.058836539841526925
2282.0,0.058737090681050264
2281.0,0.058737090681050264
2280.0,0.058836539841526925
2279.0,0.05898575629443026
2278.0,0.05898575629443026
2277.0,0.0588862729628985
2276.0,0.058737090681050264
2275.0,0.05868737463933793
2274.0,0.058737090681050264
2273.0,0.058786812414678646
2272.0,0.058786812414678646
2271.0,0.05868737463933793
2270.0,0.05858795962645047
2269.0,0.05848856736559682
2268.0,0.05848856736559682
2267.0,0.05858795962645047
2266.0,0.05863766428823891
2265.0,0.05863766428823891
2264.0,0.05868737463933793
2263.0,0.058786812414678646
2262.0,0.0588862729628985
2261.0,0.05898575629443026
2260.0,0.059035506507200575
2259.0,0.059035506507200575
2258.0,0.059035506507200575
2257.0,0.05898575629443026
2256.0,0.059035506507200575
2255.0,0.05908526241971446
2254.0,0.059135024033278416
2253.0,0.05918479134919874
2252.0,0.05918479134919874
2251.0,0.059135024033278416
2250.0,0.05908526241971446
2249.0,0.059035506507200575
2248.0,0.05898575629443026
2247.0,0.059035506507200575
2246.0,0.05918479134919874
2245.0,0.05933412752417122
2244.0,0.05933412752417122
2243.0,0.05923456436878238
2242.0,0.05898575629443026
2241.0,0.05868737463933793
2240.0,0.0583891978463662
2239.0,0.05824018618530458
2238.0,0.0582898510583536
2237.0,0.05848856736559682
2236.0,0.058836539841526925
2235.0,0.05908526241971446
2234.0,0.05923456436878238
2233.0,0.059135024033278416
2232.0,0.05898575629443026
2231.0,0.058786812414678646
2230.0,0.058737090681050264
2229.0,0.05863766428823891
2228.0,0.05858795962645047
2227.0,0.058538260652670315
2226.0,0.05843887976392925
2225.0,0.0583395216116076
2224.0,0.0582898510583536
2223.0,0.0582898510583536
2222.0,0.05843887976392925
2221.0,0.05858795962645047
2220.0,0.05863766428823891
2219.0,0.05858795962645047
2218.0,0.05843887976392925
2217.0,0.0583891978463662
2216.0,0.0583891978463662
2215.0,0.0583891978463662
2214.0,0.0583395216116076
2213.0,0.0583395216116076
2212.0,0.0583891978463662
2211.0,0.05848856736559682
2210.0,0.05848856736559682
2209.0,0.05843887976392925
2208.0,0.0583395216116076
2207.0,0.05824018618530458
2206.0,0.058190526991161784
2205.0,0.058190526991161784
2204.0,0.05824018618530458
2203.0,0.0582898510583536
2202.0,0.058190526991161784
2201.0,0.05814087347462649
2200.0,0.05809122563440061
2199.0,0.05804158346918653
2198.0,0.05794231615860479
2197.0,0.05784307153250956
2196.0,0.05779345772290467
2195.0,0.05769424710410598
2194.0,0.05754547365752294
2193.0,0.05744631966579017
2192.0,0.057396751157843484
2191.0,0.05749589383191922
2190.0,0.0575950591438934
2189.0,0.05764465029232335
2188.0,0.05769424710410598
2187.0,0.05779345772290467
2186.0,0.05789269101064454
2185.0,0.05799194697768684
2184.0,0.05799194697768684
2183.0,0.05794231615860479
2182.0,0.05789269101064454
2181.0,0.05784307153250956
2180.0,0.05784307153250956
2179.0,0.05789269101064454
2178.0,0.05789269101064454
2177.0,0.057743849580535134
2176.0,0.0575950591438934
2175.0,0.05754547365752294
2174.0,0.05749589383191922
2173.0,0.05754547365752294
2172.0,0.05769424710410598
2171.0,0.05789269101064454
2170.0,0.05799194697768684
2169.0,0.05794231615860479
2168.0,0.05789269101064454
2167.0,0.05779345772290467
2166.0,0.057743849580535134
2165.0,0.05764465029232335
2164.0,0.05754547365752294
2163.0,0.057396751157843484
2162.0,0.05729763111133224
2161.0,0.05729763111133224
2160.0,0.057396751157843484
2159.0,0.05754547365752294
2158.0,0.05764465029232335
2157.0,0.05769424710410598
2156.0,0.05769424710410598
2155.0,0.05764465029232335
2154.0,0.05754547365752294
2153.0,0.05754547365752294
2152.0,0.05754547365752294
2151.0,0.0575950591438934
2150.0,0.0575950591438934
2149.0,0.05749589383191922
2148.0,0.05729763111133224
2147.0,0.0571489934456626
2146.0,0.057049929922901255
2145.0,0.05709945885970602
2144.0,0.057198533682059516
2143.0,0.05729763111133224
2142.0,0.05744631966579017
2141.0,0.05749589383191922
2140.0,0.05749589383191922
2139.0,0.05744631966579017
2138.0,0.05734718830678798
2137.0,0.05729763111133224
2136.0,0.05744631966579017
2135.0,0.05754547365752294
2134.0,0.05754547365752294
2133.0,0.05749589383191922
2132.0,0.057396751157843484
2131.0,0.05734718830678798
2130.0,0.05724807957018618
2129.0,0.0571489934456626
2128.0,0.0571489934456626
2127.0,0.05724807957018618
2126.0,0.05729763111133224
2125.0,0.05729763111133224
2124.0,0.05734718830678798
2123.0,0.057396751157843484
2122.0,0.057396751157843484
2121.0,0.057396751157843484
2120.0,0.057396751157843484
2119.0,0.05744631966579017
2118.0,0.05744631966579017
2117.0,0.05744631966579017
2116.0,0.05754547365752294
2115.0,0.05764465029232335
2114.0,0.05764465029232335
2113.0,0.0575950591438934
2112.0,0.05754547365752294
2111.0,0.05749589383191922
2110.0,0.05749589383191922
2109.0,0.05744631966579017
2108.0,0.05744631966579017
2107.0,0.05749589383191922
2106.0,0.05749589383191922
2105.0,0.05749589383191922
2104.0,0.05749589383191922
2103.0,0.0575950591438934
2102.0,0.05769424710410598
2101.0,0.05769424710410598
2100.0,0.0575950591438934
2099.0,0.05744631966579017
2098.0,0.05734718830678798
2097.0,0.057396751157843484
2096.0,0.05754547365752294
2095.0,0.057743849580535134
2094.0,0.05779345772290467
2093.0,0.05779345772290467
2092.0,0.057743849580535134
2091.0,0.057743849580535134
2090.0,0.057743849580535134
2089.0,0.057743849580535134
2088.0,0.05769424710410598
2087.0,0.05769424710410598
2086.0,0.05769424710410598
2085.0,0.057743849580535134
2084.0,0.05779345772290467
2083.0,0.05779345772290467
2082.0,0.05769424710410598
2081.0,0.05754547365752294
2080.0,0.057396751157843484
2079.0,0.05724807957018618
2078.0,0.0571489934456626
2077.0,0.0571489934456626
2076.0,0.05724807957018618
2075.0,0.05744631966579017
2074.0,0.05754547365752294
2073.0,0.0575950591438934
2072.0,0.05749589383191922
2071.0,0.05749589383191922
2070.0,0.05744631966579017
2069.0,0.057396751157843484
2068.0,0.057396751157843484
2067.0,0.05734718830678798
2066.0,0.05724807957018618
2065.0,0.057049929922901255
2064.0,0.05685187064143715
2063.0,0.05665390164340933
2062.0,0.05650548409389744
2061.0,0.056456022846545606
2060.0,0.05655495097496965
2059.0,0.05665390164340933
2058.0,0.05670338543334519
2057.0,0.05660442349104544
2056.0,0.056456022846545606
2055.0,0.05630767289398331
2054.0,0.056159373598738904
2053.0,0.05601112492622806
2052.0,0.05586292684190197
2051.0,0.055764156206519866
2050.0,0.05566540802921782
2049.0,0.055566682299785564
2048.0,0.05551732784983132
2047.0,0.05551732784983132
2046.0,0.055566682299785564
2045.0,0.05546797900801881
2044.0,0.05531996611868961
2043.0,0.055172003656783764
2042.0,0.05502409158795207
2041.0,0.0549255115212699
2040.0,0.05477768336465916
2039.0,0.05462990550969615
2038.0,0.05443294655761144
2037.0,0.05423607688882637
2036.0,0.05413767551038262
2035.0,0.05413767551038262
2034.0,0.054186873412661596
2033.0,0.054186873412661596
2032.0,0.05413767551038262
2031.0,0.054088483180726676
2030.0,0.05399011523423525
2029.0,0.05389176956309405
2028.0,0.05379344615721715
2027.0,0.05369514500652506
2026.0,0.053596866100945384
2025.0,0.0534986094304124
2024.0,0.0534986094304124
2023.0,0.05354773498692689
2022.0,0.05354773498692689
2021.0,0.05340037498486727
2020.0,0.05325306496641513
2019.0,0.0531548860393769
2018.0,0.0531548860393769
2017.0,0.053203972728539606
2016.0,0.053351266093323746
2015.0,0.0534986094304124
2014.0,0.05354773498692689
2013.0,0.053449489430144714
2012.0,0.05340037498486727
2011.0,0.05340037498486727
2010.0,0.053351266093323746
2009.0,0.05330216275425803
2008.0,0.0531548860393769
2007.0,0.05300765925162776
2006.0,0.05286048235717078
2005.0,0.05271335532220167
2004.0,0.05261529831525902
2003.0,0.05266432405126009
2002.0,0.052762392129333646
2001.0,0.05286048235717078
2000.0,0.05286048235717078
1999.0,0.05286048235717078
1998.0,0.05286048235717078
1997.0,0.052762392129333646
1996.0,0.05256627811294923
1995.0,0.052419250695677544
1994.0,0.05227227303668425
1993.0,0.05217431555754937
1992.0,0.05212534510230182
1991.0,0.05207638016827354
1990.0,0.05197846685889629
1989.0,0.05192951848105887
1988.0,0.05192951848105887
1987.0,0.05192951848105887
1986.0,0.0518316382728683
1985.0,0.051684859310652254
1984.0,0.05163594401163074
1983.0,0.0515870342213991
1982.0,0.0515870342213991
1981.0,0.0515870342213991
1980.0,0.05153812993871654
1979.0,0.05153812993871654
1978.0,0.05148923116234294
1977.0,0.05144033789103841
1976.0,0.05144033789103841
1975.0,0.05144033789103841
1974.0,0.05129369109514803
1973.0,0.051049389754451946
1972.0,0.05095170768433621
1971.0,0.05095170768433621
1970.0,0.051049389754451946
1969.0,0.05119595406718891
1968.0,0.051244819831730126
1967.0,0.051244819831730126
1966.0,0.051098239029786274
1965.0,0.050902874887084115
1964.0,0.050707598587974356
1963.0,0.05065879322950262
1962.0,0.05056119896349576
1961.0,0.050414848673348
1960.0,0.05026854768429301
1959.0,0.05012229596312534
1958.0,0.04987865248862655
1957.0,0.04963514562387683
1956.0,0.04944043838819989
1955.0,0.04934311749548925
1954.0,0.049294465226138895
1953.0,0.049245818406496555
1952.0,0.04919717703534143
1951.0,0.049148541111453614
1950.0,0.04905128560059957
1949.0,0.04885683989244738
1948.0,0.04871106272232795
1947.0,0.04866248120408234
1946.0,0.048565334467987054
1945.0,0.04837110616336182
1944.0,0.048128442871635535
1943.0,0.047885915093007325
1942.0,0.047595060422975566
1941.0,0.04725597598510167
1940.0,0.047062332249019345
1939.0,0.04696554274964315
1938.0,0.04682039893436585
1937.0,0.04662694927330402
1936.0,0.04643358574299339
1935.0,0.04633693625290869
1934.0,0.04624030826677128
1933.0,0.046143701775014145
1932.0,0.04599883231842972
1931.0,0.045902279520810385
1930.0,0.04570923829887308
1929.0,0.045516282844447975
1928.0,0.045323413081356456
1927.0,0.0451788169482068
1926.0,0.04503426894157925
1925.0,0.04488976902944808
1924.0,0.04474531717982
1923.0,0.04469717723830824
1922.0,0.04460091336073302
1921.0,0.04450467081587295
1920.0,0.044456557540257124
1919.0,0.044360346976747955
1918.0,0.044071843103049346
1917.0,0.04363944632667782
1916.0,0.04339941178682327
1915.0,0.04344740808260106
1914.0,0.04359142880416744
1913.0,0.0435434165901003
1912.0,0.04339941178682327
1911.0,0.04325545471730896
1910.0,0.043063586155803746
1909.0,0.042775942156833
1908.0,0.04244059810252043
1907.0,0.04215336629184985
1906.0,0.04196198390166317
1905.0,0.0417706858116178
1904.0,0.041579471947481794
1903.0,0.041340572947066834
1902.0,0.04105406750606355
1901.0,0.04081545726880842
1900.0,0.04057697805689475
1899.0,0.040481623027001756
1898.0,0.04043395336207234
1897.0,0.040338629726504704
1896.0,0.04014804520039483
1895.0,0.03986232513620536
1894.0,0.03948165721929198
1893.0,0.03914884628031379
1892.0,0.03905380426616856
1891.0,0.03910132267333921
1890.0,0.03910132267333921
1889.0,0.03886378261277468
1888.0,0.03848398855105106
1887.0,0.038057116858612794
1886.0,0.03772539537668518
1885.0,0.03744126420403626
1884.0,0.03720463014276687
1883.0,0.0369681249461018
1882.0,0.036731748473764814
1881.0,0.03649550058570927
1880.0,0.03630659476198117
1879.0,0.03616496929785207
1878.0,0.03588185684851508
1877.0,0.03550466044490741
1876.0,0.03512779136222477
1875.0,0.03484535401307465
1874.0,0.03461012978487776
1873.0,0.034469056377139484
1872.0,0.03442204208947208
1871.0,0.03437503289075727
1870.0,0.03399914237121604
1869.0,0.033201453616638954
1868.0,0.03226486821611996
1867.0,0.03161045815293173
1866.0,0.031236951802751545
1865.0,0.031190286087141805
1864.0,0.031190286087141805
1863.0,0.031096969696171817
1862.0,0.030863766403287585
1861.0,0.030490901403433135
1860.0,0.030118356253500123
1859.0,0.029792641193145286
1858.0,0.029513651152349718
1857.0,0.029188389127482228
1856.0,0.028956208163971375
1855.0,0.028677754757187035
1854.0,0.02839947976994095
1853.0,0.028075050815808744
1852.0,0.027750864037404455
1851.0,0.02751945012352408
1850.0,0.027334407733889066
1849.0,0.02710321556345563
1848.0,0.02696455931306696
1847.0,0.027056991894431892
1846.0,0.02710321556345563
1845.0,0.026872146400301444
1844.0,0.02613355016462182
1843.0,0.02516604495145991
1842.0,0.024430342106337877
1841.0,0.024292536462819925
1840.0,0.024522236834125355
1839.0,0.024706084643793647
1838.0,0.02461415101053266
1837.0,0.02438440203310499
1836.0,0.024246610963712723
1835.0,0.024200690320592466
1834.0,0.024108863598207186
1833.0,0.024154774532432866
1832.0,0.024338466818941473
1831.0,0.024476287039668643
1830.0,0.02406295751688936
1829.0,0.023191662661933732
1828.0,0.022642270454698687
1827.0,0.022871099419317753
1826.0,0.023237476732539397
1825.0,0.023283295636617574
1824.0,0.02296266477531872
1823.0,0.022642270454698687
1822.0,0.02245929405346514
1821.0,0.022413561996148967
1820.0,0.022413561996148967
1819.0,0.02245929405346514
1818.0,0.02245929405346514
1817.0,0.022322112326006227
1816.0,0.02227639471115217
1815.0,0.022230681908425698
1814.0,0.022093572362881675
1813.0,0.021819483062586187
1812.0,0.02159120737696063
1811.0,0.021317434843055594
1810.0,0.020952673052035298
1809.0,0.02058821736556471
1808.0,0.020542681902151694
1807.0,0.020633757603838898
1806.0,0.020724852408976924
1805.0,0.02081596632558158
1804.0,0.0209982515252789
1803.0,0.02122621566987748
1802.0,0.021271822861508305
1801.0,0.021089422824428272
1800.0,0.020907099361673565
1799.0,0.020907099361673565
1798.0,0.020952673052035298
1797.0,0.021135015652343103
1796.0,0.021728158389364705
1795.0,0.02259651912656535
1794.0,0.023466619608062178
1793.0,0.024108863598207186
1792.0,0.024798037742147727
1791.0,0.025672564576383117
1790.0,0.026872146400301444
1789.0,0.02863136320857662
1788.0,0.031143625385307683
1787.0,0.03414006319292828
1786.0,0.03744126420403626
1785.0,0.04105406750606355
1784.0,0.0451788169482068
1783.0,0.04958646063061889
1782.0,0.05433450056786593
1781.0,0.05953332233647113
1780.0,0.06545105233385295
1779.0,0.07170658776779781
1778.0,0.07748213975538865
1777.0,0.08296737783760655
1776.0,0.08841629901892434
1775.0,0.09382663635595145
1774.0,0.0989778267519208
1773.0,0.10419084983086901
1772.0,0.11047420332880886
1771.0,0.1174754620451195
1770.0,0.12430223801979201
1769.0,0.1314731132317961
1768.0,0.1400815147992842
1767.0,0.1502121757623145
1766.0,0.16077342598656452
1765.0,0.1714689933548985
1764.0,0.18336105510153855
1763.0,0.1980477651457182
1762.0,0.21724080737600282
1761.0,0.24063437834407142
1760.0,0.2650402387275548
1759.0,0.28793985753892537
1758.0,0.3098039199714864
1757.0,0.33236029394358924
1756.0,0.3546759984377066
1755.0,0.3726341434072673
1754.0,0.38415511712529793
1753.0,0.3917949922956738
1752.0,0.39848321634998984
1751.0,0.4053864908399021
1750.0,0.41240127027875517
1749.0,0.4199878874705756
1748.0,0.4277093938485823
1747.0,0.4336803784751886
1746.0,0.43628166003432245
1745.0,0.4358075393738021
1744.0,0.43320908761840826
1743.0,0.4286406072461604
1742.0,0.4222784754909792
1741.0,0.41465208890540906
1740.0,0.4056074496245734
1739.0,0.3950183703925685
1738.0,0.384576047114056
1737.0,0.3759242688543174
1736.0,0.36804917374078294
1735.0,0.35773338109732644
1734.0,0.34390179798716813
1733.0,0.33003263009149597
1732.0,0.3196644865854368
1731.0,0.31149119234347866
1730.0,0.30346888003039285
1729.0,0.295249095709329
1728.0,0.2874344721266917
1727.0,0.28025450747042324
1726.0,0.2737619531973625
1725.0,0.2679280590001334
1724.0,0.2626483041962855
1723.0,0.2576677176428517
1722.0,0.2530545903848953
1721.0,0.2490290155626811
1720.0,0.24511677174783242
1719.0,0.24086118371883347
1718.0,0.23657200643706267
1717.0,0.23328979273774086
1716.0,0.2306226739238615
1715.0,0.22753159694671954
1714.0,0.22417118553538762
1713.0,0.22098102808512943
1712.0,0.21788585252092885
1711.0,0.21445663004340698
1710.0,0.2108425080885603
1709.0,0.20739821883503362
1708.0,0.2041199826559248
1707.0,0.20072839165012724
1706.0,0.1974315016860435
1705.0,0.1946350925335547
1704.0,0.19246497193114664
1703.0,0.19050762306265812
1702.0,0.18842499412940672
1701.0,0.1862189218259176
1700.0,0.18415670933673334
1699.0,0.18203819546800593
1698.0,0.18019293540924397
1697.0,0.17927323717616583
1696.0,0.17861750025270084
1695.0,0.17737432122585917
1694.0,0.1755487299633871
1693.0,0.17405485679615196
1692.0,0.17288931253398876
1691.0,0.17153345264732156
1690.0,0.1701175535565067
1689.0,0.16915480769138846
1688.0,0.16845014800424418
1687.0,0.16781053893148679
1686.0,0.16691666582165698
1685.0,0.16602462872009371
1684.0,0.16589734428720626
1683.0,0.16557929631846746
1682.0,0.16456310519814177
1681.0,0.16380251922107458
1680.0,0.16329620091026875
1679.0,0.16272729749769965
1678.0,0.16215913834447737
1677.0,0.16165473122400909
1676.0,0.16115090926274478
1675.0,0.16077342598656452
1674.0,0.16039627052916305
1673.0,0.159956669396506
1672.0,0.15945481236316117
1671.0,0.158765704493959
1670.0,0.1582027011256446
1669.0,0.15807768832054925
1668.0,0.15801519540988607
1667.0,0.15782777061438424
1666.0,0.15751557558842988
1665.0,0.15707887924001773
1664.0,0.1565803347950816
1663.0,0.1560823619936076
1662.0,0.15589576930248672
1661.0,0.15570925674565683
1660.0,0.15539858037365328
1659.0,0.15496400648658493
1658.0,0.15440590683997568
1657.0,0.1538485234711846
1656.0,0.15335367142288248
1655.0,0.1527358982292355
1654.0,0.15193410459600853
1653.0,0.15193410459600853
1652.0,0.1515645446685292
1651.0,0.15027355580367208
1650.0,0.1497214474819628
1649.0,0.14923127307111983
1648.0,0.14849704722945534
1647.0,0.1480693213597324
1646.0,0.1479471913021495
1645.0,0.14764201633217278
1644.0,0.1471541819850033
1643.0,0.1466060225493342
1642.0,0.14599776687301103
1641.0,0.14539036190420496
1640.0,0.14466259553045968
1639.0,0.14405705376768396
1638.0,0.14351278713136928
1637.0,0.14290884532648618
1636.0,0.14224547794055775
1635.0,0.1414628024303608
1634.0,0.14038142122781938
1633.0,0.13960209487268727
1632.0,0.13912320359670227
1631.0,0.1385253311428314
1630.0,0.13780896894840278
1629.0,0.1370342410222376
1628.0,0.13626089265478303
1627.0,0.1354889189416082
1626.0,0.13471831500438958
1625.0,0.13406733180681396
1624.0,0.13341732293645103
1623.0,0.13265038281120756
1622.0,0.13176713157753506
1621.0,0.1308856730206247
1620.0,0.13006458935314003
1619.0,0.12936203678919433
1618.0,0.12866061890013913
1617.0,0.12796033202671375
1616.0,0.1270865583796048
1615.0,0.12598229613781387
1614.0,0.1251124891538875
1613.0,0.12453358413361437
1612.0,0.12378215940835768
1611.0,0.12291674334934943
1610.0,0.12211057462851604
1609.0,0.12142076193778073
1608.0,0.1207320431753871
1607.0,0.1201016756699902
1606.0,0.11952940719622163
1605.0,0.11890078161098283
1604.0,0.11815903167507247
1603.0,0.11741854644554883
1602.0,0.11667932161702477
1601.0,0.11605480496572018
1600.0,0.11548784080960606
1599.0,0.11492161585077598
1598.0,0.11435612816423602
1597.0,0.1138478180292033
1596.0,0.11339648571328764
1595.0,0.1130019543289007
1594.0,0.11260778102815316
1593.0,0.11221396516162851
1592.0,0.11165198982195101
1591.0,0.11103465569966264
1590.0,0.11047420332880886
1589.0,0.10997041383658313
1588.0,0.10963487855187593
1587.0,0.10929960230112479
1586.0,0.10902040301031102
1585.0,0.10874138309586101
1584.0,0.10823959854332843
1583.0,0.10768273927751948
1582.0,0.10723776538418317
1581.0,0.10684878687013422
1580.0,0.10640466618011679
1579.0,0.1061827760325369
1578.0,0.1060718734573931
1577.0,0.1060718734573931
1576.0,0.10585015323207791
1575.0,0.10529634739076998
1574.0,0.1047432468551055
1573.0,0.10457745396059215
1572.0,0.10446696051592963
1571.0,0.10419084983086901
1570.0,0.10385974855798041
1569.0,0.1038045895457893
1568.0,0.10385974855798041
1567.0,0.10397008760377302
1566.0,0.10408045468998406
1565.0,0.10402526764093545
1564.0,0.1038045895457893
1563.0,0.10363915453068362
1562.0,0.10369429253391926
1561.0,0.10347378251044459
1560.0,0.10253786198693682
1559.0,0.10193333935836524
1558.0,0.10242788617426934
1557.0,0.1022080180607754
1556.0,0.10237290870955862
1555.0,0.10275789719463457
1554.0,0.10281292341984649
1553.0,0.10264786565568684
1552.0,0.10248287059947447
1551.0,0.10253786198693682
1550.0,0.10275789719463457
1549.0,0.10292299679057959
1548.0,0.1028679566179056
1547.0,0.10253786198693682
1546.0,0.10215306842042837
1545.0,0.10182351650232357
1544.0,0.1017686154869033
1543.0,0.1017686154869033
1542.0,0.1014393550602879
1541.0,0.10094593200182911
1540.0,0.10061729446673495
1539.0,0.10012480397898926
1538.0,0.09935981601739963
1537.0,0.09914149529800831
1536.0,0.09930522554760213
1535.0,0.09930522554760213
1534.0,0.09903237608087578
1533.0,0.09875969792669093
1532.0,0.09854167860388774
1531.0,0.09837823590664274
1530.0,0.09816040794877057
1529.0,0.09794268919153337
1528.0,0.09761631556752848
1527.0,0.0972358560759139
1526.0,0.09685572959046151
1525.0,0.0964759355287379
1524.0,0.096150661903319
1523.0,0.09582563171583658
1522.0,0.09533854208447545
1521.0,0.09479797133768142
1520.0,0.09420411963213149
1519.0,0.09371884422784693
1518.0,0.09328794305703592
1517.0,0.09280368972839836
1516.0,0.0922125568893839
1515.0,0.0916222275676053
1514.0,0.09113982698272349
1513.0,0.09076499663169257
1512.0,0.09028354676565531
1511.0,0.08969583193143116
1510.0,0.08910891135547172
1509.0,0.08868255767596933
1508.0,0.08830984124613894
1507.0,0.08783110394037297
1506.0,0.08661005636824437
1505.0,0.08470571697731355
1504.0,0.08365134772453975
1503.0,0.08333553545860273
1502.0,0.08296737783760655
1501.0,0.08244197917456386
1500.0,0.08191721535781271
1499.0,0.08134070657817682
1498.0,0.08066036321258663
1497.0,0.07987667370927598
1496.0,0.079094395835976
1495.0,0.07820951434181311
1494.0,0.07743023101428781
1493.0,0.07701518429111709
1492.0,0.07665234350217442
1491.0,0.0760310351245288
1490.0,0.07494587968815725
1489.0,0.07386342893255127
1488.0,0.07288638806623937
1487.0,0.07196279359311708
1486.0,0.07114346641808922
1485.0,0.07047889936889606
1484.0,0.06996838504902692
1483.0,0.06945847013556561
1482.0,0.06869471857832687
1481.0,0.06777998612288094
1480.0,0.06701917807680191
1479.0,0.06646209802829528
1478.0,0.0659562809644747
1477.0,0.0654005617819271
1476.0,0.06499684854634524
1475.0,0.06479513257341862
1474.0,0.06474471821595262
1473.0,0.06504729218214189
1472.0,0.0659562809644747
1471.0,0.06712054217620067
1470.0,0.06864384953207203
1469.0,0.07093887591523451
1468.0,0.07396640332115534
1467.0,0.07758597585436577
1466.0,0.08207457793525874
1465.0,0.08825662214406838
1464.0,0.096150661903319
1463.0,0.10408045468998406
1462.0,0.11137127461477392
1461.0,0.11850122038501709
1460.0,0.12592425477696523
1459.0,0.1340081998737246
1458.0,0.14357322752975565
1457.0,0.15564710368910672
1456.0,0.16685288808721488
1455.0,0.173212761183708
1454.0,0.17672144304832926
1453.0,0.17960147729601839
1452.0,0.18223636771963214
1451.0,0.1842894602110372
1450.0,0.18568579979254052
1449.0,0.18695303483989223
1448.0,0.188023055663046
1447.0,0.18829097330380895
1446.0,0.18748771571001743
1445.0,0.18588564387087447
1444.0,0.18336105510153855
1443.0,0.17953580942231584
1442.0,0.17457388223217696
1441.0,0.16889843549864048
1440.0,0.16329620091026875
1439.0,0.15776531365276036
1438.0,0.15193410459600853
1437.0,0.14520830594601453
1436.0,0.13792828062000573
1435.0,0.1316495003520317
1434.0,0.12720296001040166
1433.0,0.12378215940835768
1432.0,0.12050271275057156
1431.0,0.11713408027837091
1430.0,0.1138478180292033
1429.0,0.11092250734993603
1428.0,0.10846254232743546
1427.0,0.1063491830140364
1426.0,0.10452220372428545
1425.0,0.10259286033841963
1424.0,0.1005078038618683
1423.0,0.09865067458435761
1422.0,0.09729018703012282
1421.0,0.09625905937846135
1420.0,0.09496007192378841
1419.0,0.09323411045927221
1418.0,0.09130056764777605
1417.0,0.08953568400438638
1416.0,0.0881502035005799
1415.0,0.08692825969074924
1414.0,0.08576265223225898
1413.0,0.08454739831152125
1412.0,0.08328292240118751
1411.0,0.08207457793525874
1410.0,0.08086958613938555
1409.0,0.07956359344924135
1408.0,0.07820951434181311
1407.0,0.07691148455760066
1406.0,0.07577241873988227
1405.0,0.07463633264589853
1404.0,0.0734517753643813
1403.0,0.07247565912497134
1402.0,0.07186029312488018
1401.0,0.07150173187630915
1400.0,0.0713481533463054
1399.0,0.07160414774328627
1398.0,0.07247565912497134
1397.0,0.07396640332115534
1396.0,0.07613452481449845
1395.0,0.07930286553008004
1394.0,0.08344078069888616
1393.0,0.08799062441302175
1392.0,0.09291125492570451
1391.0,0.09865067458435761
1390.0,0.1052410056281079
1389.0,0.11288929687511629
1388.0,0.12182301950849372
1387.0,0.13170831198214428
1386.0,0.1408016384661226
1385.0,0.1477030341730745
1384.0,0.15285938258659382
1383.0,0.15707887924001773
1382.0,0.16045910703103106
1381.0,0.16222223044626682
1380.0,0.16178077809237412
1379.0,0.15901616267962204
1378.0,0.15428198203334142
1377.0,0.14874165128092476
1376.0,0.14345235514325205
1375.0,0.13912320359670227
1374.0,0.13655817138629134
1373.0,0.136142038116027
1372.0,0.13751083309410284
1371.0,0.1399616101928065
1370.0,0.14284849731250704
1369.0,0.14575470293388149
1368.0,0.14837479684669086
1367.0,0.15064201833870117
1366.0,0.15279763601907614
1365.0,0.15521228117215347
1364.0,0.15857795559764076
1363.0,0.16329620091026875
1362.0,0.16909070045355667
1361.0,0.1748985884019969
1360.0,0.17992996568767428
1359.0,0.18422307970163732
1358.0,0.18782222584124608
1357.0,0.19050762306265812
1356.0,0.1919917000896001
1355.0,0.19226207798589923
1354.0,0.1911815749078758
1353.0,0.18902860017779255
1352.0,0.18615224577114575
1351.0,0.1827652695745019
1350.0,0.17907641211868253
1349.0,0.17528855653526554
1348.0,0.1714045436282976
1347.0,0.167618839752959
1346.0,0.16380251922107458
1345.0,0.160145015398115
1344.0,0.15664262156204445
1343.0,0.1534154971019539
1342.0,0.1503963419175529
1341.0,0.14752000636314366
1340.0,0.1447838052666366
1339.0,0.14212497447643746
1338.0,0.1397219002477652
1337.0,0.1374512304752069
1336.0,0.13531096586314884
1335.0,0.13318119707395182
1334.0,0.1311205537629121
1333.0,0.12912810493225724
1332.0,0.12731939284807026
1331.0,0.12563416426995122
1330.0,0.12407101507707297
1329.0,0.12262865413022594
1328.0,0.1213058996038916
1327.0,0.1201016756699902
1326.0,0.11907213473291511
1325.0,0.11815903167507247
1324.0,0.11736163830396129
1323.0,0.11667932161702477
1322.0,0.11594135290606156
1321.0,0.11526126223036814
1320.0,0.11458223488906394
1319.0,0.1138478180292033
1318.0,0.11317099532301778
1317.0,0.1125514997500463
1316.0,0.1120452961911984
1315.0,0.11159583226295333
1314.0,0.11120293254331926
1313.0,0.11081038795292675
1312.0,0.11047420332880886
1311.0,0.11030620855581463
1310.0,0.11041819785037621
1309.0,0.11086644403327606
1308.0,0.11153968196461372
1307.0,0.11227020271196975
1306.0,0.11288929687511629
1305.0,0.11328372588352176
1304.0,0.11328372588352176
1303.0,0.112945621949043
1302.0,0.11232644754555254
1301.0,0.1114835389250548
1300.0,0.11047420332880886
1299.0,0.10946720807225518
1298.0,0.10835105612944096
1297.0,0.10729336219433439
1296.0,0.1062937069352865
1295.0,0.10518567091669917
1294.0,0.10391491457671487
1293.0,0.10231793820358015
1292.0,0.10034361969436434
1291.0,0.09805153492691598
1290.0,0.09571734235437201
1289.0,0.09344948089854999
1288.0,0.0916222275676053
1287.0,0.09033701484598189
1286.0,0.08980263003399913
1285.0,0.08996287644694911
1284.0,0.09076499663169257
1283.0,0.09215885741705532
1282.0,0.09404230090757282
1281.0,0.09631326826349751
1280.0,0.09881421986284966
1279.0,0.10149421446564144
1278.0,0.10419084983086901
1277.0,0.10701544928928342
1276.0,0.10980261378997125
1275.0,0.11260778102815316
1274.0,0.11514801725400226
1273.0,0.1175323851046286
1272.0,0.11958660012208333
1271.0,0.12136332697348307
1270.0,0.12274386688641381
1269.0,0.12395544975390482
1268.0,0.1248808345374317
1267.0,0.12551818230053358
1266.0,0.12592425477696523
1265.0,0.12598229613781387
1264.0,0.12575017722159698
1263.0,0.12522836281570182
1262.0,0.12436006299583169
1261.0,0.12320502379929943
1260.0,0.12182301950849372
1259.0,0.12033079436794658
1258.0,0.11878658374498086
1257.0,0.11730473761840288
1256.0,0.11577123036739612
1255.0,0.11424311893073247
1254.0,0.11266406960083297
1253.0,0.11097857790477517
1252.0,0.10935546370475246
1251.0,0.10773839308446487
1250.0,0.1061827760325369
1249.0,0.10468797552421272
1248.0,0.10330847343711591
1247.0,0.10204318999304807
1246.0,0.10089114180660053
1245.0,0.09985143928065598
1244.0,0.09892328427374508
1243.0,0.09810596802617932
1242.0,0.09739886933346864
1241.0,0.09674718310604158
1240.0,0.09625905937846135
1239.0,0.09587978652380036
1238.0,0.0957714836599215
1237.0,0.0957714836599215
1236.0,0.09582563171583658
1235.0,0.09593394808549704
1234.0,0.09620485725896466
1233.0,0.09674718310604158
1232.0,0.09772507952549825
1231.0,0.09914149529800831
1230.0,0.10111034407341357
1229.0,0.10352889952072264
1228.0,0.10651565378151395
1227.0,0.11013827874181148
1226.0,0.1145256971708426
1225.0,0.11970100857424737
1224.0,0.12563416426995122
1223.0,0.132179091954427
1222.0,0.13918303613546223
1221.0,0.14642345638035836
1220.0,0.15397232463562127
1219.0,0.16196991701467978
1218.0,0.1706318920111798
1217.0,0.17999569319168218
1216.0,0.19003647828598602
1215.0,0.20045269287438483
1214.0,0.21091308491197136
1213.0,0.22105327203138314
1212.0,0.2303273359445075
1211.0,0.23829763245858726
1210.0,0.24458253718906375
1209.0,0.24918315735024543
1208.0,0.252432837262375
1207.0,0.2546128786799913
1206.0,0.2560984495148211
1205.0,0.25743196563385795
1204.0,0.25900606841511387
1203.0,0.2609025538825249
1202.0,0.26320524507563947
1201.0,0.2656803191409931
1200.0,0.2684918164039747
1199.0,0.2717274021049829
1198.0,0.2754783728814374
1197.0,0.2798406965940432
1196.0,0.2850000325879576
1195.0,0.29073003902416916
1194.0,0.29688065376392214
1193.0,0.30373100325446734
1192.0,0.3113132757158765
1191.0,0.31975516295739226
1190.0,0.329197715739056
1189.0,0.3397038397292702
1188.0,0.3515424057174774
1187.0,0.36451625318508785
1186.0,0.3785121354193697
1185.0,0.39318885308103657
1184.0,0.40815658877521566
1183.0,0.4226231080829854
1182.0,0.4353339357479107
1181.0,0.44514756562794555
1180.0,0.4514877436589646
1179.0,0.45296410025998957
1178.0,0.4494047925106721
1177.0,0.4410515540219604
1176.0,0.42922363120525175
1175.0,0.4145392704914994
1174.0,0.39815721021790185
1173.0,0.38111551500454954
1172.0,0.36411431471872735
1171.0,0.34736693191688994
1170.0,0.3310552655422663
1169.0,0.31533413597413906
1168.0,0.3005959181846627
1167.0,0.28667749501297246
1166.0,0.27368038788922466
1165.0,0.2615365605380475
1164.0,0.25041826513444065
1163.0,0.24003014244569276
1162.0,0.2301797422364078
1161.0,0.22083657623550135
1160.0,0.21190236661970263
1159.0,0.2033562962148836
1158.0,0.19517932127883775
1157.0,0.1872871332346313
1156.0,0.17986424812957003
1155.0,0.17288931253398876
1154.0,0.16634300310712757
1153.0,0.16045910703103106
1152.0,0.15527437202677397
1151.0,0.15082636690117335
1150.0,0.1472760892087941
1149.0,0.14496568332411575
1148.0,0.1441175699639643
1147.0,0.14496568332411575
1146.0,0.1477030341730745
1145.0,0.15236565568174498
1144.0,0.1590787998012282
1143.0,0.16768273007773837
1142.0,0.17809362264767703
1141.0,0.19003647828598602
1140.0,0.20328693671910347
1139.0,0.21759904750347014
1138.0,0.2327699018892817
1137.0,0.24833605373901335
1136.0,0.2641616656829262
1135.0,0.27967528258255836
1134.0,0.2940508050897044
1133.0,0.3068888845378588
1132.0,0.3177646430974359
1131.0,0.32633412375429804
1130.0,0.33236029394358924
1129.0,0.3360165453917334
1128.0,0.3374310330667398
1127.0,0.33677036546713235
1126.0,0.3340439705460432
1125.0,0.3298469548078198
1124.0,0.32440494361325367
1123.0,0.31812587787135316
1122.0,0.3109576609718283
1121.0,0.3033815407677751
1120.0,0.29576366269121235
1119.0,0.2884458317498304
1118.0,0.28166442109149337
1117.0,0.27580608048567035
1116.0,0.2712405248321257
1115.0,0.26808905788312765
1114.0,0.2662411644127973
1113.0,0.2657603955645449
1112.0,0.26680273489343054
1111.0,0.2692984557181548
1110.0,0.27310985925817843
1109.0,0.27785987454258443
1108.0,0.2835792661534451
1107.0,0.2898826348881838
1106.0,0.29696669526631414
1105.0,0.3046058917088901
1104.0,0.3128278954052004
1103.0,0.3212995650016959
1102.0,0.32993978252686573
1101.0,0.33875539104066643
1100.0,0.3483343960770644
1099.0,0.3584267468218245
1098.0,0.36886074974318883
1097.0,0.3795516152882912
1096.0,0.3904055907747799
1095.0,0.40142833651785903
1094.0,0.4122890349810886
1093.0,0.42331319479900453
1092.0,0.4347426565797863
1091.0,0.4464810598510305
1090.0,0.45804652554176384
1089.0,0.46954415641532377
1088.0,0.4806971507645712
1087.0,0.4912010345960949
1086.0,0.5005878743277246
1085.0,0.5087784237607171
1084.0,0.5159850373324371
1083.0,0.5215778122599195
1082.0,0.5253467466379373
1081.0,0.5275361033930106
1080.0,0.5287082889410615
1079.0,0.5287082889410615
1078.0,0.5269511949114623
1077.0,0.5233132570543553
1076.0,0.518557371497695
1075.0,0.5128616245228135
1074.0,0.5064025509994732
1073.0,0.49962628564662603
1072.0,0.49241396023698925
1071.0,0.4846561069116191
1070.0,0.47612352436186867
1069.0,0.4673729987711088
1068.0,0.45867042233330624
1067.0,0.4495270428934366
1066.0,0.43973460213728544
1065.0,0.42969061456412017
1064.0,0.4199878874705756
1063.0,0.41060897686306697
1062.0,0.40208552879747184
1061.0,0.394479476562531
1060.0,0.38827669199265813
1059.0,0.38310457359924
1058.0,0.3787198324495853
1057.0,0.3756147585797349
1056.0,0.3739677521709812
1055.0,0.3739677521709812
1054.0,0.374790474618119
1053.0,0.37633729264379534
1052.0,0.37840832414078207
1051.0,0.3812199754937853
1050.0,0.384681343388521
1049.0,0.38912699961994823
1048.0,0.3949105381184195
1047.0,0.4017568083463774
1046.0,0.4090467648120142
1045.0,0.4162346317150003
1044.0,0.423083044034793
1043.0,0.42887372291568826
1042.0,0.4333268623938835
1041.0,0.4364002711184689
1040.0,0.43830246734600653
1039.0,0.43913730527253514
1038.0,0.4386600585410987
1037.0,0.43735032778808325
1036.0,0.43545228824405213
1035.0,0.4328559548043429
1034.0,0.4295738216410274
1033.0,0.4258529358492773
1032.0,0.4219341161639085
1031.0,0.4180503416266821
1030.0,0.41408828968056577
1029.0,0.4102737437457631
1028.0,0.40682473652189755
1027.0,0.40373287360448473
1026.0,0.40077213722620364
1025.0,0.3979400086720375
1024.0,0.3953420279521289
1023.0,0.39297412156521405
1022.0,0.3904055907747799
1021.0,0.3877460939035626
1020.0,0.38489201255680605
1019.0,0.3818472666214805
1018.0,0.3785121354193697
1017.0,0.3749963989851366
1016.0,0.37140674414874075
1015.0,0.3677452233152865
1014.0,0.36411431471872735
1013.0,0.3605135107314139
1012.0,0.3570411205902093
1011.0,0.3537923877933149
1010.0,0.35047043405218115
1009.0,0.34736693191688994
1008.0,0.3446694419906591
1007.0,0.3419886033428876
1006.0,0.3392293564723028
1005.0,0.3363932918754797
1004.0,0.3335756274812405
1003.0,0.3308691526266674
1002.0,0.328271911760442
1001.0,0.32605800136591223
1000.0,0.32403845035783063
999.0,0.3221194184884095
998.0,0.32002730572258153
997.0,0.31803554100531684
996.0,0.31623273857468837
995.0,0.31461659019851274
994.0,0.3128278954052004
993.0,0.3108688027655022
992.0,0.30891850787703157
991.0,0.3070649974688622
990.0,0.30539480106643135
989.0,0.30381841283147626
988.0,0.30224772583224535
987.0,0.30076949711659084
986.0,0.29929628285498056
985.0,0.2979142785641751
984.0,0.29662263148765056
983.0,0.29533481454547084
982.0,0.2940508050897044
981.0,0.29268536641129206
980.0,0.291324207273463
979.0,0.2898826348881838
978.0,0.2883614617676509
977.0,0.28692967414436055
976.0,0.28583795390114686
975.0,0.28474897112115083
974.0,0.283495836226783
973.0,0.28207997416300645
972.0,0.28058584029740663
971.0,0.27909682918654255
970.0,0.27753061411596924
969.0,0.27605202356835656
968.0,0.27466018409026294
967.0,0.2733542797590882
966.0,0.27213355053251087
965.0,0.2710783536271406
964.0,0.27010659603676235
963.0,0.26937920211271726
962.0,0.2688142923659995
961.0,0.26865302445404504
960.0,0.2690563065722642
959.0,0.26970233790285025
958.0,0.27026840471296465
957.0,0.2705922030369319
956.0,0.27091624295638805
955.0,0.27115943166002854
954.0,0.27115943166002854
953.0,0.27083521030723
952.0,0.27026840471296465
951.0,0.26937920211271726
950.0,0.26808905788312765
949.0,0.26680273489343054
948.0,0.2657603955645449
947.0,0.26496029496627926
946.0,0.264241462556261
945.0,0.2635238179723034
944.0,0.26256879948541756
943.0,0.2615365605380475
942.0,0.2604276555499081
941.0,0.25924267669222956
940.0,0.2582183038568333
939.0,0.2571963415308345
938.0,0.25633347855378696
937.0,0.2555505425532014
936.0,0.2548471049230996
935.0,0.2539888922480742
934.0,0.2530545903848953
933.0,0.2522775379644915
932.0,0.25181197299379954
931.0,0.25157937753243176
930.0,0.25150187338626306
929.0,0.25142438306900816
928.0,0.25142438306900816
927.0,0.2516568955124505
926.0,0.25181197299379954
925.0,0.2519671058698565
924.0,0.25219990913563106
923.0,0.252432837262375
922.0,0.25282132863983553
921.0,0.2532101678473877
920.0,0.25359935550843904
919.0,0.2539888922480742
918.0,0.25430077339749424
917.0,0.254534831329273
916.0,0.2546128786799913
915.0,0.25422278211024096
914.0,0.2532101678473877
913.0,0.2519671058698565
912.0,0.25088233764367773
911.0,0.25018641470706227
910.0,0.24964591123729196
909.0,0.2491060796178748
908.0,0.24848994972995864
907.0,0.24779784682347894
906.0,0.24718356881172854
905.0,0.2467234298155816
904.0,0.24641694110709333
903.0,0.2461106685401666
902.0,0.24565166428898122
901.0,0.2450404122782901
900.0,0.24443001937120012
899.0,0.24389662841489446
898.0,0.2432878398352285
897.0,0.24275584897802993
896.0,0.2423003749122612
895.0,0.24176959154225042
894.0,0.24116377525304178
893.0,0.2404832405378119
892.0,0.2399546720341894
891.0,0.23920068836928232
890.0,0.23807216157947098
889.0,0.23694655970038525
888.0,0.23582386760966934
887.0,0.23485320989197467
886.0,0.23388471677858602
885.0,0.23291837863667775
884.0,0.2321023839819094
883.0,0.23136189875238555
882.0,0.23077041826340627
881.0,0.23054882059796222
880.0,0.23091821288178105
879.0,0.23217650199248308
878.0,0.23433144524098592
877.0,0.23739645043319646
876.0,0.24139085734025634
875.0,0.24626377782498987
874.0,0.25181197299379954
873.0,0.2576677176428517
872.0,0.2635238179723034
871.0,0.2688142923659995
870.0,0.27294698864614264
869.0,0.27580608048567035
868.0,0.27769521312567225
867.0,0.2787666299827225
866.0,0.2791794182296561
865.0,0.27926202298157476
864.0,0.27909682918654255
863.0,0.2786016244784948
862.0,0.27785987454258443
861.0,0.27687284120430844
860.0,0.27580608048567035
859.0,0.2744150277293056
858.0,0.2723774220308628
857.0,0.26994484762450033
856.0,0.26736503246080434
855.0,0.2648004515776867
854.0,0.26256879948541756
853.0,0.2605067692183851
852.0,0.2587695889745292
851.0,0.2571178285627269
850.0,0.25578527518583405
849.0,0.2548471049230996
848.0,0.2541448048262711
847.0,0.25336580106242135
846.0,0.2523551806717519
845.0,0.2512694439015055
844.0,0.2503409679051003
843.0,0.24956875133979795
842.0,0.2487208960166578
841.0,0.24795155218056153
840.0,0.24741382125959088
839.0,0.24687675531828734
838.0,0.2461106685401666
837.0,0.24519314464557662
836.0,0.24412514432750854
835.0,0.24313577593945102
834.0,0.24222450898807435
833.0,0.2414665777627134
832.0,0.24093681183951277
831.0,0.24055880286630238
830.0,0.2401056259745007
829.0,0.23965292147009354
828.0,0.23927602785804836
827.0,0.23889946104185777
826.0,0.23837281543841726
825.0,0.2377717157135255
824.0,0.23739645043319646
823.0,0.23702150913225695
822.0,0.2364222755333547
821.0,0.23559967704361195
820.0,0.23462951970835144
819.0,0.23381030668984004
818.0,0.2330669061627162
817.0,0.23254728190222673
816.0,0.23232477597203993
815.0,0.23232477597203993
814.0,0.23254728190222673
813.0,0.23291837863667775
812.0,0.23299263605019593
811.0,0.23254728190222673
810.0,0.23158391178366822
809.0,0.2304749798289496
808.0,0.22973726182940668
807.0,0.22929523178422073
806.0,0.22892721677880523
805.0,0.2287800980504664
804.0,0.2287800980504664
803.0,0.2287800980504664
802.0,0.22826557461323072
801.0,0.22731164531785852
800.0,0.2261404476233131
799.0,0.2251911696892941
798.0,0.22453519065426075
797.0,0.22409842110832567
796.0,0.22388020094701222
795.0,0.22366209037982476
794.0,0.22329881601158919
793.0,0.2228632874958274
792.0,0.222500680409635
791.0,0.22242819530859004
790.0,0.2225731776106885
789.0,0.22264568691579112
788.0,0.22242819530859004
787.0,0.22184874961635637
786.0,0.22098102808512943
785.0,0.22025924882325953
784.0,0.21989880853208832
783.0,0.21989880853208832
782.0,0.22004294875309416
781.0,0.22025924882325953
780.0,0.22047565667521019
779.0,0.22054781659593825
778.0,0.22011503680735567
777.0,0.2195386671382824
776.0,0.21889116427053357
775.0,0.2186036948032093
774.0,0.2186036948032093
773.0,0.21889116427053357
772.0,0.2192507688964478
771.0,0.2193946941610303
770.0,0.2194666746835956
769.0,0.21975471613464737
768.0,0.22047565667521019
767.0,0.22134236805264473
766.0,0.22221081256513253
765.0,0.2231535913047007
764.0,0.2243167509739561
763.0,0.2259942697417905
762.0,0.22833904065111255
761.0,0.23150989482875484
760.0,0.23604817396667577
759.0,0.24199699070020086
758.0,0.248951965179812
757.0,0.25633347855378696
756.0,0.2634441528373641
755.0,0.2695407399542311
754.0,0.27400674107527756
753.0,0.2766264329810155
752.0,0.27761290582287623
751.0,0.27753061411596924
750.0,0.27646223846794316
749.0,0.27466018409026294
748.0,0.2723774220308628
747.0,0.2703493316640797
746.0,0.2689756201843121
745.0,0.2684918164039747
744.0,0.26865302445404504
743.0,0.26865302445404504
742.0,0.26833066817136375
741.0,0.2676062401770314
740.0,0.26656197290893857
739.0,0.2654401784205238
738.0,0.26440110030182007
737.0,0.2639223629960543
736.0,0.2635238179723034
735.0,0.2624098337142784
734.0,0.2601904009786411
733.0,0.2573534100612638
732.0,0.2543787786930616
731.0,0.25142438306900816
730.0,0.24856691818065246
729.0,0.2461106685401666
728.0,0.24435378054332002
727.0,0.24283180778572744
726.0,0.24139085734025634
725.0,0.24033215531036944
724.0,0.2401056259745007
723.0,0.24018112262517377
722.0,0.2398037705448659
721.0,0.2389747482886273
720.0,0.23844801143581806
719.0,0.23859844250136897
718.0,0.23920068836928232
717.0,0.23987921473543228
716.0,0.24116377525304178
715.0,0.24321180123188202
714.0,0.24565166428898122
713.0,0.24756739073852607
712.0,0.2487208960166578
711.0,0.24926024876464936
710.0,0.24964591123729196
709.0,0.2503409679051003
708.0,0.2511919950413979
707.0,0.25204469309327027
706.0,0.2523551806717519
705.0,0.2521222941802099
704.0,0.25188953250501633
703.0,0.25188953250501633
702.0,0.2523551806717519
701.0,0.25352149006996894
700.0,0.25515960321462083
699.0,0.2568039185512987
698.0,0.2582183038568333
697.0,0.25940048718884356
696.0,0.26058589730130466
695.0,0.261774551857495
694.0,0.2626483041962855
693.0,0.2629664686661224
692.0,0.2624893093265239
691.0,0.2613779720820575
690.0,0.2601904009786411
689.0,0.25940048718884356
688.0,0.2597162803181208
687.0,0.2609025538825249
686.0,0.26272782346445656
685.0,0.26472055193954325
684.0,0.2660808489876092
683.0,0.2662411644127973
682.0,0.26536016101230064
681.0,0.2645607967485186
680.0,0.2645607967485186
679.0,0.26464066699828925
678.0,0.2640021159082062
677.0,0.263046046216854
676.0,0.26272782346445656
675.0,0.26320524507563947
674.0,0.26376290109527134
673.0,0.2638426247268679
672.0,0.2635238179723034
671.0,0.2628073572952627
670.0,0.2615365605380475
669.0,0.25955835505023406
668.0,0.258060922270801
667.0,0.2597162803181208
666.0,0.2620126736665691
665.0,0.261774551857495
664.0,0.26034855629062315
663.0,0.25900606841511387
662.0,0.2576677176428517
661.0,0.25656863485331627
660.0,0.2562551214075388
659.0,0.25656863485331627
658.0,0.2566470485904444
657.0,0.25570701687732367
656.0,0.2539888922480742
655.0,0.2519671058698565
654.0,0.2505729008782511
653.0,0.25049557612385787
652.0,0.2521222941802099
651.0,0.2543787786930616
650.0,0.25547232652743346
649.0,0.2543787786930616
648.0,0.25181197299379954
647.0,0.2494144726589913
646.0,0.24833605373901335
645.0,0.24879790541164692
644.0,0.2498774732165998
643.0,0.2501091587285782
642.0,0.2488749284644165
641.0,0.24710684511540615
640.0,0.2465701584245772
639.0,0.24841299491768987
638.0,0.2525105077413272
637.0,0.2583757424961879
636.0,0.2652801583443203
635.0,0.27140275661656843
634.0,0.2742516670044517
633.0,0.27294698864614264
632.0,0.2688142923659995
631.0,0.2638426247268679
630.0,0.2590849235187176
629.0,0.255237762934422
628.0,0.25266589038409504
627.0,0.25134690657573255
626.0,0.2506502394025234
625.0,0.25018641470706227
624.0,0.24972308484600725
623.0,0.24918315735024543
622.0,0.24864390027460637
621.0,0.24779784682347894
620.0,0.24626377782498987
619.0,0.2440489589958681
618.0,0.24192117775038735
617.0,0.241315150117559
616.0,0.2429077798810675
615.0,0.24526953097624649
614.0,0.24695343837347083
613.0,0.24741382125959088
612.0,0.24756739073852607
611.0,0.24818221226312076
610.0,0.24926024876464936
609.0,0.2503409679051003
608.0,0.25026368443093894
607.0,0.24764419584649922
606.0,0.242376254091611
605.0,0.23649713453240295
604.0,0.23247310059161808
603.0,0.23143589048642665
602.0,0.23291837863667775
601.0,0.23574912456122687
600.0,0.23844801143581806
