cm-1,A
4000.0,-0.45689718744934815
3999.0,-0.45676066694256967
3998.0,-0.45660892714091306
3997.0,-0.45647231597514537
3996.0,-0.4563204753743739
3995.0,-0.4561230031943837
3994.0,-0.45572778926036905
3993.0,-0.4552713258312795
3992.0,-0.45513429319609955
3991.0,-0.45540831524228587
3990.0,-0.4557734092273469
3989.0,-0.45587983718472547
3988.0,-0.455803819876607
3987.0,-0.455803819876607
3986.0,-0.45591024038274286
3985.0,-0.456016634817745
3984.0,-0.45609261488790187
3983.0,-0.4561837734291294
3982.0,-0.4561989646592375
3981.0,-0.45604702844095746
3980.0,-0.45568216450079024
3979.0,-0.455179975545529
3978.0,-0.4546467155768794
3977.0,-0.4542043750355149
3976.0,-0.45386850555619995
3975.0,-0.45362407359145074
3974.0,-0.45337950397670745
3973.0,-0.453058297202773
3972.0,-0.45276747670249984
3971.0,-0.45278278790072113
3970.0,-0.4532112824382226
3969.0,-0.45389904988099383
3968.0,-0.4544942352432071
3967.0,-0.454661960666197
3966.0,-0.45426541431627676
3965.0,-0.4535782272784181
3964.0,-0.45311949776400207
3963.0,-0.4531347965568493
3962.0,-0.4533183400470375
3961.0,-0.4531347965568493
3960.0,-0.4525530632289252
3959.0,-0.4520932490177314
3958.0,-0.45210858400411746
3957.0,-0.45238452120627937
3956.0,-0.4524304936995991
3955.0,-0.4519705496294586
3954.0,-0.45092620282274165
3953.0,-0.4493858221133862
3952.0,-0.44768506900495497
3951.0,-0.44635073458230545
3950.0,-0.4458531896538749
3949.0,-0.4461642220254758
3948.0,-0.4464284245132659
3947.0,-0.44565089909450206
3946.0,-0.4441228994129194
3945.0,-0.44348203573032174
3944.0,-0.44476281880267354
3943.0,-0.44697186524010313
3942.0,-0.4480567108862119
3941.0,-0.44734411767595406
3940.0,-0.44667693894050586
3939.0,-0.44797931171616456
3938.0,-0.45024910831936094
3937.0,-0.4509415790723459
3936.0,-0.44926235530888636
3935.0,-0.44667693894050586
3934.0,-0.4449031627954616
3933.0,-0.4442478357960753
3932.0,-0.44423222071357804
3931.0,-0.4442790642768468
3930.0,-0.4438104011213979
3929.0,-0.4426051789648011
3928.0,-0.4411293205147757
3927.0,-0.44042101339056483
3926.0,-0.4411135929003134
3925.0,-0.4423386396256759
3924.0,-0.44216608578472005
3923.0,-0.4401216031878037
3922.0,-0.4381783065218232
3921.0,-0.4378931908695134
3920.0,-0.4385265272053185
3919.0,-0.43931690101650434
3918.0,-0.441050676746221
3917.0,-0.44398230300741304
3916.0,-0.44645949659469153
3915.0,-0.44742163012184033
3914.0,-0.4481805208740517
3913.0,-0.4502183061999889
3912.0,-0.4525837002069566
3911.0,-0.45336421380183634
3910.0,-0.4516329474569907
3909.0,-0.4476230977602862
3908.0,-0.44207193660303057
3907.0,-0.4359398747958596
3906.0,-0.43044595110884787
3905.0,-0.42626720713960653
3904.0,-0.4229999772716164
3903.0,-0.41959230829958427
3902.0,-0.4173554229035785
3901.0,-0.41985665859727117
3900.0,-0.4273075507460411
3899.0,-0.43463276617414204
3898.0,-0.43740171915630466
3897.0,-0.4368302789660925
3896.0,-0.4362739903260482
3895.0,-0.4363376022463208
3894.0,-0.4359398747958596
3893.0,-0.4362898941796396
3892.0,-0.43907993986887073
3891.0,-0.4412393978711475
3890.0,-0.4370684704281609
3889.0,-0.42923533962665505
3888.0,-0.4272588402704054
3887.0,-0.43308145577525714
3886.0,-0.4397273276437894
3885.0,-0.43958530077756386
3884.0,-0.43136376415898736
3883.0,-0.42349163145458135
3882.0,-0.42468567010210334
3881.0,-0.4325042988610277
3880.0,-0.4383207941864491
3879.0,-0.43622627527058233
3878.0,-0.4292191753210086
3877.0,-0.4265112613645754
3876.0,-0.430284731089956
3875.0,-0.4338018249736004
3874.0,-0.43070377871875243
3873.0,-0.4212418639210549
3872.0,-0.41358472872440943
3871.0,-0.4158077276355434
3870.0,-0.42435886259032873
3869.0,-0.42704769838757484
3868.0,-0.42002179585995636
3867.0,-0.41497334797081775
3866.0,-0.41985665859727117
3865.0,-0.42740495531027367
3864.0,-0.4303169798819737
3863.0,-0.4297361349260327
3862.0,-0.4292676664331685
3861.0,-0.4301234512002896
3860.0,-0.4305426544006976
3859.0,-0.42868541543918814
3858.0,-0.42401544982198924
3857.0,-0.4168068718229443
3856.0,-0.4090365718009088
3855.0,-0.40481661807540137
3854.0,-0.40981481689298116
3853.0,-0.4219821247652562
3852.0,-0.42515910459970474
3851.0,-0.419195480907105
3850.0,-0.42434251575747073
3849.0,-0.43759203225396126
3848.0,-0.4446224294425041
3847.0,-0.4433412316678793
3846.0,-0.438874468906445
3845.0,-0.4343293373377297
3844.0,-0.4293969496020633
3843.0,-0.4228687754332552
3842.0,-0.4145722756179451
3841.0,-0.40715286967063546
3840.0,-0.4042862290190321
3839.0,-0.406846633097667
3838.0,-0.41168703322201194
3837.0,-0.4144050527588834
3836.0,-0.4143381455823678
3835.0,-0.4154407980618182
3834.0,-0.4205168312286167
3833.0,-0.42779435525288845
3832.0,-0.43341777677003
3831.0,-0.43453696944233133
3830.0,-0.43187817876683976
3829.0,-0.42960695270328353
3828.0,-0.43070377871875243
3827.0,-0.43308145577525714
3826.0,-0.43131550653552475
3825.0,-0.4229507812270188
3824.0,-0.41318237132965097
3823.0,-0.40942586867144337
3822.0,-0.4130481693178747
3821.0,-0.4182184027839648
3820.0,-0.4150902576711153
3819.0,-0.4043204672217309
3818.0,-0.40337793172285963
3817.0,-0.41767094132511007
3816.0,-0.43405766856385863
3815.0,-0.44007430901763156
3814.0,-0.43625808589003645
3813.0,-0.43463276617414204
3812.0,-0.4395221628139572
3811.0,-0.44219746431021356
3810.0,-0.4381783065218232
3809.0,-0.43296929087440583
3808.0,-0.4324401229427899
3807.0,-0.43429738512450866
3806.0,-0.4298652787345607
3805.0,-0.4178535051684764
3804.0,-0.40981481689298116
3803.0,-0.41326622653292056
3802.0,-0.4227047173767926
3801.0,-0.427907864499248
3800.0,-0.421636826720754
3799.0,-0.4125781354312723
3798.0,-0.4160743909223945
3797.0,-0.42845877351558004
3796.0,-0.43730653132427344
3795.0,-0.4384474106543732
3794.0,-0.4367667391734549
3793.0,-0.4383366232638446
3792.0,-0.4427932259397691
3791.0,-0.44600873368401217
3790.0,-0.446210857674584
3789.0,-0.4444039557495514
3788.0,-0.4417579585081639
3787.0,-0.439474803316783
3786.0,-0.43857399021863364
3785.0,-0.43858981007044884
3784.0,-0.4371319660943298
3783.0,-0.43330569870812274
3782.0,-0.4298652787345607
3781.0,-0.4300589224706428
3780.0,-0.433449793761596
3779.0,-0.43668730135759004
3778.0,-0.4368779277106576
3777.0,-0.43552585149865486
3776.0,-0.43660784900891114
3775.0,-0.4394432274492468
3774.0,-0.4396642103262489
3773.0,-0.43622627527058233
3772.0,-0.43284106693432367
3771.0,-0.43252034135892936
3770.0,-0.43330569870812274
3769.0,-0.4311385160249177
3768.0,-0.42673892163663396
3767.0,-0.42612070874661523
3766.0,-0.43109023336461094
3765.0,-0.43568513794163
3764.0,-0.43445712268769787
3763.0,-0.4294777320434533
3762.0,-0.4265600557561666
3761.0,-0.4267876904579957
3760.0,-0.4268201999633554
3759.0,-0.4253222382812498
3758.0,-0.42275394130134814
3757.0,-0.4188314036613088
3756.0,-0.41366850628247365
3755.0,-0.4085282682762359
3754.0,-0.40420062170135473
3753.0,-0.3999331824955683
3752.0,-0.3966700136885106
3751.0,-0.3984782002197558
3750.0,-0.4038237489023073
3749.0,-0.4030346837445862
3748.0,-0.39592019267063217
3747.0,-0.39390847314826427
3746.0,-0.403120521175818
3745.0,-0.41896383070362253
3744.0,-0.4294615767572276
3743.0,-0.423557143312292
3742.0,-0.41145134213793755
3741.0,-0.4121075922790509
3740.0,-0.4180691635416598
3739.0,-0.41529060110998284
3738.0,-0.4055512482823098
3737.0,-0.39747071716853055
3736.0,-0.39481927457339827
3735.0,-0.3955535299709032
3734.0,-0.39757504800228904
3733.0,-0.40236456888416106
3732.0,-0.41001760820305266
3731.0,-0.4158243988887613
3730.0,-0.41790328199122895
3729.0,-0.4199722612739998
3728.0,-0.4238845544491405
3727.0,-0.42677143479269697
3726.0,-0.42586014507784054
3725.0,-0.4221957431983925
3724.0,-0.4197079813544442
3723.0,-0.4206652318731168
3722.0,-0.42308195829723116
3721.0,-0.42471833733156705
3720.0,-0.4258764348879325
3719.0,-0.42792407768432117
3718.0,-0.43007505555193903
3717.0,-0.42954234717943285
3716.0,-0.42515910459970474
3715.0,-0.41899693115574843
3714.0,-0.4135679712732889
3713.0,-0.40959501939681564
3712.0,-0.4082230003523013
3711.0,-0.4104904200034478
3710.0,-0.4139699717480614
3709.0,-0.4168900301730125
3708.0,-0.4210442477420484
3707.0,-0.42633230167742875
3706.0,-0.43033310338003217
3705.0,-0.43200668726959846
3704.0,-0.43252034135892936
3703.0,-0.43341777677003
3702.0,-0.434904075551541
3701.0,-0.43520710324074763
3700.0,-0.43308145577525714
3699.0,-0.43131550653552475
3698.0,-0.4332736710914489
3697.0,-0.4370049654773034
3696.0,-0.43768715753786
3695.0,-0.4336578466929879
3694.0,-0.42722636358451194
3693.0,-0.4204178692863172
3692.0,-0.4135512131755501
3691.0,-0.4085282682762359
3690.0,-0.40952736701224035
3689.0,-0.41675696916874605
3688.0,-0.42283596877952245
3687.0,-0.42385182444069125
3686.0,-0.42607186496521043
3685.0,-0.43348180839298456
3684.0,-0.44081465995768143
3683.0,-0.44232295574557456
3682.0,-0.4383682796879347
3681.0,-0.4324882557705063
3680.0,-0.42543639540901035
3679.0,-0.41542411207653496
3678.0,-0.40469690941077285
3677.0,-0.40031344514033007
3676.0,-0.40630167877077517
3675.0,-0.41376901802415356
3674.0,-0.40786658303077594
3673.0,-0.3967396987112286
3672.0,-0.39967372148103797
3671.0,-0.41326622653292056
3670.0,-0.42594158801889526
3669.0,-0.4316853446860116
3668.0,-0.42999438415170665
3667.0,-0.42978456835467016
3666.0,-0.436162647040756
3665.0,-0.44332558395374466
3664.0,-0.446661410954309
3663.0,-0.4468477101558088
3662.0,-0.44561976910510426
3661.0,-0.4429811915267341
3660.0,-0.43854234878611065
3659.0,-0.4338498071286465
3658.0,-0.43205486815627436
3657.0,-0.4340736537850507
3656.0,-0.4358443659844413
3655.0,-0.43112242240123244
3654.0,-0.4209124536489641
3653.0,-0.412225275871112
3652.0,-0.40602894496361497
3651.0,-0.39889440707849566
3650.0,-0.393153864908232
3649.0,-0.39488925716741896
3648.0,-0.4011074654794564
3647.0,-0.40550003531687207
3646.0,-0.40973029255844606
3645.0,-0.4164740791002206
3644.0,-0.42486530946394163
3643.0,-0.4322635902536667
3642.0,-0.4363694047127895
3641.0,-0.43695733066944964
3640.0,-0.4358921230156536
3639.0,-0.4350316919291437
3638.0,-0.43426543056030464
3637.0,-0.4324882557705063
3636.0,-0.43044595110884787
3635.0,-0.4291868449047129
3634.0,-0.4269014630816632
3633.0,-0.42068171770385154
3632.0,-0.4117880045438689
3631.0,-0.4057731013733572
3630.0,-0.40682961362154435
3629.0,-0.41504015736744293
3628.0,-0.42227787616418055
3627.0,-0.4205168312286167
3626.0,-0.41949313543934696
3625.0,-0.42631602895764464
3624.0,-0.4318460456987254
3623.0,-0.4298814190107647
3622.0,-0.4235243886187172
3621.0,-0.41810233224995885
3620.0,-0.4158243988887613
3619.0,-0.41505685811085113
3618.0,-0.41234292758232627
3617.0,-0.40747588529125567
3616.0,-0.40522679745993884
3615.0,-0.4077646957618266
3614.0,-0.4120403301916582
3613.0,-0.4140704137518014
3612.0,-0.4125109461862104
3611.0,-0.41011896835955053
3610.0,-0.4110470024560935
3609.0,-0.41595774588099
3608.0,-0.4219821247652562
3607.0,-0.4258438546567165
3606.0,-0.4268201999633554
3605.0,-0.4269827109972466
3604.0,-0.42750233803328497
3603.0,-0.42758347362526017
3602.0,-0.4269014630816632
3601.0,-0.42592530065247347
3600.0,-0.4244569306684025
3599.0,-0.4221135946968322
3598.0,-0.4196749350538722
3597.0,-0.4183178671286787
3596.0,-0.41858299406699206
3595.0,-0.42031888478858903
3594.0,-0.42232714848892705
3593.0,-0.4226390767975019
3592.0,-0.420731171441572
3591.0,-0.4178203174501429
3590.0,-0.41529060110998284
3589.0,-0.4142712280965801
3588.0,-0.4157743832091074
3587.0,-0.4188645142077285
3586.0,-0.4199722612739998
3585.0,-0.41954272470027965
3584.0,-0.42155457241987726
3583.0,-0.42600673137701106
3582.0,-0.4298814190107647
3581.0,-0.4317657026253481
3580.0,-0.4321833243946944
3579.0,-0.43187817876683976
3578.0,-0.4312833318072613
3577.0,-0.430752104359859
3576.0,-0.43051042236254267
3575.0,-0.4307198878632823
3574.0,-0.4309614533549482
3573.0,-0.43025247990310733
3572.0,-0.42759969892486804
3571.0,-0.4228031596473847
3570.0,-0.4166737853339222
3569.0,-0.41097957589456957
3568.0,-0.4078496034791401
3567.0,-0.408290856214617
3566.0,-0.40983171978600685
3565.0,-0.4100682912383622
3564.0,-0.4113166040675469
3563.0,-0.41565765755142037
3562.0,-0.4212418639210549
3561.0,-0.42586014507784054
3560.0,-0.4288634082992564
3559.0,-0.43046206981955537
3558.0,-0.43097755294464823
3557.0,-0.43062322403191455
3556.0,-0.42954234717943285
3555.0,-0.4281672028554824
3554.0,-0.4273075507460411
3553.0,-0.4273075507460411
3552.0,-0.42734002136152593
3551.0,-0.42608814683605445
3550.0,-0.4237372499823291
3549.0,-0.42178484521525217
3548.0,-0.4211101297934343
3547.0,-0.4214887577606259
3546.0,-0.4225077658680756
3545.0,-0.4237536196128282
3544.0,-0.424914289123989
3543.0,-0.4262346562115513
3542.0,-0.4280051345318103
3541.0,-0.4298329963825127
3540.0,-0.43110632818114514
3539.0,-0.4317174896460134
3538.0,-0.4321191010248553
3537.0,-0.4327128051253868
3536.0,-0.4332256252374047
3535.0,-0.4330654339914801
3534.0,-0.4321512138969421
3533.0,-0.43097755294464823
3532.0,-0.42984913785849166
3531.0,-0.42857210926186884
3530.0,-0.4271289189525853
3529.0,-0.42581127198118907
3528.0,-0.42465300041525555
3527.0,-0.4234588718195127
3526.0,-0.4225077658680756
3525.0,-0.4226718983272866
3524.0,-0.42435886259032873
3523.0,-0.42673892163663396
3522.0,-0.4285073495999554
3521.0,-0.4294131072924836
3520.0,-0.43025247990310733
3519.0,-0.43165319734657626
3518.0,-0.4331295175804857
3517.0,-0.43396174487889594
3516.0,-0.4340896384178907
3515.0,-0.4338658000023532
3514.0,-0.43335373570497193
3513.0,-0.4323759375398426
3512.0,-0.4311867933179996
3511.0,-0.43044595110884787
3510.0,-0.43039759138696665
3509.0,-0.43047818793204407
3508.0,-0.4298814190107647
3507.0,-0.42862067267193904
3506.0,-0.4274861090957853
3505.0,-0.4271126760547097
3504.0,-0.4275185663643559
3503.0,-0.4284425802799885
3502.0,-0.42931615213166197
3501.0,-0.4298652787345607
3500.0,-0.43039759138696665
3499.0,-0.4312833318072613
3498.0,-0.43239198477992424
3497.0,-0.4334017673890713
3496.0,-0.43405766856385863
3495.0,-0.43429738512450866
3494.0,-0.43431336152497035
3493.0,-0.43426543056030464
3492.0,-0.43418553386197134
3491.0,-0.4339297656084642
3490.0,-0.43352982591549516
3489.0,-0.4332256252374047
3488.0,-0.4331615558293218
3487.0,-0.4331134975697162
3486.0,-0.432696769735502
3485.0,-0.4319424377714558
3484.0,-0.4313315930058259
3483.0,-0.4312189751988522
3482.0,-0.4315567410481447
3481.0,-0.43200668726959846
3480.0,-0.43234384128072634
3479.0,-0.43264866001310676
3478.0,-0.4331134975697162
3477.0,-0.4336578466929879
3476.0,-0.43405766856385863
3475.0,-0.43416955275833224
3474.0,-0.4340097093697395
3473.0,-0.4338498071286465
3472.0,-0.4339137750901574
3471.0,-0.43426543056030464
3470.0,-0.43468065661714217
3469.0,-0.43495193608775296
3468.0,-0.435063590165067
3467.0,-0.4349997913501733
3466.0,-0.43463276617414204
3465.0,-0.4340097093697395
3464.0,-0.4334337855608572
3463.0,-0.4331935917148453
3462.0,-0.4332416411126818
3461.0,-0.4333377239630525
3460.0,-0.4334337855608572
3459.0,-0.4336098433237181
3458.0,-0.4339137750901574
3457.0,-0.4342174943051478
3456.0,-0.4343453125628294
3455.0,-0.43429738512450866
3454.0,-0.4342174943051478
3453.0,-0.43413758878673425
3452.0,-0.4338498071286465
3451.0,-0.43296929087440583
3450.0,-0.43157281858565355
3449.0,-0.4303169798819737
3448.0,-0.42970384297257125
3447.0,-0.42957465114269544
3446.0,-0.42931615213166197
3445.0,-0.42887958585161945
3444.0,-0.4289442900355742
3443.0,-0.4298329963825127
3442.0,-0.43097755294464823
3441.0,-0.4316853446860116
3440.0,-0.4319424377714558
3439.0,-0.4322635902536667
3438.0,-0.4329372384383676
3437.0,-0.433737840519429
3436.0,-0.4343612872003133
3435.0,-0.43466469372290906
3434.0,-0.4346487302419235
3433.0,-0.4344251798749519
3432.0,-0.4341056224624227
3431.0,-0.4338338136659807
3430.0,-0.43375383751675667
3429.0,-0.4338178196143132
3428.0,-0.4338498071286465
3427.0,-0.43375383751675667
3426.0,-0.43346580137229074
3425.0,-0.4329532649520842
3424.0,-0.43224753826860063
3423.0,-0.4316371227844611
3422.0,-0.4314441816172123
3421.0,-0.43173356123383666
3420.0,-0.4322635902536667
3419.0,-0.43279297319493004
3418.0,-0.4333377239630525
3417.0,-0.4340097093697395
3416.0,-0.4347285417797577
3415.0,-0.43533463061852595
3414.0,-0.43578068177259555
3413.0,-0.4360830986419799
3412.0,-0.43625808589003645
3411.0,-0.4363694047127895
3410.0,-0.43651248699969303
3409.0,-0.4367826249931577
3408.0,-0.43711609304807864
3407.0,-0.4374175817668182
3406.0,-0.4376237429970593
3405.0,-0.43768715753786
3404.0,-0.4376713047707286
3403.0,-0.43768715753786
3402.0,-0.4377822619906442
3401.0,-0.43781395884734575
3400.0,-0.43771886133623905
3399.0,-0.43759203225396126
3398.0,-0.4375286038206805
3397.0,-0.4373223974118412
3396.0,-0.4368620453766616
3395.0,-0.4363694047127895
3394.0,-0.4362739903260482
3393.0,-0.43668730135759004
3392.0,-0.43727479741012365
3391.0,-0.43768715753786
3390.0,-0.4378614997952215
3389.0,-0.4378614997952215
3388.0,-0.43773471236757144
3387.0,-0.4375761760140904
3386.0,-0.4375444617974922
3385.0,-0.43770300972634946
3384.0,-0.4378931908695134
3383.0,-0.4380674504534938
3382.0,-0.4382733034923594
3381.0,-0.43863726616861154
3380.0,-0.43907993986887073
3379.0,-0.4394432274492468
3378.0,-0.43963264822725945
3377.0,-0.4395695171471754
3376.0,-0.4393642777350002
3375.0,-0.4391273424428461
3374.0,-0.43896931373798687
3373.0,-0.4388902778168413
3372.0,-0.438874468906445
3371.0,-0.4389060861517926
3370.0,-0.43892189391134107
3369.0,-0.4388586594205619
3368.0,-0.43876379041769376
3367.0,-0.4387321628109433
3366.0,-0.43876379041769376
3365.0,-0.43877960335737765
3364.0,-0.43874797690222955
3363.0,-0.4388112275095728
3362.0,-0.4390325321204127
3361.0,-0.4393484860697474
3360.0,-0.4395695171471754
3359.0,-0.43963264822725945
3358.0,-0.43960108383434626
3357.0,-0.43958530077756386
3356.0,-0.43960108383434626
3355.0,-0.43967999051562634
3354.0,-0.4398219864240036
3353.0,-0.44004277670934
3352.0,-0.4403264850984039
3351.0,-0.44067298829375856
3350.0,-0.4409877514761571
3349.0,-0.44116077403511555
3348.0,-0.4411293205147757
3347.0,-0.44090908206521773
3346.0,-0.44064149942469744
3345.0,-0.44043676610577354
3344.0,-0.440342241242651
3343.0,-0.4403895062458978
3342.0,-0.440515521112228
3341.0,-0.440610008272345
3340.0,-0.4407044748798601
3339.0,-0.4408618735775467
3338.0,-0.44114504755969586
3337.0,-0.4414123202233835
3336.0,-0.441428037023599
3335.0,-0.4411922252776179
3334.0,-0.4408776103102925
3333.0,-0.4406572441446186
3332.0,-0.44062575413395333
3331.0,-0.4407044748798601
3330.0,-0.44075170047918544
3329.0,-0.4407202173169038
3328.0,-0.4407044748798601
3327.0,-0.44081465995768143
3326.0,-0.44109786471626844
3325.0,-0.441428037023599
3324.0,-0.44160088429693145
3323.0,-0.44160088429693145
3322.0,-0.44152232588239393
3321.0,-0.4415066124941145
3320.0,-0.4416480125256479
3319.0,-0.44189927674203844
3318.0,-0.4421033219314565
3317.0,-0.4421503956717503
3316.0,-0.4420405490063053
3315.0,-0.4419777670066436
3314.0,-0.4420248543572276
3313.0,-0.4420405490063053
3312.0,-0.44189927674203844
3311.0,-0.4417265482103958
3310.0,-0.4417579585081639
3309.0,-0.4420248543572276
3308.0,-0.44229158628607124
3307.0,-0.4424484109300688
3306.0,-0.44255815449592273
3305.0,-0.4427305526613714
3304.0,-0.4429811915267341
3303.0,-0.4432003819400765
3302.0,-0.44324733692510154
3301.0,-0.44312211234844634
3300.0,-0.4429342077562657
3299.0,-0.44280889284628033
3298.0,-0.4427462218289051
3297.0,-0.4426521983425231
3296.0,-0.44247976906444864
3295.0,-0.4423386396256759
3294.0,-0.4423543229393987
3293.0,-0.44251112493478484
3292.0,-0.44268354176646163
3291.0,-0.4427775584680633
3290.0,-0.4428245591876383
3289.0,-0.4428872189023485
3288.0,-0.44296553083467094
3287.0,-0.44304382864834047
3286.0,-0.443090800561706
3285.0,-0.44312211234844634
3284.0,-0.44312211234844634
3283.0,-0.44312211234844634
3282.0,-0.44312211234844634
3281.0,-0.443106456737266
3280.0,-0.4430281702148542
3279.0,-0.4428402249638834
3278.0,-0.4425895047075801
3277.0,-0.4423386396256759
3276.0,-0.44219746431021356
3275.0,-0.44226021456056186
3274.0,-0.44246409028028477
3273.0,-0.44266787033725263
3272.0,-0.4428245591876383
3271.0,-0.44296553083467094
3270.0,-0.4431377673952879
3269.0,-0.4432629874586951
3268.0,-0.4432786374283153
3267.0,-0.4432629874586951
3266.0,-0.44332558395374466
3265.0,-0.44346639308865354
3264.0,-0.44351331932348526
3263.0,-0.4434507498835405
3262.0,-0.44335687881824404
3261.0,-0.4433099356757997
3260.0,-0.44324733692510154
3259.0,-0.443153421877831
3258.0,-0.44301251121678487
3257.0,-0.44287155482119767
3256.0,-0.4428558901750561
3255.0,-0.44301251121678487
3254.0,-0.4432629874586951
3253.0,-0.4434507498835405
3252.0,-0.4434976778085855
3251.0,-0.44352896027506183
3250.0,-0.4435758797502576
3249.0,-0.44359151844894695
3248.0,-0.4434976778085855
3247.0,-0.4434194617828173
3246.0,-0.44348203573032174
3245.0,-0.44362279415700456
3244.0,-0.4436697034963979
3243.0,-0.44360715658451566
3242.0,-0.44352896027506183
3241.0,-0.44348203573032174
3240.0,-0.4434038168871255
3239.0,-0.4433099356757997
3238.0,-0.4432942868340035
3237.0,-0.4434351061149422
3236.0,-0.4436697034963979
3235.0,-0.4438729187710404
3234.0,-0.44402917353343074
3233.0,-0.4441228994129194
3232.0,-0.4441385184264939
3231.0,-0.4440135505867988
3230.0,-0.4437791389214203
3229.0,-0.4435758797502576
3228.0,-0.44362279415700456
3227.0,-0.44395105317959604
3226.0,-0.44437273624828677
3225.0,-0.4446692309385245
3224.0,-0.44473162508875097
3223.0,-0.44459122564295717
3222.0,-0.4443571256560275
3221.0,-0.44409165970049713
3220.0,-0.44391980110302365
3219.0,-0.4438572902023177
3218.0,-0.44391980110302365
3217.0,-0.44409165970049713
3216.0,-0.4443571256560275
3215.0,-0.44470042913414165
3214.0,-0.44498111208794455
3213.0,-0.44507463277493065
3212.0,-0.44507463277493065
3211.0,-0.4451681333275692
3210.0,-0.44541736976591784
3209.0,-0.4456664632524734
3208.0,-0.4457753967430853
3207.0,-0.44582207416169606
3206.0,-0.4459309686325206
3205.0,-0.44611758136797475
3204.0,-0.44628857262959043
3203.0,-0.4463662736803591
3202.0,-0.44630411395192393
3201.0,-0.44608648481333546
3200.0,-0.44572871430710626
3199.0,-0.44544851426605003
3198.0,-0.4453706488275797
3197.0,-0.4454952268289083
3196.0,-0.4457131523799558
3195.0,-0.4459465227568318
3194.0,-0.446210857674584
3193.0,-0.44647503180178694
3192.0,-0.4467235195682018
3191.0,-0.44690979213460125
3190.0,-0.44700289846616226
3189.0,-0.44697186524010313
3188.0,-0.4468787522545248
3187.0,-0.44677009520038746
3186.0,-0.4467856193011883
3185.0,-0.4468787522545248
3184.0,-0.4469563477954597
3183.0,-0.4468787522545248
3182.0,-0.44663035331622947
3181.0,-0.4463196547181276
3180.0,-0.44617976779827995
3179.0,-0.44630411395192393
3178.0,-0.44659929345697025
3177.0,-0.4468787522545248
3176.0,-0.4470339294748502
3175.0,-0.44714252054802817
3174.0,-0.4472976035670677
3173.0,-0.4474526312269931
3172.0,-0.44749912873585096
3171.0,-0.4474836301193621
3170.0,-0.4474526312269931
3169.0,-0.4474836301193621
3168.0,-0.44760760356731266
3167.0,-0.447793497409382
3166.0,-0.44802575287344615
3165.0,-0.4482114678567779
3164.0,-0.4482733552073497
3163.0,-0.4481650465556912
3162.0,-0.44801027303947594
3161.0,-0.4479328655921804
3160.0,-0.4479638302267448
3159.0,-0.4480412321556786
3158.0,-0.4481186202921479
3157.0,-0.4481650465556912
3156.0,-0.4481650465556912
3155.0,-0.44810314376801497
3154.0,-0.4480412321556786
3153.0,-0.4480721890650865
3152.0,-0.4482114678567779
3151.0,-0.4483971034577676
3150.0,-0.44855173920157787
3149.0,-0.44862903643091867
3148.0,-0.4486444942260084
3147.0,-0.4485981191900783
3146.0,-0.4485208164572949
3145.0,-0.4484125695100798
3144.0,-0.44831976493349535
3143.0,-0.4482269405212218
3142.0,-0.4481959946410674
3141.0,-0.4482269405212218
3140.0,-0.44836616970071885
3139.0,-0.44856719974809556
3138.0,-0.4486908643104268
3137.0,-0.4485981191900783
3136.0,-0.4482888256671216
3135.0,-0.44791738244695667
3134.0,-0.4476540844879868
3133.0,-0.44760760356731266
3132.0,-0.44766957702279253
3131.0,-0.44773154163597484
3130.0,-0.4477780092946211
3129.0,-0.44782447198195774
3128.0,-0.4478709296990484
3127.0,-0.4478554443455356
3126.0,-0.44768506900495497
3125.0,-0.4474681309497557
3124.0,-0.4473751243144495
3123.0,-0.4474526312269931
3122.0,-0.4476540844879868
3121.0,-0.4478554443455356
3120.0,-0.4479638302267448
3119.0,-0.44801027303947594
3118.0,-0.44801027303947594
3117.0,-0.44802575287344615
3116.0,-0.448087666692341
3115.0,-0.4481959946410674
3114.0,-0.44831976493349535
3113.0,-0.4484125695100798
3112.0,-0.44848989151108576
3111.0,-0.44855173920157787
3110.0,-0.44862903643091867
3109.0,-0.4487217749497212
3108.0,-0.44881449366952353
3107.0,-0.44879904192412834
3106.0,-0.4486444942260084
3105.0,-0.4483816368546605
3104.0,-0.448087666692341
3103.0,-0.4478709296990484
3102.0,-0.4477780092946211
3101.0,-0.4478089849718141
3100.0,-0.4478554443455356
3099.0,-0.4478399584398516
3098.0,-0.4478709296990484
3097.0,-0.4480567108862119
3096.0,-0.4484280350116361
3095.0,-0.448876295154121
3094.0,-0.4492469194900117
3093.0,-0.44950925382713525
3092.0,-0.4496634941533304
3091.0,-0.44977142979761053
3090.0,-0.44981767972029374
3089.0,-0.44980226362665476
3088.0,-0.4497097555713694
3087.0,-0.4495709565312107
3086.0,-0.44946297104541033
3085.0,-0.4494321131171679
3084.0,-0.4494321131171679
3083.0,-0.44935495870279807
3082.0,-0.44916973216520084
3081.0,-0.44890719259877665
3080.0,-0.44873722944439054
3079.0,-0.44873722944439054
3078.0,-0.44893808784542166
3077.0,-0.4492006087413687
3076.0,-0.44937039068225815
3075.0,-0.4494321131171679
3074.0,-0.44946297104541033
3073.0,-0.44950925382713525
3072.0,-0.4495709565312107
3071.0,-0.4495709565312107
3070.0,-0.44946297104541033
3069.0,-0.44929322530086013
3068.0,-0.4491234131845605
3067.0,-0.44899987174592804
3066.0,-0.44899987174592804
3065.0,-0.4490770892633167
3064.0,-0.4492006087413687
3063.0,-0.44935495870279807
3062.0,-0.4495401062749802
3061.0,-0.4496943356462175
3060.0,-0.449740593779286
3059.0,-0.4496943356462175
3058.0,-0.4497097555713694
3057.0,-0.4498793386232016
3056.0,-0.45011048157501143
3055.0,-0.45029530740263457
3054.0,-0.4504030861553665
3053.0,-0.4505262291297232
3052.0,-0.4506493371971345
3051.0,-0.450787792072898
3050.0,-0.45095695477757136
3049.0,-0.45115678942457116
3048.0,-0.45143333183784407
3047.0,-0.4517557422501759
3046.0,-0.45216991853543487
3045.0,-0.452660283197845
3044.0,-0.4531347965568493
3043.0,-0.45353237612510666
3042.0,-0.4538074104612262
3041.0,-0.4540059381037902
3040.0,-0.454112800025813
3039.0,-0.45414332717459027
3038.0,-0.45414332717459027
3037.0,-0.45412806386842597
3036.0,-0.45406700527890465
3035.0,-0.45392959205772865
3034.0,-0.45370047335977226
3033.0,-0.45345594677730316
3032.0,-0.45336421380183634
3031.0,-0.45345594677730316
3030.0,-0.4536546351116004
3029.0,-0.45386850555619995
3028.0,-0.45406700527890465
3027.0,-0.4542501553003446
3026.0,-0.454387467146955
3025.0,-0.45446373275113805
3024.0,-0.4544789842649637
3023.0,-0.4544942352432071
3022.0,-0.4545552338011083
3021.0,-0.4545857298675422
3020.0,-0.4545552338011083
3019.0,-0.45452473559309725
3018.0,-0.45457048210200357
3017.0,-0.45472293567253175
3016.0,-0.454875335744946
3015.0,-0.454936280802849
3014.0,-0.454905809342959
3013.0,-0.4547991423936564
3012.0,-0.45472293567253175
3011.0,-0.45472293567253175
3010.0,-0.45482962133828986
3009.0,-0.4549515157310915
3008.0,-0.4550124501002544
3007.0,-0.45498198398435985
3006.0,-0.454936280802849
3005.0,-0.4549210453401509
3004.0,-0.45496675012491616
3003.0,-0.4550733759211245
3002.0,-0.45525610211795176
3001.0,-0.4554691855576598
3000.0,-0.4556669551824011
2999.0,-0.45578861481815824
2998.0,-0.45578861481815824
2997.0,-0.45568216450079024
2996.0,-0.45553004734270175
2995.0,-0.45542353362097865
2994.0,-0.45539309633029745
2993.0,-0.45542353362097865
2992.0,-0.4554691855576598
2991.0,-0.4555756880848909
2990.0,-0.4557429964484898
2989.0,-0.4558950390497847
2988.0,-0.4559254411836373
2987.0,-0.4557734092273469
2986.0,-0.4554844018035453
2985.0,-0.45513429319609955
2984.0,-0.45473817808656847
2983.0,-0.45429593073984975
2982.0,-0.4538226850407372
2981.0,-0.4533183400470375
2980.0,-0.4528134086778546
2979.0,-0.4522925616177291
2978.0,-0.45181712662934537
2977.0,-0.4514026135974931
2976.0,-0.451064569474783
2975.0,-0.45084931340768986
2974.0,-0.450695493727006
2973.0,-0.45051083816730797
2972.0,-0.45023370753275316
2971.0,-0.44992557705624003
2970.0,-0.4496943356462175
2969.0,-0.4496018045961385
2968.0,-0.4495709565312107
2967.0,-0.4495709565312107
2966.0,-0.44955553167702744
2965.0,-0.4495401062749802
2964.0,-0.4495709565312107
2963.0,-0.4496326504700745
2962.0,-0.44977142979761053
2961.0,-0.4499563999435421
2960.0,-0.45023370753275316
2959.0,-0.4505877875255604
2958.0,-0.45101845215545744
2957.0,-0.4513872536625003
2956.0,-0.4516329474569907
2955.0,-0.4518785023335039
2954.0,-0.45224657452043715
2953.0,-0.45278278790072113
2952.0,-0.45342537127166516
2951.0,-0.4540059381037902
2950.0,-0.4544942352432071
2949.0,-0.454875335744946
2948.0,-0.455179975545529
2947.0,-0.4554539687786283
2946.0,-0.4557429964484898
2945.0,-0.45606222445495126
2944.0,-0.45639640231068546
2943.0,-0.45669997738379253
2942.0,-0.4569123537457962
2941.0,-0.4570639875876017
2940.0,-0.45721556850495615
2939.0,-0.4574882809044376
2938.0,-0.45786676425844597
2937.0,-0.458244918055132
2936.0,-0.45850187468639403
2935.0,-0.458577421241789
2934.0,-0.4585472041965932
2933.0,-0.4585320948855509
2932.0,-0.45865295465796674
2931.0,-0.4589398618903262
2930.0,-0.4593170828659252
2929.0,-0.4596638370226058
2928.0,-0.45988983197067457
2927.0,-0.45999525604739144
2926.0,-0.4600705432941612
2925.0,-0.4601307636959495
2924.0,-0.4601909757485787
2923.0,-0.46029632675747534
2922.0,-0.4604618267265992
2921.0,-0.4606723718774317
2920.0,-0.46080766845122945
2919.0,-0.46086778673508855
2918.0,-0.46091286998728576
2917.0,-0.4609729737111343
2916.0,-0.4609729737111343
2915.0,-0.4608828150058275
2914.0,-0.46068740691168575
2913.0,-0.4604166966257357
2912.0,-0.4601307636959495
2911.0,-0.4598747692989691
2910.0,-0.45970904542132507
2909.0,-0.4595884792320084
2908.0,-0.45948295635280934
2907.0,-0.45940756716694775
2906.0,-0.45940756716694775
2905.0,-0.4595432582804131
2904.0,-0.4598446423882079
2903.0,-0.46029632675747534
2902.0,-0.46085275794429537
2901.0,-0.4613033955904662
2900.0,-0.4615135332439282
2899.0,-0.4614234866995659
2898.0,-0.46121330546113537
2897.0,-0.4610631137035508
2896.0,-0.46103306911814235
2895.0,-0.4610480916706581
2894.0,-0.46103306911814235
2893.0,-0.46098799834250004
2892.0,-0.46098799834250004
2891.0,-0.4610781352168565
2890.0,-0.461198288622493
2889.0,-0.4612583528618397
2888.0,-0.46122832178054995
2887.0,-0.4611682533873829
2886.0,-0.4611682533873829
2885.0,-0.46124333758077274
2884.0,-0.46134843364798295
2883.0,-0.4614234866995659
2882.0,-0.46146851230552643
2881.0,-0.4615135332439282
2880.0,-0.4615285391863271
2879.0,-0.4615135332439282
2878.0,-0.46146851230552643
2877.0,-0.46137845642507846
2876.0,-0.4612583528618397
2875.0,-0.46115323499084315
2874.0,-0.461093156210612
2873.0,-0.4610480916706581
2872.0,-0.4609729737111343
2871.0,-0.4608828150058275
2870.0,-0.46083772863341155
2869.0,-0.46080766845122945
2868.0,-0.4607475418441971
2867.0,-0.4606122265348289
2866.0,-0.46049191085531094
2865.0,-0.4604166966257357
2864.0,-0.4604016522165577
2863.0,-0.4604166966257357
2862.0,-0.4604768690514507
2861.0,-0.46055207286155797
2860.0,-0.4606122265348289
2859.0,-0.46055207286155797
2858.0,-0.4603715618346498
2857.0,-0.4601909757485787
2856.0,-0.4600855991774684
2855.0,-0.4601307636959495
2854.0,-0.46025117945436245
2853.0,-0.4603414693677652
2852.0,-0.4603715618346498
2851.0,-0.4604317405137781
2850.0,-0.460567112061002
2849.0,-0.460822698802402
2848.0,-0.46110817668485193
2847.0,-0.46133342148109646
2846.0,-0.4614234866995659
2845.0,-0.46137845642507846
2844.0,-0.4612583528618397
2843.0,-0.4611682533873829
2842.0,-0.46110817668485193
2841.0,-0.46103306911814235
2840.0,-0.46095794855996575
2839.0,-0.4608828150058275
2838.0,-0.46080766845122945
2837.0,-0.460702441425453
2836.0,-0.4605219929002007
2835.0,-0.4604016522165577
2834.0,-0.4603565158618479
2833.0,-0.4604016522165577
2832.0,-0.4604618267265992
2831.0,-0.46049191085531094
2830.0,-0.4605219929002007
2829.0,-0.4605219929002007
2828.0,-0.46049191085531094
2827.0,-0.4604166966257357
2826.0,-0.4603565158618479
2825.0,-0.46032642235236665
2824.0,-0.46032642235236665
2823.0,-0.46032642235236665
2822.0,-0.4603715618346498
2821.0,-0.4604317405137781
2820.0,-0.46050695213821546
2819.0,-0.46058215073967146
2818.0,-0.4605971888976015
2817.0,-0.46050695213821546
2816.0,-0.46029632675747534
2815.0,-0.4601157093783268
2814.0,-0.4600554868888862
2813.0,-0.4601006545388451
2812.0,-0.4601458174917501
2811.0,-0.4601458174917501
2810.0,-0.4601759235180283
2809.0,-0.46022107864468165
2808.0,-0.4601909757485787
2807.0,-0.4600705432941612
2806.0,-0.4599048941199779
2805.0,-0.4597693159667364
2804.0,-0.4596939764779706
2803.0,-0.4596939764779706
2802.0,-0.4596638370226058
2801.0,-0.4595884792320084
2800.0,-0.45945280224886353
2799.0,-0.459392487759231
2798.0,-0.45945280224886353
2797.0,-0.4595884792320084
2796.0,-0.45967890701174285
2795.0,-0.4596939764779706
2794.0,-0.45967890701174285
2793.0,-0.45967890701174285
2792.0,-0.45970904542132507
2791.0,-0.4597843822962693
2790.0,-0.45995007743384075
2789.0,-0.4601458174917501
2788.0,-0.46023612931030655
2787.0,-0.4602060274574509
2786.0,-0.4600855991774684
2785.0,-0.4599801970317374
2784.0,-0.4599048941199779
2783.0,-0.45982957814907977
2782.0,-0.4597542491145119
2781.0,-0.4596487665105231
2780.0,-0.4595432582804131
2779.0,-0.4594980326196918
2778.0,-0.45957340610465236
2777.0,-0.4597542491145119
2776.0,-0.4599801970317374
2775.0,-0.4601759235180283
2774.0,-0.4602662290768853
2773.0,-0.4602662290768853
2772.0,-0.4601759235180283
2771.0,-0.4600554868888862
2770.0,-0.4599801970317374
2769.0,-0.4599350168515248
2768.0,-0.4599350168515248
2767.0,-0.45996513749389933
2766.0,-0.4600404299616083
2765.0,-0.4601006545388451
2764.0,-0.4601307636959495
2763.0,-0.4601157093783268
2762.0,-0.4601006545388451
2761.0,-0.4600253725122907
2760.0,-0.4598747692989691
2759.0,-0.45967890701174285
2758.0,-0.45957340610465236
2757.0,-0.4596336954754583
2756.0,-0.4597843822962693
2755.0,-0.4599048941199779
2754.0,-0.45996513749389933
2753.0,-0.45995007743384075
2752.0,-0.45988983197067457
2751.0,-0.45982957814907977
2750.0,-0.45981451338740476
2749.0,-0.45979944810314644
2748.0,-0.45979944810314644
2747.0,-0.4597542491145119
2746.0,-0.45961862391737496
2745.0,-0.4593774078279145
2744.0,-0.45912096884954057
2743.0,-0.4589700516287487
2742.0,-0.45901533230182956
2741.0,-0.45918132105668397
2740.0,-0.45930200031606505
2739.0,-0.4593170828659252
2738.0,-0.45924166487808193
2737.0,-0.4591511460014761
2736.0,-0.45907569918963587
2735.0,-0.4590606082543216
2734.0,-0.4591360576876178
2733.0,-0.45924166487808193
2732.0,-0.4593472463943371
2731.0,-0.4594377244117278
2730.0,-0.4595131083632289
2729.0,-0.4595583324541326
2728.0,-0.4595432582804131
2727.0,-0.45948295635280934
2726.0,-0.4594377244117278
2725.0,-0.45940756716694775
2724.0,-0.45940756716694775
2723.0,-0.45940756716694775
2722.0,-0.4593774078279145
2721.0,-0.4593321648920039
2720.0,-0.4592718336448547
2719.0,-0.45924166487808193
2718.0,-0.459286917242387
2717.0,-0.4593472463943371
2716.0,-0.4593170828659252
2715.0,-0.45918132105668397
2714.0,-0.4589700516287487
2713.0,-0.45877378080568487
2712.0,-0.45865295465796674
2711.0,-0.4586227428679095
2710.0,-0.45865295465796674
2709.0,-0.45868316434648104
2708.0,-0.45868316434648104
2707.0,-0.45871337193374373
2706.0,-0.458788881710845
2705.0,-0.45887947611688285
2704.0,-0.45890967005313454
2703.0,-0.45884928008127845
2702.0,-0.4587435774200479
2701.0,-0.4586227428679095
2700.0,-0.45851698504883
2699.0,-0.4584716523842314
2698.0,-0.4585320948855509
2697.0,-0.45860763618471045
2696.0,-0.4586227428679095
2695.0,-0.458577421241789
2694.0,-0.458577421241789
2693.0,-0.4586378490256493
2692.0,-0.4587284749394973
2691.0,-0.45871337193374373
2690.0,-0.45859252897601577
2689.0,-0.45839608742625115
2688.0,-0.45821467786559245
2687.0,-0.4581239446610623
2686.0,-0.4581541911688505
2685.0,-0.45822979822356746
2684.0,-0.458244918055132
2683.0,-0.4581541911688505
2682.0,-0.45804831917427036
2681.0,-0.4580180652918542
2680.0,-0.4580785709492825
2679.0,-0.4581693136328351
2678.0,-0.45822979822356746
2677.0,-0.45826003736032295
2676.0,-0.4582751561391758
2675.0,-0.45833562599194755
2674.0,-0.4584565404444314
2673.0,-0.4585320948855509
2672.0,-0.45848676379820663
2671.0,-0.4583507421396633
2670.0,-0.45819955698116965
2669.0,-0.4580936960466042
2668.0,-0.4580331924965062
2667.0,-0.45804831917427036
2666.0,-0.4581239446610623
2665.0,-0.45821467786559245
2664.0,-0.45822979822356746
2663.0,-0.4581693136328351
2662.0,-0.45810882061718505
2661.0,-0.4580634453251835
2660.0,-0.4580180652918542
2659.0,-0.45791216010335756
2658.0,-0.45777595833075857
2657.0,-0.45763971382968016
2656.0,-0.45754886041100873
2655.0,-0.45751857171399823
2654.0,-0.45759428949613534
2653.0,-0.4576851334126366
2652.0,-0.45773054824599857
2651.0,-0.4577456854684918
2650.0,-0.4577456854684918
2649.0,-0.4577456854684918
2648.0,-0.4576699940794331
2647.0,-0.45751857171399823
2646.0,-0.45735194611069385
2645.0,-0.4572458783407436
2644.0,-0.45720041279376833
2643.0,-0.45720041279376833
2642.0,-0.45721556850495615
2641.0,-0.45723072368726925
2640.0,-0.4572458783407436
2639.0,-0.4572761860613257
2638.0,-0.45732164367683437
2637.0,-0.45732164367683437
2636.0,-0.45726103246541694
2635.0,-0.4571700997846193
2634.0,-0.45707914806032823
2633.0,-0.4569881772845652
2632.0,-0.4568668532674609
2631.0,-0.45679100854190446
2630.0,-0.4568213480215988
2629.0,-0.45694268474988764
2628.0,-0.45700334040388313
2627.0,-0.4569881772845652
2626.0,-0.45694268474988764
2625.0,-0.456851685381948
2624.0,-0.45669997738379253
2623.0,-0.45651785780526266
2622.0,-0.45638121798531994
2621.0,-0.45635084774181767
2620.0,-0.45639640231068546
2619.0,-0.45647231597514537
2618.0,-0.4565785728175107
2617.0,-0.45666962942375733
2616.0,-0.45669997738379253
2615.0,-0.456654454648449
2614.0,-0.4565633948601846
2613.0,-0.4564571343037791
2612.0,-0.4563660331290431
2611.0,-0.456305288394081
2610.0,-0.4562749128401671
2609.0,-0.45622934552542027
2608.0,-0.4561533893746934
2607.0,-0.4560774199372539
2606.0,-0.4560774199372539
2605.0,-0.4561533893746934
2604.0,-0.4562141553579888
2603.0,-0.4562141553579888
2602.0,-0.4561533893746934
2601.0,-0.45609261488790187
2600.0,-0.45604702844095746
2599.0,-0.4560014372084522
2598.0,-0.4559254411836373
2597.0,-0.455803819876607
2596.0,-0.4557125815397369
2595.0,-0.45568216450079024
2594.0,-0.4557125815397369
2593.0,-0.45572778926036905
2592.0,-0.45565174533135133
2591.0,-0.45553004734270175
2590.0,-0.4554996175163226
2589.0,-0.455514832696029
2588.0,-0.4554996175163226
2587.0,-0.4553474363941885
2586.0,-0.455119064678402
2585.0,-0.454905809342959
2584.0,-0.45476866130984916
2583.0,-0.45473817808656847
2582.0,-0.454753419965662
2581.0,-0.45473817808656847
2580.0,-0.4546467155768794
2579.0,-0.4545399849648186
2578.0,-0.4545399849648186
2577.0,-0.4546162237926987
2576.0,-0.4546924492394768
2575.0,-0.45470769272351363
2574.0,-0.454677205220384
2573.0,-0.4546314699523921
2572.0,-0.4545857298675422
2571.0,-0.4545399849648186
2570.0,-0.45450948568590555
2569.0,-0.4544789842649637
2568.0,-0.4544789842649637
2567.0,-0.45452473559309725
2566.0,-0.4546314699523921
2565.0,-0.45470769272351363
2564.0,-0.454661960666197
2563.0,-0.45452473559309725
2562.0,-0.454387467146955
2561.0,-0.45429593073984975
2560.0,-0.4542196356600017
2559.0,-0.45414332717459027
2558.0,-0.45406700527890465
2557.0,-0.4539906699682299
2556.0,-0.45392959205772865
2555.0,-0.45389904988099383
2554.0,-0.4539601320867068
2553.0,-0.4540364727646975
2552.0,-0.45406700527890465
2551.0,-0.4540059381037902
2550.0,-0.45392959205772865
2549.0,-0.45389904988099383
2548.0,-0.4539143212378498
2547.0,-0.45394486234066855
2546.0,-0.4539754012958812
2545.0,-0.4539906699682299
2544.0,-0.4540059381037902
2543.0,-0.4540212057026003
2542.0,-0.45412806386842597
2541.0,-0.45426541431627676
2540.0,-0.4543417013550477
2539.0,-0.45431118814756655
2538.0,-0.45423489574826537
2537.0,-0.45414332717459027
2536.0,-0.45406700527890465
2535.0,-0.4539906699682299
2534.0,-0.45394486234066855
2533.0,-0.45392959205772865
2532.0,-0.4539143212378498
2531.0,-0.453883777987123
2530.0,-0.4538379590830446
2529.0,-0.45377685969044235
2528.0,-0.45368519448127165
2527.0,-0.45362407359145074
2526.0,-0.4536699150652268
2525.0,-0.4538074104612262
2524.0,-0.4539143212378498
2523.0,-0.4539754012958812
2522.0,-0.4540212057026003
2521.0,-0.45406700527890465
2520.0,-0.45406700527890465
2519.0,-0.4540364727646975
2518.0,-0.4540364727646975
2517.0,-0.454112800025813
2516.0,-0.45418911387476824
2515.0,-0.4542196356600017
2514.0,-0.45418911387476824
2513.0,-0.45415858994434366
2512.0,-0.4541738521777239
2511.0,-0.45423489574826537
2510.0,-0.45431118814756655
2509.0,-0.454356957154888
2508.0,-0.4543264450192863
2507.0,-0.45423489574826537
2506.0,-0.4541738521777239
2505.0,-0.45414332717459027
2504.0,-0.45414332717459027
2503.0,-0.45414332717459027
2502.0,-0.4541738521777239
2501.0,-0.4542043750355149
2500.0,-0.4542196356600017
2499.0,-0.4542501553003446
2498.0,-0.4543264450192863
2497.0,-0.45441797499578973
2496.0,-0.4544332281165886
2495.0,-0.454356957154888
2494.0,-0.45423489574826537
2493.0,-0.45415858994434366
2492.0,-0.45414332717459027
2491.0,-0.4541738521777239
2490.0,-0.45423489574826537
2489.0,-0.45429593073984975
2488.0,-0.45429593073984975
2487.0,-0.4542501553003446
2486.0,-0.45423489574826537
2485.0,-0.45428067279609907
2484.0,-0.454356957154888
2483.0,-0.45440272133925763
2482.0,-0.4544332281165886
2481.0,-0.45444848070169197
2480.0,-0.45444848070169197
2479.0,-0.45440272133925763
2478.0,-0.45440272133925763
2477.0,-0.45441797499578973
2476.0,-0.45446373275113805
2475.0,-0.45446373275113805
2474.0,-0.4544789842649637
2473.0,-0.4544942352432071
2472.0,-0.45452473559309725
2471.0,-0.4545552338011083
2470.0,-0.4546467155768794
2469.0,-0.454753419965662
2468.0,-0.45482962133828986
2467.0,-0.4548448600085102
2466.0,-0.4548600981440498
2465.0,-0.4549210453401509
2464.0,-0.45499721730945986
2463.0,-0.455088606040952
2462.0,-0.4552104277758051
2461.0,-0.4553474363941885
2460.0,-0.4554691855576598
2459.0,-0.4554996175163226
2458.0,-0.4554996175163226
2457.0,-0.4554691855576598
2456.0,-0.45540831524228587
2455.0,-0.455377876884977
2454.0,-0.45540831524228587
2453.0,-0.45553004734270175
2452.0,-0.45563653494760414
2451.0,-0.45568216450079024
2450.0,-0.45565174533135133
2449.0,-0.45562132403112177
2448.0,-0.4556061125818669
2447.0,-0.4555756880848909
2446.0,-0.45553004734270175
2445.0,-0.455514832696029
2444.0,-0.45553004734270175
2443.0,-0.4555756880848909
2442.0,-0.45563653494760414
2441.0,-0.45565174533135133
2440.0,-0.45563653494760414
2439.0,-0.4555909005998027
2438.0,-0.4556061125818669
2437.0,-0.45568216450079024
2436.0,-0.4557734092273469
2435.0,-0.4558646347875279
2434.0,-0.4559406414525049
2433.0,-0.4559558411893829
2432.0,-0.45587983718472547
2431.0,-0.45575820310413695
2430.0,-0.45568216450079024
2429.0,-0.4556973732865566
2428.0,-0.45575820310413695
2427.0,-0.4558190244027309
2426.0,-0.4558494318581543
2425.0,-0.4558950390497847
2424.0,-0.4559406414525049
2423.0,-0.4559862390673195
2422.0,-0.45604702844095746
2421.0,-0.45609261488790187
2420.0,-0.45606222445495126
2419.0,-0.4560014372084522
2418.0,-0.4559710403943087
2417.0,-0.4559862390673195
2416.0,-0.4560318318952339
2415.0,-0.456016634817745
2414.0,-0.4559710403943087
2413.0,-0.45587983718472547
2412.0,-0.4557734092273469
2411.0,-0.4556973732865566
2410.0,-0.4556669551824011
2409.0,-0.45568216450079024
2408.0,-0.45565174533135133
2407.0,-0.4555604750370956
2406.0,-0.4554844018035453
2405.0,-0.455514832696029
2404.0,-0.45565174533135133
2403.0,-0.455803819876607
2402.0,-0.4558646347875279
2401.0,-0.45578861481815824
2400.0,-0.45563653494760414
2399.0,-0.4555604750370956
2398.0,-0.4556061125818669
2397.0,-0.4557429964484898
2396.0,-0.45583422839656773
2395.0,-0.45583422839656773
2394.0,-0.45575820310413695
2393.0,-0.45565174533135133
2392.0,-0.4554844018035453
2391.0,-0.45525610211795176
2390.0,-0.4549210453401509
2389.0,-0.4543722124188445
2388.0,-0.45353237612510666
2387.0,-0.45236919596034353
2386.0,-0.45098770455504056
2385.0,-0.4494321131171679
2384.0,-0.44763859140049744
2383.0,-0.44565089909450206
2382.0,-0.4434976778085855
2381.0,-0.4413022866931673
2380.0,-0.43911154215972736
2379.0,-0.43692557122800046
2378.0,-0.43480833865309254
2377.0,-0.4328250362796182
2376.0,-0.4309292523849697
2375.0,-0.4291706787939735
2374.0,-0.4277781372241729
2373.0,-0.4271776440015609
2372.0,-0.42746987955181215
2371.0,-0.42824821434294913
2370.0,-0.42900898458089065
2369.0,-0.42934847292366163
2368.0,-0.4290574991662477
2367.0,-0.42776191858979873
2366.0,-0.4252243654258394
2365.0,-0.4218834961921063
2364.0,-0.41863268735406534
2363.0,-0.41579105574234143
2362.0,-0.41314882471431646
2361.0,-0.41086155421659765
2360.0,-0.40935818993016504
2359.0,-0.4085791254086675
2358.0,-0.4092397267487846
2357.0,-0.4119225964661992
2356.0,-0.415857739475443
2355.0,-0.42061577062576516
2354.0,-0.4261369887864239
2353.0,-0.4332416411126818
2352.0,-0.44078318135933436
2351.0,-0.4444663880201931
2350.0,-0.4419777670066436
2349.0,-0.43335373570497193
2348.0,-0.42031888478858903
2347.0,-0.4037723318085513
2346.0,-0.38771008939860563
2345.0,-0.3805549221542135
2344.0,-0.3860528489403894
2343.0,-0.40148670177416923
2342.0,-0.4190962173779913
2341.0,-0.4309614533549482
2340.0,-0.4337858297437993
2339.0,-0.43001051963059256
2338.0,-0.4265112613645754
2337.0,-0.42475100210401706
2336.0,-0.42376998862633863
2335.0,-0.42232714848892705
2334.0,-0.4206652318731168
2333.0,-0.41980710517149866
2332.0,-0.42003830613317783
2331.0,-0.4217355113222552
2330.0,-0.42444058752647695
2329.0,-0.4278267894935235
2328.0,-0.4310419453358856
2327.0,-0.4340736537850507
2326.0,-0.4359717063993407
2325.0,-0.4378614997952215
2324.0,-0.4386689006867375
2323.0,-0.44054701911644134
2322.0,-0.4434194617828173
2321.0,-0.447793497409382
2320.0,-0.4521392523525454
2319.0,-0.455058145267178
2318.0,-0.45680617854668837
2317.0,-0.4573822464303814
2316.0,-0.45765485421845975
2315.0,-0.4577002722181076
2314.0,-0.4577002722181076
2313.0,-0.45804831917427036
2312.0,-0.45848676379820663
2311.0,-0.4594980326196918
2310.0,-0.4602662290768853
2309.0,-0.46092789669807743
2308.0,-0.460537033141303
2307.0,-0.459919955746916
2306.0,-0.45880398209094775
2305.0,-0.4580029375602783
2304.0,-0.457018502993809
2303.0,-0.4565330373540979
2302.0,-0.4562749128401671
2301.0,-0.4565330373540979
2300.0,-0.45668480366885955
2299.0,-0.45683651696667305
2298.0,-0.456851685381948
2297.0,-0.45700334040388313
2296.0,-0.45694268474988764
2295.0,-0.4568668532674609
2294.0,-0.45662410350706395
2293.0,-0.4565785728175107
2292.0,-0.4564571343037791
2291.0,-0.4565482163723926
2290.0,-0.456654454648449
2289.0,-0.45694268474988764
2288.0,-0.4571852565536685
2287.0,-0.4573670965347909
2286.0,-0.4574579879820311
2285.0,-0.4573973957975026
2284.0,-0.4571397846595264
2283.0,-0.45676066694256967
2282.0,-0.45650267772585007
2281.0,-0.45647231597514537
2280.0,-0.4565633948601846
2279.0,-0.45660892714091306
2278.0,-0.45662410350706395
2277.0,-0.4566392793428964
2276.0,-0.4566392793428964
2275.0,-0.4565330373540979
2274.0,-0.4563660331290431
2273.0,-0.4561989646592375
2272.0,-0.456016634817745
2271.0,-0.4558494318581543
2270.0,-0.4557734092273469
2269.0,-0.45583422839656773
2268.0,-0.4559558411893829
2267.0,-0.45609261488790187
2266.0,-0.4561685816676273
2265.0,-0.4561685816676273
2264.0,-0.4561381965502913
2263.0,-0.4561381965502913
2262.0,-0.456305288394081
2261.0,-0.4566392793428964
2260.0,-0.4569881772845652
2259.0,-0.4572458783407436
2258.0,-0.4573973957975026
2257.0,-0.4574882809044376
2256.0,-0.4575337163265538
2255.0,-0.45754886041100873
2254.0,-0.45763971382968016
2253.0,-0.4577456854684918
2252.0,-0.45783649772544166
2251.0,-0.45786676425844597
2250.0,-0.45791216010335756
2249.0,-0.4580029375602783
2248.0,-0.4580936960466042
2247.0,-0.45818443557026267
2246.0,-0.4582751561391758
2245.0,-0.45836585776126126
2244.0,-0.45841120146971637
2243.0,-0.45841120146971637
2242.0,-0.4584565404444314
2241.0,-0.45850187468639403
2240.0,-0.45848676379820663
2239.0,-0.4584716523842314
2238.0,-0.4585320948855509
2237.0,-0.45868316434648104
2236.0,-0.45880398209094775
2235.0,-0.4588341812761283
2234.0,-0.45884928008127845
2233.0,-0.45889457334740946
2232.0,-0.4589549570218652
2231.0,-0.45903042481045464
2230.0,-0.45912096884954057
2229.0,-0.45918132105668397
2228.0,-0.4591511460014761
2227.0,-0.45912096884954057
2226.0,-0.45918132105668397
2225.0,-0.4593623273729621
2224.0,-0.45948295635280934
2223.0,-0.45948295635280934
2222.0,-0.45942264605110106
2221.0,-0.459392487759231
2220.0,-0.459392487759231
2219.0,-0.4593774078279145
2218.0,-0.4593472463943371
2217.0,-0.45930200031606505
2216.0,-0.4592265797087687
2215.0,-0.4591360576876178
2214.0,-0.4591360576876178
2213.0,-0.4591964077981059
2212.0,-0.4592567495234321
2211.0,-0.459286917242387
2210.0,-0.4593170828659252
2209.0,-0.45940756716694775
2208.0,-0.45946787956254553
2207.0,-0.45946787956254553
2206.0,-0.45946787956254553
2205.0,-0.45948295635280934
2204.0,-0.45946787956254553
2203.0,-0.459392487759231
2202.0,-0.4593321648920039
2201.0,-0.4593321648920039
2200.0,-0.4593774078279145
2199.0,-0.45948295635280934
2198.0,-0.4596939764779706
2197.0,-0.459919955746916
2196.0,-0.4600404299616083
2195.0,-0.45995007743384075
2194.0,-0.4597391817395593
2193.0,-0.4595583324541326
2192.0,-0.45942264605110106
2191.0,-0.4593774078279145
2190.0,-0.45942264605110106
2189.0,-0.4595432582804131
2188.0,-0.4596939764779706
2187.0,-0.45982957814907977
2186.0,-0.45996513749389933
2185.0,-0.4600554868888862
2184.0,-0.4600103145408969
2183.0,-0.4598747692989691
2182.0,-0.4597843822962693
2181.0,-0.4597843822962693
2180.0,-0.45981451338740476
2179.0,-0.45979944810314644
2178.0,-0.45979944810314644
2177.0,-0.45979944810314644
2176.0,-0.4597542491145119
2175.0,-0.45970904542132507
2174.0,-0.4597391817395593
2173.0,-0.4599048941199779
2172.0,-0.4601006545388451
2171.0,-0.46022107864468165
2170.0,-0.46029632675747534
2169.0,-0.4603414693677652
2168.0,-0.4603414693677652
2167.0,-0.46023612931030655
2166.0,-0.4601307636959495
2165.0,-0.4600554868888862
2164.0,-0.4599801970317374
2163.0,-0.4599350168515248
2162.0,-0.45996513749389933
2161.0,-0.4600705432941612
2160.0,-0.4601608707657645
2159.0,-0.4601458174917501
2158.0,-0.4600855991774684
2157.0,-0.45999525604739144
2156.0,-0.4598747692989691
2155.0,-0.4597391817395593
2154.0,-0.45967890701174285
2153.0,-0.4596939764779706
2152.0,-0.4596638370226058
2151.0,-0.45960355183623713
2150.0,-0.4595583324541326
2149.0,-0.45960355183623713
2148.0,-0.45961862391737496
2147.0,-0.4595583324541326
2146.0,-0.45948295635280934
2145.0,-0.45945280224886353
2144.0,-0.45946787956254553
2143.0,-0.4595131083632289
2142.0,-0.4595884792320084
2141.0,-0.4596487665105231
2140.0,-0.4595884792320084
2139.0,-0.45946787956254553
2138.0,-0.4593774078279145
2137.0,-0.4593774078279145
2136.0,-0.45940756716694775
2135.0,-0.4593623273729621
2134.0,-0.4593321648920039
2133.0,-0.4593321648920039
2132.0,-0.4593321648920039
2131.0,-0.45930200031606505
2130.0,-0.45924166487808193
2129.0,-0.4591511460014761
2128.0,-0.45903042481045464
2127.0,-0.45889457334740946
2126.0,-0.4588341812761283
2125.0,-0.4588341812761283
2124.0,-0.458788881710845
2123.0,-0.45866805976489866
2122.0,-0.4585623129819938
2121.0,-0.4585623129819938
2120.0,-0.4586227428679095
2119.0,-0.45869826840275074
2118.0,-0.4587284749394973
2117.0,-0.4587435774200479
2116.0,-0.4587435774200479
2115.0,-0.45877378080568487
2114.0,-0.45886437836151783
2113.0,-0.45890967005313454
2112.0,-0.45886437836151783
2111.0,-0.45875867937543147
2110.0,-0.4587435774200479
2109.0,-0.45881908194603005
2108.0,-0.45886437836151783
2107.0,-0.4588341812761283
2106.0,-0.4588341812761283
2105.0,-0.45890967005313454
2104.0,-0.4589549570218652
2103.0,-0.45887947611688285
2102.0,-0.45877378080568487
2101.0,-0.45866805976489866
2100.0,-0.458577421241789
2099.0,-0.45851698504883
2098.0,-0.45851698504883
2097.0,-0.45859252897601577
2096.0,-0.4586378490256493
2095.0,-0.4586227428679095
2094.0,-0.45859252897601577
2093.0,-0.458577421241789
2092.0,-0.4585472041965932
2091.0,-0.45850187468639403
2090.0,-0.4585320948855509
2089.0,-0.4586227428679095
2088.0,-0.45868316434648104
2087.0,-0.45869826840275074
2086.0,-0.45877378080568487
2085.0,-0.45889457334740946
2084.0,-0.4589398618903262
2083.0,-0.45886437836151783
2082.0,-0.4587435774200479
2081.0,-0.45869826840275074
2080.0,-0.45866805976489866
2079.0,-0.45865295465796674
2078.0,-0.45869826840275074
2077.0,-0.458788881710845
2076.0,-0.45884928008127845
2075.0,-0.45880398209094775
2074.0,-0.45877378080568487
2073.0,-0.45877378080568487
2072.0,-0.45875867937543147
2071.0,-0.4587284749394973
2070.0,-0.4587435774200479
2069.0,-0.458788881710845
2068.0,-0.45877378080568487
2067.0,-0.4587435774200479
2066.0,-0.45884928008127845
2065.0,-0.4591058794872094
2064.0,-0.459286917242387
2063.0,-0.4592718336448547
2062.0,-0.4591511460014761
2061.0,-0.4591058794872094
2060.0,-0.4591058794872094
2059.0,-0.45912096884954057
2058.0,-0.4591511460014761
2057.0,-0.4591964077981059
2056.0,-0.45918132105668397
2055.0,-0.45912096884954057
2054.0,-0.4591360576876178
2053.0,-0.45924166487808193
2052.0,-0.4593472463943371
2051.0,-0.4593472463943371
2050.0,-0.45930200031606505
2049.0,-0.459286917242387
2048.0,-0.4593472463943371
2047.0,-0.4594377244117278
2046.0,-0.45957340610465236
2045.0,-0.45970904542132507
2044.0,-0.4597391817395593
2043.0,-0.4596336954754583
2042.0,-0.4595583324541326
2041.0,-0.45960355183623713
2040.0,-0.4596939764779706
2039.0,-0.4597542491145119
2038.0,-0.45979944810314644
2037.0,-0.4599048941199779
2036.0,-0.4599801970317374
2035.0,-0.45999525604739144
2034.0,-0.4600103145408969
2033.0,-0.4600705432941612
2032.0,-0.4601157093783268
2031.0,-0.4600253725122907
2030.0,-0.4599048941199779
2029.0,-0.45982957814907977
2028.0,-0.45979944810314644
2027.0,-0.4597542491145119
2026.0,-0.45970904542132507
2025.0,-0.45967890701174285
2024.0,-0.4596939764779706
2023.0,-0.45967890701174285
2022.0,-0.45960355183623713
2021.0,-0.45946787956254553
2020.0,-0.4592567495234321
2019.0,-0.45903042481045464
2018.0,-0.4589851457110128
2017.0,-0.4591964077981059
2016.0,-0.4594377244117278
2015.0,-0.4595432582804131
2014.0,-0.45957340610465236
2013.0,-0.45961862391737496
2012.0,-0.45960355183623713
2011.0,-0.45946787956254553
2010.0,-0.4593321648920039
2009.0,-0.4593321648920039
2008.0,-0.4593774078279145
2007.0,-0.4593170828659252
2006.0,-0.45921149401545547
2005.0,-0.45918132105668397
2004.0,-0.45918132105668397
2003.0,-0.45909078960058647
2002.0,-0.4589700516287487
2001.0,-0.4589247662340945
2000.0,-0.45884928008127845
1999.0,-0.45877378080568487
1998.0,-0.4587284749394973
1997.0,-0.4586227428679095
1996.0,-0.4583507421396633
1995.0,-0.45795755120363824
1994.0,-0.45765485421845975
1993.0,-0.45762457291305747
1992.0,-0.45782136366791004
1991.0,-0.4579726805162072
1990.0,-0.4580180652918542
1989.0,-0.45810882061718505
1988.0,-0.4582751561391758
1987.0,-0.45836585776126126
1986.0,-0.45833562599194755
1985.0,-0.45830539211801646
1984.0,-0.45836585776126126
1983.0,-0.4583809728567787
1982.0,-0.4582751561391758
1981.0,-0.45810882061718505
1980.0,-0.457942421363998
1979.0,-0.45782136366791004
1978.0,-0.4577456854684918
1977.0,-0.4576699940794331
1976.0,-0.4576094314685548
1975.0,-0.45757914699576263
1974.0,-0.4574882809044376
1973.0,-0.4572761860613257
1972.0,-0.4569881772845652
1971.0,-0.45662410350706395
1970.0,-0.4561230031943837
1969.0,-0.4555909005998027
1968.0,-0.4553626569062863
1967.0,-0.4556061125818669
1966.0,-0.456016634817745
1965.0,-0.45622934552542027
1964.0,-0.4562749128401671
1963.0,-0.45622934552542027
1962.0,-0.45609261488790187
1961.0,-0.4558646347875279
1960.0,-0.4556669551824011
1959.0,-0.4555756880848909
1958.0,-0.4554844018035453
1957.0,-0.45531699376962065
1956.0,-0.4551952019275767
1955.0,-0.45524087787095535
1954.0,-0.4553474363941885
1953.0,-0.4553626569062863
1952.0,-0.4553626569062863
1951.0,-0.4553626569062863
1950.0,-0.455286549010975
1949.0,-0.45514952117982777
1948.0,-0.4548905728112369
1947.0,-0.4545552338011083
1946.0,-0.45423489574826537
1945.0,-0.4540364727646975
1944.0,-0.4540364727646975
1943.0,-0.45446373275113805
1942.0,-0.4552713258312795
1941.0,-0.4560318318952339
1940.0,-0.45659375024440774
1939.0,-0.4570488265856314
1938.0,-0.4572761860613257
1937.0,-0.45726103246541694
1936.0,-0.4571397846595264
1935.0,-0.4571700997846193
1934.0,-0.45733679515805425
1933.0,-0.4575337163265538
1932.0,-0.45777595833075857
1931.0,-0.45791216010335756
1930.0,-0.4580936960466042
1929.0,-0.458244918055132
1928.0,-0.4581541911688505
1927.0,-0.4578062290829772
1926.0,-0.4572913391285067
1925.0,-0.45694268474988764
1924.0,-0.45676066694256967
1923.0,-0.4567454953479446
1922.0,-0.45707914806032823
1921.0,-0.45773054824599857
1920.0,-0.4585472041965932
1919.0,-0.45912096884954057
1918.0,-0.4594377244117278
1917.0,-0.45957340610465236
1916.0,-0.45952818358345704
1915.0,-0.4595583324541326
1914.0,-0.4595583324541326
1913.0,-0.4592567495234321
1912.0,-0.45868316434648104
1911.0,-0.45821467786559245
1910.0,-0.45836585776126126
1909.0,-0.4589700516287487
1908.0,-0.4594980326196918
1907.0,-0.4597693159667364
1906.0,-0.4599048941199779
1905.0,-0.4601006545388451
1904.0,-0.4601307636959495
1903.0,-0.4599350168515248
1902.0,-0.4600705432941612
1901.0,-0.4604016522165577
1900.0,-0.4604166966257357
1899.0,-0.45995007743384075
1898.0,-0.45940756716694775
1897.0,-0.4592567495234321
1896.0,-0.45942264605110106
1895.0,-0.4596638370226058
1894.0,-0.45996513749389933
1893.0,-0.4602060274574509
1892.0,-0.4601458174917501
1891.0,-0.45981451338740476
1890.0,-0.4597843822962693
1889.0,-0.46031137481561535
1888.0,-0.46073250889167294
1887.0,-0.46086778673508855
1886.0,-0.4610781352168565
1885.0,-0.46134843364798295
1884.0,-0.46134843364798295
1883.0,-0.46110817668485193
1882.0,-0.461093156210612
1881.0,-0.46133342148109646
1880.0,-0.461393467035359
1879.0,-0.46127336762378723
1878.0,-0.4611682533873829
1877.0,-0.4612583528618397
1876.0,-0.461393467035359
1875.0,-0.4611832712645878
1874.0,-0.46068740691168575
1873.0,-0.46023612931030655
1872.0,-0.4597693159667364
1871.0,-0.4589398618903262
1870.0,-0.45795755120363824
1869.0,-0.45786676425844597
1868.0,-0.458788881710845
1867.0,-0.4597843822962693
1866.0,-0.46080766845122945
1865.0,-0.4617385679564108
1864.0,-0.46191851180895505
1863.0,-0.46137845642507846
1862.0,-0.46092789669807743
1861.0,-0.4609729737111343
1860.0,-0.461093156210612
1859.0,-0.46103306911814235
1858.0,-0.4611382160749318
1857.0,-0.46146851230552643
1856.0,-0.46158855777153907
1855.0,-0.46127336762378723
1854.0,-0.4610030224540993
1853.0,-0.46085275794429537
1852.0,-0.4604016522165577
1851.0,-0.45988983197067457
1850.0,-0.45930200031606505
1849.0,-0.4585623129819938
1848.0,-0.45804831917427036
1847.0,-0.45848676379820663
1846.0,-0.45979944810314644
1845.0,-0.46103306911814235
1844.0,-0.46134843364798295
1843.0,-0.460537033141303
1842.0,-0.45996513749389933
1841.0,-0.4603715618346498
1840.0,-0.46055207286155797
1839.0,-0.4597542491145119
1838.0,-0.45884928008127845
1837.0,-0.45886437836151783
1836.0,-0.45924166487808193
1835.0,-0.45909078960058647
1834.0,-0.45860763618471045
1833.0,-0.45818443557026267
1832.0,-0.4576851334126366
1831.0,-0.45689718744934815
1830.0,-0.4562597242664723
1829.0,-0.4561989646592375
1828.0,-0.456654454648449
1827.0,-0.45759428949613534
1826.0,-0.45832050931807755
1825.0,-0.4586227428679095
1824.0,-0.45884928008127845
1823.0,-0.45900023926869427
1822.0,-0.4591964077981059
1821.0,-0.4593170828659252
1820.0,-0.4592567495234321
1819.0,-0.4589398618903262
1818.0,-0.4586227428679095
1817.0,-0.45880398209094775
1816.0,-0.4589398618903262
1815.0,-0.4583507421396633
1814.0,-0.45732164367683437
1813.0,-0.45660892714091306
1812.0,-0.45668480366885955
1811.0,-0.4569123537457962
1810.0,-0.4571397846595264
1809.0,-0.45795755120363824
1808.0,-0.45887947611688285
1807.0,-0.45907569918963587
1806.0,-0.4587435774200479
1805.0,-0.45851698504883
1804.0,-0.45819955698116965
1803.0,-0.45754886041100873
1802.0,-0.4570639875876017
1801.0,-0.4574125446361914
1800.0,-0.45821467786559245
1799.0,-0.45813906817827155
1798.0,-0.4573822464303814
1797.0,-0.45709430800384654
1796.0,-0.4573973957975026
1795.0,-0.45792729099725005
1794.0,-0.45822979822356746
1793.0,-0.45859252897601577
1792.0,-0.4595884792320084
1791.0,-0.4601608707657645
1790.0,-0.4602060274574509
1789.0,-0.4607475418441971
1788.0,-0.4612583528618397
1787.0,-0.4610631137035508
1786.0,-0.46058215073967146
1785.0,-0.4604166966257357
1784.0,-0.459919955746916
1783.0,-0.45901533230182956
1782.0,-0.4583507421396633
1781.0,-0.4581239446610623
1780.0,-0.45859252897601577
1779.0,-0.4589398618903262
1778.0,-0.45869826840275074
1777.0,-0.4580180652918542
1776.0,-0.45733679515805425
1775.0,-0.4573822464303814
1774.0,-0.4572913391285067
1773.0,-0.4565330373540979
1772.0,-0.4565785728175107
1771.0,-0.4574125446361914
1770.0,-0.458577421241789
1769.0,-0.4604618267265992
1768.0,-0.4615585495157384
1767.0,-0.4605971888976015
1766.0,-0.45869826840275074
1765.0,-0.45779109397060536
1764.0,-0.457851631255608
1763.0,-0.45757914699576263
1762.0,-0.45659375024440774
1761.0,-0.45531699376962065
1760.0,-0.4544332281165886
1759.0,-0.4540822707310901
1758.0,-0.45374630677038974
1757.0,-0.45264496767999374
1756.0,-0.45084931340768986
1755.0,-0.4490770892633167
1754.0,-0.44759210882153777
1753.0,-0.4454329422951666
1752.0,-0.44166372079879945
1751.0,-0.4364489006918335
1750.0,-0.43049430544635836
1749.0,-0.42515910459970474
1748.0,-0.42053332269349974
1747.0,-0.4155409005128554
1746.0,-0.4089857682116942
1745.0,-0.40091772307544815
1744.0,-0.3922923610889706
1743.0,-0.3832227420787353
1742.0,-0.3735188549691211
1741.0,-0.3627462888238786
1740.0,-0.3494135268147316
1739.0,-0.33346742690537123
1738.0,-0.31929348410527814
1737.0,-0.31058711489035495
1736.0,-0.3033256782189149
1735.0,-0.28918746822073427
1734.0,-0.264841425329148
1733.0,-0.237443195375461
1732.0,-0.2168781417028569
1731.0,-0.2022157758011316
1730.0,-0.18605179052627863
1729.0,-0.166133970305109
1728.0,-0.1447298408246498
1727.0,-0.12365567443812209
1726.0,-0.10147211700023773
1725.0,-0.07674964062400003
1724.0,-0.0496830890882487
1723.0,-0.020651268004341805
1722.0,0.007225635744644521
1721.0,0.030118356253500123
1720.0,0.04909991063361274
1719.0,0.07170658776779781
1718.0,0.10341867249426717
1717.0,0.13282724882135022
1716.0,0.1432711096171173
1715.0,0.13626089265478303
1714.0,0.11941504393502012
1713.0,0.09393445524476318
1712.0,0.060430831344098435
1711.0,0.021499930688540836
1710.0,-0.019988159591285193
1709.0,-0.06103759006341836
1708.0,-0.10002573010786264
1707.0,-0.13760727050463029
1706.0,-0.17475737631066046
1705.0,-0.2087637326616365
1704.0,-0.2355031964943377
1703.0,-0.25760658639231115
1702.0,-0.27717355548578526
1701.0,-0.29362769176601944
1700.0,-0.30601735008411834
1699.0,-0.31388830211386765
1698.0,-0.32339649713187546
1697.0,-0.33619947946663187
1696.0,-0.34637253682454805
1695.0,-0.34976304398794955
1694.0,-0.3504224766077102
1693.0,-0.354242934309549
1692.0,-0.3589622230445899
1691.0,-0.36146340236672136
1690.0,-0.3629157989995946
1689.0,-0.3649447772129477
1688.0,-0.3684728384403617
1687.0,-0.37329827961487094
1686.0,-0.3764309511778787
1685.0,-0.37663169660853324
1684.0,-0.37681411196819736
1683.0,-0.37697822030801653
1682.0,-0.3789064000232618
1681.0,-0.3834742570500511
1680.0,-0.38698025732775765
1679.0,-0.3897329560154552
1678.0,-0.3933119147002002
1677.0,-0.39701832704230844
1676.0,-0.39901572564876453
1675.0,-0.39924094169245583
1674.0,-0.3986169801632262
1673.0,-0.3987557157733681
1672.0,-0.400365273349939
1671.0,-0.4019688876951997
1670.0,-0.40433758531092723
1669.0,-0.40703380332803807
1668.0,-0.40832478017041485
1667.0,-0.40967957006035594
1666.0,-0.41183848140291124
1665.0,-0.41378576771973785
1664.0,-0.4145221155206511
1663.0,-0.4151069564880703
1662.0,-0.41670706077981867
1661.0,-0.4179530531094464
1660.0,-0.4188976222299976
1659.0,-0.4196584109605799
1658.0,-0.4199227210376031
1657.0,-0.4204508591060683
1656.0,-0.4232458739368079
1655.0,-0.4260555824839303
1654.0,-0.42761592361831946
1653.0,-0.43033310338003217
1652.0,-0.42439155441027765
1651.0,-0.4173221970997294
1650.0,-0.4188976222299976
1649.0,-0.42115953477408086
1648.0,-0.4212583278777604
1647.0,-0.42340972773309327
1646.0,-0.4273075507460411
1645.0,-0.4281185887084673
1644.0,-0.4275510212073934
1643.0,-0.42794029026414204
1642.0,-0.42866923065218865
1641.0,-0.4282644148272152
1640.0,-0.42699895875653704
1639.0,-0.42633230167742875
1638.0,-0.4268527070353696
1637.0,-0.4277294795038933
1636.0,-0.4299621113953642
1635.0,-0.43205486815627436
1634.0,-0.4310419453358856
1633.0,-0.430687668976669
1632.0,-0.4316210476273552
1631.0,-0.43205486815627436
1630.0,-0.4318942444093796
1629.0,-0.4313315930058259
1628.0,-0.43070377871875243
1627.0,-0.430687668976669
1626.0,-0.4315085048641776
1625.0,-0.43224753826860063
1624.0,-0.43242407748135436
1623.0,-0.4328250362796182
1622.0,-0.43320960877147385
1621.0,-0.4331295175804857
1620.0,-0.4339297656084642
1619.0,-0.4354143162175279
1618.0,-0.43605127520224274
1617.0,-0.43539838026736
1616.0,-0.43330569870812274
1615.0,-0.4312833318072613
1614.0,-0.43166927131374555
1613.0,-0.43304941161661326
1612.0,-0.4331455370003394
1611.0,-0.43268073375352234
1610.0,-0.4331775740674759
1609.0,-0.4343293373377297
1608.0,-0.43533463061852595
1607.0,-0.4366237406415272
1606.0,-0.4382416401442919
1605.0,-0.43909574130174933
1604.0,-0.4394432274492468
1603.0,-0.440294971094914
1602.0,-0.4417579585081639
1601.0,-0.44296553083467094
1600.0,-0.44360715658451566
1599.0,-0.4441385184264939
1598.0,-0.44459122564295717
1597.0,-0.44460682782297756
1596.0,-0.44437273624828677
1595.0,-0.44454441573953263
1594.0,-0.44518371479611174
1593.0,-0.44555750243136716
1592.0,-0.44546408567860807
1591.0,-0.4454952268289083
1590.0,-0.44591541395112344
1589.0,-0.44611758136797475
1588.0,-0.44580651557957784
1587.0,-0.44541736976591784
1586.0,-0.44518371479611174
1585.0,-0.4442946776752019
1584.0,-0.4425895047075801
1583.0,-0.44116077403511555
1582.0,-0.43967999051562634
1581.0,-0.4372271921907287
1580.0,-0.43482429626849406
1579.0,-0.4342334736447713
1578.0,-0.43468065661714217
1577.0,-0.4351592708179992
1576.0,-0.43600353566989636
1575.0,-0.4363694047127895
1574.0,-0.4370049654773034
1573.0,-0.43907993986887073
1572.0,-0.44095628542181053
1571.0,-0.441286565341398
1570.0,-0.441805069695703
1569.0,-0.443090800561706
1568.0,-0.4438729187710404
1567.0,-0.4450434614501799
1566.0,-0.44611758136797475
1565.0,-0.4459776293343549
1564.0,-0.4456975898951603
1563.0,-0.4477470314079568
1562.0,-0.45141797298926134
1561.0,-0.45216991853543487
1560.0,-0.44586874656401587
1559.0,-0.44507463277493065
1558.0,-0.4506647232521521
1557.0,-0.44935495870279807
1556.0,-0.45029530740263457
1555.0,-0.4524917827883126
1554.0,-0.45264496767999374
1553.0,-0.45101845215545744
1552.0,-0.4500334475925287
1551.0,-0.450187501895837
1550.0,-0.450695493727006
1549.0,-0.45131044583782964
1548.0,-0.4516175956663284
1547.0,-0.4515868904569049
1546.0,-0.45026450855985134
1545.0,-0.4480721890650865
1544.0,-0.44709598484137736
1543.0,-0.4475456212670106
1542.0,-0.4475301243096359
1541.0,-0.4484125695100798
1540.0,-0.45342537127166516
1539.0,-0.4554691855576598
1538.0,-0.4522312444058234
1537.0,-0.45170969827134666
1536.0,-0.45316539252585697
1535.0,-0.4531806897020938
1534.0,-0.45183247136857174
1533.0,-0.4514486901432795
1532.0,-0.45170969827134666
1531.0,-0.45151011793431595
1530.0,-0.45095695477757136
1529.0,-0.4500488554821902
1528.0,-0.44909253111941894
1527.0,-0.44855173920157787
1526.0,-0.4484125695100798
1525.0,-0.4485053542594506
1524.0,-0.44909253111941894
1523.0,-0.449524680325029
1522.0,-0.45014129134246916
1521.0,-0.4514486901432795
1520.0,-0.45092620282274165
1519.0,-0.4496943356462175
1518.0,-0.44899987174592804
1517.0,-0.4492469194900117
1516.0,-0.4506801087620964
1515.0,-0.4520472408094247
1514.0,-0.4528134086778546
1513.0,-0.4521392523525454
1512.0,-0.44944754235535767
1511.0,-0.4453862230321648
1510.0,-0.4414123202233835
1509.0,-0.4372430611770062
1508.0,-0.4325042988610277
1507.0,-0.4311707014832571
1506.0,-0.43033310338003217
1505.0,-0.4252569921617799
1504.0,-0.4241299509195553
1503.0,-0.4273075507460411
1502.0,-0.4315085048641776
1501.0,-0.4354939871982695
1500.0,-0.4392853136659993
1499.0,-0.44312211234844634
1498.0,-0.4468477101558088
1497.0,-0.4509415790723459
1496.0,-0.4539143212378498
1495.0,-0.45423489574826537
1494.0,-0.4539143212378498
1493.0,-0.45392959205772865
1492.0,-0.4528287182568427
1491.0,-0.4500642628252307
1490.0,-0.4484744282121609
1489.0,-0.44994098877333766
1488.0,-0.4516482987050052
1487.0,-0.4514640479056058
1486.0,-0.45060317576125675
1485.0,-0.4494012529962208
1484.0,-0.447576613522922
1483.0,-0.4454796565328807
1482.0,-0.4431377673952879
1481.0,-0.4412551209304292
1480.0,-0.4398377608816957
1479.0,-0.43858981007044884
1478.0,-0.43697320951926777
1477.0,-0.43517521554427585
1476.0,-0.433737840519429
1475.0,-0.43301736509343547
1474.0,-0.43309747696798784
1473.0,-0.4343932347126054
1472.0,-0.4364012048506014
1471.0,-0.4362898941796396
1470.0,-0.4353186917440621
1469.0,-0.4350954860582883
1468.0,-0.43504764133996465
1467.0,-0.43453696944233133
1466.0,-0.4337058447569433
1465.0,-0.4328250362796182
1464.0,-0.43187817876683976
1463.0,-0.430284731089956
1462.0,-0.4284749661474083
1461.0,-0.42699895875653704
1460.0,-0.42582756362451457
1459.0,-0.42484898168297835
1458.0,-0.424767333568977
1457.0,-0.42729131452786273
1456.0,-0.4278267894935235
1455.0,-0.4259578747745145
1454.0,-0.42563202355731944
1453.0,-0.42616954703532617
1452.0,-0.4266901473381943
1451.0,-0.42722636358451194
1450.0,-0.4279565022387559
1449.0,-0.4290413282399559
1448.0,-0.4303169798819737
1447.0,-0.43173356123383666
1446.0,-0.43284106693432367
1445.0,-0.4333217116307839
1444.0,-0.43396174487889594
1443.0,-0.43445712268769787
1442.0,-0.4343612872003133
1441.0,-0.4342494523964757
1440.0,-0.43546212055982103
1439.0,-0.4377981107081683
1438.0,-0.4396484295634737
1437.0,-0.44073595918333197
1436.0,-0.4415851737508012
1435.0,-0.4417265482103958
1434.0,-0.44188357698670355
1433.0,-0.4426208526563382
1432.0,-0.44359151844894695
1431.0,-0.4447784148194782
1430.0,-0.446257488316375
1429.0,-0.448087666692341
1428.0,-0.449524680325029
1427.0,-0.45026450855985134
1426.0,-0.45020290432103005
1425.0,-0.44916973216520084
1424.0,-0.4487217749497212
1423.0,-0.4495401062749802
1422.0,-0.4506801087620964
1421.0,-0.4504646620071502
1420.0,-0.4476230977602862
1419.0,-0.4426992126301905
1418.0,-0.43663963169266085
1417.0,-0.43038147028293894
1416.0,-0.4240481675018226
1415.0,-0.4160910519425527
1414.0,-0.4054317419673734
1413.0,-0.3926969532596658
1412.0,-0.3795049391521341
1411.0,-0.36737455987419665
1410.0,-0.35745838564503574
1409.0,-0.3510034985663437
1408.0,-0.34871364746775324
1407.0,-0.35073245171612966
1406.0,-0.3569050348100782
1405.0,-0.3661052924228607
1404.0,-0.3767411550183968
1403.0,-0.38653463509047903
1402.0,-0.39434659686831264
1401.0,-0.4003479979672955
1400.0,-0.4054829629862722
1399.0,-0.41077723337720995
1398.0,-0.41589107750278
1397.0,-0.42038487696040727
1396.0,-0.42465300041525555
1395.0,-0.42908983921257304
1394.0,-0.43253638326425614
1393.0,-0.43399372179470763
1392.0,-0.4346966189246655
1391.0,-0.43547805417132457
1390.0,-0.43605127520224274
1389.0,-0.4362103690870547
1388.0,-0.43630579745085374
1387.0,-0.4367826249931577
1386.0,-0.43727479741012365
1385.0,-0.43738585596638746
1384.0,-0.43730653132427344
1383.0,-0.43695733066944964
1382.0,-0.4362898941796396
1381.0,-0.43550991964069885
1380.0,-0.4346487302419235
1379.0,-0.4336898459916987
1378.0,-0.43253638326425614
1377.0,-0.43109023336461094
1376.0,-0.4294615767572276
1375.0,-0.42837780129908687
1374.0,-0.42841019199733443
1373.0,-0.4288310513865681
1372.0,-0.42892811489332017
1371.0,-0.42891193914860626
1370.0,-0.4291383447670887
1369.0,-0.4296876960953959
1368.0,-0.430752104359859
1367.0,-0.4321833243946944
1366.0,-0.43352982591549516
1365.0,-0.43445712268769787
1364.0,-0.43528681224012766
1363.0,-0.43695733066944964
1362.0,-0.43960108383434626
1361.0,-0.441805069695703
1360.0,-0.4427775584680633
1359.0,-0.4428558901750561
1358.0,-0.44251112493478484
1357.0,-0.44183647431513284
1356.0,-0.44090908206521773
1355.0,-0.4398535347664483
1354.0,-0.4386056293460223
1353.0,-0.43689380946385103
1352.0,-0.4343453125628294
1351.0,-0.43097755294464823
1350.0,-0.42708018843635953
1349.0,-0.4224913492099662
1348.0,-0.4170729225131873
1347.0,-0.4107603672445874
1346.0,-0.4034637013453173
1345.0,-0.3949417367133594
1344.0,-0.3852665689575314
1343.0,-0.37483995965497563
1342.0,-0.36398782974849153
1341.0,-0.35306950266545334
1340.0,-0.34317217872893746
1339.0,-0.3363196162535398
1338.0,-0.33385014510254507
1337.0,-0.3357386470050501
1336.0,-0.34155322210957717
1335.0,-0.35088735634371293
1334.0,-0.3630475945210936
1333.0,-0.3767411550183968
1332.0,-0.390564209579058
1331.0,-0.4033093038268687
1330.0,-0.41413736218447683
1329.0,-0.42255701211936003
1328.0,-0.42863685926860917
1327.0,-0.4328570969973282
1326.0,-0.43558957308660595
1325.0,-0.43711609304807864
1324.0,-0.43775056282038793
1323.0,-0.4377664126947316
1322.0,-0.437195452478524
1321.0,-0.4361149197499885
1320.0,-0.4349200296496605
1319.0,-0.4339777336311075
1318.0,-0.43320960877147385
1317.0,-0.4322154325184635
1316.0,-0.43083263514721803
1315.0,-0.4291868449047129
1314.0,-0.42746987955181215
1313.0,-0.42566461968312064
1312.0,-0.4237536196128282
1311.0,-0.4216039268698313
1310.0,-0.41917893856105737
1309.0,-0.4165240142686528
1308.0,-0.4139029975044397
1307.0,-0.411501858139224
1306.0,-0.4092397267487846
1305.0,-0.40686365190684315
1304.0,-0.40433758531092723
1303.0,-0.4016072984535777
1302.0,-0.39849555013813687
1301.0,-0.39471427953334226
1300.0,-0.39028140822966284
1299.0,-0.3853738728162317
1298.0,-0.3801388532654175
1297.0,-0.37452839438124297
1296.0,-0.36860295855918235
1295.0,-0.3625578665544893
1294.0,-0.35644655550447
1293.0,-0.35022862975486513
1292.0,-0.3439400576457108
1291.0,-0.33777862483618337
1290.0,-0.3318320444362488
1289.0,-0.32596696370142464
1288.0,-0.3201670652542319
1287.0,-0.3146255192012708
1286.0,-0.3093320198759826
1285.0,-0.3040379019045827
1284.0,-0.29867845056018716
1283.0,-0.2934730481561081
1282.0,-0.28851750179707425
1281.0,-0.283662990058831
1280.0,-0.278707883337975
1279.0,-0.2736724619426054
1278.0,-0.26843755226145394
1277.0,-0.2625934580260507
1276.0,-0.2558270827032345
1275.0,-0.24807140091920132
1274.0,-0.2391492648582929
1273.0,-0.22865695810893527
1272.0,-0.21642983087625112
1271.0,-0.20281514096758047
1270.0,-0.1881125371650243
1269.0,-0.17222334142775297
1268.0,-0.15509300753040245
1267.0,-0.13722747644290667
1266.0,-0.11918988206116676
1265.0,-0.1011969858653452
1264.0,-0.0835026198302673
1263.0,-0.06695919786712246
1262.0,-0.05246307748332857
1261.0,-0.040048241547462116
1260.0,-0.029464946638236178
1259.0,-0.02094105986232009
1258.0,-0.014226429389229356
1257.0,-0.008131562240662582
1256.0,-0.001344230411601366
1255.0,0.006519680930003435
1254.0,0.015607721475734415
1253.0,0.026733563891471412
1252.0,0.04038628892895613
1251.0,0.05601112492622806
1250.0,0.0729891310243489
1249.0,0.09140776115243066
1248.0,0.11125903931710734
1247.0,0.1308269726783169
1246.0,0.14813039927023364
1245.0,0.16215913834447737
1244.0,0.1721140172101443
1243.0,0.17613469067548881
1242.0,0.17263072694617465
1241.0,0.16215913834447737
1240.0,0.14581545616639335
1239.0,0.12389767862220635
1238.0,0.09718153191774648
1237.0,0.06777998612288094
1236.0,0.037583306554248797
1235.0,0.0074464821678643656
1234.0,-0.02205702060116499
1233.0,-0.04983800062258359
1232.0,-0.07536444637328499
1231.0,-0.09905878906805432
1230.0,-0.12116574753441123
1229.0,-0.14144977340046738
1228.0,-0.1598377910711073
1227.0,-0.17678557492203595
1226.0,-0.1926789395345403
1225.0,-0.20739197797848785
1224.0,-0.2209705875202883
1223.0,-0.2337827150849483
1222.0,-0.24605519690644373
1221.0,-0.25767857486918455
1220.0,-0.2686715597469922
1219.0,-0.27916484306227085
1218.0,-0.2891651526498893
1217.0,-0.29859111129756943
1216.0,-0.3073676560385321
1215.0,-0.315592533791591
1214.0,-0.3233139904620663
1213.0,-0.3304746514861363
1212.0,-0.33713966272456064
1211.0,-0.34340859380385735
1210.0,-0.3491997944299987
1209.0,-0.3544157954814633
1208.0,-0.35911422041490626
1207.0,-0.36349916147823436
1206.0,-0.3676540466474072
1205.0,-0.3716034697297532
1204.0,-0.3754075333087856
1203.0,-0.3791241460703918
1202.0,-0.382683290433643
1201.0,-0.3859635706006972
1200.0,-0.3890597135066951
1199.0,-0.3920987271639933
1198.0,-0.39506416433124203
1197.0,-0.39788789020703863
1196.0,-0.40053798939194607
1195.0,-0.4030346837445862
1194.0,-0.40538051490671645
1193.0,-0.4074928794601025
1192.0,-0.4094766208069709
1191.0,-0.41138397832798335
1190.0,-0.41311527550750915
1189.0,-0.4145221155206511
1188.0,-0.41562430160041286
1187.0,-0.41644078579790067
1186.0,-0.4168900301730125
1185.0,-0.41682350476685404
1184.0,-0.4162409723681493
1183.0,-0.4152238302320552
1182.0,-0.4138025167693513
1181.0,-0.4120571466901559
1180.0,-0.41013585941926944
1179.0,-0.4081551338862641
1178.0,-0.4061823788044281
1177.0,-0.40433758531092723
1176.0,-0.4028973085564087
1175.0,-0.40212376240063996
1174.0,-0.4020549360166763
1173.0,-0.40269116426303864
1172.0,-0.4040636148838921
1171.0,-0.40626759641000376
1170.0,-0.4091212312452015
1169.0,-0.412225275871112
1168.0,-0.41524052391397426
1167.0,-0.4178535051684764
1166.0,-0.41982362360833037
1165.0,-0.4210936602175246
1164.0,-0.4218341735047786
1163.0,-0.4222450248417817
1162.0,-0.4223599936000717
1161.0,-0.4221957431983925
1160.0,-0.42176840120692427
1159.0,-0.42114306707166493
1158.0,-0.42028588494191776
1157.0,-0.41916239558488533
1156.0,-0.4178535051684764
1155.0,-0.4164241381895839
1154.0,-0.41480627950101256
1153.0,-0.4128635738128281
1152.0,-0.4106085425683679
1151.0,-0.40813816561253535
1150.0,-0.40538051490671645
1149.0,-0.4023473728483684
1148.0,-0.3991023610261597
1147.0,-0.39576308941776306
1146.0,-0.39234515536120407
1145.0,-0.3887404445246112
1144.0,-0.3849086978302787
1143.0,-0.3808260568363413
1142.0,-0.37644920459731646
1141.0,-0.3716957491177091
1140.0,-0.36664705139085374
1139.0,-0.3614445080863282
1138.0,-0.35606411933859494
1137.0,-0.350364331636265
1136.0,-0.34415639363120665
1135.0,-0.33741932432967303
1134.0,-0.330129562487524
1133.0,-0.32211587897395866
1132.0,-0.31342426716919247
1131.0,-0.30408102945992166
1130.0,-0.2940692274708905
1129.0,-0.2832333648887535
1128.0,-0.2715163445116313
1127.0,-0.2590680117623183
1126.0,-0.24603055119058448
1125.0,-0.23236071235357025
1124.0,-0.2180626178263747
1123.0,-0.20344086683043772
1122.0,-0.18898469947278285
1121.0,-0.1750476995261674
1120.0,-0.1620264324211771
1119.0,-0.15060295179300942
1118.0,-0.14151248287742346
1117.0,-0.13525989851565834
1116.0,-0.13216359605086403
1115.0,-0.13232374004099068
1114.0,-0.1349735400059151
1113.0,-0.13817633957304132
1112.0,-0.13987908640123647
1111.0,-0.13836586367899617
1110.0,-0.13254784246558104
1109.0,-0.12165831249806969
1108.0,-0.10581663743368575
1107.0,-0.08596807704607423
1106.0,-0.06344595312303314
1105.0,-0.03933478873808616
1104.0,-0.014730495001753496
1103.0,0.009039900317800775
1102.0,0.030770520137356927
1101.0,0.050073556332087765
1100.0,0.06661395809694559
1099.0,0.0794071379151915
1098.0,0.08745911720936239
1097.0,0.09108625997902897
1096.0,0.0908185240221473
1095.0,0.0867160982395816
1094.0,0.07878187880504961
1093.0,0.06813548650796819
1092.0,0.05581353871631256
1091.0,0.04215336629184985
1090.0,0.02751945012352408
1089.0,0.012825498912458322
1088.0,-0.0015173768235041685
1087.0,-0.01602996307602389
1086.0,-0.03104471658370489
1085.0,-0.04633905560480933
1084.0,-0.06190463371617039
1083.0,-0.07831178733499611
1082.0,-0.09597092234371463
1081.0,-0.11451090484887416
1080.0,-0.13353890837021742
1079.0,-0.15293013642272557
1078.0,-0.17231096852195416
1077.0,-0.19103160884861792
1076.0,-0.20865630050724748
1075.0,-0.22525757692409876
1074.0,-0.2406740276203072
1073.0,-0.254572244187353
1072.0,-0.26677246351307193
1071.0,-0.27763213161403044
1070.0,-0.28755541064233503
1069.0,-0.29679677471395527
1068.0,-0.30539436677173226
1067.0,-0.31327651564905246
1066.0,-0.3200839427156934
1065.0,-0.3256593098016407
1064.0,-0.33025138991790914
1063.0,-0.3344738569115373
1062.0,-0.3385361733556591
1061.0,-0.3423634548091723
1060.0,-0.3458636285037642
1059.0,-0.3490054009430672
1058.0,-0.3515837442417338
1057.0,-0.3533968433975412
1056.0,-0.3545309980503961
1055.0,-0.3553748844316118
1054.0,-0.3560832491472934
1053.0,-0.3565038918940049
1052.0,-0.3565230023418269
1051.0,-0.3563127411506448
1050.0,-0.3560832491472934
1049.0,-0.3558153551157708
1048.0,-0.35550898802443376
1047.0,-0.3551640665152047
1046.0,-0.3547804988312713
1045.0,-0.3543581827353215
1044.0,-0.3540700043067275
1043.0,-0.35420451137031295
1042.0,-0.3548380555846391
1041.0,-0.35591105052675287
1040.0,-0.35736303061514274
1039.0,-0.359152211446895
1038.0,-0.36100971260814285
1037.0,-0.3625578665544893
1036.0,-0.36374356434456834
1035.0,-0.36483230453917415
1034.0,-0.3660118173612865
1033.0,-0.3672067814359874
1032.0,-0.3683240819799578
1031.0,-0.3692900894386808
1030.0,-0.3698093586735425
1029.0,-0.3693272006954351
1028.0,-0.3670948931236584
1027.0,-0.3623127953265106
1026.0,-0.3540700043067275
1025.0,-0.34157300187784534
1024.0,-0.32434419893904076
1023.0,-0.30233092868439915
1022.0,-0.2759559817537438
1021.0,-0.24635083645625633
1020.0,-0.21603387781867367
1019.0,-0.18940608552922855
1018.0,-0.17196035401267684
1017.0,-0.1682027468426308
1016.0,-0.17914948036114886
1015.0,-0.20180664295702178
1014.0,-0.2303722744124186
1013.0,-0.2590919286322144
1012.0,-0.28434048145809676
1011.0,-0.3048996403328652
1010.0,-0.3208729652272493
1009.0,-0.3330036847556981
1008.0,-0.34222522936079036
1007.0,-0.34945237594991285
1006.0,-0.3552024046580531
1005.0,-0.35970270827411355
1004.0,-0.36321698715741
1003.0,-0.3661239850211335
1002.0,-0.3686587123922269
1001.0,-0.37090150486776885
1000.0,-0.3728383874971102
999.0,-0.3745100600495501
998.0,-0.3759195437046494
997.0,-0.37708759142680703
996.0,-0.3780888786387866
995.0,-0.37905157618436736
994.0,-0.37992161550420445
993.0,-0.38057300306688724
992.0,-0.3810067192965789
991.0,-0.38134977105974066
990.0,-0.3816204101174825
989.0,-0.38176468201712455
988.0,-0.3818548276225924
987.0,-0.3819089060057985
986.0,-0.38176468201712455
985.0,-0.38122341509246116
984.0,-0.3802655251292011
983.0,-0.37910600473569556
982.0,-0.3778160291720605
981.0,-0.3763214145472835
980.0,-0.3745467279389594
979.0,-0.37256221828549974
978.0,-0.37047607954429385
977.0,-0.3683240819799578
976.0,-0.3662921822105383
975.0,-0.36455099535397206
974.0,-0.3631417096979499
973.0,-0.3619543653534616
972.0,-0.36102862581367257
971.0,-0.3604419331026376
970.0,-0.3601577647473424
969.0,-0.36013881357757516
968.0,-0.36046087105017843
967.0,-0.3614067170593378
966.0,-0.362991115623569
965.0,-0.3649260337899758
964.0,-0.3669456638525732
963.0,-0.36897451565238804
962.0,-0.37106786227173627
961.0,-0.3732247295944737
960.0,-0.37537093802905863
959.0,-0.37750659240663387
958.0,-0.3796136758782662
957.0,-0.38163844672615665
956.0,-0.38359995993390417
955.0,-0.3855705277254655
954.0,-0.3874788119925401
953.0,-0.38914835769737754
952.0,-0.3905465398888017
951.0,-0.39178168530888424
950.0,-0.39294304234006106
949.0,-0.3940311923487303
948.0,-0.39506416433124203
947.0,-0.3961470193070227
946.0,-0.39729677672968533
945.0,-0.3983220197558772
944.0,-0.3991370103386007
943.0,-0.39981211997867305
942.0,-0.40050345167815005
941.0,-0.4012626476284873
940.0,-0.4020549360166763
939.0,-0.4028286046635383
938.0,-0.4035323048494335
937.0,-0.40411499750559576
936.0,-0.4046113830153524
935.0,-0.40507302558599045
934.0,-0.40551710697637633
933.0,-0.40596073474172156
932.0,-0.40642094597462064
931.0,-0.4069657507589479
930.0,-0.40750987296398433
929.0,-0.40796844640215957
928.0,-0.4082569296087173
927.0,-0.40847740518759057
926.0,-0.4086808218104676
925.0,-0.4088502629120292
924.0,-0.40905350501006943
923.0,-0.40935818993016504
922.0,-0.40976410426634624
921.0,-0.4101865286571087
920.0,-0.41055792254594303
919.0,-0.4108952779688977
918.0,-0.4111312709395647
917.0,-0.41124921935338454
916.0,-0.4112997588691698
915.0,-0.4112829130173843
914.0,-0.4111144185509046
913.0,-0.4106760267549543
912.0,-0.4100007125434617
911.0,-0.40920587418957366
910.0,-0.40837566113607604
909.0,-0.4075268658029536
908.0,-0.40662532786720584
907.0,-0.4056877866727775
906.0,-0.4046284896419188
905.0,-0.40342939552896384
904.0,-0.4022097800447453
903.0,-0.40102122920866545
902.0,-0.3999331824955683
901.0,-0.3989983964991941
900.0,-0.39833937591461277
899.0,-0.3981136917305026
898.0,-0.39816578310636075
897.0,-0.39833937591461277
896.0,-0.39859963509535223
895.0,-0.39898106665813104
894.0,-0.39943141793405834
893.0,-0.39974292624286134
892.0,-0.39981211997867305
891.0,-0.3996564185673561
890.0,-0.3991370103386007
889.0,-0.3980268588836866
888.0,-0.3963039837621629
887.0,-0.3940136631573128
886.0,-0.39095276099179443
885.0,-0.3867842398736805
884.0,-0.381295623003826
883.0,-0.3745833927327258
882.0,-0.36677771960758054
881.0,-0.3580110323320942
880.0,-0.34846063581952347
879.0,-0.3384166482463584
878.0,-0.3281552619699468
877.0,-0.3180006918179208
876.0,-0.3083936499762596
875.0,-0.3002258067681578
874.0,-0.29468662427944325
873.0,-0.29296454538292904
872.0,-0.29583089495858506
871.0,-0.3030663979235104
870.0,-0.313170948064998
869.0,-0.3241589416744768
868.0,-0.33443364445948065
867.0,-0.3432312945640388
866.0,-0.35028679289620834
865.0,-0.35550898802443376
864.0,-0.3591332163463212
863.0,-0.36159563931823424
862.0,-0.36332987888715973
861.0,-0.3645697549696161
860.0,-0.36552542245670905
859.0,-0.36642295722597273
858.0,-0.36726271478424
857.0,-0.36787750663788055
856.0,-0.36813806472354704
855.0,-0.36813806472354704
854.0,-0.3679147387937527
853.0,-0.3674677421179733
852.0,-0.36683370823900274
851.0,-0.36621743594609635
850.0,-0.3656377157946076
849.0,-0.3649260337899758
848.0,-0.36421318363155697
847.0,-0.3638375288361404
846.0,-0.36406296070307764
845.0,-0.36485105200769263
844.0,-0.36597442170259864
843.0,-0.36737455987419665
842.0,-0.3689930851652461
841.0,-0.3708275477843759
840.0,-0.3728383874971102
839.0,-0.3750048155306396
838.0,-0.37708759142680703
837.0,-0.3789426986134372
836.0,-0.3807176232753178
835.0,-0.382683290433643
834.0,-0.3849086978302787
833.0,-0.38719399369686824
832.0,-0.3892901507792894
831.0,-0.39123512565331
830.0,-0.3929957575773537
829.0,-0.3945567393636562
828.0,-0.3959376450800418
827.0,-0.3972271810431609
826.0,-0.3984261463054839
825.0,-0.39939679210331214
824.0,-0.4002443312381505
823.0,-0.4011247106789706
822.0,-0.4020033090697046
821.0,-0.4026567973656636
820.0,-0.403069020752977
819.0,-0.4034122416045256
818.0,-0.40384088658089645
817.0,-0.40433758531092723
816.0,-0.40479951885765386
815.0,-0.40522679745993884
814.0,-0.40551710697637633
813.0,-0.40561952284335323
812.0,-0.4056536560993069
811.0,-0.40589251380505864
810.0,-0.4065231489438492
809.0,-0.4075268658029536
808.0,-0.40883332177641796
807.0,-0.41027096425218446
806.0,-0.4115860384193626
805.0,-0.4125613390944922
804.0,-0.41326622653292056
803.0,-0.41393648591729537
802.0,-0.41463914673700897
801.0,-0.415140352195873
800.0,-0.4151236546629731
799.0,-0.41422103321486814
798.0,-0.41197305768532333
797.0,-0.4082569296087173
796.0,-0.40373805036385546
795.0,-0.3995872000180758
794.0,-0.3967222785037734
793.0,-0.39548365434516963
792.0,-0.39592019267063217
791.0,-0.3979921208831958
790.0,-0.40127988666716785
789.0,-0.4050388466632242
788.0,-0.4086638740638109
787.0,-0.41200669524106015
786.0,-0.4150902576711153
785.0,-0.41778712719549116
784.0,-0.42002179585995636
783.0,-0.4218670559187183
782.0,-0.4234588718195127
781.0,-0.424816324279353
780.0,-0.42599044645352624
779.0,-0.42719388446982
778.0,-0.4284263864405884
777.0,-0.4295261942966868
776.0,-0.43038147028293894
775.0,-0.4311385160249177
774.0,-0.43200668726959846
773.0,-0.43304941161661326
772.0,-0.4342174943051478
771.0,-0.43546212055982103
770.0,-0.4367349657907065
769.0,-0.43794072314535715
768.0,-0.43923792833214437
767.0,-0.44083039840128224
766.0,-0.4426521983425231
765.0,-0.4442478357960753
764.0,-0.4453550740644694
763.0,-0.44607093570100487
762.0,-0.44661482366426686
761.0,-0.44701841424765787
760.0,-0.44731310882356823
759.0,-0.44759210882153777
758.0,-0.44791738244695667
757.0,-0.4481959946410674
756.0,-0.4484589643626373
755.0,-0.44892264049683117
754.0,-0.44955553167702744
753.0,-0.45007966962168844
752.0,-0.45024910831936094
751.0,-0.450187501895837
750.0,-0.45007966962168844
749.0,-0.44981767972029374
748.0,-0.44909253111941894
747.0,-0.44766957702279253
746.0,-0.4454796565328807
745.0,-0.4424170505313185
744.0,-0.4382733034923594
743.0,-0.43279297319493004
742.0,-0.42545270112084843
741.0,-0.4155909430873077
740.0,-0.4026739811542943
739.0,-0.3864097788819132
738.0,-0.3669456638525732
737.0,-0.3447654886227607
736.0,-0.3206654666652975
735.0,-0.29532514704270385
734.0,-0.26878851622358413
733.0,-0.24062412018725965
732.0,-0.21053253706939667
731.0,-0.1783437389762197
730.0,-0.14360803483759588
729.0,-0.10588470866923316
728.0,-0.06587835285739185
727.0,-0.026900808890255146
726.0,0.005594853310833647
725.0,0.02617967564731627
724.0,0.03226486821611996
723.0,0.02512002699306959
722.0,0.008198201155356077
721.0,-0.015024263324625142
720.0,-0.04178731897175192
719.0,-0.07033345585306305
718.0,-0.09950799372796482
717.0,-0.12852850379743996
716.0,-0.15642799231804982
715.0,-0.18190072819640468
714.0,-0.20371264060770677
713.0,-0.22164892819222892
712.0,-0.23648687637559096
711.0,-0.24932067663763435
710.0,-0.2606198751723716
709.0,-0.2703293970898586
708.0,-0.27877645795564465
707.0,-0.2866585246156861
706.0,-0.2944221331129837
705.0,-0.3019410577952044
704.0,-0.30869244220125713
703.0,-0.3147096929551738
702.0,-0.32078997769880635
701.0,-0.3276653870500419
700.0,-0.3354779600174358
699.0,-0.34358582069140287
698.0,-0.35115830656402736
697.0,-0.357591847523441
696.0,-0.36257671246053924
695.0,-0.3660865990199995
694.0,-0.36841706073856173
693.0,-0.3701428470511021
692.0,-0.37189869477874105
691.0,-0.3738678703270679
690.0,-0.37579159768519244
689.0,-0.3774519630245745
688.0,-0.37879748604603813
687.0,-0.37992161550420445
686.0,-0.3806995483827169
685.0,-0.3809163974606977
684.0,-0.38060916263411215
683.0,-0.3800302479678308
682.0,-0.3795049391521341
681.0,-0.3793599144876305
680.0,-0.3799397228019159
679.0,-0.3814219579673499
678.0,-0.3834922168326105
677.0,-0.38553477891020904
676.0,-0.38763894023692913
675.0,-0.38948504070814627
674.0,-0.3907585287387172
673.0,-0.39201068319549925
672.0,-0.39252108993193247
671.0,-0.3926617862907893
670.0,-0.3966351669836934
669.0,-0.4119057747568178
668.0,-0.4316210476273552
667.0,-0.4401688922082565
666.0,-0.4370049654773034
665.0,-0.4241299509195553
664.0,-0.4088502629120292
663.0,-0.40186560719961095
662.0,-0.40181395773984807
661.0,-0.4034637013453173
660.0,-0.4042519881169051
659.0,-0.4054317419673734
658.0,-0.4070508148042502
657.0,-0.4076797714411935
656.0,-0.40747588529125567
655.0,-0.40711885404642345
654.0,-0.40671045860979005
653.0,-0.40674450623490266
652.0,-0.4075268658029536
651.0,-0.40895189585026026
650.0,-0.410389146513233
649.0,-0.4112997588691698
648.0,-0.4119394175240436
647.0,-0.41288035846497406
646.0,-0.41422103321486814
645.0,-0.4156910109407237
644.0,-0.41720588676433
643.0,-0.4188314036613088
642.0,-0.42043436450943883
641.0,-0.421636826720754
640.0,-0.42232714848892705
639.0,-0.42275394130134814
638.0,-0.4233933451350831
637.0,-0.424799994656599
636.0,-0.4271776440015609
635.0,-0.42975228000240806
634.0,-0.430687668976669
633.0,-0.4289604645754137
632.0,-0.42603929939216734
631.0,-0.4243098202457558
630.0,-0.42462032827065466
629.0,-0.42603929939216734
628.0,-0.42756724771945054
627.0,-0.42889576280138764
626.0,-0.42997824807331186
625.0,-0.43047818793204407
624.0,-0.4301718414562665
623.0,-0.4294454208700209
622.0,-0.4291706787939735
621.0,-0.4299298362406301
620.0,-0.4315245841874509
619.0,-0.4332416411126818
618.0,-0.43447309321307914
617.0,-0.4352549303958977
616.0,-0.4358921230156536
615.0,-0.43657606399906035
614.0,-0.4375286038206805
613.0,-0.43909574130174933
612.0,-0.4411922252776179
611.0,-0.4428245591876383
610.0,-0.4431690757961162
609.0,-0.4429028824185499
608.0,-0.4436697034963979
607.0,-0.4459931817876468
606.0,-0.4485981191900783
605.0,-0.45029530740263457
604.0,-0.4514794051248616
603.0,-0.4530123911214554
602.0,-0.4548600981440498
601.0,-0.45639640231068546
600.0,-0.45754886041100873
