cm-1,A
4000.0,0.01001654169860089
3999.0,0.009972101229705377
3998.0,0.009927665307847056
3997.0,0.009838807101520963
3996.0,0.009794384815193347
3995.0,0.009794384815193347
3994.0,0.009838807101520963
3993.0,0.009883233932095559
3992.0,0.009838807101520963
3991.0,0.009794384815193347
3990.0,0.009794384815193347
3989.0,0.009838807101520963
3988.0,0.009972101229705377
3987.0,0.010149890396819572
3986.0,0.01023881228122181
3985.0,0.01023881228122181
3984.0,0.010283280051895272
3983.0,0.010327752376126709
3982.0,0.01037222925484893
3981.0,0.01037222925484893
3980.0,0.010283280051895272
3979.0,0.010149890396819572
3978.0,0.010060986715464404
3977.0,0.010060986715464404
3976.0,0.010105436281226954
3975.0,0.010149890396819572
3974.0,0.010149890396819572
3973.0,0.010060986715464404
3972.0,0.01001654169860089
3971.0,0.009972101229705377
3970.0,0.01001654169860089
3969.0,0.01001654169860089
3968.0,0.010060986715464404
3967.0,0.010060986715464404
3966.0,0.01001654169860089
3965.0,0.009972101229705377
3964.0,0.009883233932095559
3963.0,0.009794384815193347
3962.0,0.009705553871561357
3961.0,0.00966114521239847
3960.0,0.00974996707218323
3959.0,0.009838807101520963
3958.0,0.009927665307847056
3957.0,0.009972101229705377
3956.0,0.009972101229705377
3955.0,0.009927665307847056
3954.0,0.009883233932095559
3953.0,0.009883233932095559
3952.0,0.009883233932095559
3951.0,0.009927665307847056
3950.0,0.01001654169860089
3949.0,0.010105436281226954
3948.0,0.010105436281226954
3947.0,0.01001654169860089
3946.0,0.009883233932095559
3945.0,0.009794384815193347
3944.0,0.009705553871561357
3943.0,0.009705553871561357
3942.0,0.009705553871561357
3941.0,0.009838807101520963
3940.0,0.009972101229705377
3939.0,0.010060986715464404
3938.0,0.010060986715464404
3937.0,0.009972101229705377
3936.0,0.009927665307847056
3935.0,0.009883233932095559
3934.0,0.009838807101520963
3933.0,0.009794384815193347
3932.0,0.009794384815193347
3931.0,0.009883233932095559
3930.0,0.01001654169860089
3929.0,0.010105436281226954
3928.0,0.010149890396819572
3927.0,0.010149890396819572
3926.0,0.010105436281226954
3925.0,0.009972101229705377
3924.0,0.009794384815193347
3923.0,0.00966114521239847
3922.0,0.009616741093766423
3921.0,0.009572341514736404
3920.0,0.009572341514736404
3919.0,0.009616741093766423
3918.0,0.00974996707218323
3917.0,0.009883233932095559
3916.0,0.009927665307847056
3915.0,0.009927665307847056
3914.0,0.009927665307847056
3913.0,0.009927665307847056
3912.0,0.009927665307847056
3911.0,0.009883233932095559
3910.0,0.009794384815193347
3909.0,0.00966114521239847
3908.0,0.009572341514736404
3907.0,0.009439170005980158
3906.0,0.00939478857608056
3905.0,0.009439170005980158
3904.0,0.009483555971770974
3903.0,0.009705553871561357
3902.0,0.01001654169860089
3901.0,0.010327752376126709
3900.0,0.01037222925484893
3899.0,0.010194349063173958
3898.0,0.009972101229705377
3897.0,0.009927665307847056
3896.0,0.009927665307847056
3895.0,0.009927665307847056
3894.0,0.009927665307847056
3893.0,0.009972101229705377
3892.0,0.010060986715464404
3891.0,0.01001654169860089
3890.0,0.009927665307847056
3889.0,0.009927665307847056
3888.0,0.009972101229705377
3887.0,0.009972101229705377
3886.0,0.009838807101520963
3885.0,0.009705553871561357
3884.0,0.009572341514736404
3883.0,0.009616741093766423
3882.0,0.00974996707218323
3881.0,0.009794384815193347
3880.0,0.009838807101520963
3879.0,0.009794384815193347
3878.0,0.009838807101520963
3877.0,0.009883233932095559
3876.0,0.009838807101520963
3875.0,0.009705553871561357
3874.0,0.009527946474380489
3873.0,0.009572341514736404
3872.0,0.009794384815193347
3871.0,0.010105436281226954
3870.0,0.010149890396819572
3869.0,0.009927665307847056
3868.0,0.009838807101520963
3867.0,0.009927665307847056
3866.0,0.009883233932095559
3865.0,0.00974996707218323
3864.0,0.009705553871561357
3863.0,0.00974996707218323
3862.0,0.009794384815193347
3861.0,0.009838807101520963
3860.0,0.009883233932095559
3859.0,0.009838807101520963
3858.0,0.00974996707218323
3857.0,0.009616741093766423
3856.0,0.009483555971770974
3855.0,0.009572341514736404
3854.0,0.009838807101520963
3853.0,0.00974996707218323
3852.0,0.009483555971770974
3851.0,0.00966114521239847
3850.0,0.01001654169860089
3849.0,0.01023881228122181
3848.0,0.010283280051895272
3847.0,0.010327752376126709
3846.0,0.01023881228122181
3845.0,0.010060986715464404
3844.0,0.009705553871561357
3843.0,0.00939478857608056
3842.0,0.009217308196862062
3841.0,0.009261671492462709
3840.0,0.009483555971770974
3839.0,0.009616741093766423
3838.0,0.009572341514736404
3837.0,0.009439170005980158
3836.0,0.00939478857608056
3835.0,0.009572341514736404
3834.0,0.009794384815193347
3833.0,0.009927665307847056
3832.0,0.009927665307847056
3831.0,0.009883233932095559
3830.0,0.009794384815193347
3829.0,0.009794384815193347
3828.0,0.00974996707218323
3827.0,0.009616741093766423
3826.0,0.009439170005980158
3825.0,0.00939478857608056
3824.0,0.009616741093766423
3823.0,0.01001654169860089
3822.0,0.010327752376126709
3821.0,0.010283280051895272
3820.0,0.009927665307847056
3819.0,0.009883233932095559
3818.0,0.010105436281226954
3817.0,0.01023881228122181
3816.0,0.010105436281226954
3815.0,0.009927665307847056
3814.0,0.009927665307847056
3813.0,0.01001654169860089
3812.0,0.009972101229705377
3811.0,0.009794384815193347
3810.0,0.009705553871561357
3809.0,0.00974996707218323
3808.0,0.009794384815193347
3807.0,0.009705553871561357
3806.0,0.009439170005980158
3805.0,0.009306039320248427
3804.0,0.009350411681145587
3803.0,0.00939478857608056
3802.0,0.009350411681145587
3801.0,0.009128595198514056
3800.0,0.009039900317800775
3799.0,0.009261671492462709
3798.0,0.009616741093766423
3797.0,0.009794384815193347
3796.0,0.009838807101520963
3795.0,0.009883233932095559
3794.0,0.009927665307847056
3793.0,0.009927665307847056
3792.0,0.009883233932095559
3791.0,0.00974996707218323
3790.0,0.009705553871561357
3789.0,0.00966114521239847
3788.0,0.00966114521239847
3787.0,0.009705553871561357
3786.0,0.00966114521239847
3785.0,0.009616741093766423
3784.0,0.009572341514736404
3783.0,0.009616741093766423
3782.0,0.009794384815193347
3781.0,0.009927665307847056
3780.0,0.01001654169860089
3779.0,0.009972101229705377
3778.0,0.009927665307847056
3777.0,0.009883233932095559
3776.0,0.009927665307847056
3775.0,0.009838807101520963
3774.0,0.009794384815193347
3773.0,0.009883233932095559
3772.0,0.010060986715464404
3771.0,0.01023881228122181
3770.0,0.01023881228122181
3769.0,0.01001654169860089
3768.0,0.009838807101520963
3767.0,0.00974996707218323
3766.0,0.00966114521239847
3765.0,0.009572341514736404
3764.0,0.009527946474380489
3763.0,0.00966114521239847
3762.0,0.009794384815193347
3761.0,0.009838807101520963
3760.0,0.009794384815193347
3759.0,0.009794384815193347
3758.0,0.009794384815193347
3757.0,0.009794384815193347
3756.0,0.009794384815193347
3755.0,0.009794384815193347
3754.0,0.00966114521239847
3753.0,0.009572341514736404
3752.0,0.00966114521239847
3751.0,0.009883233932095559
3750.0,0.009838807101520963
3749.0,0.009616741093766423
3748.0,0.009483555971770974
3747.0,0.009527946474380489
3746.0,0.009705553871561357
3745.0,0.00974996707218323
3744.0,0.009572341514736404
3743.0,0.00939478857608056
3742.0,0.009572341514736404
3741.0,0.00974996707218323
3740.0,0.009705553871561357
3739.0,0.009616741093766423
3738.0,0.009527946474380489
3737.0,0.009350411681145587
3736.0,0.008951223547323472
3735.0,0.008552401996197112
3734.0,0.008640997362049818
3733.0,0.009172949432521227
3732.0,0.009705553871561357
3731.0,0.009927665307847056
3730.0,0.009972101229705377
3729.0,0.009838807101520963
3728.0,0.009572341514736404
3727.0,0.009350411681145587
3726.0,0.009261671492462709
3725.0,0.009261671492462709
3724.0,0.009306039320248427
3723.0,0.009350411681145587
3722.0,0.009350411681145587
3721.0,0.00939478857608056
3720.0,0.009483555971770974
3719.0,0.009572341514736404
3718.0,0.009616741093766423
3717.0,0.00966114521239847
3716.0,0.00974996707218323
3715.0,0.00974996707218323
3714.0,0.009705553871561357
3713.0,0.009572341514736404
3712.0,0.009483555971770974
3711.0,0.009483555971770974
3710.0,0.009572341514736404
3709.0,0.009794384815193347
3708.0,0.01001654169860089
3707.0,0.010105436281226954
3706.0,0.010105436281226954
3705.0,0.01001654169860089
3704.0,0.009883233932095559
3703.0,0.009838807101520963
3702.0,0.009838807101520963
3701.0,0.009838807101520963
3700.0,0.009838807101520963
3699.0,0.009883233932095559
3698.0,0.009883233932095559
3697.0,0.009794384815193347
3696.0,0.00966114521239847
3695.0,0.009527946474380489
3694.0,0.009439170005980158
3693.0,0.009439170005980158
3692.0,0.009439170005980158
3691.0,0.009616741093766423
3690.0,0.009794384815193347
3689.0,0.009838807101520963
3688.0,0.00974996707218323
3687.0,0.009838807101520963
3686.0,0.010060986715464404
3685.0,0.010283280051895272
3684.0,0.010327752376126709
3683.0,0.01023881228122181
3682.0,0.010149890396819572
3681.0,0.009972101229705377
3680.0,0.009705553871561357
3679.0,0.00939478857608056
3678.0,0.009172949432521227
3677.0,0.009217308196862062
3676.0,0.009350411681145587
3675.0,0.009261671492462709
3674.0,0.009172949432521227
3673.0,0.009439170005980158
3672.0,0.00974996707218323
3671.0,0.009927665307847056
3670.0,0.01001654169860089
3669.0,0.01001654169860089
3668.0,0.010060986715464404
3667.0,0.010194349063173958
3666.0,0.010283280051895272
3665.0,0.010194349063173958
3664.0,0.010149890396819572
3663.0,0.010149890396819572
3662.0,0.01023881228122181
3661.0,0.010283280051895272
3660.0,0.010283280051895272
3659.0,0.01023881228122181
3658.0,0.01023881228122181
3657.0,0.01023881228122181
3656.0,0.010194349063173958
3655.0,0.010149890396819572
3654.0,0.010105436281226954
3653.0,0.010060986715464404
3652.0,0.009838807101520963
3651.0,0.009616741093766423
3650.0,0.00966114521239847
3649.0,0.009705553871561357
3648.0,0.00974996707218323
3647.0,0.009883233932095559
3646.0,0.010105436281226954
3645.0,0.010327752376126709
3644.0,0.01046119667949763
3643.0,0.010550182333308289
3642.0,0.010639186223752484
3641.0,0.010728208358306901
3640.0,0.010728208358306901
3639.0,0.010639186223752484
3638.0,0.01046119667949763
3637.0,0.01023881228122181
3636.0,0.010149890396819572
3635.0,0.010149890396819572
3634.0,0.010149890396819572
3633.0,0.010194349063173958
3632.0,0.01023881228122181
3631.0,0.010327752376126709
3630.0,0.010505687227290839
3629.0,0.010683695010048622
3628.0,0.010550182333308289
3627.0,0.010505687227290839
3626.0,0.010550182333308289
3625.0,0.010550182333308289
3624.0,0.01037222925484893
3623.0,0.010149890396819572
3622.0,0.009972101229705377
3621.0,0.009883233932095559
3620.0,0.009927665307847056
3619.0,0.010060986715464404
3618.0,0.01023881228122181
3617.0,0.010416710688994968
3616.0,0.010550182333308289
3615.0,0.010639186223752484
3614.0,0.010683695010048622
3613.0,0.010639186223752484
3612.0,0.010594681998483901
3611.0,0.010594681998483901
3610.0,0.010594681998483901
3609.0,0.010594681998483901
3608.0,0.010594681998483901
3607.0,0.010639186223752484
3606.0,0.01077272626946324
3605.0,0.010995384301463185
3604.0,0.01117359295472431
3603.0,0.011307297450183107
3602.0,0.011351874764248926
3601.0,0.011218156546359825
3600.0,0.010995384301463185
3599.0,0.010817248744452446
3598.0,0.010683695010048622
3597.0,0.010639186223752484
3596.0,0.010639186223752484
3595.0,0.010728208358306901
3594.0,0.010906307389674463
3593.0,0.011084479487313281
3592.0,0.011218156546359825
3591.0,0.01117359295472431
3590.0,0.011039929609661936
3589.0,0.010906307389674463
3588.0,0.010950843561779777
3587.0,0.011084479487313281
3586.0,0.011218156546359825
3585.0,0.011307297450183107
3584.0,0.011351874764248926
3583.0,0.011351874764248926
3582.0,0.011351874764248926
3581.0,0.011441043121384498
3580.0,0.011530229790124524
3579.0,0.011530229790124524
3578.0,0.011485634166333858
3577.0,0.011441043121384498
3576.0,0.011441043121384498
3575.0,0.011485634166333858
3574.0,0.011530229790124524
3573.0,0.011530229790124524
3572.0,0.011530229790124524
3571.0,0.011530229790124524
3570.0,0.011485634166333858
3569.0,0.011485634166333858
3568.0,0.011530229790124524
3567.0,0.011530229790124524
3566.0,0.011485634166333858
3565.0,0.011485634166333858
3564.0,0.011485634166333858
3563.0,0.011485634166333858
3562.0,0.011441043121384498
3561.0,0.011396456654336085
3560.0,0.011441043121384498
3559.0,0.011530229790124524
3558.0,0.011619434777991433
3557.0,0.011664044143949504
3556.0,0.011664044143949504
3555.0,0.011664044143949504
3554.0,0.011708658092512314
3553.0,0.011708658092512314
3552.0,0.011664044143949504
3551.0,0.011574829993696856
3550.0,0.011574829993696856
3549.0,0.011708658092512314
3548.0,0.011887159731648111
3547.0,0.012021084124518078
3546.0,0.012021084124518078
3545.0,0.011931796607364653
3544.0,0.011887159731648111
3543.0,0.011887159731648111
3542.0,0.0119764380713403
3541.0,0.012021084124518078
3540.0,0.012021084124518078
3539.0,0.012065734767841452
3538.0,0.012199714248127602
3537.0,0.012378417874516323
3536.0,0.012423105273012602
3535.0,0.012378417874516323
3534.0,0.012199714248127602
3533.0,0.012110390002254778
3532.0,0.012065734767841452
3531.0,0.01215504982870197
3530.0,0.012333735073725371
3529.0,0.012423105273012602
3528.0,0.012512493866907004
3527.0,0.012557195064198723
3526.0,0.012557195064198723
3525.0,0.012557195064198723
3524.0,0.012467797270160563
3523.0,0.012199714248127602
3522.0,0.011931796607364653
3521.0,0.011797899741219142
3520.0,0.011797899741219142
3519.0,0.011887159731648111
3518.0,0.012065734767841452
3517.0,0.012199714248127602
3516.0,0.012378417874516323
3515.0,0.012467797270160563
3514.0,0.01260190086298274
3513.0,0.01260190086298274
3512.0,0.012557195064198723
3511.0,0.012467797270160563
3510.0,0.012423105273012602
3509.0,0.012333735073725371
3508.0,0.012333735073725371
3507.0,0.012289056869694281
3506.0,0.012289056869694281
3505.0,0.012289056869694281
3504.0,0.012333735073725371
3503.0,0.012423105273012602
3502.0,0.012557195064198723
3501.0,0.01264661126420652
3500.0,0.01264661126420652
3499.0,0.012557195064198723
3498.0,0.012467797270160563
3497.0,0.012512493866907004
3496.0,0.012691326268817527
3495.0,0.012825498912458322
3494.0,0.012870232340102872
3493.0,0.012825498912458322
3492.0,0.012691326268817527
3491.0,0.01260190086298274
3490.0,0.01264661126420652
3489.0,0.012780770091995297
3488.0,0.012914970375878188
3487.0,0.012914970375878188
3486.0,0.012825498912458322
3485.0,0.012736045877764557
3484.0,0.012691326268817527
3483.0,0.012780770091995297
3482.0,0.012870232340102872
3481.0,0.012870232340102872
3480.0,0.012780770091995297
3479.0,0.01260190086298274
3478.0,0.012423105273012602
3477.0,0.012333735073725371
3476.0,0.012333735073725371
3475.0,0.012467797270160563
3474.0,0.01264661126420652
3473.0,0.012825498912458322
3472.0,0.013049212141483357
3471.0,0.01322826573375524
3470.0,0.013317820220494436
3469.0,0.013273040668781544
3468.0,0.013093968619278806
3467.0,0.012914970375878188
3466.0,0.012870232340102872
3465.0,0.012914970375878188
3464.0,0.013049212141483357
3463.0,0.01322826573375524
3462.0,0.013273040668781544
3461.0,0.01318349541446362
3460.0,0.013138729709955221
3459.0,0.013093968619278806
3458.0,0.013138729709955221
3457.0,0.01322826573375524
3456.0,0.01322826573375524
3455.0,0.01322826573375524
3454.0,0.013093968619278806
3453.0,0.012914970375878188
3452.0,0.012736045877764557
3451.0,0.012557195064198723
3450.0,0.012557195064198723
3449.0,0.012736045877764557
3448.0,0.013004460275618523
3447.0,0.013138729709955221
3446.0,0.01318349541446362
3445.0,0.013138729709955221
3444.0,0.013138729709955221
3443.0,0.01322826573375524
3442.0,0.013407393177789162
3441.0,0.013586594534531482
3440.0,0.01372104409400876
3439.0,0.013765869865004277
3438.0,0.013676222949234651
3437.0,0.013496984613259544
3436.0,0.013362604389846044
3435.0,0.013273040668781544
3434.0,0.01322826573375524
3433.0,0.013273040668781544
3432.0,0.013317820220494436
3431.0,0.013407393177789162
3430.0,0.013407393177789162
3429.0,0.013317820220494436
3428.0,0.013138729709955221
3427.0,0.012914970375878188
3426.0,0.012825498912458322
3425.0,0.012870232340102872
3424.0,0.013049212141483357
3423.0,0.01322826573375524
3422.0,0.013407393177789162
3421.0,0.013496984613259544
3420.0,0.013496984613259544
3419.0,0.013541787262693505
3418.0,0.013586594534531482
3417.0,0.01372104409400876
3416.0,0.013765869865004277
3415.0,0.01381070026317599
3414.0,0.01381070026317599
3413.0,0.013765869865004277
3412.0,0.013676222949234651
3411.0,0.013586594534531482
3410.0,0.013541787262693505
3409.0,0.013586594534531482
3408.0,0.013586594534531482
3407.0,0.013586594534531482
3406.0,0.013541787262693505
3405.0,0.013452186585275916
3404.0,0.013362604389846044
3403.0,0.013362604389846044
3402.0,0.013362604389846044
3401.0,0.013452186585275916
3400.0,0.013496984613259544
3399.0,0.013541787262693505
3398.0,0.013586594534531482
3397.0,0.013586594534531482
3396.0,0.013586594534531482
3395.0,0.013541787262693505
3394.0,0.013496984613259544
3393.0,0.013452186585275916
3392.0,0.013496984613259544
3391.0,0.013631406429727155
3390.0,0.01372104409400876
3389.0,0.01372104409400876
3388.0,0.013676222949234651
3387.0,0.013631406429727155
3386.0,0.013541787262693505
3385.0,0.013452186585275916
3384.0,0.013407393177789162
3383.0,0.013452186585275916
3382.0,0.013496984613259544
3381.0,0.013496984613259544
3380.0,0.013407393177789162
3379.0,0.013273040668781544
3378.0,0.01322826573375524
3377.0,0.013273040668781544
3376.0,0.013452186585275916
3375.0,0.013586594534531482
3374.0,0.013676222949234651
3373.0,0.013631406429727155
3372.0,0.013541787262693505
3371.0,0.013496984613259544
3370.0,0.013496984613259544
3369.0,0.013586594534531482
3368.0,0.013676222949234651
3367.0,0.013676222949234651
3366.0,0.013676222949234651
3365.0,0.013676222949234651
3364.0,0.013676222949234651
3363.0,0.013676222949234651
3362.0,0.013676222949234651
3361.0,0.013631406429727155
3360.0,0.013541787262693505
3359.0,0.013452186585275916
3358.0,0.013452186585275916
3357.0,0.013496984613259544
3356.0,0.013586594534531482
3355.0,0.013631406429727155
3354.0,0.013631406429727155
3353.0,0.013541787262693505
3352.0,0.013452186585275916
3351.0,0.013362604389846044
3350.0,0.013273040668781544
3349.0,0.01322826573375524
3348.0,0.013138729709955221
3347.0,0.013049212141483357
3346.0,0.013004460275618523
3345.0,0.013049212141483357
3344.0,0.01322826573375524
3343.0,0.013496984613259544
3342.0,0.013676222949234651
3341.0,0.01381070026317599
3340.0,0.013900374944870508
3339.0,0.013900374944870508
3338.0,0.01385553528947936
3337.0,0.013765869865004277
3336.0,0.013676222949234651
3335.0,0.013631406429727155
3334.0,0.013586594534531482
3333.0,0.013496984613259544
3332.0,0.013407393177789162
3331.0,0.013317820220494436
3330.0,0.013273040668781544
3329.0,0.013317820220494436
3328.0,0.013452186585275916
3327.0,0.013541787262693505
3326.0,0.013541787262693505
3325.0,0.013496984613259544
3324.0,0.013496984613259544
3323.0,0.013586594534531482
3322.0,0.013676222949234651
3321.0,0.01372104409400876
3320.0,0.013676222949234651
3319.0,0.013631406429727155
3318.0,0.013676222949234651
3317.0,0.013765869865004277
3316.0,0.013900374944870508
3315.0,0.013900374944870508
3314.0,0.013765869865004277
3313.0,0.013496984613259544
3312.0,0.01322826573375524
3311.0,0.013093968619278806
3310.0,0.01318349541446362
3309.0,0.013362604389846044
3308.0,0.013586594534531482
3307.0,0.01372104409400876
3306.0,0.01372104409400876
3305.0,0.013676222949234651
3304.0,0.013631406429727155
3303.0,0.013541787262693505
3302.0,0.013496984613259544
3301.0,0.013496984613259544
3300.0,0.013541787262693505
3299.0,0.013541787262693505
3298.0,0.013496984613259544
3297.0,0.013496984613259544
3296.0,0.013407393177789162
3295.0,0.013317820220494436
3294.0,0.01322826573375524
3293.0,0.01322826573375524
3292.0,0.013362604389846044
3291.0,0.013541787262693505
3290.0,0.013631406429727155
3289.0,0.013586594534531482
3288.0,0.013496984613259544
3287.0,0.013362604389846044
3286.0,0.013273040668781544
3285.0,0.013317820220494436
3284.0,0.013362604389846044
3283.0,0.013407393177789162
3282.0,0.013496984613259544
3281.0,0.013586594534531482
3280.0,0.013676222949234651
3279.0,0.013631406429727155
3278.0,0.013586594534531482
3277.0,0.013541787262693505
3276.0,0.013541787262693505
3275.0,0.013676222949234651
3274.0,0.01381070026317599
3273.0,0.01385553528947936
3272.0,0.01385553528947936
3271.0,0.01381070026317599
3270.0,0.013765869865004277
3269.0,0.01372104409400876
3268.0,0.013676222949234651
3267.0,0.013631406429727155
3266.0,0.013631406429727155
3265.0,0.013676222949234651
3264.0,0.01372104409400876
3263.0,0.01381070026317599
3262.0,0.01385553528947936
3261.0,0.01385553528947936
3260.0,0.01381070026317599
3259.0,0.01372104409400876
3258.0,0.013631406429727155
3257.0,0.013541787262693505
3256.0,0.013496984613259544
3255.0,0.013452186585275916
3254.0,0.013452186585275916
3253.0,0.013452186585275916
3252.0,0.013541787262693505
3251.0,0.013631406429727155
3250.0,0.01372104409400876
3249.0,0.013765869865004277
3248.0,0.01381070026317599
3247.0,0.01385553528947936
3246.0,0.013945219230304673
3245.0,0.013990068146738865
3244.0,0.013945219230304673
3243.0,0.01381070026317599
3242.0,0.01372104409400876
3241.0,0.013676222949234651
3240.0,0.013676222949234651
3239.0,0.013676222949234651
3238.0,0.01372104409400876
3237.0,0.01385553528947936
3236.0,0.013990068146738865
3235.0,0.01403492169512921
3234.0,0.013900374944870508
3233.0,0.013631406429727155
3232.0,0.013362604389846044
3231.0,0.013317820220494436
3230.0,0.013452186585275916
3229.0,0.013631406429727155
3228.0,0.013765869865004277
3227.0,0.01372104409400876
3226.0,0.013586594534531482
3225.0,0.013452186585275916
3224.0,0.013407393177789162
3223.0,0.013452186585275916
3222.0,0.013496984613259544
3221.0,0.013586594534531482
3220.0,0.013586594534531482
3219.0,0.013541787262693505
3218.0,0.013496984613259544
3217.0,0.013496984613259544
3216.0,0.013496984613259544
3215.0,0.013541787262693505
3214.0,0.013541787262693505
3213.0,0.013452186585275916
3212.0,0.013362604389846044
3211.0,0.013273040668781544
3210.0,0.013273040668781544
3209.0,0.013362604389846044
3208.0,0.013496984613259544
3207.0,0.013631406429727155
3206.0,0.01372104409400876
3205.0,0.01372104409400876
3204.0,0.013676222949234651
3203.0,0.013676222949234651
3202.0,0.013676222949234651
3201.0,0.01372104409400876
3200.0,0.01372104409400876
3199.0,0.013631406429727155
3198.0,0.013496984613259544
3197.0,0.013407393177789162
3196.0,0.013407393177789162
3195.0,0.013407393177789162
3194.0,0.013362604389846044
3193.0,0.01318349541446362
3192.0,0.013049212141483357
3191.0,0.012914970375878188
3190.0,0.012870232340102872
3189.0,0.012870232340102872
3188.0,0.012914970375878188
3187.0,0.012914970375878188
3186.0,0.012870232340102872
3185.0,0.012780770091995297
3184.0,0.012691326268817527
3183.0,0.012691326268817527
3182.0,0.012825498912458322
3181.0,0.013004460275618523
3180.0,0.013049212141483357
3179.0,0.012959713020733288
3178.0,0.012870232340102872
3177.0,0.012825498912458322
3176.0,0.012780770091995297
3175.0,0.012736045877764557
3174.0,0.012736045877764557
3173.0,0.012780770091995297
3172.0,0.012870232340102872
3171.0,0.012959713020733288
3170.0,0.012914970375878188
3169.0,0.012825498912458322
3168.0,0.012736045877764557
3167.0,0.012736045877764557
3166.0,0.012736045877764557
3165.0,0.012691326268817527
3164.0,0.012512493866907004
3163.0,0.012333735073725371
3162.0,0.012244383261476699
3161.0,0.012289056869694281
3160.0,0.012378417874516323
3159.0,0.012423105273012602
3158.0,0.012378417874516323
3157.0,0.012244383261476699
3156.0,0.012110390002254778
3155.0,0.0119764380713403
3154.0,0.0119764380713403
3153.0,0.012021084124518078
3152.0,0.012065734767841452
3151.0,0.012065734767841452
3150.0,0.012110390002254778
3149.0,0.01215504982870197
3148.0,0.01215504982870197
3147.0,0.012065734767841452
3146.0,0.0119764380713403
3145.0,0.011887159731648111
3144.0,0.011887159731648111
3143.0,0.011931796607364653
3142.0,0.012021084124518078
3141.0,0.012021084124518078
3140.0,0.012065734767841452
3139.0,0.012021084124518078
3138.0,0.0119764380713403
3137.0,0.011887159731648111
3136.0,0.011753276624621556
3135.0,0.011619434777991433
3134.0,0.011530229790124524
3133.0,0.011441043121384498
3132.0,0.011441043121384498
3131.0,0.011441043121384498
3130.0,0.011485634166333858
3129.0,0.011485634166333858
3128.0,0.011485634166333858
3127.0,0.011530229790124524
3126.0,0.011574829993696856
3125.0,0.011530229790124524
3124.0,0.011396456654336085
3123.0,0.011262724711199823
3122.0,0.01117359295472431
3121.0,0.011218156546359825
3120.0,0.011262724711199823
3119.0,0.011307297450183107
3118.0,0.011262724711199823
3117.0,0.01117359295472431
3116.0,0.011084479487313281
3115.0,0.010950843561779777
3114.0,0.010906307389674463
3113.0,0.010950843561779777
3112.0,0.011039929609661936
3111.0,0.011084479487313281
3110.0,0.011129033935354915
3109.0,0.01117359295472431
3108.0,0.01117359295472431
3107.0,0.011129033935354915
3106.0,0.011039929609661936
3105.0,0.010906307389674463
3104.0,0.01077272626946324
3103.0,0.010728208358306901
3102.0,0.01077272626946324
3101.0,0.01086177578421088
3100.0,0.010906307389674463
3099.0,0.01086177578421088
3098.0,0.01077272626946324
3097.0,0.010728208358306901
3096.0,0.010639186223752484
3095.0,0.010550182333308289
3094.0,0.01046119667949763
3093.0,0.010505687227290839
3092.0,0.010683695010048622
3091.0,0.01086177578421088
3090.0,0.010995384301463185
3089.0,0.010995384301463185
3088.0,0.010906307389674463
3087.0,0.010817248744452446
3086.0,0.010683695010048622
3085.0,0.010594681998483901
3084.0,0.01046119667949763
3083.0,0.010327752376126709
3082.0,0.010194349063173958
3081.0,0.010149890396819572
3080.0,0.010105436281226954
3079.0,0.010149890396819572
3078.0,0.010149890396819572
3077.0,0.01023881228122181
3076.0,0.01023881228122181
3075.0,0.010283280051895272
3074.0,0.010283280051895272
3073.0,0.010327752376126709
3072.0,0.010327752376126709
3071.0,0.010283280051895272
3070.0,0.010194349063173958
3069.0,0.010149890396819572
3068.0,0.010060986715464404
3067.0,0.009927665307847056
3066.0,0.009794384815193347
3065.0,0.00974996707218323
3064.0,0.00974996707218323
3063.0,0.009794384815193347
3062.0,0.009794384815193347
3061.0,0.009794384815193347
3060.0,0.00974996707218323
3059.0,0.009705553871561357
3058.0,0.00974996707218323
3057.0,0.00974996707218323
3056.0,0.009705553871561357
3055.0,0.00966114521239847
3054.0,0.009572341514736404
3053.0,0.009483555971770974
3052.0,0.009483555971770974
3051.0,0.009483555971770974
3050.0,0.009527946474380489
3049.0,0.009572341514736404
3048.0,0.009572341514736404
3047.0,0.009527946474380489
3046.0,0.009483555971770974
3045.0,0.009483555971770974
3044.0,0.009527946474380489
3043.0,0.009572341514736404
3042.0,0.009572341514736404
3041.0,0.009527946474380489
3040.0,0.009439170005980158
3039.0,0.009350411681145587
3038.0,0.009306039320248427
3037.0,0.009306039320248427
3036.0,0.009306039320248427
3035.0,0.009306039320248427
3034.0,0.009217308196862062
3033.0,0.00908424549391551
3032.0,0.008906891951112605
3031.0,0.008773924307505121
3030.0,0.0087296108049002
3029.0,0.008773924307505121
3028.0,0.008818242332126802
3027.0,0.008906891951112605
3026.0,0.008906891951112605
3025.0,0.008862564879688284
3024.0,0.008818242332126802
3023.0,0.0087296108049002
3022.0,0.008596697419959609
3021.0,0.008463824699968647
3020.0,0.008375265465994541
3019.0,0.008330992620051436
3018.0,0.008330992620051436
3017.0,0.008330992620051436
3016.0,0.008242460465651913
3015.0,0.008153946355103248
3014.0,0.008021209005416363
3013.0,0.007932739972333236
3012.0,0.007888512213050314
3011.0,0.007888512213050314
3010.0,0.007888512213050314
3009.0,0.007800070204414977
3008.0,0.007667440952535687
3007.0,0.0075790439479759275
3006.0,0.0075790439479759275
3005.0,0.0075790439479759275
3004.0,0.00762324020119709
3003.0,0.0075790439479759275
3002.0,0.0074464821678643656
3001.0,0.007358130121602358
3000.0,0.007269796045857202
2999.0,0.007225635744644521
2998.0,0.007225635744644521
2997.0,0.007181479933320523
2996.0,0.007137328610972382
2995.0,0.007093181776687496
2994.0,0.00696076819309055
2993.0,0.006828394969235152
2992.0,0.006696062080525422
2991.0,0.00656376950238835
2990.0,0.00656376950238835
2989.0,0.006651960076740071
2988.0,0.006784279525863024
2987.0,0.006916639301937977
2986.0,0.007049039429553483
2985.0,0.007049039429553483
2984.0,0.007004901568658406
2983.0,0.006916639301937977
2982.0,0.006872514894289861
2981.0,0.006872514894289861
2980.0,0.007004901568658406
2979.0,0.007181479933320523
2978.0,0.007402303897961815
2977.0,0.00762324020119709
2976.0,0.007755855953228474
2975.0,0.007800070204414977
2974.0,0.007888512213050314
2973.0,0.007932739972333236
2972.0,0.008065450281052211
2971.0,0.008198201155356077
2970.0,0.008463824699968647
2969.0,0.008773924307505121
2968.0,0.009128595198514056
2967.0,0.009483555971770974
2966.0,0.009794384815193347
2965.0,0.010060986715464404
2964.0,0.010327752376126709
2963.0,0.010594681998483901
2962.0,0.010906307389674463
2961.0,0.011262724711199823
2960.0,0.011619434777991433
2959.0,0.012021084124518078
2958.0,0.012289056869694281
2957.0,0.012467797270160563
2956.0,0.012691326268817527
2955.0,0.012959713020733288
2954.0,0.013273040668781544
2953.0,0.013586594534531482
2952.0,0.01385553528947936
2951.0,0.014214382227394795
2950.0,0.014618439768003144
2949.0,0.015157768594724175
2948.0,0.015832872853011715
2947.0,0.016734647433454652
2946.0,0.01781925440359733
2945.0,0.019133445417920836
2944.0,0.020770406977844713
2943.0,0.022642270454698687
2942.0,0.02484402159331056
2941.0,0.02724191609646076
2940.0,0.029839156962686353
2939.0,0.032545631817259224
2938.0,0.03545753392086315
2937.0,0.03862637240519895
2936.0,0.04210551278710151
2935.0,0.04595055323640551
2934.0,0.05021979163799939
2933.0,0.05482695382609992
2932.0,0.05973260855398799
2931.0,0.06494641076893504
2930.0,0.07047889936889606
2929.0,0.07649693305789551
2928.0,0.08291480935943274
2927.0,0.08990945440593179
2926.0,0.09750757884139638
2925.0,0.10579474085791629
2924.0,0.11475189221861393
2923.0,0.12436006299583169
2922.0,0.13448148092522594
2921.0,0.14454141961396383
2920.0,0.15415809257824264
2919.0,0.16253782851400533
2918.0,0.16896251435997467
2917.0,0.1726953589102651
2916.0,0.17340694606595197
2915.0,0.17121125181504682
2914.0,0.16691666582165698
2913.0,0.16127680996862814
2912.0,0.15508812608785938
2911.0,0.14880282382583943
2910.0,0.14266750356873148
2909.0,0.1367961409713705
2908.0,0.1312967977214634
2907.0,0.1263307072932056
2906.0,0.12205304837081177
2905.0,0.11827306462358211
2904.0,0.11503480179926728
2903.0,0.11215773489264302
2902.0,0.10952309103982927
2901.0,0.1071265931112344
2900.0,0.10501970907203151
2899.0,0.10308815917397474
2898.0,0.1012199867101744
2897.0,0.09930522554760213
2896.0,0.09734452478207412
2895.0,0.09544673702322726
2894.0,0.0935572061829677
2893.0,0.09167586072382083
2892.0,0.08964244272712252
2891.0,0.08756536662442538
2890.0,0.08528671302637614
2889.0,0.08296737783760655
2888.0,0.08071265949561734
2887.0,0.07857365898473456
2886.0,0.07644514193245056
2885.0,0.07437854520917098
2884.0,0.07216786713341827
2883.0,0.0699173666076287
2882.0,0.06752623532284674
2881.0,0.06509774167768612
2880.0,0.06263258248271053
2879.0,0.060231224546650086
2878.0,0.05784307153250956
2877.0,0.05551732784983132
2876.0,0.05340037498486727
2875.0,0.05144033789103841
2874.0,0.04968383607539972
2873.0,0.04803141550708934
2872.0,0.04653025674659861
2871.0,0.0451788169482068
2870.0,0.04402377775167454
2869.0,0.04301563225723992
2868.0,0.04224908912272074
2867.0,0.04181850243505214
2866.0,0.0417706858116178
2865.0,0.042201225070002124
2864.0,0.04315950984076644
2863.0,0.04464904263234004
2862.0,0.04682039893436585
2861.0,0.04963514562387683
2860.0,0.05330216275425803
2859.0,0.05794231615860479
2858.0,0.06378795567975115
2857.0,0.07093887591523451
2856.0,0.07956359344924135
2855.0,0.08980263003399913
2854.0,0.10182351650232357
2853.0,0.11554450392951199
2852.0,0.13024040521758962
2851.0,0.14435971910985468
2850.0,0.15589576930248672
2849.0,0.1627904721987936
2848.0,0.16418264570652719
2847.0,0.1605219526258017
2846.0,0.15323004646278116
2845.0,0.143996546002779
2844.0,0.1340081998737246
2843.0,0.12418661116024232
2842.0,0.11509140583739286
2841.0,0.10684878687013422
2840.0,0.09968750301627338
2839.0,0.0935572061829677
2838.0,0.08825662214406838
2837.0,0.08370400543686918
2836.0,0.07972010536705154
2835.0,0.07618627890881036
2834.0,0.07309189829456408
2833.0,0.07032568205141221
2832.0,0.06788152797087754
2831.0,0.06570359318059427
2830.0,0.0636873663378068
2829.0,0.061780582187257016
2828.0,0.060081579630943294
2827.0,0.058538260652670315
2826.0,0.05709945885970602
2825.0,0.05581353871631256
2824.0,0.05448217792216048
2823.0,0.05330216275425803
2822.0,0.05217431555754937
2821.0,0.05119595406718891
2820.0,0.050317309204795935
2819.0,0.04948910701400333
2818.0,0.04866248120408234
2817.0,0.047885915093007325
2816.0,0.04715914332429838
2815.0,0.046481918555007384
2814.0,0.04580574818413763
2813.0,0.0451788169482068
2812.0,0.04460091336073302
2811.0,0.044071843103049346
2810.0,0.04359142880416744
2809.0,0.043063586155803746
2808.0,0.04253638427006878
2807.0,0.04200982159316968
2806.0,0.041483896576958834
2805.0,0.04105406750606355
2804.0,0.040672354027829094
2803.0,0.040243327009005014
2802.0,0.039767126871487646
2801.0,0.039338992729018196
2800.0,0.038958783046687984
2799.0,0.038673844065289176
2798.0,0.03838909190871931
2797.0,0.03810452633214956
2796.0,0.03772539537668518
2795.0,0.037299268295658994
2794.0,0.03682628362474838
2793.0,0.036401037402758574
2792.0,0.03602339000339416
2791.0,0.035740369803151095
2790.0,0.03550466044490741
2789.0,0.03517488211661135
2788.0,0.03489241415094413
2787.0,0.03456310022373987
2786.0,0.03432802877989327
2785.0,0.03409308450480819
2784.0,0.03385826726096752
2783.0,0.03357665405630694
2782.0,0.033201453616638954
2781.0,0.03282657704446046
2780.0,0.03249882527715853
2779.0,0.032218091924200776
2778.0,0.031984286006358165
2777.0,0.03175060589208267
2776.0,0.03151705144606498
2775.0,0.031236951802751545
2774.0,0.030957032694186815
2773.0,0.0307239045110681
2772.0,0.030537492025363155
2771.0,0.030397735151460825
2770.0,0.03025802323714588
2769.0,0.030118356253500123
2768.0,0.029978734171634214
2767.0,0.029792641193145286
2766.0,0.029653123769906697
2765.0,0.029467170231675777
2764.0,0.029281296279810798
2763.0,0.02904906565457588
2762.0,0.02890978686288448
2761.0,0.028770552723758724
2760.0,0.028677754757187035
2759.0,0.028538594975413334
2758.0,0.028445846553939003
2757.0,0.028353117935693284
2756.0,0.028214062120885508
2755.0,0.028028723600243666
2754.0,0.027889771597169544
2753.0,0.027750864037404455
2752.0,0.027612000892527133
2751.0,0.02747318213414429
2750.0,0.027334407733889066
2749.0,0.02724191609646076
2748.0,0.027195677663422346
2747.0,0.027195677663422346
2746.0,0.027149444152769986
2745.0,0.02710321556345563
2744.0,0.027056991894431892
2743.0,0.02696455931306696
2742.0,0.026872146400301444
2741.0,0.02677975314776626
2740.0,0.026687379547098322
2739.0,0.026595025589939425
2738.0,0.026502691267936695
2737.0,0.026410376572743033
2736.0,0.026271941311972746
2735.0,0.026087429580295085
2734.0,0.025949097207122573
2733.0,0.025810808881832736
2732.0,0.025764722556973707
2731.0,0.025718641122169483
2730.0,0.025718641122169483
2729.0,0.02562649291857677
2728.0,0.025488307262671706
2727.0,0.025304128090317013
2726.0,0.02516604495145991
2725.0,0.025028005701930978
2724.0,0.024936003904763915
2723.0,0.02484402159331056
2722.0,0.02475205875931885
2721.0,0.024660115394541604
2720.0,0.024522236834125355
2719.0,0.024338466818941473
2718.0,0.024200690320592466
2717.0,0.024108863598207186
2716.0,0.024017056287453542
2715.0,0.023971159908874107
2714.0,0.023925268380126097
2713.0,0.023879381700184332
2712.0,0.023925268380126097
2711.0,0.02406295751688936
2710.0,0.024108863598207186
2709.0,0.02406295751688936
2708.0,0.023833499868024743
2707.0,0.02365002099672653
2706.0,0.023604163388120325
2705.0,0.02355831062115543
2704.0,0.023604163388120325
2703.0,0.02355831062115543
2702.0,0.02342078135989012
2701.0,0.023329119375188556
2700.0,0.023191662661933732
2699.0,0.023100049017062307
2698.0,0.02300845469384938
2697.0,0.02296266477531872
2696.0,0.02291687968414724
2695.0,0.02291687968414724
2694.0,0.022871099419317753
2693.0,0.02282532397981263
2692.0,0.02277955336461468
2691.0,0.022688026603074007
2690.0,0.022688026603074007
2689.0,0.022642270454698687
2688.0,0.022642270454698687
2687.0,0.02259651912656535
2686.0,0.022505030926963654
2685.0,0.02245929405346514
2684.0,0.022367834754000393
2683.0,0.022322112326006227
2682.0,0.022322112326006227
2681.0,0.022413561996148967
2680.0,0.022413561996148967
2679.0,0.022322112326006227
2678.0,0.022230681908425698
2677.0,0.022093572362881675
2676.0,0.02204787879853809
2675.0,0.02204787879853809
2674.0,0.022093572362881675
2673.0,0.022139270735302752
2672.0,0.0221849739168134
2671.0,0.022230681908425698
2670.0,0.02227639471115217
2669.0,0.022322112326006227
2668.0,0.022230681908425698
2667.0,0.0221849739168134
2666.0,0.022093572362881675
2665.0,0.02200219004126036
2664.0,0.02200219004126036
2663.0,0.02204787879853809
2662.0,0.022093572362881675
2661.0,0.0221849739168134
2660.0,0.022230681908425698
2659.0,0.022230681908425698
2658.0,0.0221849739168134
2657.0,0.022093572362881675
2656.0,0.02200219004126036
2655.0,0.021956506090037076
2654.0,0.021910826943857264
2653.0,0.021865152601710403
2652.0,0.021819483062586187
2651.0,0.021773818325474092
2650.0,0.02168250325324883
2649.0,0.02159120737696063
2648.0,0.021545566634771474
2647.0,0.021545566634771474
2646.0,0.02159120737696063
2645.0,0.02159120737696063
2644.0,0.021545566634771474
2643.0,0.0214542995372613
2642.0,0.02140867317992523
2641.0,0.0214542995372613
2640.0,0.021545566634771474
2639.0,0.02159120737696063
2638.0,0.02159120737696063
2637.0,0.021545566634771474
2636.0,0.021545566634771474
2635.0,0.021545566634771474
2634.0,0.021499930688540836
2633.0,0.0214542995372613
2632.0,0.021363051615525652
2631.0,0.021271822861508305
2630.0,0.0211806132671577
2629.0,0.021135015652343103
2628.0,0.021043834782408455
2627.0,0.020952673052035298
2626.0,0.020907099361673565
2625.0,0.020907099361673565
2624.0,0.020907099361673565
2623.0,0.020861530453190058
2622.0,0.020770406977844713
2621.0,0.020724852408976924
2620.0,0.020633757603838898
2619.0,0.020542681902151694
2618.0,0.020406104151069693
2617.0,0.02026956933771462
2616.0,0.020178569969774962
2615.0,0.020087589665283012
2614.0,0.019996628416253603
2613.0,0.01990568621470623
2612.0,0.019814763052665052
2611.0,0.019723858922159776
2610.0,0.019632973815224997
2609.0,0.01954210772389997
2608.0,0.01954210772389997
2607.0,0.01958753839310856
2606.0,0.019632973815224997
2605.0,0.019632973815224997
2604.0,0.01958753839310856
2603.0,0.01954210772389997
2602.0,0.01949668180660491
2601.0,0.019451260640229506
2600.0,0.019451260640229506
2599.0,0.01954210772389997
2598.0,0.01958753839310856
2597.0,0.01958753839310856
2596.0,0.01954210772389997
2595.0,0.019451260640229506
2594.0,0.019269623464054586
2593.0,0.0190880622231564
2592.0,0.018906576854070378
2591.0,0.018770512579999288
2590.0,0.018770512579999288
2589.0,0.018770512579999288
2588.0,0.018815862601645694
2587.0,0.018770512579999288
2586.0,0.018770512579999288
2585.0,0.018725167293411005
2584.0,0.018725167293411005
2583.0,0.018679826740892747
2582.0,0.018634490921455527
2581.0,0.01858915983411169
2580.0,0.018543833477873584
2579.0,0.018543833477873584
2578.0,0.01845319495476394
2577.0,0.01840788278591865
2576.0,0.01831727262871463
2575.0,0.018362575344230914
2574.0,0.01840788278591865
2573.0,0.01845319495476394
2572.0,0.01840788278591865
2571.0,0.018226681372252695
2570.0,0.018045555530026514
2569.0,0.017955020928509757
2568.0,0.017909760704207134
2567.0,0.01800028587012159
2566.0,0.018045555530026514
2565.0,0.01809082990920774
2564.0,0.01809082990920774
2563.0,0.018045555530026514
2562.0,0.018045555530026514
2561.0,0.01800028587012159
2560.0,0.017955020928509757
2559.0,0.017864505196230507
2558.0,0.01781925440359733
2557.0,0.017728766960431575
2556.0,0.017638298366853045
2555.0,0.017502630802287644
2554.0,0.017321806616515723
2553.0,0.017321806616515723
2552.0,0.017412209298337533
2551.0,0.017638298366853045
2550.0,0.01781925440359733
2549.0,0.01781925440359733
2548.0,0.017728766960431575
2547.0,0.017547848615010242
2546.0,0.017412209298337533
2545.0,0.017367005605150476
2544.0,0.017321806616515723
2543.0,0.01727661233145472
2542.0,0.017141057687924732
2541.0,0.017050711425501408
2540.0,0.016960383953898095
2539.0,0.016960383953898095
2538.0,0.017050711425501408
2537.0,0.017141057687924732
2536.0,0.017231422748988034
2535.0,0.017231422748988034
2534.0,0.017186237868137555
2533.0,0.017141057687924732
2532.0,0.017186237868137555
2531.0,0.017186237868137555
2530.0,0.017186237868137555
2529.0,0.017141057687924732
2528.0,0.017050711425501408
2527.0,0.016960383953898095
2526.0,0.016915227262211507
2525.0,0.016915227262211507
2524.0,0.016915227262211507
2523.0,0.016960383953898095
2522.0,0.016915227262211507
2521.0,0.016915227262211507
2520.0,0.016870075265299933
2519.0,0.016870075265299933
2518.0,0.016824927962187042
2517.0,0.01677978535189717
2516.0,0.016644385668211692
2515.0,0.016554142658660398
2514.0,0.016509028184833463
2513.0,0.016509028184833463
2512.0,0.016509028184833463
2511.0,0.01646391839700767
2510.0,0.016418813294209356
2509.0,0.016373712875465518
2508.0,0.016373712875465518
2507.0,0.01632861713980338
2506.0,0.01632861713980338
2505.0,0.01628352608625061
2504.0,0.016238439713835096
2503.0,0.016148281008528276
2502.0,0.016103208673694303
2501.0,0.016103208673694303
2500.0,0.016148281008528276
2499.0,0.016193358021584725
2498.0,0.016193358021584725
2497.0,0.016193358021584725
2496.0,0.016193358021584725
2495.0,0.016238439713835096
2494.0,0.016238439713835096
2493.0,0.01628352608625061
2492.0,0.01628352608625061
2491.0,0.01632861713980338
2490.0,0.01632861713980338
2489.0,0.01632861713980338
2488.0,0.01632861713980338
2487.0,0.016238439713835096
2486.0,0.016148281008528276
2485.0,0.016103208673694303
2484.0,0.016148281008528276
2483.0,0.016193358021584725
2482.0,0.016193358021584725
2481.0,0.016148281008528276
2480.0,0.016058141016111804
2479.0,0.016013078034810446
2478.0,0.01596801972881945
2477.0,0.016013078034810446
2476.0,0.016013078034810446
2475.0,0.01596801972881945
2474.0,0.01596801972881945
2473.0,0.01596801972881945
2472.0,0.016013078034810446
2471.0,0.016013078034810446
2470.0,0.015877917138889863
2469.0,0.015742798294583915
2468.0,0.015697768020096703
2467.0,0.015697768020096703
2466.0,0.015742798294583915
2465.0,0.01578783323856614
2464.0,0.01578783323856614
2463.0,0.015742798294583915
2462.0,0.015607721475734415
2461.0,0.015517693597737248
2460.0,0.015517693597737248
2459.0,0.015517693597737248
2458.0,0.015562705203923999
2457.0,0.015607721475734415
2456.0,0.015562705203923999
2455.0,0.015517693597737248
2454.0,0.01547268665620738
2453.0,0.015427684378367834
2452.0,0.015517693597737248
2451.0,0.015607721475734415
2450.0,0.015652742414136167
2449.0,0.015652742414136167
2448.0,0.015607721475734415
2447.0,0.015517693597737248
2446.0,0.015427684378367834
2445.0,0.015427684378367834
2444.0,0.015427684378367834
2443.0,0.015427684378367834
2442.0,0.01538268676325183
2441.0,0.01538268676325183
2440.0,0.01538268676325183
2439.0,0.01538268676325183
2438.0,0.01538268676325183
2437.0,0.01538268676325183
2436.0,0.015427684378367834
2435.0,0.01547268665620738
2434.0,0.01547268665620738
2433.0,0.015517693597737248
2432.0,0.015517693597737248
2431.0,0.01547268665620738
2430.0,0.015427684378367834
2429.0,0.015292705517326866
2428.0,0.015202742910707112
2427.0,0.015202742910707112
2426.0,0.015292705517326866
2425.0,0.01538268676325183
2424.0,0.01547268665620738
2423.0,0.015517693597737248
2422.0,0.01547268665620738
2421.0,0.01538268676325183
2420.0,0.015337693809893471
2419.0,0.015292705517326866
2418.0,0.015292705517326866
2417.0,0.015337693809893471
2416.0,0.015292705517326866
2415.0,0.015292705517326866
2414.0,0.015292705517326866
2413.0,0.015337693809893471
2412.0,0.015337693809893471
2411.0,0.015337693809893471
2410.0,0.015337693809893471
2409.0,0.015337693809893471
2408.0,0.015337693809893471
2407.0,0.015292705517326866
2406.0,0.015202742910707112
2405.0,0.015112798935672522
2404.0,0.015067833932588037
2403.0,0.015022873584506602
2402.0,0.014977917890464765
2401.0,0.014932966849499074
2400.0,0.014888020460646079
2399.0,0.014888020460646079
2398.0,0.014888020460646079
2397.0,0.014888020460646079
2396.0,0.014888020460646079
2395.0,0.014932966849499074
2394.0,0.014932966849499074
2393.0,0.014932966849499074
2392.0,0.014843078722943437
2391.0,0.014708281407112
2390.0,0.014663358264387139
2389.0,0.014708281407112
2388.0,0.014843078722943437
2387.0,0.014977917890464765
2386.0,0.015112798935672522
2385.0,0.015202742910707112
2384.0,0.015202742910707112
2383.0,0.015157768594724175
2382.0,0.015022873584506602
2381.0,0.014753209197138295
2380.0,0.014393916947563534
2379.0,0.01385553528947936
2378.0,0.013452186585275916
2377.0,0.01322826573375524
2376.0,0.013362604389846044
2375.0,0.013631406429727155
2374.0,0.01381070026317599
2373.0,0.013945219230304673
2372.0,0.01403492169512921
2371.0,0.014124642691606404
2370.0,0.014079779876432497
2369.0,0.013990068146738865
2368.0,0.01372104409400876
2367.0,0.013452186585275916
2366.0,0.013586594534531482
2365.0,0.014438812226654996
2364.0,0.01578783323856614
2363.0,0.01677978535189717
2362.0,0.016509028184833463
2361.0,0.015202742910707112
2360.0,0.01403492169512921
2359.0,0.013452186585275916
2358.0,0.013093968619278806
2357.0,0.012199714248127602
2356.0,0.011084479487313281
2355.0,0.010505687227290839
2354.0,0.010683695010048622
2353.0,0.011262724711199823
2352.0,0.01215504982870197
2351.0,0.01372104409400876
2350.0,0.015562705203923999
2349.0,0.016644385668211692
2348.0,0.016193358021584725
2347.0,0.014393916947563534
2346.0,0.012512493866907004
2345.0,0.011708658092512314
2344.0,0.012378417874516323
2343.0,0.013586594534531482
2342.0,0.014438812226654996
2341.0,0.01452861671041239
2340.0,0.014079779876432497
2339.0,0.013586594534531482
2338.0,0.013273040668781544
2337.0,0.013407393177789162
2336.0,0.01385553528947936
2335.0,0.014169510141607944
2334.0,0.014169510141607944
2333.0,0.013900374944870508
2332.0,0.013586594534531482
2331.0,0.013407393177789162
2330.0,0.013362604389846044
2329.0,0.013362604389846044
2328.0,0.013586594534531482
2327.0,0.013900374944870508
2326.0,0.014304140310157809
2325.0,0.0144837121472845
2324.0,0.014573525916998342
2323.0,0.01452861671041239
2322.0,0.014393916947563534
2321.0,0.014304140310157809
2320.0,0.014393916947563534
2319.0,0.014753209197138295
2318.0,0.015202742910707112
2317.0,0.01547268665620738
2316.0,0.015427684378367834
2315.0,0.015112798935672522
2314.0,0.014843078722943437
2313.0,0.014663358264387139
2312.0,0.014663358264387139
2311.0,0.014708281407112
2310.0,0.014753209197138295
2309.0,0.014663358264387139
2308.0,0.0144837121472845
2307.0,0.014304140310157809
2306.0,0.014259258949925524
2305.0,0.014304140310157809
2304.0,0.014438812226654996
2303.0,0.014573525916998342
2302.0,0.014708281407112
2301.0,0.014843078722943437
2300.0,0.014932966849499074
2299.0,0.014888020460646079
2298.0,0.014798141635428141
2297.0,0.014663358264387139
2296.0,0.014573525916998342
2295.0,0.014573525916998342
2294.0,0.014618439768003144
2293.0,0.014663358264387139
2292.0,0.014708281407112
2291.0,0.014753209197138295
2290.0,0.014798141635428141
2289.0,0.014753209197138295
2288.0,0.014753209197138295
2287.0,0.014663358264387139
2286.0,0.014618439768003144
2285.0,0.0144837121472845
2284.0,0.014438812226654996
2283.0,0.014393916947563534
2282.0,0.014393916947563534
2281.0,0.014393916947563534
2280.0,0.014393916947563534
2279.0,0.014349026309051105
2278.0,0.014349026309051105
2277.0,0.014349026309051105
2276.0,0.014393916947563534
2275.0,0.014393916947563534
2274.0,0.014393916947563534
2273.0,0.014349026309051105
2272.0,0.014304140310157809
2271.0,0.014259258949925524
2270.0,0.014214382227394795
2269.0,0.014169510141607944
2268.0,0.014169510141607944
2267.0,0.014214382227394795
2266.0,0.014214382227394795
2265.0,0.014259258949925524
2264.0,0.014214382227394795
2263.0,0.014214382227394795
2262.0,0.014259258949925524
2261.0,0.014259258949925524
2260.0,0.014259258949925524
2259.0,0.014214382227394795
2258.0,0.014214382227394795
2257.0,0.014169510141607944
2256.0,0.014124642691606404
2255.0,0.013990068146738865
2254.0,0.013900374944870508
2253.0,0.013900374944870508
2252.0,0.013945219230304673
2251.0,0.01403492169512921
2250.0,0.014079779876432497
2249.0,0.013990068146738865
2248.0,0.01385553528947936
2247.0,0.01372104409400876
2246.0,0.013676222949234651
2245.0,0.013765869865004277
2244.0,0.013945219230304673
2243.0,0.01403492169512921
2242.0,0.01403492169512921
2241.0,0.013990068146738865
2240.0,0.013900374944870508
2239.0,0.01385553528947936
2238.0,0.01381070026317599
2237.0,0.01381070026317599
2236.0,0.01372104409400876
2235.0,0.013676222949234651
2234.0,0.013631406429727155
2233.0,0.013586594534531482
2232.0,0.013586594534531482
2231.0,0.013586594534531482
2230.0,0.013676222949234651
2229.0,0.013765869865004277
2228.0,0.01385553528947936
2227.0,0.01385553528947936
2226.0,0.01381070026317599
2225.0,0.013765869865004277
2224.0,0.013765869865004277
2223.0,0.013765869865004277
2222.0,0.013765869865004277
2221.0,0.013765869865004277
2220.0,0.013765869865004277
2219.0,0.01381070026317599
2218.0,0.01381070026317599
2217.0,0.01372104409400876
2216.0,0.013631406429727155
2215.0,0.013541787262693505
2214.0,0.013586594534531482
2213.0,0.013676222949234651
2212.0,0.01372104409400876
2211.0,0.01372104409400876
2210.0,0.013676222949234651
2209.0,0.013586594534531482
2208.0,0.013541787262693505
2207.0,0.013541787262693505
2206.0,0.013541787262693505
2205.0,0.013496984613259544
2204.0,0.013496984613259544
2203.0,0.013496984613259544
2202.0,0.013541787262693505
2201.0,0.013586594534531482
2200.0,0.013586594534531482
2199.0,0.013631406429727155
2198.0,0.013676222949234651
2197.0,0.013765869865004277
2196.0,0.01381070026317599
2195.0,0.01381070026317599
2194.0,0.01372104409400876
2193.0,0.013676222949234651
2192.0,0.013586594534531482
2191.0,0.013541787262693505
2190.0,0.013541787262693505
2189.0,0.013586594534531482
2188.0,0.01372104409400876
2187.0,0.01381070026317599
2186.0,0.013900374944870508
2185.0,0.013900374944870508
2184.0,0.01385553528947936
2183.0,0.01372104409400876
2182.0,0.013586594534531482
2181.0,0.013407393177789162
2180.0,0.013317820220494436
2179.0,0.013317820220494436
2178.0,0.013317820220494436
2177.0,0.013362604389846044
2176.0,0.013407393177789162
2175.0,0.013407393177789162
2174.0,0.013407393177789162
2173.0,0.013407393177789162
2172.0,0.013452186585275916
2171.0,0.013496984613259544
2170.0,0.013541787262693505
2169.0,0.013586594534531482
2168.0,0.013586594534531482
2167.0,0.013586594534531482
2166.0,0.013586594534531482
2165.0,0.013586594534531482
2164.0,0.013586594534531482
2163.0,0.013541787262693505
2162.0,0.013496984613259544
2161.0,0.013496984613259544
2160.0,0.013541787262693505
2159.0,0.013541787262693505
2158.0,0.013586594534531482
2157.0,0.013586594534531482
2156.0,0.013631406429727155
2155.0,0.013631406429727155
2154.0,0.013676222949234651
2153.0,0.013676222949234651
2152.0,0.013676222949234651
2151.0,0.013631406429727155
2150.0,0.013586594534531482
2149.0,0.013541787262693505
2148.0,0.013586594534531482
2147.0,0.013586594534531482
2146.0,0.013586594534531482
2145.0,0.013541787262693505
2144.0,0.013496984613259544
2143.0,0.013452186585275916
2142.0,0.013362604389846044
2141.0,0.013273040668781544
2140.0,0.01322826573375524
2139.0,0.01318349541446362
2138.0,0.01322826573375524
2137.0,0.013317820220494436
2136.0,0.013317820220494436
2135.0,0.013317820220494436
2134.0,0.013317820220494436
2133.0,0.013362604389846044
2132.0,0.013362604389846044
2131.0,0.013362604389846044
2130.0,0.013362604389846044
2129.0,0.013407393177789162
2128.0,0.013452186585275916
2127.0,0.013452186585275916
2126.0,0.013452186585275916
2125.0,0.013407393177789162
2124.0,0.013362604389846044
2123.0,0.013362604389846044
2122.0,0.013407393177789162
2121.0,0.013452186585275916
2120.0,0.013452186585275916
2119.0,0.013407393177789162
2118.0,0.013362604389846044
2117.0,0.013317820220494436
2116.0,0.013273040668781544
2115.0,0.013273040668781544
2114.0,0.013317820220494436
2113.0,0.013362604389846044
2112.0,0.013407393177789162
2111.0,0.013407393177789162
2110.0,0.013362604389846044
2109.0,0.013317820220494436
2108.0,0.013273040668781544
2107.0,0.013273040668781544
2106.0,0.013273040668781544
2105.0,0.013317820220494436
2104.0,0.013317820220494436
2103.0,0.013317820220494436
2102.0,0.013317820220494436
2101.0,0.013317820220494436
2100.0,0.013317820220494436
2099.0,0.013362604389846044
2098.0,0.013362604389846044
2097.0,0.013362604389846044
2096.0,0.013317820220494436
2095.0,0.013273040668781544
2094.0,0.01322826573375524
2093.0,0.01318349541446362
2092.0,0.013138729709955221
2091.0,0.013049212141483357
2090.0,0.013004460275618523
2089.0,0.012959713020733288
2088.0,0.013004460275618523
2087.0,0.013004460275618523
2086.0,0.013049212141483357
2085.0,0.013093968619278806
2084.0,0.013093968619278806
2083.0,0.013093968619278806
2082.0,0.013138729709955221
2081.0,0.01318349541446362
2080.0,0.01318349541446362
2079.0,0.013138729709955221
2078.0,0.013049212141483357
2077.0,0.013004460275618523
2076.0,0.012959713020733288
2075.0,0.013004460275618523
2074.0,0.013093968619278806
2073.0,0.013138729709955221
2072.0,0.013138729709955221
2071.0,0.01322826573375524
2070.0,0.013273040668781544
2069.0,0.013317820220494436
2068.0,0.013317820220494436
2067.0,0.013273040668781544
2066.0,0.01322826573375524
2065.0,0.01322826573375524
2064.0,0.01322826573375524
2063.0,0.01318349541446362
2062.0,0.013138729709955221
2061.0,0.013138729709955221
2060.0,0.01318349541446362
2059.0,0.013317820220494436
2058.0,0.013407393177789162
2057.0,0.013496984613259544
2056.0,0.013496984613259544
2055.0,0.013452186585275916
2054.0,0.013407393177789162
2053.0,0.013362604389846044
2052.0,0.013362604389846044
2051.0,0.013317820220494436
2050.0,0.013317820220494436
2049.0,0.013362604389846044
2048.0,0.013362604389846044
2047.0,0.013317820220494436
2046.0,0.01322826573375524
2045.0,0.01318349541446362
2044.0,0.01322826573375524
2043.0,0.013273040668781544
2042.0,0.013317820220494436
2041.0,0.013317820220494436
2040.0,0.013273040668781544
2039.0,0.01318349541446362
2038.0,0.01318349541446362
2037.0,0.01318349541446362
2036.0,0.01318349541446362
2035.0,0.01318349541446362
2034.0,0.01318349541446362
2033.0,0.01322826573375524
2032.0,0.013273040668781544
2031.0,0.013317820220494436
2030.0,0.013362604389846044
2029.0,0.013362604389846044
2028.0,0.013362604389846044
2027.0,0.013362604389846044
2026.0,0.013362604389846044
2025.0,0.013362604389846044
2024.0,0.013407393177789162
2023.0,0.013496984613259544
2022.0,0.013586594534531482
2021.0,0.013586594534531482
2020.0,0.013541787262693505
2019.0,0.013586594534531482
2018.0,0.013586594534531482
2017.0,0.013586594534531482
2016.0,0.013496984613259544
2015.0,0.013407393177789162
2014.0,0.013362604389846044
2013.0,0.013407393177789162
2012.0,0.013452186585275916
2011.0,0.013407393177789162
2010.0,0.013362604389846044
2009.0,0.013273040668781544
2008.0,0.01318349541446362
2007.0,0.013093968619278806
2006.0,0.013049212141483357
2005.0,0.013049212141483357
2004.0,0.013093968619278806
2003.0,0.013138729709955221
2002.0,0.013138729709955221
2001.0,0.013093968619278806
2000.0,0.013049212141483357
1999.0,0.013049212141483357
1998.0,0.013093968619278806
1997.0,0.013138729709955221
1996.0,0.013093968619278806
1995.0,0.013093968619278806
1994.0,0.013049212141483357
1993.0,0.013049212141483357
1992.0,0.013049212141483357
1991.0,0.013049212141483357
1990.0,0.013004460275618523
1989.0,0.012959713020733288
1988.0,0.012959713020733288
1987.0,0.012959713020733288
1986.0,0.013004460275618523
1985.0,0.013049212141483357
1984.0,0.013049212141483357
1983.0,0.013049212141483357
1982.0,0.013049212141483357
1981.0,0.013004460275618523
1980.0,0.012959713020733288
1979.0,0.012914970375878188
1978.0,0.012870232340102872
1977.0,0.012780770091995297
1976.0,0.012736045877764557
1975.0,0.012736045877764557
1974.0,0.012825498912458322
1973.0,0.012914970375878188
1972.0,0.013004460275618523
1971.0,0.013004460275618523
1970.0,0.012959713020733288
1969.0,0.012959713020733288
1968.0,0.012959713020733288
1967.0,0.013004460275618523
1966.0,0.013049212141483357
1965.0,0.013093968619278806
1964.0,0.013049212141483357
1963.0,0.012959713020733288
1962.0,0.012825498912458322
1961.0,0.012736045877764557
1960.0,0.01260190086298274
1959.0,0.012557195064198723
1958.0,0.012557195064198723
1957.0,0.01260190086298274
1956.0,0.01264661126420652
1955.0,0.012736045877764557
1954.0,0.012870232340102872
1953.0,0.012914970375878188
1952.0,0.012914970375878188
1951.0,0.012825498912458322
1950.0,0.012691326268817527
1949.0,0.01260190086298274
1948.0,0.01260190086298274
1947.0,0.01264661126420652
1946.0,0.012736045877764557
1945.0,0.012780770091995297
1944.0,0.012780770091995297
1943.0,0.012780770091995297
1942.0,0.012780770091995297
1941.0,0.012780770091995297
1940.0,0.012736045877764557
1939.0,0.01264661126420652
1938.0,0.012512493866907004
1937.0,0.012378417874516323
1936.0,0.012333735073725371
1935.0,0.012333735073725371
1934.0,0.012423105273012602
1933.0,0.012557195064198723
1932.0,0.01260190086298274
1931.0,0.01264661126420652
1930.0,0.01264661126420652
1929.0,0.01264661126420652
1928.0,0.01264661126420652
1927.0,0.01260190086298274
1926.0,0.012557195064198723
1925.0,0.012512493866907004
1924.0,0.012467797270160563
1923.0,0.012467797270160563
1922.0,0.012423105273012602
1921.0,0.012423105273012602
1920.0,0.012512493866907004
1919.0,0.012557195064198723
1918.0,0.01260190086298274
1917.0,0.01260190086298274
1916.0,0.012557195064198723
1915.0,0.012557195064198723
1914.0,0.012557195064198723
1913.0,0.012557195064198723
1912.0,0.012557195064198723
1911.0,0.012557195064198723
1910.0,0.012557195064198723
1909.0,0.012557195064198723
1908.0,0.012512493866907004
1907.0,0.012512493866907004
1906.0,0.012557195064198723
1905.0,0.01260190086298274
1904.0,0.01264661126420652
1903.0,0.012691326268817527
1902.0,0.012736045877764557
1901.0,0.012825498912458322
1900.0,0.012870232340102872
1899.0,0.012914970375878188
1898.0,0.012914970375878188
1897.0,0.012825498912458322
1896.0,0.012736045877764557
1895.0,0.01264661126420652
1894.0,0.012557195064198723
1893.0,0.012512493866907004
1892.0,0.012423105273012602
1891.0,0.012333735073725371
1890.0,0.012289056869694281
1889.0,0.012333735073725371
1888.0,0.012378417874516323
1887.0,0.012378417874516323
1886.0,0.012333735073725371
1885.0,0.012289056869694281
1884.0,0.012244383261476699
1883.0,0.012199714248127602
1882.0,0.012199714248127602
1881.0,0.012199714248127602
1880.0,0.012199714248127602
1879.0,0.012199714248127602
1878.0,0.012244383261476699
1877.0,0.012199714248127602
1876.0,0.01215504982870197
1875.0,0.012110390002254778
1874.0,0.012065734767841452
1873.0,0.012021084124518078
1872.0,0.0119764380713403
1871.0,0.0119764380713403
1870.0,0.012021084124518078
1869.0,0.012021084124518078
1868.0,0.0119764380713403
1867.0,0.011887159731648111
1866.0,0.011887159731648111
1865.0,0.011931796607364653
1864.0,0.0119764380713403
1863.0,0.0119764380713403
1862.0,0.0119764380713403
1861.0,0.0119764380713403
1860.0,0.0119764380713403
1859.0,0.012021084124518078
1858.0,0.012021084124518078
1857.0,0.012065734767841452
1856.0,0.012021084124518078
1855.0,0.0119764380713403
1854.0,0.011887159731648111
1853.0,0.011753276624621556
1852.0,0.011664044143949504
1851.0,0.011664044143949504
1850.0,0.011619434777991433
1849.0,0.011619434777991433
1848.0,0.011574829993696856
1847.0,0.011574829993696856
1846.0,0.011574829993696856
1845.0,0.011619434777991433
1844.0,0.011619434777991433
1843.0,0.011619434777991433
1842.0,0.011619434777991433
1841.0,0.011619434777991433
1840.0,0.011619434777991433
1839.0,0.011530229790124524
1838.0,0.011441043121384498
1837.0,0.011396456654336085
1836.0,0.011351874764248926
1835.0,0.011351874764248926
1834.0,0.011441043121384498
1833.0,0.011485634166333858
1832.0,0.011574829993696856
1831.0,0.011574829993696856
1830.0,0.011485634166333858
1829.0,0.011351874764248926
1828.0,0.011307297450183107
1827.0,0.011351874764248926
1826.0,0.011396456654336085
1825.0,0.011441043121384498
1824.0,0.011485634166333858
1823.0,0.011485634166333858
1822.0,0.011485634166333858
1821.0,0.011441043121384498
1820.0,0.011441043121384498
1819.0,0.011396456654336085
1818.0,0.011441043121384498
1817.0,0.011530229790124524
1816.0,0.011574829993696856
1815.0,0.011619434777991433
1814.0,0.011619434777991433
1813.0,0.011530229790124524
1812.0,0.011396456654336085
1811.0,0.011307297450183107
1810.0,0.011262724711199823
1809.0,0.011351874764248926
1808.0,0.011485634166333858
1807.0,0.011574829993696856
1806.0,0.011619434777991433
1805.0,0.011664044143949504
1804.0,0.011708658092512314
1803.0,0.011664044143949504
1802.0,0.011664044143949504
1801.0,0.011619434777991433
1800.0,0.011619434777991433
1799.0,0.011574829993696856
1798.0,0.011530229790124524
1797.0,0.011485634166333858
1796.0,0.011441043121384498
1795.0,0.011441043121384498
1794.0,0.011441043121384498
1793.0,0.011441043121384498
1792.0,0.011396456654336085
1791.0,0.011262724711199823
1790.0,0.011218156546359825
1789.0,0.011262724711199823
1788.0,0.011307297450183107
1787.0,0.011396456654336085
1786.0,0.011441043121384498
1785.0,0.011396456654336085
1784.0,0.011351874764248926
1783.0,0.011262724711199823
1782.0,0.01117359295472431
1781.0,0.011129033935354915
1780.0,0.011084479487313281
1779.0,0.011039929609661936
1778.0,0.011039929609661936
1777.0,0.010995384301463185
1776.0,0.010995384301463185
1775.0,0.011039929609661936
1774.0,0.011039929609661936
1773.0,0.011039929609661936
1772.0,0.011039929609661936
1771.0,0.010995384301463185
1770.0,0.011039929609661936
1769.0,0.011129033935354915
1768.0,0.01117359295472431
1767.0,0.011218156546359825
1766.0,0.011262724711199823
1765.0,0.011307297450183107
1764.0,0.011351874764248926
1763.0,0.011351874764248926
1762.0,0.011307297450183107
1761.0,0.011262724711199823
1760.0,0.011262724711199823
1759.0,0.011351874764248926
1758.0,0.011441043121384498
1757.0,0.011574829993696856
1756.0,0.011619434777991433
1755.0,0.011664044143949504
1754.0,0.011619434777991433
1753.0,0.011530229790124524
1752.0,0.011530229790124524
1751.0,0.011530229790124524
1750.0,0.011619434777991433
1749.0,0.011708658092512314
1748.0,0.011887159731648111
1747.0,0.0119764380713403
1746.0,0.012021084124518078
1745.0,0.012065734767841452
1744.0,0.012110390002254778
1743.0,0.012199714248127602
1742.0,0.012289056869694281
1741.0,0.012378417874516323
1740.0,0.012378417874516323
1739.0,0.012244383261476699
1738.0,0.012110390002254778
1737.0,0.012021084124518078
1736.0,0.0119764380713403
1735.0,0.012021084124518078
1734.0,0.012065734767841452
1733.0,0.012021084124518078
1732.0,0.011931796607364653
1731.0,0.011931796607364653
1730.0,0.011887159731648111
1729.0,0.011842527443247208
1728.0,0.011842527443247208
1727.0,0.011842527443247208
1726.0,0.011842527443247208
1725.0,0.011931796607364653
1724.0,0.012065734767841452
1723.0,0.01215504982870197
1722.0,0.012199714248127602
1721.0,0.01215504982870197
1720.0,0.012021084124518078
1719.0,0.011797899741219142
1718.0,0.011753276624621556
1717.0,0.011842527443247208
1716.0,0.011931796607364653
1715.0,0.0119764380713403
1714.0,0.012021084124518078
1713.0,0.012021084124518078
1712.0,0.012021084124518078
1711.0,0.012065734767841452
1710.0,0.012065734767841452
1709.0,0.012021084124518078
1708.0,0.011931796607364653
1707.0,0.011842527443247208
1706.0,0.011797899741219142
1705.0,0.011797899741219142
1704.0,0.011842527443247208
1703.0,0.011931796607364653
1702.0,0.011931796607364653
1701.0,0.011887159731648111
1700.0,0.011842527443247208
1699.0,0.011842527443247208
1698.0,0.011931796607364653
1697.0,0.012110390002254778
1696.0,0.012110390002254778
1695.0,0.011931796607364653
1694.0,0.011753276624621556
1693.0,0.011753276624621556
1692.0,0.011753276624621556
1691.0,0.011708658092512314
1690.0,0.011753276624621556
1689.0,0.011842527443247208
1688.0,0.011931796607364653
1687.0,0.011931796607364653
1686.0,0.011708658092512314
1685.0,0.011530229790124524
1684.0,0.011530229790124524
1683.0,0.011530229790124524
1682.0,0.011708658092512314
1681.0,0.011931796607364653
1680.0,0.012021084124518078
1679.0,0.012110390002254778
1678.0,0.012199714248127602
1677.0,0.012244383261476699
1676.0,0.012333735073725371
1675.0,0.012333735073725371
1674.0,0.012289056869694281
1673.0,0.012244383261476699
1672.0,0.012199714248127602
1671.0,0.012199714248127602
1670.0,0.012289056869694281
1669.0,0.012333735073725371
1668.0,0.012378417874516323
1667.0,0.012423105273012602
1666.0,0.012423105273012602
1665.0,0.012423105273012602
1664.0,0.012378417874516323
1663.0,0.012378417874516323
1662.0,0.012378417874516323
1661.0,0.012333735073725371
1660.0,0.012289056869694281
1659.0,0.012289056869694281
1658.0,0.012289056869694281
1657.0,0.012289056869694281
1656.0,0.012289056869694281
1655.0,0.012199714248127602
1654.0,0.012244383261476699
1653.0,0.012423105273012602
1652.0,0.012244383261476699
1651.0,0.012199714248127602
1650.0,0.012289056869694281
1649.0,0.012289056869694281
1648.0,0.012333735073725371
1647.0,0.012333735073725371
1646.0,0.012333735073725371
1645.0,0.012333735073725371
1644.0,0.012423105273012602
1643.0,0.012512493866907004
1642.0,0.012557195064198723
1641.0,0.012512493866907004
1640.0,0.012467797270160563
1639.0,0.012378417874516323
1638.0,0.012289056869694281
1637.0,0.012199714248127602
1636.0,0.012244383261476699
1635.0,0.012244383261476699
1634.0,0.012244383261476699
1633.0,0.012289056869694281
1632.0,0.012289056869694281
1631.0,0.012244383261476699
1630.0,0.012199714248127602
1629.0,0.012199714248127602
1628.0,0.012199714248127602
1627.0,0.01215504982870197
1626.0,0.012110390002254778
1625.0,0.012110390002254778
1624.0,0.012110390002254778
1623.0,0.01215504982870197
1622.0,0.012110390002254778
1621.0,0.012021084124518078
1620.0,0.011931796607364653
1619.0,0.011797899741219142
1618.0,0.011753276624621556
1617.0,0.011797899741219142
1616.0,0.011887159731648111
1615.0,0.011931796607364653
1614.0,0.0119764380713403
1613.0,0.011931796607364653
1612.0,0.011887159731648111
1611.0,0.011797899741219142
1610.0,0.011753276624621556
1609.0,0.011708658092512314
1608.0,0.011664044143949504
1607.0,0.011619434777991433
1606.0,0.011619434777991433
1605.0,0.011664044143949504
1604.0,0.011708658092512314
1603.0,0.011708658092512314
1602.0,0.011708658092512314
1601.0,0.011708658092512314
1600.0,0.011664044143949504
1599.0,0.011664044143949504
1598.0,0.011619434777991433
1597.0,0.011574829993696856
1596.0,0.011574829993696856
1595.0,0.011574829993696856
1594.0,0.011530229790124524
1593.0,0.011485634166333858
1592.0,0.011351874764248926
1591.0,0.011307297450183107
1590.0,0.011307297450183107
1589.0,0.011396456654336085
1588.0,0.011485634166333858
1587.0,0.011530229790124524
1586.0,0.011530229790124524
1585.0,0.011530229790124524
1584.0,0.011530229790124524
1583.0,0.011530229790124524
1582.0,0.011485634166333858
1581.0,0.011396456654336085
1580.0,0.011307297450183107
1579.0,0.011218156546359825
1578.0,0.01117359295472431
1577.0,0.011262724711199823
1576.0,0.011351874764248926
1575.0,0.011351874764248926
1574.0,0.011307297450183107
1573.0,0.011351874764248926
1572.0,0.011351874764248926
1571.0,0.011262724711199823
1570.0,0.011218156546359825
1569.0,0.011218156546359825
1568.0,0.011218156546359825
1567.0,0.011218156546359825
1566.0,0.011129033935354915
1565.0,0.011039929609661936
1564.0,0.011084479487313281
1563.0,0.01117359295472431
1562.0,0.011351874764248926
1561.0,0.011396456654336085
1560.0,0.011530229790124524
1559.0,0.011708658092512314
1558.0,0.011396456654336085
1557.0,0.011218156546359825
1556.0,0.011262724711199823
1555.0,0.011262724711199823
1554.0,0.01117359295472431
1553.0,0.011084479487313281
1552.0,0.011039929609661936
1551.0,0.010906307389674463
1550.0,0.010817248744452446
1549.0,0.010817248744452446
1548.0,0.010906307389674463
1547.0,0.010950843561779777
1546.0,0.01086177578421088
1545.0,0.010817248744452446
1544.0,0.01077272626946324
1543.0,0.01077272626946324
1542.0,0.01077272626946324
1541.0,0.010906307389674463
1540.0,0.010817248744452446
1539.0,0.010416710688994968
1538.0,0.010149890396819572
1537.0,0.010194349063173958
1536.0,0.010194349063173958
1535.0,0.010149890396819572
1534.0,0.01001654169860089
1533.0,0.009972101229705377
1532.0,0.009972101229705377
1531.0,0.009927665307847056
1530.0,0.009883233932095559
1529.0,0.009883233932095559
1528.0,0.009838807101520963
1527.0,0.00974996707218323
1526.0,0.009616741093766423
1525.0,0.009527946474380489
1524.0,0.009527946474380489
1523.0,0.009572341514736404
1522.0,0.009705553871561357
1521.0,0.009883233932095559
1520.0,0.009883233932095559
1519.0,0.00974996707218323
1518.0,0.009572341514736404
1517.0,0.009527946474380489
1516.0,0.009527946474380489
1515.0,0.009616741093766423
1514.0,0.00966114521239847
1513.0,0.00974996707218323
1512.0,0.009705553871561357
1511.0,0.009616741093766423
1510.0,0.009572341514736404
1509.0,0.009794384815193347
1508.0,0.010283280051895272
1507.0,0.01046119667949763
1506.0,0.010060986715464404
1505.0,0.009794384815193347
1504.0,0.009794384815193347
1503.0,0.00966114521239847
1502.0,0.009527946474380489
1501.0,0.00939478857608056
1500.0,0.009306039320248427
1499.0,0.009172949432521227
1498.0,0.009039900317800775
1497.0,0.009039900317800775
1496.0,0.009039900317800775
1495.0,0.008951223547323472
1494.0,0.008906891951112605
1493.0,0.008906891951112605
1492.0,0.008951223547323472
1491.0,0.008862564879688284
1490.0,0.0087296108049002
1489.0,0.008685301823389224
1488.0,0.008685301823389224
1487.0,0.008596697419959609
1486.0,0.008552401996197112
1485.0,0.008685301823389224
1484.0,0.008906891951112605
1483.0,0.009039900317800775
1482.0,0.009261671492462709
1481.0,0.009883233932095559
1480.0,0.010817248744452446
1479.0,0.012199714248127602
1478.0,0.015112798935672522
1477.0,0.020952673052035298
1476.0,0.03025802323714588
1475.0,0.04224908912272074
1474.0,0.05561604235915585
1473.0,0.06605739725873905
1472.0,0.06823711151882228
1471.0,0.06429125215733666
1470.0,0.05968277842578207
1469.0,0.056406567231630955
1468.0,0.05443294655761144
1467.0,0.054186873412661596
1466.0,0.05754547365752294
1465.0,0.06560255921901192
1464.0,0.07489427319033615
1463.0,0.08013774644446192
1462.0,0.07956359344924135
1461.0,0.07417242537525759
1460.0,0.06565307326174441
1459.0,0.05601112492622806
1458.0,0.04744970610179822
1457.0,0.04172287445230238
1456.0,0.03848398855105106
1455.0,0.03635381351515665
1454.0,0.034516075754861264
1453.0,0.03263926003405038
1452.0,0.03081714076773867
1451.0,0.029281296279810798
1450.0,0.028075050815808744
1449.0,0.02710321556345563
1448.0,0.026318081496016443
1447.0,0.025764722556973707
1446.0,0.02539620791296726
1445.0,0.025074013910237447
1444.0,0.024706084643793647
1443.0,0.02438440203310499
1442.0,0.024017056287453542
1441.0,0.023604163388120325
1440.0,0.02314585342378117
1439.0,0.02282532397981263
1438.0,0.022505030926963654
1437.0,0.0221849739168134
1436.0,0.021773818325474092
1435.0,0.021271822861508305
1434.0,0.02081596632558158
1433.0,0.02026956933771462
1432.0,0.019723858922159776
1431.0,0.019269623464054586
1430.0,0.018861217359339655
1429.0,0.01845319495476394
1428.0,0.017955020928509757
1427.0,0.017502630802287644
1426.0,0.017005545341335804
1425.0,0.016554142658660398
1424.0,0.016148281008528276
1423.0,0.015877917138889863
1422.0,0.015742798294583915
1421.0,0.015517693597737248
1420.0,0.015337693809893471
1419.0,0.015202742910707112
1418.0,0.015067833932588037
1417.0,0.014888020460646079
1416.0,0.014663358264387139
1415.0,0.0144837121472845
1414.0,0.014349026309051105
1413.0,0.014214382227394795
1412.0,0.014124642691606404
1411.0,0.014079779876432497
1410.0,0.013990068146738865
1409.0,0.013900374944870508
1408.0,0.01381070026317599
1407.0,0.01381070026317599
1406.0,0.013765869865004277
1405.0,0.013676222949234651
1404.0,0.013586594534531482
1403.0,0.013496984613259544
1402.0,0.013407393177789162
1401.0,0.013317820220494436
1400.0,0.01322826573375524
1399.0,0.013273040668781544
1398.0,0.013273040668781544
1397.0,0.01322826573375524
1396.0,0.013093968619278806
1395.0,0.013049212141483357
1394.0,0.013049212141483357
1393.0,0.013004460275618523
1392.0,0.013049212141483357
1391.0,0.013138729709955221
1390.0,0.01322826573375524
1389.0,0.01322826573375524
1388.0,0.01318349541446362
1387.0,0.01318349541446362
1386.0,0.01318349541446362
1385.0,0.01318349541446362
1384.0,0.013273040668781544
1383.0,0.013452186585275916
1382.0,0.01372104409400876
1381.0,0.01403492169512921
1380.0,0.014349026309051105
1379.0,0.014618439768003144
1378.0,0.014798141635428141
1377.0,0.014888020460646079
1376.0,0.014888020460646079
1375.0,0.014932966849499074
1374.0,0.015067833932588037
1373.0,0.015202742910707112
1372.0,0.015292705517326866
1371.0,0.015427684378367834
1370.0,0.015607721475734415
1369.0,0.015697768020096703
1368.0,0.015652742414136167
1367.0,0.015607721475734415
1366.0,0.015427684378367834
1365.0,0.015247721884586563
1364.0,0.014977917890464765
1363.0,0.014753209197138295
1362.0,0.01452861671041239
1361.0,0.014349026309051105
1360.0,0.014124642691606404
1359.0,0.013990068146738865
1358.0,0.013900374944870508
1357.0,0.01385553528947936
1356.0,0.01385553528947936
1355.0,0.013945219230304673
1354.0,0.01403492169512921
1353.0,0.014079779876432497
1352.0,0.014079779876432497
1351.0,0.01403492169512921
1350.0,0.013990068146738865
1349.0,0.01385553528947936
1348.0,0.013676222949234651
1347.0,0.013496984613259544
1346.0,0.013317820220494436
1345.0,0.01318349541446362
1344.0,0.013004460275618523
1343.0,0.012914970375878188
1342.0,0.012780770091995297
1341.0,0.012691326268817527
1340.0,0.01264661126420652
1339.0,0.012557195064198723
1338.0,0.012512493866907004
1337.0,0.012423105273012602
1336.0,0.012333735073725371
1335.0,0.012199714248127602
1334.0,0.012065734767841452
1333.0,0.0119764380713403
1332.0,0.011842527443247208
1331.0,0.011842527443247208
1330.0,0.011887159731648111
1329.0,0.011887159731648111
1328.0,0.011931796607364653
1327.0,0.012021084124518078
1326.0,0.01215504982870197
1325.0,0.012199714248127602
1324.0,0.012199714248127602
1323.0,0.012199714248127602
1322.0,0.012199714248127602
1321.0,0.012199714248127602
1320.0,0.012289056869694281
1319.0,0.012378417874516323
1318.0,0.012467797270160563
1317.0,0.012557195064198723
1316.0,0.01260190086298274
1315.0,0.01264661126420652
1314.0,0.012780770091995297
1313.0,0.012825498912458322
1312.0,0.012870232340102872
1311.0,0.012870232340102872
1310.0,0.012870232340102872
1309.0,0.012870232340102872
1308.0,0.012870232340102872
1307.0,0.012870232340102872
1306.0,0.012914970375878188
1305.0,0.012870232340102872
1304.0,0.012870232340102872
1303.0,0.012914970375878188
1302.0,0.012914970375878188
1301.0,0.012870232340102872
1300.0,0.012780770091995297
1299.0,0.012736045877764557
1298.0,0.01264661126420652
1297.0,0.012557195064198723
1296.0,0.012467797270160563
1295.0,0.012333735073725371
1294.0,0.012199714248127602
1293.0,0.012065734767841452
1292.0,0.0119764380713403
1291.0,0.0119764380713403
1290.0,0.012021084124518078
1289.0,0.012065734767841452
1288.0,0.012021084124518078
1287.0,0.0119764380713403
1286.0,0.011887159731648111
1285.0,0.011797899741219142
1284.0,0.011708658092512314
1283.0,0.011664044143949504
1282.0,0.011664044143949504
1281.0,0.011664044143949504
1280.0,0.011574829993696856
1279.0,0.011485634166333858
1278.0,0.011396456654336085
1277.0,0.011351874764248926
1276.0,0.011307297450183107
1275.0,0.011307297450183107
1274.0,0.011396456654336085
1273.0,0.011396456654336085
1272.0,0.011396456654336085
1271.0,0.011396456654336085
1270.0,0.011351874764248926
1269.0,0.011351874764248926
1268.0,0.011351874764248926
1267.0,0.011351874764248926
1266.0,0.011307297450183107
1265.0,0.011262724711199823
1264.0,0.011262724711199823
1263.0,0.011307297450183107
1262.0,0.011396456654336085
1261.0,0.011441043121384498
1260.0,0.011396456654336085
1259.0,0.011262724711199823
1258.0,0.011129033935354915
1257.0,0.011084479487313281
1256.0,0.010995384301463185
1255.0,0.010995384301463185
1254.0,0.010995384301463185
1253.0,0.010950843561779777
1252.0,0.010950843561779777
1251.0,0.010950843561779777
1250.0,0.010950843561779777
1249.0,0.01086177578421088
1248.0,0.010817248744452446
1247.0,0.01086177578421088
1246.0,0.010906307389674463
1245.0,0.010906307389674463
1244.0,0.01086177578421088
1243.0,0.010817248744452446
1242.0,0.01086177578421088
1241.0,0.01086177578421088
1240.0,0.010906307389674463
1239.0,0.010906307389674463
1238.0,0.010906307389674463
1237.0,0.01086177578421088
1236.0,0.010817248744452446
1235.0,0.010817248744452446
1234.0,0.010817248744452446
1233.0,0.01077272626946324
1232.0,0.010728208358306901
1231.0,0.010683695010048622
1230.0,0.010639186223752484
1229.0,0.010639186223752484
1228.0,0.010594681998483901
1227.0,0.010639186223752484
1226.0,0.010683695010048622
1225.0,0.010728208358306901
1224.0,0.01077272626946324
1223.0,0.01086177578421088
1222.0,0.010906307389674463
1221.0,0.010906307389674463
1220.0,0.01086177578421088
1219.0,0.010817248744452446
1218.0,0.01077272626946324
1217.0,0.010728208358306901
1216.0,0.010683695010048622
1215.0,0.010594681998483901
1214.0,0.010594681998483901
1213.0,0.010594681998483901
1212.0,0.010639186223752484
1211.0,0.01077272626946324
1210.0,0.010906307389674463
1209.0,0.011039929609661936
1208.0,0.01117359295472431
1207.0,0.011218156546359825
1206.0,0.011262724711199823
1205.0,0.011218156546359825
1204.0,0.011218156546359825
1203.0,0.01117359295472431
1202.0,0.011129033935354915
1201.0,0.011039929609661936
1200.0,0.010950843561779777
1199.0,0.010906307389674463
1198.0,0.010906307389674463
1197.0,0.010906307389674463
1196.0,0.010817248744452446
1195.0,0.010728208358306901
1194.0,0.010639186223752484
1193.0,0.010594681998483901
1192.0,0.010594681998483901
1191.0,0.010639186223752484
1190.0,0.010683695010048622
1189.0,0.01077272626946324
1188.0,0.010817248744452446
1187.0,0.010906307389674463
1186.0,0.010995384301463185
1185.0,0.011039929609661936
1184.0,0.011039929609661936
1183.0,0.011084479487313281
1182.0,0.01117359295472431
1181.0,0.011262724711199823
1180.0,0.011351874764248926
1179.0,0.011441043121384498
1178.0,0.011574829993696856
1177.0,0.011708658092512314
1176.0,0.011753276624621556
1175.0,0.011797899741219142
1174.0,0.011842527443247208
1173.0,0.011842527443247208
1172.0,0.011931796607364653
1171.0,0.012021084124518078
1170.0,0.012110390002254778
1169.0,0.012110390002254778
1168.0,0.0119764380713403
1167.0,0.011887159731648111
1166.0,0.011797899741219142
1165.0,0.011708658092512314
1164.0,0.011574829993696856
1163.0,0.011441043121384498
1162.0,0.011262724711199823
1161.0,0.011084479487313281
1160.0,0.010950843561779777
1159.0,0.01086177578421088
1158.0,0.01086177578421088
1157.0,0.010906307389674463
1156.0,0.010950843561779777
1155.0,0.010950843561779777
1154.0,0.010950843561779777
1153.0,0.010906307389674463
1152.0,0.010817248744452446
1151.0,0.010683695010048622
1150.0,0.010550182333308289
1149.0,0.010416710688994968
1148.0,0.010283280051895272
1147.0,0.010194349063173958
1146.0,0.010149890396819572
1145.0,0.01001654169860089
1144.0,0.009927665307847056
1143.0,0.009838807101520963
1142.0,0.009883233932095559
1141.0,0.009927665307847056
1140.0,0.009972101229705377
1139.0,0.01001654169860089
1138.0,0.010060986715464404
1137.0,0.010060986715464404
1136.0,0.010105436281226954
1135.0,0.010149890396819572
1134.0,0.010149890396819572
1133.0,0.010149890396819572
1132.0,0.010105436281226954
1131.0,0.010194349063173958
1130.0,0.010283280051895272
1129.0,0.010283280051895272
1128.0,0.010194349063173958
1127.0,0.01001654169860089
1126.0,0.009927665307847056
1125.0,0.009883233932095559
1124.0,0.009927665307847056
1123.0,0.010105436281226954
1122.0,0.01023881228122181
1121.0,0.01037222925484893
1120.0,0.01046119667949763
1119.0,0.010550182333308289
1118.0,0.010639186223752484
1117.0,0.01077272626946324
1116.0,0.010950843561779777
1115.0,0.011039929609661936
1114.0,0.010995384301463185
1113.0,0.01086177578421088
1112.0,0.010728208358306901
1111.0,0.010683695010048622
1110.0,0.010728208358306901
1109.0,0.010728208358306901
1108.0,0.010683695010048622
1107.0,0.010728208358306901
1106.0,0.01086177578421088
1105.0,0.010995384301463185
1104.0,0.011084479487313281
1103.0,0.011129033935354915
1102.0,0.01117359295472431
1101.0,0.01117359295472431
1100.0,0.011129033935354915
1099.0,0.010995384301463185
1098.0,0.010906307389674463
1097.0,0.01086177578421088
1096.0,0.01086177578421088
1095.0,0.010906307389674463
1094.0,0.010995384301463185
1093.0,0.011039929609661936
1092.0,0.011084479487313281
1091.0,0.011129033935354915
1090.0,0.011218156546359825
1089.0,0.011262724711199823
1088.0,0.011307297450183107
1087.0,0.011262724711199823
1086.0,0.01117359295472431
1085.0,0.01117359295472431
1084.0,0.011218156546359825
1083.0,0.011307297450183107
1082.0,0.011351874764248926
1081.0,0.011262724711199823
1080.0,0.011084479487313281
1079.0,0.010906307389674463
1078.0,0.01077272626946324
1077.0,0.010728208358306901
1076.0,0.01077272626946324
1075.0,0.01086177578421088
1074.0,0.010906307389674463
1073.0,0.010906307389674463
1072.0,0.010728208358306901
1071.0,0.01046119667949763
1070.0,0.010194349063173958
1069.0,0.01001654169860089
1068.0,0.009972101229705377
1067.0,0.010105436281226954
1066.0,0.010283280051895272
1065.0,0.01037222925484893
1064.0,0.01037222925484893
1063.0,0.010283280051895272
1062.0,0.010149890396819572
1061.0,0.010060986715464404
1060.0,0.010060986715464404
1059.0,0.010060986715464404
1058.0,0.010060986715464404
1057.0,0.009972101229705377
1056.0,0.009927665307847056
1055.0,0.009883233932095559
1054.0,0.009927665307847056
1053.0,0.01001654169860089
1052.0,0.010105436281226954
1051.0,0.01023881228122181
1050.0,0.01037222925484893
1049.0,0.010505687227290839
1048.0,0.010594681998483901
1047.0,0.010550182333308289
1046.0,0.010416710688994968
1045.0,0.01023881228122181
1044.0,0.010105436281226954
1043.0,0.010060986715464404
1042.0,0.010060986715464404
1041.0,0.010060986715464404
1040.0,0.010060986715464404
1039.0,0.010060986715464404
1038.0,0.010060986715464404
1037.0,0.009972101229705377
1036.0,0.009883233932095559
1035.0,0.009794384815193347
1034.0,0.009794384815193347
1033.0,0.00974996707218323
1032.0,0.009794384815193347
1031.0,0.009838807101520963
1030.0,0.009972101229705377
1029.0,0.01001654169860089
1028.0,0.010060986715464404
1027.0,0.010105436281226954
1026.0,0.010194349063173958
1025.0,0.010283280051895272
1024.0,0.010283280051895272
1023.0,0.01023881228122181
1022.0,0.01023881228122181
1021.0,0.010194349063173958
1020.0,0.010105436281226954
1019.0,0.010060986715464404
1018.0,0.010060986715464404
1017.0,0.01001654169860089
1016.0,0.009927665307847056
1015.0,0.009838807101520963
1014.0,0.00966114521239847
1013.0,0.009527946474380489
1012.0,0.009439170005980158
1011.0,0.00939478857608056
1010.0,0.00939478857608056
1009.0,0.009350411681145587
1008.0,0.009217308196862062
1007.0,0.00908424549391551
1006.0,0.008906891951112605
1005.0,0.0087296108049002
1004.0,0.008640997362049818
1003.0,0.008596697419959609
1002.0,0.00850811108984062
1001.0,0.008463824699968647
1000.0,0.008375265465994541
999.0,0.008375265465994541
998.0,0.008375265465994541
997.0,0.008375265465994541
996.0,0.008330992620051436
995.0,0.008242460465651913
994.0,0.008153946355103248
993.0,0.008065450281052211
992.0,0.007976972236149349
991.0,0.007976972236149349
990.0,0.008109696063975047
989.0,0.008286724286910463
988.0,0.008419542825660153
987.0,0.008419542825660153
986.0,0.008375265465994541
985.0,0.008242460465651913
984.0,0.008109696063975047
983.0,0.008021209005416363
982.0,0.007976972236149349
981.0,0.007932739972333236
980.0,0.007888512213050314
979.0,0.007844288957383316
978.0,0.007888512213050314
977.0,0.007932739972333236
976.0,0.007976972236149349
975.0,0.007976972236149349
974.0,0.007888512213050314
973.0,0.007844288957383316
972.0,0.007800070204414977
971.0,0.007800070204414977
970.0,0.007800070204414977
969.0,0.007755855953228474
968.0,0.00762324020119709
967.0,0.007490664932224611
966.0,0.007358130121602358
965.0,0.007269796045857202
964.0,0.007137328610972382
963.0,0.007049039429553483
962.0,0.007049039429553483
961.0,0.007004901568658406
960.0,0.00696076819309055
959.0,0.006916639301937977
958.0,0.006828394969235152
957.0,0.006784279525863024
956.0,0.006784279525863024
955.0,0.006872514894289861
954.0,0.00696076819309055
953.0,0.007049039429553483
952.0,0.007093181776687496
951.0,0.007004901568658406
950.0,0.006916639301937977
949.0,0.006828394969235152
948.0,0.006696062080525422
947.0,0.00656376950238835
946.0,0.006519680930003435
945.0,0.006519680930003435
944.0,0.00656376950238835
943.0,0.006651960076740071
942.0,0.006740168563263094
941.0,0.006828394969235152
940.0,0.006872514894289861
939.0,0.00696076819309055
938.0,0.007004901568658406
937.0,0.007049039429553483
936.0,0.007049039429553483
935.0,0.007137328610972382
934.0,0.007269796045857202
933.0,0.0074464821678643656
932.0,0.0075790439479759275
931.0,0.007711646202907652
930.0,0.007844288957383316
929.0,0.007976972236149349
928.0,0.007976972236149349
927.0,0.007800070204414977
926.0,0.00762324020119709
925.0,0.007490664932224611
924.0,0.007402303897961815
923.0,0.007358130121602358
922.0,0.007313960837872058
921.0,0.007313960837872058
920.0,0.007269796045857202
919.0,0.007269796045857202
918.0,0.007181479933320523
917.0,0.007049039429553483
916.0,0.00696076819309055
915.0,0.006916639301937977
914.0,0.00696076819309055
913.0,0.007004901568658406
912.0,0.007004901568658406
911.0,0.007004901568658406
910.0,0.007004901568658406
909.0,0.006916639301937977
908.0,0.006696062080525422
907.0,0.006431517210272464
906.0,0.006167133386013823
905.0,0.005990966876386672
904.0,0.00590291041179003
903.0,0.005858888873877532
902.0,0.005946936412324799
901.0,0.006035001804881146
900.0,0.006035001804881146
899.0,0.005946936412324799
898.0,0.005814871797682919
897.0,0.005638848091999105
896.0,0.005550862985963967
895.0,0.005638848091999105
894.0,0.005682847330363394
893.0,0.005726851026829571
892.0,0.00577085918230158
891.0,0.005814871797682919
890.0,0.005990966876386672
889.0,0.00612308505878878
888.0,0.00625524344553785
887.0,0.006299305179649828
886.0,0.006431517210272464
885.0,0.006607862550997545
884.0,0.006872514894289861
883.0,0.007049039429553483
882.0,0.007093181776687496
881.0,0.007049039429553483
880.0,0.00696076819309055
879.0,0.00696076819309055
878.0,0.007049039429553483
877.0,0.007181479933320523
876.0,0.007269796045857202
875.0,0.007313960837872058
874.0,0.007313960837872058
873.0,0.007358130121602358
872.0,0.0074464821678643656
871.0,0.0075790439479759275
870.0,0.007800070204414977
869.0,0.007888512213050314
868.0,0.007976972236149349
867.0,0.008065450281052211
866.0,0.008198201155356077
865.0,0.008286724286910463
864.0,0.008153946355103248
863.0,0.007976972236149349
862.0,0.007755855953228474
861.0,0.00762324020119709
860.0,0.0075790439479759275
859.0,0.007667440952535687
858.0,0.007711646202907652
857.0,0.00762324020119709
856.0,0.007358130121602358
855.0,0.007049039429553483
854.0,0.00696076819309055
853.0,0.007004901568658406
852.0,0.007004901568658406
851.0,0.007004901568658406
850.0,0.00696076819309055
849.0,0.007004901568658406
848.0,0.007049039429553483
847.0,0.007049039429553483
846.0,0.006916639301937977
845.0,0.006696062080525422
844.0,0.006387442061109638
843.0,0.00612308505878878
842.0,0.005990966876386672
841.0,0.005990966876386672
840.0,0.005990966876386672
839.0,0.005990966876386672
838.0,0.006035001804881146
837.0,0.00612308505878878
836.0,0.00625524344553785
835.0,0.006299305179649828
834.0,0.00625524344553785
833.0,0.006035001804881146
832.0,0.005682847330363394
831.0,0.005462895701502157
830.0,0.005462895701502157
829.0,0.005682847330363394
828.0,0.006035001804881146
827.0,0.006343371384537999
826.0,0.006607862550997545
825.0,0.006607862550997545
824.0,0.006475596832934416
823.0,0.00625524344553785
822.0,0.006167133386013823
821.0,0.00625524344553785
820.0,0.006475596832934416
819.0,0.006696062080525422
818.0,0.006828394969235152
817.0,0.006784279525863024
816.0,0.006651960076740071
815.0,0.006696062080525422
814.0,0.006872514894289861
813.0,0.007093181776687496
812.0,0.007313960837872058
811.0,0.0074464821678643656
810.0,0.0074464821678643656
809.0,0.007313960837872058
808.0,0.007181479933320523
807.0,0.007137328610972382
806.0,0.007269796045857202
805.0,0.0074464821678643656
804.0,0.0075790439479759275
803.0,0.0075790439479759275
802.0,0.007534852191956709
801.0,0.007358130121602358
800.0,0.007181479933320523
799.0,0.007181479933320523
798.0,0.007358130121602358
797.0,0.00762324020119709
796.0,0.007800070204414977
795.0,0.007711646202907652
794.0,0.0074464821678643656
793.0,0.007137328610972382
792.0,0.007004901568658406
791.0,0.007004901568658406
790.0,0.007004901568658406
789.0,0.006916639301937977
788.0,0.006696062080525422
787.0,0.006519680930003435
786.0,0.006519680930003435
785.0,0.00656376950238835
784.0,0.00656376950238835
783.0,0.006519680930003435
782.0,0.006475596832934416
781.0,0.006475596832934416
780.0,0.006387442061109638
779.0,0.00625524344553785
778.0,0.006079041198713275
777.0,0.005946936412324799
776.0,0.005814871797682919
775.0,0.005638848091999105
774.0,0.005506877116487674
773.0,0.00541891874010525
772.0,0.00537494623139545
771.0,0.00541891874010525
770.0,0.005594853310833647
769.0,0.005726851026829571
768.0,0.00577085918230158
767.0,0.00577085918230158
766.0,0.005726851026829571
765.0,0.00577085918230158
764.0,0.00590291041179003
763.0,0.00621118618129457
762.0,0.006696062080525422
761.0,0.007093181776687496
760.0,0.007181479933320523
759.0,0.00696076819309055
758.0,0.00656376950238835
757.0,0.00625524344553785
756.0,0.006167133386013823
755.0,0.006299305179649828
754.0,0.006475596832934416
753.0,0.00656376950238835
752.0,0.006519680930003435
751.0,0.006519680930003435
750.0,0.006651960076740071
749.0,0.00696076819309055
748.0,0.007313960837872058
747.0,0.0075790439479759275
746.0,0.007711646202907652
745.0,0.007711646202907652
744.0,0.007755855953228474
743.0,0.007976972236149349
742.0,0.00850811108984062
741.0,0.009217308196862062
740.0,0.009705553871561357
739.0,0.010149890396819572
738.0,0.01086177578421088
737.0,0.012244383261476699
736.0,0.014798141635428141
735.0,0.01949668180660491
734.0,0.027889771597169544
733.0,0.04057697805689475
732.0,0.05551732784983132
731.0,0.06777998612288094
730.0,0.07283502570063005
729.0,0.06986635415888243
728.0,0.062281556382736136
727.0,0.05458065739693696
726.0,0.04944043838819989
725.0,0.04754660357696672
724.0,0.04900266601119507
723.0,0.05448217792216048
722.0,0.06479513257341862
721.0,0.07862570458152551
720.0,0.09124698081546634
719.0,0.09642170633694569
718.0,0.09215885741705532
717.0,0.08134070657817682
716.0,0.06844043290919477
715.0,0.056456022846545606
714.0,0.04662694927330402
713.0,0.03905380426616856
712.0,0.03352973627071565
711.0,0.02969962459782227
710.0,0.027056991894431892
709.0,0.02512002699306959
708.0,0.02365002099672653
707.0,0.022322112326006227
706.0,0.020907099361673565
705.0,0.019451260640229506
704.0,0.01845319495476394
703.0,0.018136109008649592
702.0,0.017864505196230507
701.0,0.017005545341335804
700.0,0.015607721475734415
699.0,0.01452861671041239
698.0,0.014349026309051105
697.0,0.014888020460646079
696.0,0.015427684378367834
695.0,0.015337693809893471
694.0,0.014214382227394795
693.0,0.012244383261476699
692.0,0.01037222925484893
691.0,0.009483555971770974
690.0,0.009838807101520963
689.0,0.010817248744452446
688.0,0.011485634166333858
687.0,0.011485634166333858
686.0,0.010906307389674463
685.0,0.010194349063173958
684.0,0.009883233932095559
683.0,0.010327752376126709
682.0,0.01086177578421088
681.0,0.010594681998483901
680.0,0.009306039320248427
679.0,0.007932739972333236
678.0,0.007402303897961815
677.0,0.007800070204414977
676.0,0.008375265465994541
675.0,0.008463824699968647
674.0,0.007888512213050314
673.0,0.007181479933320523
672.0,0.007049039429553483
671.0,0.007755855953228474
670.0,0.009217308196862062
669.0,0.01046119667949763
668.0,0.010060986715464404
667.0,0.009927665307847056
666.0,0.010683695010048622
665.0,0.010950843561779777
664.0,0.010594681998483901
663.0,0.009572341514736404
662.0,0.008021209005416363
661.0,0.00656376950238835
660.0,0.006079041198713275
659.0,0.00656376950238835
658.0,0.007181479933320523
657.0,0.006872514894289861
656.0,0.005946936412324799
655.0,0.005243055412371911
654.0,0.004935465843858511
653.0,0.00484762310854614
652.0,0.005067263269958211
651.0,0.006079041198713275
650.0,0.007932739972333236
649.0,0.009705553871561357
648.0,0.010728208358306901
647.0,0.010950843561779777
646.0,0.010550182333308289
645.0,0.00966114521239847
644.0,0.008685301823389224
643.0,0.008198201155356077
642.0,0.008153946355103248
641.0,0.008330992620051436
640.0,0.0087296108049002
639.0,0.00939478857608056
638.0,0.009794384815193347
637.0,0.008818242332126802
636.0,0.006431517210272464
635.0,0.004540313378935901
634.0,0.004935465843858511
633.0,0.007225635744644521
632.0,0.009572341514736404
631.0,0.011262724711199823
630.0,0.01260190086298274
629.0,0.01372104409400876
628.0,0.014393916947563534
627.0,0.014393916947563534
626.0,0.013945219230304673
625.0,0.013317820220494436
624.0,0.012914970375878188
623.0,0.012825498912458322
622.0,0.012467797270160563
621.0,0.011396456654336085
620.0,0.009838807101520963
619.0,0.008685301823389224
618.0,0.0087296108049002
617.0,0.009883233932095559
616.0,0.011842527443247208
615.0,0.01403492169512921
614.0,0.015517693597737248
613.0,0.01538268676325183
612.0,0.013945219230304673
611.0,0.01260190086298274
610.0,0.012199714248127602
609.0,0.012512493866907004
608.0,0.012870232340102872
607.0,0.012959713020733288
606.0,0.012691326268817527
605.0,0.011931796607364653
604.0,0.011039929609661936
603.0,0.011039929609661936
602.0,0.01215504982870197
601.0,0.01381070026317599
600.0,0.015292705517326866
