cm-1,A
4000.0,0.0007824344698965646
3999.0,0.0007824344698965646
3998.0,0.0007824344698965646
3997.0,0.0007824344698965646
3996.0,0.0007824344698965646
3995.0,0.0007389288868995258
3994.0,0.0007389288868995258
3993.0,0.0006954276616513155
3992.0,0.0006519307932786322
3991.0,0.0006519307932786322
3990.0,0.0006954276616513155
3989.0,0.0007389288868995258
3988.0,0.0007824344698965646
3987.0,0.0008259444115150671
3986.0,0.0008259444115150671
3985.0,0.000869458712629001
3984.0,0.000869458712629001
3983.0,0.0009129773741116676
3982.0,0.0009129773741116676
3981.0,0.000869458712629001
3980.0,0.0008259444115150671
3979.0,0.0007824344698965646
3978.0,0.0007389288868995258
3977.0,0.0006954276616513155
3976.0,0.0006954276616513155
3975.0,0.0007389288868995258
3974.0,0.0007824344698965646
3973.0,0.000869458712629001
3972.0,0.0009129773741116676
3971.0,0.0009565003968372565
3970.0,0.0009565003968372565
3969.0,0.0009129773741116676
3968.0,0.0009129773741116676
3967.0,0.000869458712629001
3966.0,0.0008259444115150671
3965.0,0.0007824344698965646
3964.0,0.0007389288868995258
3963.0,0.0007389288868995258
3962.0,0.0007824344698965646
3961.0,0.0008259444115150671
3960.0,0.000869458712629001
3959.0,0.0009129773741116676
3958.0,0.000869458712629001
3957.0,0.0008259444115150671
3956.0,0.0006954276616513155
3955.0,0.0006519307932786322
3954.0,0.0005649501236701937
3953.0,0.0005649501236701937
3952.0,0.0006084382809090627
3951.0,0.0006519307932786322
3950.0,0.0006954276616513155
3949.0,0.0007389288868995258
3948.0,0.0007824344698965646
3947.0,0.0008259444115150671
3946.0,0.0007824344698965646
3945.0,0.0007824344698965646
3944.0,0.0007389288868995258
3943.0,0.0007389288868995258
3942.0,0.0007389288868995258
3941.0,0.0007824344698965646
3940.0,0.0007824344698965646
3939.0,0.0007824344698965646
3938.0,0.0007824344698965646
3937.0,0.0007389288868995258
3936.0,0.0007389288868995258
3935.0,0.0007389288868995258
3934.0,0.0007824344698965646
3933.0,0.0008259444115150671
3932.0,0.000869458712629001
3931.0,0.000869458712629001
3930.0,0.000869458712629001
3929.0,0.0008259444115150671
3928.0,0.0007824344698965646
3927.0,0.0007824344698965646
3926.0,0.0007824344698965646
3925.0,0.0007824344698965646
3924.0,0.0007389288868995258
3923.0,0.0006954276616513155
3922.0,0.0006519307932786322
3921.0,0.0006519307932786322
3920.0,0.0006954276616513155
3919.0,0.0007824344698965646
3918.0,0.0008259444115150671
3917.0,0.0009129773741116676
3916.0,0.0009129773741116676
3915.0,0.000869458712629001
3914.0,0.000869458712629001
3913.0,0.0008259444115150671
3912.0,0.0008259444115150671
3911.0,0.0007824344698965646
3910.0,0.0007389288868995258
3909.0,0.0006954276616513155
3908.0,0.0006954276616513155
3907.0,0.0006519307932786322
3906.0,0.0006084382809090627
3905.0,0.000521466320689834
3904.0,0.0003910410285830057
3903.0,0.00030411258916074324
3902.0,0.00026065489343207737
3901.0,0.0003910410285830057
3900.0,0.0005649501236701937
3899.0,0.0007389288868995258
3898.0,0.0007824344698965646
3897.0,0.0008259444115150671
3896.0,0.0008259444115150671
3895.0,0.0008259444115150671
3894.0,0.0008259444115150671
3893.0,0.0008259444115150671
3892.0,0.000869458712629001
3891.0,0.0009129773741116676
3890.0,0.0008259444115150671
3889.0,0.0007389288868995258
3888.0,0.0006954276616513155
3887.0,0.0007389288868995258
3886.0,0.0007389288868995258
3885.0,0.0006954276616513155
3884.0,0.0006084382809090627
3883.0,0.0005649501236701937
3882.0,0.0006084382809090627
3881.0,0.0006519307932786322
3880.0,0.0006519307932786322
3879.0,0.0006084382809090627
3878.0,0.0005649501236701937
3877.0,0.0005649501236701937
3876.0,0.0006084382809090627
3875.0,0.0006084382809090627
3874.0,0.000521466320689834
3873.0,0.00043451177401765406
3872.0,0.00043451177401765406
3871.0,0.0004779868710962365
3870.0,0.0005649501236701937
3869.0,0.000521466320689834
3868.0,0.0004779868710962365
3867.0,0.0004779868710962365
3866.0,0.000521466320689834
3865.0,0.0005649501236701937
3864.0,0.000521466320689834
3863.0,0.0004779868710962365
3862.0,0.000521466320689834
3861.0,0.0006084382809090627
3860.0,0.0006519307932786322
3859.0,0.0006954276616513155
3858.0,0.0006519307932786322
3857.0,0.0006084382809090627
3856.0,0.0005649501236701937
3855.0,0.0006084382809090627
3854.0,0.0007824344698965646
3853.0,0.0009565003968372565
3852.0,0.0009129773741116676
3851.0,0.0008259444115150671
3850.0,0.0009129773741116676
3849.0,0.0010000277816797354
3848.0,0.0009565003968372565
3847.0,0.0008259444115150671
3846.0,0.0007824344698965646
3845.0,0.0007389288868995258
3844.0,0.0006954276616513155
3843.0,0.0006519307932786322
3842.0,0.0005649501236701937
3841.0,0.000521466320689834
3840.0,0.0004779868710962365
3839.0,0.000521466320689834
3838.0,0.0005649501236701937
3837.0,0.0005649501236701937
3836.0,0.0005649501236701937
3835.0,0.0005649501236701937
3834.0,0.0006084382809090627
3833.0,0.0006519307932786322
3832.0,0.0006519307932786322
3831.0,0.0006519307932786322
3830.0,0.0006519307932786322
3829.0,0.0006519307932786322
3828.0,0.0006954276616513155
3827.0,0.0007389288868995258
3826.0,0.0007389288868995258
3825.0,0.0006954276616513155
3824.0,0.0006519307932786322
3823.0,0.0006519307932786322
3822.0,0.0007389288868995258
3821.0,0.0007389288868995258
3820.0,0.0006084382809090627
3819.0,0.00043451177401765406
3818.0,0.0003910410285830057
3817.0,0.000521466320689834
3816.0,0.0006519307932786322
3815.0,0.0007389288868995258
3814.0,0.0007824344698965646
3813.0,0.0009129773741116676
3812.0,0.0010435595295137379
3811.0,0.0010870956412141197
3810.0,0.0009565003968372565
3809.0,0.0008259444115150671
3808.0,0.0006519307932786322
3807.0,0.000521466320689834
3806.0,0.0003475746339209884
3805.0,0.00030411258916074324
3804.0,0.0003910410285830057
3803.0,0.0006084382809090627
3802.0,0.0007389288868995258
3801.0,0.0007824344698965646
3800.0,0.0006084382809090627
3799.0,0.0005649501236701937
3798.0,0.0006084382809090627
3797.0,0.0006954276616513155
3796.0,0.0006954276616513155
3795.0,0.0005649501236701937
3794.0,0.0004779868710962365
3793.0,0.000521466320689834
3792.0,0.0006084382809090627
3791.0,0.0006954276616513155
3790.0,0.0007389288868995258
3789.0,0.0006954276616513155
3788.0,0.0006084382809090627
3787.0,0.0005649501236701937
3786.0,0.000521466320689834
3785.0,0.000521466320689834
3784.0,0.0004779868710962365
3783.0,0.0004779868710962365
3782.0,0.000521466320689834
3781.0,0.0006084382809090627
3780.0,0.0006954276616513155
3779.0,0.0007389288868995258
3778.0,0.0007389288868995258
3777.0,0.0006954276616513155
3776.0,0.0006954276616513155
3775.0,0.0006954276616513155
3774.0,0.0006954276616513155
3773.0,0.0006954276616513155
3772.0,0.0006954276616513155
3771.0,0.0007389288868995258
3770.0,0.0007389288868995258
3769.0,0.0006519307932786322
3768.0,0.0005649501236701937
3767.0,0.0004779868710962365
3766.0,0.0004779868710962365
3765.0,0.000521466320689834
3764.0,0.0005649501236701937
3763.0,0.0006084382809090627
3762.0,0.0006084382809090627
3761.0,0.0006084382809090627
3760.0,0.0005649501236701937
3759.0,0.0004779868710962365
3758.0,0.0003910410285830057
3757.0,0.00043451177401765406
3756.0,0.0004779868710962365
3755.0,0.0005649501236701937
3754.0,0.0006084382809090627
3753.0,0.0006084382809090627
3752.0,0.0006084382809090627
3751.0,0.0006954276616513155
3750.0,0.0008259444115150671
3749.0,0.0009129773741116676
3748.0,0.0009565003968372565
3747.0,0.0010000277816797354
3746.0,0.0010435595295137379
3745.0,0.0010000277816797354
3744.0,0.000869458712629001
3743.0,0.0006954276616513155
3742.0,0.0006519307932786322
3741.0,0.0008259444115150671
3740.0,0.0009129773741116676
3739.0,0.0009129773741116676
3738.0,0.0007824344698965646
3737.0,0.0006954276616513155
3736.0,0.0007389288868995258
3735.0,0.0007389288868995258
3734.0,0.0007389288868995258
3733.0,0.0006954276616513155
3732.0,0.0006519307932786322
3731.0,0.0005649501236701937
3730.0,0.0005649501236701937
3729.0,0.0005649501236701937
3728.0,0.0005649501236701937
3727.0,0.000521466320689834
3726.0,0.0003910410285830057
3725.0,0.00030411258916074324
3724.0,0.00026065489343207737
3723.0,0.0003475746339209884
3722.0,0.0003910410285830057
3721.0,0.00043451177401765406
3720.0,0.00043451177401765406
3719.0,0.00043451177401765406
3718.0,0.00043451177401765406
3717.0,0.0004779868710962365
3716.0,0.0005649501236701937
3715.0,0.0005649501236701937
3714.0,0.0006084382809090627
3713.0,0.0006084382809090627
3712.0,0.0006084382809090627
3711.0,0.0005649501236701937
3710.0,0.000521466320689834
3709.0,0.0004779868710962365
3708.0,0.0004779868710962365
3707.0,0.0004779868710962365
3706.0,0.0004779868710962365
3705.0,0.0003910410285830057
3704.0,0.0003475746339209884
3703.0,0.0003475746339209884
3702.0,0.0003475746339209884
3701.0,0.0003910410285830057
3700.0,0.0003475746339209884
3699.0,0.00026065489343207737
3698.0,0.00021720154586435392
3697.0,0.00017375254558760211
3696.0,0.0001303078917322953
3695.0,8.686758342868472e-05
3694.0,0.0
3693.0,-8.685021164911433e-05
3692.0,-0.00017368305846510168
3691.0,-0.00021709297223004853
3690.0,-0.00013026880522692963
3689.0,-8.685021164911433e-05
3688.0,-8.685021164911433e-05
3687.0,-0.00017368305846510168
3686.0,-8.685021164911433e-05
3685.0,4.343161980746579e-05
3684.0,0.0001303078917322953
3683.0,0.0001303078917322953
3682.0,4.343161980746579e-05
3681.0,-4.3427276862573194e-05
3680.0,-8.685021164911433e-05
3679.0,-0.00017368305846510168
3678.0,-0.00021709297223004853
3677.0,-0.00017368305846510168
3676.0,-8.685021164911433e-05
3675.0,-4.3427276862573194e-05
3674.0,-8.685021164911433e-05
3673.0,-0.00013026880522692963
3672.0,4.343161980746579e-05
3671.0,0.00026065489343207737
3670.0,0.0003475746339209884
3669.0,0.00026065489343207737
3668.0,0.0001303078917322953
3667.0,8.686758342868472e-05
3666.0,0.0001303078917322953
3665.0,0.00017375254558760211
3664.0,0.00021720154586435392
3663.0,0.00021720154586435392
3662.0,0.00021720154586435392
3661.0,0.00021720154586435392
3660.0,0.00017375254558760211
3659.0,0.00017375254558760211
3658.0,0.00021720154586435392
3657.0,0.00030411258916074324
3656.0,0.0003910410285830057
3655.0,0.00043451177401765406
3654.0,0.0003910410285830057
3653.0,0.0003910410285830057
3652.0,0.0003475746339209884
3651.0,0.0003475746339209884
3650.0,0.00043451177401765406
3649.0,0.0006084382809090627
3648.0,0.0006954276616513155
3647.0,0.0006519307932786322
3646.0,0.0006519307932786322
3645.0,0.0007389288868995258
3644.0,0.000869458712629001
3643.0,0.0009565003968372565
3642.0,0.0010435595295137379
3641.0,0.0011306361176557367
3640.0,0.0011741809597138886
3639.0,0.0012177301682640973
3638.0,0.0012177301682640973
3637.0,0.0011741809597138886
3636.0,0.0010870956412141197
3635.0,0.0010435595295137379
3634.0,0.0010435595295137379
3633.0,0.0010435595295137379
3632.0,0.0010870956412141197
3631.0,0.0011741809597138886
3630.0,0.0013919706849057079
3629.0,0.0016970599014589638
3628.0,0.0018714928717336043
3627.0,0.0017842676290416026
3626.0,0.0016970599014589638
3625.0,0.0016534626036355249
3624.0,0.0016534626036355249
3623.0,0.0015662811355310335
3622.0,0.0014791171649619628
3621.0,0.0014791171649619628
3620.0,0.0015226969634936083
3619.0,0.001609869681952425
3618.0,0.0016970599014589638
3617.0,0.0016970599014589638
3616.0,0.0017842676290416026
3615.0,0.0018714928717336043
3614.0,0.0020023635919956817
3613.0,0.002089632653256679
3612.0,0.002089632653256679
3611.0,0.0020459959305969555
3610.0,0.0019587356365717845
3609.0,0.0019587356365717845
3608.0,0.0020023635919956817
3607.0,0.002089632653256679
3606.0,0.0021769192542746563
3605.0,0.0023078820582733695
3604.0,0.002395212539545666
3603.0,0.002482560585275184
3602.0,0.002482560585275184
3601.0,0.002482560585275184
3600.0,0.0024388843664115978
3599.0,0.002351545103793873
3598.0,0.0023078820582733695
3597.0,0.002351545103793873
3596.0,0.002395212539545666
3595.0,0.002482560585275184
3594.0,0.0025262411970197185
3593.0,0.002569926202528716
3592.0,0.0025262411970197185
3591.0,0.002482560585275184
3590.0,0.0024388843664115978
3589.0,0.0024388843664115978
3588.0,0.002569926202528716
3587.0,0.0027447101798967477
3586.0,0.0028758443407954637
3585.0,0.0029195645282691363
3584.0,0.0029632891174733444
3583.0,0.0029632891174733444
3582.0,0.0029632891174733444
3581.0,0.0029632891174733444
3580.0,0.0029632891174733444
3579.0,0.0030070181092942683
3578.0,0.0030070181092942683
3577.0,0.0030070181092942683
3576.0,0.003050751504618754
3575.0,0.0030944893043338695
3574.0,0.0031819781204844855
3573.0,0.0031819781204844855
3572.0,0.0031382315093266833
3571.0,0.003050751504618754
3570.0,0.0028758443407954637
3569.0,0.0028321285541661467
3568.0,0.0029195645282691363
3567.0,0.0031382315093266833
3566.0,0.0034007772998332353
3565.0,0.0035758960449088217
3564.0,0.003619686766589858
3563.0,0.0036634819042162814
3562.0,0.003707281458678491
3561.0,0.0036634819042162814
3560.0,0.0036634819042162814
3559.0,0.003619686766589858
3558.0,0.003619686766589858
3557.0,0.0036634819042162814
3556.0,0.003707281458678491
3555.0,0.0037510854308679953
3554.0,0.0038387066319929275
3553.0,0.003926345514724705
3552.0,0.003970171588923321
3551.0,0.003970171588923321
3550.0,0.0038825238627120395
3549.0,0.003794893821675638
3548.0,0.0037510854308679953
3547.0,0.0038387066319929275
3546.0,0.0040578370074493275
3545.0,0.004277078004534696
3544.0,0.004408675747646695
3543.0,0.004452550524862486
3542.0,0.004408675747646695
3541.0,0.004320939488377862
3540.0,0.004233220950025984
3539.0,0.004189368323957332
3538.0,0.004233220950025984
3537.0,0.004320939488377862
3536.0,0.004452550524862486
3535.0,0.004540313378935901
3534.0,0.00458420145758498
3533.0,0.00458420145758498
3532.0,0.00458420145758498
3531.0,0.004540313378935901
3530.0,0.004540313378935901
3529.0,0.00458420145758498
3528.0,0.004628093971837721
3527.0,0.004715892310740433
3526.0,0.004803708402820517
3525.0,0.00489154225525934
3524.0,0.004935465843858511
3523.0,0.004935465843858511
3522.0,0.00489154225525934
3521.0,0.004803708402820517
3520.0,0.004759798137184523
3519.0,0.004759798137184523
3518.0,0.004803708402820517
3517.0,0.00489154225525934
3516.0,0.005023326350308999
3515.0,0.005155150446602086
3514.0,0.005199100705396198
3513.0,0.005199100705396198
3512.0,0.005111204635089406
3511.0,0.005111204635089406
3510.0,0.005111204635089406
3509.0,0.005243055412371911
3508.0,0.005330978174470591
3507.0,0.005330978174470591
3506.0,0.0052870145684298375
3505.0,0.0052870145684298375
3504.0,0.0052870145684298375
3503.0,0.00537494623139545
3502.0,0.005506877116487674
3501.0,0.005550862985963967
3500.0,0.005550862985963967
3499.0,0.005550862985963967
3498.0,0.005550862985963967
3497.0,0.005550862985963967
3496.0,0.005594853310833647
3495.0,0.005682847330363394
3494.0,0.005726851026829571
3493.0,0.005814871797682919
3492.0,0.00590291041179003
3491.0,0.005946936412324799
3490.0,0.005946936412324799
3489.0,0.005946936412324799
3488.0,0.00590291041179003
3487.0,0.00590291041179003
3486.0,0.005946936412324799
3485.0,0.005946936412324799
3484.0,0.00590291041179003
3483.0,0.00590291041179003
3482.0,0.00590291041179003
3481.0,0.006035001804881146
3480.0,0.00621118618129457
3479.0,0.006343371384537999
3478.0,0.006387442061109638
3477.0,0.006387442061109638
3476.0,0.006343371384537999
3475.0,0.006343371384537999
3474.0,0.006387442061109638
3473.0,0.006387442061109638
3472.0,0.006431517210272464
3471.0,0.006519680930003435
3470.0,0.00656376950238835
3469.0,0.006651960076740071
3468.0,0.006696062080525422
3467.0,0.006784279525863024
3466.0,0.006828394969235152
3465.0,0.006872514894289861
3464.0,0.006872514894289861
3463.0,0.006828394969235152
3462.0,0.006828394969235152
3461.0,0.006828394969235152
3460.0,0.006872514894289861
3459.0,0.006916639301937977
3458.0,0.00696076819309055
3457.0,0.007004901568658406
3456.0,0.007004901568658406
3455.0,0.00696076819309055
3454.0,0.00696076819309055
3453.0,0.007004901568658406
3452.0,0.007049039429553483
3451.0,0.007137328610972382
3450.0,0.007181479933320523
3449.0,0.007181479933320523
3448.0,0.007137328610972382
3447.0,0.007093181776687496
3446.0,0.007093181776687496
3445.0,0.007093181776687496
3444.0,0.007137328610972382
3443.0,0.007181479933320523
3442.0,0.007269796045857202
3441.0,0.007358130121602358
3440.0,0.0074464821678643656
3439.0,0.0074464821678643656
3438.0,0.007402303897961815
3437.0,0.007402303897961815
3436.0,0.0074464821678643656
3435.0,0.007534852191956709
3434.0,0.007667440952535687
3433.0,0.007711646202907652
3432.0,0.007755855953228474
3431.0,0.007800070204414977
3430.0,0.007888512213050314
3429.0,0.007932739972333236
3428.0,0.007976972236149349
3427.0,0.007888512213050314
3426.0,0.007844288957383316
3425.0,0.007800070204414977
3424.0,0.007844288957383316
3423.0,0.007976972236149349
3422.0,0.008109696063975047
3421.0,0.008153946355103248
3420.0,0.008153946355103248
3419.0,0.008109696063975047
3418.0,0.008065450281052211
3417.0,0.008021209005416363
3416.0,0.008065450281052211
3415.0,0.008153946355103248
3414.0,0.008286724286910463
3413.0,0.008375265465994541
3412.0,0.008419542825660153
3411.0,0.008463824699968647
3410.0,0.008463824699968647
3409.0,0.00850811108984062
3408.0,0.008463824699968647
3407.0,0.008419542825660153
3406.0,0.008375265465994541
3405.0,0.008330992620051436
3404.0,0.008330992620051436
3403.0,0.008375265465994541
3402.0,0.008419542825660153
3401.0,0.008463824699968647
3400.0,0.00850811108984062
3399.0,0.008463824699968647
3398.0,0.008419542825660153
3397.0,0.008375265465994541
3396.0,0.008419542825660153
3395.0,0.008463824699968647
3394.0,0.008596697419959609
3393.0,0.0087296108049002
3392.0,0.008818242332126802
3391.0,0.008862564879688284
3390.0,0.008862564879688284
3389.0,0.008818242332126802
3388.0,0.008773924307505121
3387.0,0.0087296108049002
3386.0,0.0087296108049002
3385.0,0.008773924307505121
3384.0,0.008773924307505121
3383.0,0.008773924307505121
3382.0,0.0087296108049002
3381.0,0.0087296108049002
3380.0,0.0087296108049002
3379.0,0.008773924307505121
3378.0,0.008818242332126802
3377.0,0.008862564879688284
3376.0,0.008906891951112605
3375.0,0.008951223547323472
3374.0,0.008906891951112605
3373.0,0.008951223547323472
3372.0,0.008951223547323472
3371.0,0.009039900317800775
3370.0,0.00908424549391551
3369.0,0.009128595198514056
3368.0,0.009172949432521227
3367.0,0.009217308196862062
3366.0,0.009261671492462709
3365.0,0.009261671492462709
3364.0,0.009261671492462709
3363.0,0.009306039320248427
3362.0,0.009350411681145587
3361.0,0.00939478857608056
3360.0,0.009439170005980158
3359.0,0.009483555971770974
3358.0,0.009439170005980158
3357.0,0.009439170005980158
3356.0,0.00939478857608056
3355.0,0.00939478857608056
3354.0,0.009439170005980158
3353.0,0.009527946474380489
3352.0,0.009616741093766423
3351.0,0.009705553871561357
3350.0,0.009705553871561357
3349.0,0.009705553871561357
3348.0,0.00966114521239847
3347.0,0.009616741093766423
3346.0,0.009616741093766423
3345.0,0.00966114521239847
3344.0,0.009705553871561357
3343.0,0.00974996707218323
3342.0,0.00974996707218323
3341.0,0.00974996707218323
3340.0,0.00974996707218323
3339.0,0.00974996707218323
3338.0,0.009838807101520963
3337.0,0.009927665307847056
3336.0,0.01001654169860089
3335.0,0.01001654169860089
3334.0,0.009972101229705377
3333.0,0.009927665307847056
3332.0,0.009883233932095559
3331.0,0.009838807101520963
3330.0,0.009838807101520963
3329.0,0.009883233932095559
3328.0,0.009883233932095559
3327.0,0.009927665307847056
3326.0,0.009927665307847056
3325.0,0.009972101229705377
3324.0,0.01001654169860089
3323.0,0.010060986715464404
3322.0,0.010105436281226954
3321.0,0.010105436281226954
3320.0,0.010060986715464404
3319.0,0.010060986715464404
3318.0,0.010060986715464404
3317.0,0.010105436281226954
3316.0,0.010149890396819572
3315.0,0.010149890396819572
3314.0,0.010149890396819572
3313.0,0.010149890396819572
3312.0,0.010105436281226954
3311.0,0.010105436281226954
3310.0,0.010060986715464404
3309.0,0.010060986715464404
3308.0,0.010105436281226954
3307.0,0.010105436281226954
3306.0,0.010149890396819572
3305.0,0.010194349063173958
3304.0,0.01023881228122181
3303.0,0.01023881228122181
3302.0,0.010283280051895272
3301.0,0.01023881228122181
3300.0,0.01023881228122181
3299.0,0.010283280051895272
3298.0,0.010283280051895272
3297.0,0.010327752376126709
3296.0,0.010327752376126709
3295.0,0.010283280051895272
3294.0,0.010327752376126709
3293.0,0.01037222925484893
3292.0,0.010416710688994968
3291.0,0.01046119667949763
3290.0,0.010505687227290839
3289.0,0.010550182333308289
3288.0,0.010505687227290839
3287.0,0.01046119667949763
3286.0,0.01037222925484893
3285.0,0.010327752376126709
3284.0,0.010327752376126709
3283.0,0.010327752376126709
3282.0,0.01037222925484893
3281.0,0.010416710688994968
3280.0,0.01046119667949763
3279.0,0.01046119667949763
3278.0,0.010416710688994968
3277.0,0.010416710688994968
3276.0,0.010416710688994968
3275.0,0.01046119667949763
3274.0,0.01046119667949763
3273.0,0.010505687227290839
3272.0,0.010505687227290839
3271.0,0.010505687227290839
3270.0,0.01046119667949763
3269.0,0.010416710688994968
3268.0,0.010327752376126709
3267.0,0.010283280051895272
3266.0,0.010283280051895272
3265.0,0.010327752376126709
3264.0,0.010327752376126709
3263.0,0.010327752376126709
3262.0,0.010327752376126709
3261.0,0.01037222925484893
3260.0,0.01037222925484893
3259.0,0.01037222925484893
3258.0,0.01037222925484893
3257.0,0.010327752376126709
3256.0,0.010327752376126709
3255.0,0.010283280051895272
3254.0,0.010283280051895272
3253.0,0.010194349063173958
3252.0,0.010105436281226954
3251.0,0.01001654169860089
3250.0,0.01001654169860089
3249.0,0.01001654169860089
3248.0,0.01001654169860089
3247.0,0.01001654169860089
3246.0,0.01001654169860089
3245.0,0.009972101229705377
3244.0,0.009927665307847056
3243.0,0.009883233932095559
3242.0,0.009794384815193347
3241.0,0.00974996707218323
3240.0,0.00974996707218323
3239.0,0.009794384815193347
3238.0,0.009794384815193347
3237.0,0.009794384815193347
3236.0,0.00974996707218323
3235.0,0.00974996707218323
3234.0,0.009705553871561357
3233.0,0.00966114521239847
3232.0,0.009616741093766423
3231.0,0.009616741093766423
3230.0,0.009572341514736404
3229.0,0.009572341514736404
3228.0,0.009616741093766423
3227.0,0.009616741093766423
3226.0,0.009616741093766423
3225.0,0.009616741093766423
3224.0,0.009572341514736404
3223.0,0.009483555971770974
3222.0,0.009483555971770974
3221.0,0.009483555971770974
3220.0,0.009572341514736404
3219.0,0.009616741093766423
3218.0,0.009616741093766423
3217.0,0.009572341514736404
3216.0,0.009483555971770974
3215.0,0.00939478857608056
3214.0,0.009350411681145587
3213.0,0.009306039320248427
3212.0,0.009350411681145587
3211.0,0.009350411681145587
3210.0,0.009350411681145587
3209.0,0.009350411681145587
3208.0,0.00939478857608056
3207.0,0.009439170005980158
3206.0,0.009439170005980158
3205.0,0.00939478857608056
3204.0,0.009306039320248427
3203.0,0.009217308196862062
3202.0,0.009172949432521227
3201.0,0.009172949432521227
3200.0,0.009217308196862062
3199.0,0.009261671492462709
3198.0,0.009306039320248427
3197.0,0.009261671492462709
3196.0,0.009261671492462709
3195.0,0.009217308196862062
3194.0,0.009128595198514056
3193.0,0.00908424549391551
3192.0,0.008995559669244813
3191.0,0.008995559669244813
3190.0,0.008995559669244813
3189.0,0.008995559669244813
3188.0,0.008951223547323472
3187.0,0.008862564879688284
3186.0,0.008773924307505121
3185.0,0.0087296108049002
3184.0,0.008685301823389224
3183.0,0.008685301823389224
3182.0,0.0087296108049002
3181.0,0.0087296108049002
3180.0,0.0087296108049002
3179.0,0.008773924307505121
3178.0,0.008773924307505121
3177.0,0.008773924307505121
3176.0,0.0087296108049002
3175.0,0.008685301823389224
3174.0,0.008640997362049818
3173.0,0.008640997362049818
3172.0,0.008596697419959609
3171.0,0.008552401996197112
3170.0,0.00850811108984062
3169.0,0.00850811108984062
3168.0,0.008552401996197112
3167.0,0.008552401996197112
3166.0,0.008552401996197112
3165.0,0.00850811108984062
3164.0,0.008463824699968647
3163.0,0.008375265465994541
3162.0,0.008375265465994541
3161.0,0.008330992620051436
3160.0,0.008330992620051436
3159.0,0.008286724286910463
3158.0,0.008242460465651913
3157.0,0.008198201155356077
3156.0,0.008153946355103248
3155.0,0.008109696063975047
3154.0,0.008109696063975047
3153.0,0.008109696063975047
3152.0,0.008109696063975047
3151.0,0.008109696063975047
3150.0,0.008109696063975047
3149.0,0.008109696063975047
3148.0,0.008065450281052211
3147.0,0.008021209005416363
3146.0,0.008021209005416363
3145.0,0.007976972236149349
3144.0,0.007976972236149349
3143.0,0.007976972236149349
3142.0,0.007932739972333236
3141.0,0.007888512213050314
3140.0,0.007888512213050314
3139.0,0.007932739972333236
3138.0,0.007888512213050314
3137.0,0.007888512213050314
3136.0,0.007800070204414977
3135.0,0.007755855953228474
3134.0,0.007711646202907652
3133.0,0.007667440952535687
3132.0,0.007667440952535687
3131.0,0.007667440952535687
3130.0,0.007667440952535687
3129.0,0.00762324020119709
3128.0,0.00762324020119709
3127.0,0.00762324020119709
3126.0,0.00762324020119709
3125.0,0.007667440952535687
3124.0,0.007667440952535687
3123.0,0.007711646202907652
3122.0,0.007711646202907652
3121.0,0.007755855953228474
3120.0,0.007755855953228474
3119.0,0.007755855953228474
3118.0,0.007711646202907652
3117.0,0.007667440952535687
3116.0,0.0075790439479759275
3115.0,0.007534852191956709
3114.0,0.0074464821678643656
3113.0,0.007358130121602358
3112.0,0.007313960837872058
3111.0,0.007269796045857202
3110.0,0.007313960837872058
3109.0,0.007358130121602358
3108.0,0.007402303897961815
3107.0,0.007402303897961815
3106.0,0.0074464821678643656
3105.0,0.0074464821678643656
3104.0,0.0074464821678643656
3103.0,0.0074464821678643656
3102.0,0.007402303897961815
3101.0,0.007358130121602358
3100.0,0.007313960837872058
3099.0,0.007269796045857202
3098.0,0.007225635744644521
3097.0,0.007225635744644521
3096.0,0.007225635744644521
3095.0,0.007225635744644521
3094.0,0.007225635744644521
3093.0,0.007225635744644521
3092.0,0.007181479933320523
3091.0,0.007225635744644521
3090.0,0.007225635744644521
3089.0,0.007269796045857202
3088.0,0.007269796045857202
3087.0,0.007225635744644521
3086.0,0.007225635744644521
3085.0,0.007225635744644521
3084.0,0.007269796045857202
3083.0,0.007313960837872058
3082.0,0.007313960837872058
3081.0,0.007313960837872058
3080.0,0.007313960837872058
3079.0,0.007313960837872058
3078.0,0.007269796045857202
3077.0,0.007225635744644521
3076.0,0.007181479933320523
3075.0,0.007093181776687496
3074.0,0.007049039429553483
3073.0,0.007004901568658406
3072.0,0.007004901568658406
3071.0,0.007004901568658406
3070.0,0.007004901568658406
3069.0,0.007004901568658406
3068.0,0.007004901568658406
3067.0,0.007049039429553483
3066.0,0.007049039429553483
3065.0,0.007049039429553483
3064.0,0.007004901568658406
3063.0,0.006916639301937977
3062.0,0.006872514894289861
3061.0,0.006872514894289861
3060.0,0.006872514894289861
3059.0,0.006872514894289861
3058.0,0.006916639301937977
3057.0,0.00696076819309055
3056.0,0.00696076819309055
3055.0,0.006872514894289861
3054.0,0.006828394969235152
3053.0,0.006740168563263094
3052.0,0.006696062080525422
3051.0,0.006651960076740071
3050.0,0.006607862550997545
3049.0,0.00656376950238835
3048.0,0.006519680930003435
3047.0,0.006475596832934416
3046.0,0.006475596832934416
3045.0,0.006431517210272464
3044.0,0.006431517210272464
3043.0,0.006387442061109638
3042.0,0.006387442061109638
3041.0,0.006343371384537999
3040.0,0.006343371384537999
3039.0,0.006299305179649828
3038.0,0.00625524344553785
3037.0,0.00621118618129457
3036.0,0.006167133386013823
3035.0,0.006167133386013823
3034.0,0.00612308505878878
3033.0,0.006079041198713275
3032.0,0.006035001804881146
3031.0,0.005990966876386672
3030.0,0.00590291041179003
3029.0,0.00577085918230158
3028.0,0.005682847330363394
3027.0,0.005594853310833647
3026.0,0.005506877116487674
3025.0,0.005462895701502157
3024.0,0.00537494623139545
3023.0,0.0052870145684298375
3022.0,0.005155150446602086
3021.0,0.005067263269958211
3020.0,0.004979393875242044
3019.0,0.004935465843858511
3018.0,0.00489154225525934
3017.0,0.00484762310854614
3016.0,0.004803708402820517
3015.0,0.004759798137184523
3014.0,0.004671990922590297
3013.0,0.004540313378935901
3012.0,0.0043648054024501
3011.0,0.004189368323957332
3010.0,0.003970171588923321
3009.0,0.003794893821675638
3008.0,0.0036634819042162814
3007.0,0.0035758960449088217
3006.0,0.003488327845821315
3005.0,0.0034007772998332353
3004.0,0.0033132443998284966
3003.0,0.0032257291386954545
3002.0,0.0031382315093266833
3001.0,0.0030944893043338695
3000.0,0.003050751504618754
2999.0,0.0029632891174733444
2998.0,0.0028758443407954637
2997.0,0.0027884171674950053
2996.0,0.0026573093983774942
2995.0,0.002569926202528716
2994.0,0.002482560585275184
2993.0,0.002395212539545666
2992.0,0.0022205691343961664
2991.0,0.0020459959305969555
2990.0,0.0018278780605593958
2989.0,0.0016970599014589638
2988.0,0.0016534626036355249
2987.0,0.0016970599014589638
2986.0,0.0017842676290416026
2985.0,0.0017842676290416026
2984.0,0.0018278780605593958
2983.0,0.0018278780605593958
2982.0,0.0018714928717336043
2981.0,0.0019587356365717845
2980.0,0.0020459959305969555
2979.0,0.0021332737608552588
2978.0,0.0021769192542746563
2977.0,0.0021769192542746563
2976.0,0.0021769192542746563
2975.0,0.0021769192542746563
2974.0,0.0021769192542746563
2973.0,0.0021332737608552588
2972.0,0.0021332737608552588
2971.0,0.0021769192542746563
2970.0,0.0022205691343961664
2969.0,0.0023078820582733695
2968.0,0.002395212539545666
2967.0,0.002482560585275184
2966.0,0.002613615602686581
2965.0,0.0027447101798967477
2964.0,0.0028758443407954637
2963.0,0.0029632891174733444
2962.0,0.0030070181092942683
2961.0,0.003050751504618754
2960.0,0.003050751504618754
2959.0,0.003050751504618754
2958.0,0.003050751504618754
2957.0,0.0030944893043338695
2956.0,0.0031819781204844855
2955.0,0.0033132443998284966
2954.0,0.0034445503666347133
2953.0,0.0035321097382827737
2952.0,0.003619686766589858
2951.0,0.003707281458678491
2950.0,0.0038387066319929275
2949.0,0.003926345514724705
2948.0,0.003970171588923321
2947.0,0.00401400208620073
2946.0,0.00401400208620073
2945.0,0.00401400208620073
2944.0,0.00401400208620073
2943.0,0.00401400208620073
2942.0,0.00401400208620073
2941.0,0.0040578370074493275
2940.0,0.004101676353562844
2939.0,0.004101676353562844
2938.0,0.004145520125434121
2937.0,0.004145520125434121
2936.0,0.004189368323957332
2935.0,0.004189368323957332
2934.0,0.004233220950025984
2933.0,0.004320939488377862
2932.0,0.0043648054024501
2931.0,0.004408675747646695
2930.0,0.0044964297349936455
2929.0,0.004540313378935901
2928.0,0.00458420145758498
2927.0,0.00458420145758498
2926.0,0.004540313378935901
2925.0,0.0044964297349936455
2924.0,0.004452550524862486
2923.0,0.004408675747646695
2922.0,0.0043648054024501
2921.0,0.004277078004534696
2920.0,0.004233220950025984
2919.0,0.004233220950025984
2918.0,0.004233220950025984
2917.0,0.004233220950025984
2916.0,0.004189368323957332
2915.0,0.004101676353562844
2914.0,0.003970171588923321
2913.0,0.0038825238627120395
2912.0,0.0037510854308679953
2911.0,0.003619686766589858
2910.0,0.0035758960449088217
2909.0,0.0035321097382827737
2908.0,0.003488327845821315
2907.0,0.0034445503666347133
2906.0,0.0034007772998332353
2905.0,0.0033132443998284966
2904.0,0.0032257291386954545
2903.0,0.0030944893043338695
2902.0,0.0029632891174733444
2901.0,0.0028321285541661467
2900.0,0.0028321285541661467
2899.0,0.0029195645282691363
2898.0,0.0030070181092942683
2897.0,0.0030944893043338695
2896.0,0.0030944893043338695
2895.0,0.0030944893043338695
2894.0,0.003050751504618754
2893.0,0.0030944893043338695
2892.0,0.0030944893043338695
2891.0,0.0030944893043338695
2890.0,0.0030944893043338695
2889.0,0.003050751504618754
2888.0,0.0030070181092942683
2887.0,0.0030070181092942683
2886.0,0.003050751504618754
2885.0,0.0030944893043338695
2884.0,0.0031382315093266833
2883.0,0.0031382315093266833
2882.0,0.0031819781204844855
2881.0,0.0031819781204844855
2880.0,0.0032694845648473247
2879.0,0.0033570086445275926
2878.0,0.0034445503666347133
2877.0,0.0035321097382827737
2876.0,0.0035758960449088217
2875.0,0.003619686766589858
2874.0,0.003619686766589858
2873.0,0.0036634819042162814
2872.0,0.0036634819042162814
2871.0,0.0036634819042162814
2870.0,0.0036634819042162814
2869.0,0.0036634819042162814
2868.0,0.0036634819042162814
2867.0,0.003707281458678491
2866.0,0.003707281458678491
2865.0,0.0037510854308679953
2864.0,0.003794893821675638
2863.0,0.0038387066319929275
2862.0,0.003970171588923321
2861.0,0.004101676353562844
2860.0,0.004233220950025984
2859.0,0.0043648054024501
2858.0,0.004408675747646695
2857.0,0.0044964297349936455
2856.0,0.004540313378935901
2855.0,0.004628093971837721
2854.0,0.004715892310740433
2853.0,0.004759798137184523
2852.0,0.004803708402820517
2851.0,0.00484762310854614
2850.0,0.00484762310854614
2849.0,0.004803708402820517
2848.0,0.004715892310740433
2847.0,0.004671990922590297
2846.0,0.004628093971837721
2845.0,0.004628093971837721
2844.0,0.00458420145758498
2843.0,0.00458420145758498
2842.0,0.004628093971837721
2841.0,0.004628093971837721
2840.0,0.004628093971837721
2839.0,0.00458420145758498
2838.0,0.004540313378935901
2837.0,0.0044964297349936455
2836.0,0.0044964297349936455
2835.0,0.004540313378935901
2834.0,0.00458420145758498
2833.0,0.004628093971837721
2832.0,0.004628093971837721
2831.0,0.00458420145758498
2830.0,0.004540313378935901
2829.0,0.0044964297349936455
2828.0,0.004452550524862486
2827.0,0.004408675747646695
2826.0,0.004408675747646695
2825.0,0.0043648054024501
2824.0,0.004320939488377862
2823.0,0.004233220950025984
2822.0,0.004189368323957332
2821.0,0.004145520125434121
2820.0,0.004189368323957332
2819.0,0.004233220950025984
2818.0,0.004277078004534696
2817.0,0.004320939488377862
2816.0,0.004320939488377862
2815.0,0.004320939488377862
2814.0,0.004277078004534696
2813.0,0.004233220950025984
2812.0,0.004189368323957332
2811.0,0.004189368323957332
2810.0,0.004189368323957332
2809.0,0.004145520125434121
2808.0,0.004145520125434121
2807.0,0.004145520125434121
2806.0,0.004145520125434121
2805.0,0.004189368323957332
2804.0,0.004189368323957332
2803.0,0.004189368323957332
2802.0,0.004189368323957332
2801.0,0.004189368323957332
2800.0,0.004145520125434121
2799.0,0.004101676353562844
2798.0,0.0040578370074493275
2797.0,0.0040578370074493275
2796.0,0.004101676353562844
2795.0,0.004145520125434121
2794.0,0.004233220950025984
2793.0,0.004277078004534696
2792.0,0.004277078004534696
2791.0,0.004233220950025984
2790.0,0.004145520125434121
2789.0,0.0040578370074493275
2788.0,0.00401400208620073
2787.0,0.003970171588923321
2786.0,0.003970171588923321
2785.0,0.003970171588923321
2784.0,0.003970171588923321
2783.0,0.003970171588923321
2782.0,0.003970171588923321
2781.0,0.003970171588923321
2780.0,0.003970171588923321
2779.0,0.00401400208620073
2778.0,0.00401400208620073
2777.0,0.00401400208620073
2776.0,0.00401400208620073
2775.0,0.003970171588923321
2774.0,0.003926345514724705
2773.0,0.003926345514724705
2772.0,0.0038825238627120395
2771.0,0.003926345514724705
2770.0,0.003926345514724705
2769.0,0.003926345514724705
2768.0,0.003970171588923321
2767.0,0.003926345514724705
2766.0,0.003926345514724705
2765.0,0.0038825238627120395
2764.0,0.0038387066319929275
2763.0,0.0038387066319929275
2762.0,0.0038387066319929275
2761.0,0.0038387066319929275
2760.0,0.0038387066319929275
2759.0,0.0038825238627120395
2758.0,0.003926345514724705
2757.0,0.0038825238627120395
2756.0,0.0038387066319929275
2755.0,0.003794893821675638
2754.0,0.0037510854308679953
2753.0,0.0037510854308679953
2752.0,0.0037510854308679953
2751.0,0.003794893821675638
2750.0,0.003794893821675638
2749.0,0.003794893821675638
2748.0,0.003794893821675638
2747.0,0.003794893821675638
2746.0,0.0037510854308679953
2745.0,0.003794893821675638
2744.0,0.0037510854308679953
2743.0,0.0037510854308679953
2742.0,0.003707281458678491
2741.0,0.0036634819042162814
2740.0,0.0036634819042162814
2739.0,0.0036634819042162814
2738.0,0.003707281458678491
2737.0,0.003794893821675638
2736.0,0.0038387066319929275
2735.0,0.0038387066319929275
2734.0,0.0038387066319929275
2733.0,0.003794893821675638
2732.0,0.0037510854308679953
2731.0,0.0036634819042162814
2730.0,0.003619686766589858
2729.0,0.0035758960449088217
2728.0,0.0035758960449088217
2727.0,0.0035758960449088217
2726.0,0.0035758960449088217
2725.0,0.0035758960449088217
2724.0,0.003619686766589858
2723.0,0.0036634819042162814
2722.0,0.003707281458678491
2721.0,0.003707281458678491
2720.0,0.0036634819042162814
2719.0,0.0036634819042162814
2718.0,0.0036634819042162814
2717.0,0.0036634819042162814
2716.0,0.0036634819042162814
2715.0,0.0036634819042162814
2714.0,0.0036634819042162814
2713.0,0.0036634819042162814
2712.0,0.0036634819042162814
2711.0,0.0036634819042162814
2710.0,0.0036634819042162814
2709.0,0.003619686766589858
2708.0,0.0035758960449088217
2707.0,0.0035758960449088217
2706.0,0.0035758960449088217
2705.0,0.0035758960449088217
2704.0,0.003619686766589858
2703.0,0.003619686766589858
2702.0,0.003619686766589858
2701.0,0.0036634819042162814
2700.0,0.003619686766589858
2699.0,0.0035758960449088217
2698.0,0.0035758960449088217
2697.0,0.0035758960449088217
2696.0,0.0035758960449088217
2695.0,0.0035758960449088217
2694.0,0.0035321097382827737
2693.0,0.0035321097382827737
2692.0,0.0035321097382827737
2691.0,0.0035321097382827737
2690.0,0.0035321097382827737
2689.0,0.003488327845821315
2688.0,0.0034445503666347133
2687.0,0.0034445503666347133
2686.0,0.0034445503666347133
2685.0,0.003488327845821315
2684.0,0.003488327845821315
2683.0,0.003488327845821315
2682.0,0.003488327845821315
2681.0,0.0034445503666347133
2680.0,0.0034007772998332353
2679.0,0.0034007772998332353
2678.0,0.0034007772998332353
2677.0,0.0034445503666347133
2676.0,0.0034445503666347133
2675.0,0.003488327845821315
2674.0,0.003488327845821315
2673.0,0.0034445503666347133
2672.0,0.0034445503666347133
2671.0,0.0034445503666347133
2670.0,0.0034445503666347133
2669.0,0.003488327845821315
2668.0,0.0035321097382827737
2667.0,0.0035321097382827737
2666.0,0.0035321097382827737
2665.0,0.0035321097382827737
2664.0,0.003488327845821315
2663.0,0.003488327845821315
2662.0,0.003488327845821315
2661.0,0.0034445503666347133
2660.0,0.0034445503666347133
2659.0,0.0034007772998332353
2658.0,0.0033570086445275926
2657.0,0.0032694845648473247
2656.0,0.0032694845648473247
2655.0,0.0032694845648473247
2654.0,0.0033132443998284966
2653.0,0.0033132443998284966
2652.0,0.0032694845648473247
2651.0,0.0032694845648473247
2650.0,0.0032694845648473247
2649.0,0.0032694845648473247
2648.0,0.0033132443998284966
2647.0,0.0033570086445275926
2646.0,0.0034007772998332353
2645.0,0.0034007772998332353
2644.0,0.0033570086445275926
2643.0,0.0033132443998284966
2642.0,0.0033132443998284966
2641.0,0.0033570086445275926
2640.0,0.0033570086445275926
2639.0,0.0033570086445275926
2638.0,0.0032694845648473247
2637.0,0.0032257291386954545
2636.0,0.0031819781204844855
2635.0,0.0032257291386954545
2634.0,0.0032694845648473247
2633.0,0.0032694845648473247
2632.0,0.0032694845648473247
2631.0,0.0032694845648473247
2630.0,0.0032257291386954545
2629.0,0.0032257291386954545
2628.0,0.0032257291386954545
2627.0,0.0031819781204844855
2626.0,0.0031819781204844855
2625.0,0.0031819781204844855
2624.0,0.0031382315093266833
2623.0,0.0031382315093266833
2622.0,0.0031819781204844855
2621.0,0.0032257291386954545
2620.0,0.0032694845648473247
2619.0,0.0033132443998284966
2618.0,0.0033132443998284966
2617.0,0.0033132443998284966
2616.0,0.0032694845648473247
2615.0,0.0032257291386954545
2614.0,0.0031819781204844855
2613.0,0.0031382315093266833
2612.0,0.0030944893043338695
2611.0,0.003050751504618754
2610.0,0.0030944893043338695
2609.0,0.0030944893043338695
2608.0,0.0031382315093266833
2607.0,0.0031382315093266833
2606.0,0.0031382315093266833
2605.0,0.0031382315093266833
2604.0,0.0030944893043338695
2603.0,0.0030944893043338695
2602.0,0.0030944893043338695
2601.0,0.003050751504618754
2600.0,0.0030070181092942683
2599.0,0.0029632891174733444
2598.0,0.0030070181092942683
2597.0,0.003050751504618754
2596.0,0.0031382315093266833
2595.0,0.0031382315093266833
2594.0,0.0031819781204844855
2593.0,0.0031819781204844855
2592.0,0.0031819781204844855
2591.0,0.0031819781204844855
2590.0,0.0032257291386954545
2589.0,0.0032257291386954545
2588.0,0.0032257291386954545
2587.0,0.0032257291386954545
2586.0,0.0031382315093266833
2585.0,0.0030944893043338695
2584.0,0.003050751504618754
2583.0,0.0030070181092942683
2582.0,0.0030070181092942683
2581.0,0.0030070181092942683
2580.0,0.0030070181092942683
2579.0,0.0030070181092942683
2578.0,0.0030070181092942683
2577.0,0.0030070181092942683
2576.0,0.0030070181092942683
2575.0,0.0030070181092942683
2574.0,0.0030070181092942683
2573.0,0.0030070181092942683
2572.0,0.0030070181092942683
2571.0,0.0030070181092942683
2570.0,0.0029632891174733444
2569.0,0.0029632891174733444
2568.0,0.0029632891174733444
2567.0,0.0029632891174733444
2566.0,0.0029632891174733444
2565.0,0.0029632891174733444
2564.0,0.0029632891174733444
2563.0,0.0030070181092942683
2562.0,0.003050751504618754
2561.0,0.003050751504618754
2560.0,0.003050751504618754
2559.0,0.003050751504618754
2558.0,0.003050751504618754
2557.0,0.003050751504618754
2556.0,0.0030070181092942683
2555.0,0.0029632891174733444
2554.0,0.0029195645282691363
2553.0,0.0029195645282691363
2552.0,0.0029195645282691363
2551.0,0.0029195645282691363
2550.0,0.0029195645282691363
2549.0,0.0029195645282691363
2548.0,0.0028758443407954637
2547.0,0.0027884171674950053
2546.0,0.0027884171674950053
2545.0,0.0027884171674950053
2544.0,0.0028321285541661467
2543.0,0.0028758443407954637
2542.0,0.0029195645282691363
2541.0,0.0029195645282691363
2540.0,0.0029632891174733444
2539.0,0.0029632891174733444
2538.0,0.0030070181092942683
2537.0,0.0029632891174733444
2536.0,0.0029632891174733444
2535.0,0.0029195645282691363
2534.0,0.0028758443407954637
2533.0,0.0028758443407954637
2532.0,0.0028758443407954637
2531.0,0.0029195645282691363
2530.0,0.0029632891174733444
2529.0,0.0029632891174733444
2528.0,0.0030070181092942683
2527.0,0.0029632891174733444
2526.0,0.0029632891174733444
2525.0,0.0029195645282691363
2524.0,0.0028758443407954637
2523.0,0.0028758443407954637
2522.0,0.0028758443407954637
2521.0,0.0028758443407954637
2520.0,0.0028321285541661467
2519.0,0.0027884171674950053
2518.0,0.0027447101798967477
2517.0,0.0027447101798967477
2516.0,0.0027884171674950053
2515.0,0.0028321285541661467
2514.0,0.0028758443407954637
2513.0,0.0028758443407954637
2512.0,0.0028758443407954637
2511.0,0.0028321285541661467
2510.0,0.0027447101798967477
2509.0,0.002701007590486082
2508.0,0.002701007590486082
2507.0,0.002701007590486082
2506.0,0.0027447101798967477
2505.0,0.0027884171674950053
2504.0,0.0027884171674950053
2503.0,0.0027884171674950053
2502.0,0.0027884171674950053
2501.0,0.0027884171674950053
2500.0,0.0027447101798967477
2499.0,0.002701007590486082
2498.0,0.0026573093983774942
2497.0,0.002613615602686581
2496.0,0.0026573093983774942
2495.0,0.0026573093983774942
2494.0,0.002701007590486082
2493.0,0.002701007590486082
2492.0,0.002701007590486082
2491.0,0.002701007590486082
2490.0,0.0027447101798967477
2489.0,0.0027884171674950053
2488.0,0.0027884171674950053
2487.0,0.0027884171674950053
2486.0,0.0027447101798967477
2485.0,0.002701007590486082
2484.0,0.002701007590486082
2483.0,0.0026573093983774942
2482.0,0.0026573093983774942
2481.0,0.002701007590486082
2480.0,0.002701007590486082
2479.0,0.0027447101798967477
2478.0,0.0027447101798967477
2477.0,0.002701007590486082
2476.0,0.002701007590486082
2475.0,0.002701007590486082
2474.0,0.002701007590486082
2473.0,0.002701007590486082
2472.0,0.0026573093983774942
2471.0,0.0026573093983774942
2470.0,0.002613615602686581
2469.0,0.002613615602686581
2468.0,0.002613615602686581
2467.0,0.0026573093983774942
2466.0,0.002701007590486082
2465.0,0.0027447101798967477
2464.0,0.0027447101798967477
2463.0,0.0027447101798967477
2462.0,0.002701007590486082
2461.0,0.002701007590486082
2460.0,0.002701007590486082
2459.0,0.002701007590486082
2458.0,0.002701007590486082
2457.0,0.0026573093983774942
2456.0,0.0026573093983774942
2455.0,0.002613615602686581
2454.0,0.002569926202528716
2453.0,0.002569926202528716
2452.0,0.002569926202528716
2451.0,0.0025262411970197185
2450.0,0.002569926202528716
2449.0,0.002613615602686581
2448.0,0.002613615602686581
2447.0,0.002569926202528716
2446.0,0.002569926202528716
2445.0,0.002569926202528716
2444.0,0.002569926202528716
2443.0,0.002613615602686581
2442.0,0.002613615602686581
2441.0,0.002613615602686581
2440.0,0.002613615602686581
2439.0,0.002569926202528716
2438.0,0.0025262411970197185
2437.0,0.002482560585275184
2436.0,0.002482560585275184
2435.0,0.002482560585275184
2434.0,0.002569926202528716
2433.0,0.002569926202528716
2432.0,0.002613615602686581
2431.0,0.002569926202528716
2430.0,0.002569926202528716
2429.0,0.002569926202528716
2428.0,0.002569926202528716
2427.0,0.002613615602686581
2426.0,0.002613615602686581
2425.0,0.002613615602686581
2424.0,0.002569926202528716
2423.0,0.0025262411970197185
2422.0,0.002482560585275184
2421.0,0.0024388843664115978
2420.0,0.0024388843664115978
2419.0,0.0024388843664115978
2418.0,0.0024388843664115978
2417.0,0.0024388843664115978
2416.0,0.0024388843664115978
2415.0,0.002395212539545666
2414.0,0.002395212539545666
2413.0,0.002395212539545666
2412.0,0.002351545103793873
2411.0,0.002351545103793873
2410.0,0.002351545103793873
2409.0,0.002351545103793873
2408.0,0.002395212539545666
2407.0,0.0024388843664115978
2406.0,0.0024388843664115978
2405.0,0.0024388843664115978
2404.0,0.0024388843664115978
2403.0,0.002395212539545666
2402.0,0.002395212539545666
2401.0,0.002395212539545666
2400.0,0.0024388843664115978
2399.0,0.002482560585275184
2398.0,0.002482560585275184
2397.0,0.0024388843664115978
2396.0,0.002395212539545666
2395.0,0.002395212539545666
2394.0,0.002395212539545666
2393.0,0.002395212539545666
2392.0,0.002395212539545666
2391.0,0.0024388843664115978
2390.0,0.0024388843664115978
2389.0,0.0024388843664115978
2388.0,0.0024388843664115978
2387.0,0.0024388843664115978
2386.0,0.002395212539545666
2385.0,0.002351545103793873
2384.0,0.0023078820582733695
2383.0,0.0021769192542746563
2382.0,0.002089632653256679
2381.0,0.0020459959305969555
2380.0,0.0020459959305969555
2379.0,0.002089632653256679
2378.0,0.0021332737608552588
2377.0,0.0021769192542746563
2376.0,0.0022205691343961664
2375.0,0.0022205691343961664
2374.0,0.0021769192542746563
2373.0,0.0021332737608552588
2372.0,0.002089632653256679
2371.0,0.0020023635919956817
2370.0,0.0018714928717336043
2369.0,0.0018278780605593958
2368.0,0.0018714928717336043
2367.0,0.0019587356365717845
2366.0,0.0020023635919956817
2365.0,0.0020023635919956817
2364.0,0.0019587356365717845
2363.0,0.0018278780605593958
2362.0,0.001609869681952425
2361.0,0.0014791171649619628
2360.0,0.0015226969634936083
2359.0,0.0017842676290416026
2358.0,0.002089632653256679
2357.0,0.0023078820582733695
2356.0,0.0023078820582733695
2355.0,0.002089632653256679
2354.0,0.0018278780605593958
2353.0,0.0017406615763013722
2352.0,0.0017406615763013722
2351.0,0.0017842676290416026
2350.0,0.0018278780605593958
2349.0,0.0018278780605593958
2348.0,0.0018714928717336043
2347.0,0.0018714928717336043
2346.0,0.0018714928717336043
2345.0,0.0018714928717336043
2344.0,0.0018278780605593958
2343.0,0.0017842676290416026
2342.0,0.0017842676290416026
2341.0,0.0018714928717336043
2340.0,0.0020023635919956817
2339.0,0.0021332737608552588
2338.0,0.0021769192542746563
2337.0,0.002089632653256679
2336.0,0.0020023635919956817
2335.0,0.001915112063444413
2334.0,0.001915112063444413
2333.0,0.0018714928717336043
2332.0,0.0018714928717336043
2331.0,0.0018278780605593958
2330.0,0.0018278780605593958
2329.0,0.0018278780605593958
2328.0,0.0018714928717336043
2327.0,0.001915112063444413
2326.0,0.001915112063444413
2325.0,0.001915112063444413
2324.0,0.0019587356365717845
2323.0,0.0019587356365717845
2322.0,0.001915112063444413
2321.0,0.001915112063444413
2320.0,0.0019587356365717845
2319.0,0.0020459959305969555
2318.0,0.0021332737608552588
2317.0,0.0022205691343961664
2316.0,0.0022642234021015284
2315.0,0.0023078820582733695
2314.0,0.0022642234021015284
2313.0,0.0022205691343961664
2312.0,0.002089632653256679
2311.0,0.0019587356365717845
2310.0,0.001915112063444413
2309.0,0.0018714928717336043
2308.0,0.0019587356365717845
2307.0,0.0020023635919956817
2306.0,0.0020459959305969555
2305.0,0.002089632653256679
2304.0,0.002089632653256679
2303.0,0.002089632653256679
2302.0,0.0021332737608552588
2301.0,0.0021332737608552588
2300.0,0.0021769192542746563
2299.0,0.0021769192542746563
2298.0,0.0022205691343961664
2297.0,0.0022205691343961664
2296.0,0.0022205691343961664
2295.0,0.0022205691343961664
2294.0,0.0022205691343961664
2293.0,0.0022205691343961664
2292.0,0.0022205691343961664
2291.0,0.0022642234021015284
2290.0,0.0022642234021015284
2289.0,0.0023078820582733695
2288.0,0.0022642234021015284
2287.0,0.0022642234021015284
2286.0,0.0022205691343961664
2285.0,0.0021769192542746563
2284.0,0.0021332737608552588
2283.0,0.002089632653256679
2282.0,0.002089632653256679
2281.0,0.002089632653256679
2280.0,0.0021332737608552588
2279.0,0.0021769192542746563
2278.0,0.0022205691343961664
2277.0,0.0022642234021015284
2276.0,0.0023078820582733695
2275.0,0.0023078820582733695
2274.0,0.0022642234021015284
2273.0,0.0022642234021015284
2272.0,0.0022205691343961664
2271.0,0.0022205691343961664
2270.0,0.0022205691343961664
2269.0,0.0022205691343961664
2268.0,0.0022205691343961664
2267.0,0.0022205691343961664
2266.0,0.0022205691343961664
2265.0,0.0021769192542746563
2264.0,0.0021769192542746563
2263.0,0.0021769192542746563
2262.0,0.0022205691343961664
2261.0,0.0022642234021015284
2260.0,0.0022642234021015284
2259.0,0.0022642234021015284
2258.0,0.0022205691343961664
2257.0,0.0021769192542746563
2256.0,0.0021332737608552588
2255.0,0.002089632653256679
2254.0,0.002089632653256679
2253.0,0.002089632653256679
2252.0,0.0021332737608552588
2251.0,0.0021332737608552588
2250.0,0.0021769192542746563
2249.0,0.0021769192542746563
2248.0,0.0022205691343961664
2247.0,0.0022205691343961664
2246.0,0.0022205691343961664
2245.0,0.0022205691343961664
2244.0,0.0022642234021015284
2243.0,0.0022642234021015284
2242.0,0.0022642234021015284
2241.0,0.0022205691343961664
2240.0,0.0022205691343961664
2239.0,0.0021769192542746563
2238.0,0.0021769192542746563
2237.0,0.0021769192542746563
2236.0,0.0022205691343961664
2235.0,0.0022642234021015284
2234.0,0.0022642234021015284
2233.0,0.0022205691343961664
2232.0,0.0021769192542746563
2231.0,0.0021769192542746563
2230.0,0.0021332737608552588
2229.0,0.0021769192542746563
2228.0,0.0022205691343961664
2227.0,0.0022205691343961664
2226.0,0.0022642234021015284
2225.0,0.0022205691343961664
2224.0,0.0022205691343961664
2223.0,0.0022205691343961664
2222.0,0.0022205691343961664
2221.0,0.0022642234021015284
2220.0,0.0022205691343961664
2219.0,0.0021769192542746563
2218.0,0.0021332737608552588
2217.0,0.002089632653256679
2216.0,0.0020459959305969555
2215.0,0.0020459959305969555
2214.0,0.0020459959305969555
2213.0,0.002089632653256679
2212.0,0.002089632653256679
2211.0,0.0021332737608552588
2210.0,0.0021769192542746563
2209.0,0.0022205691343961664
2208.0,0.0022205691343961664
2207.0,0.0021769192542746563
2206.0,0.0021769192542746563
2205.0,0.0021769192542746563
2204.0,0.0021769192542746563
2203.0,0.0022205691343961664
2202.0,0.0021769192542746563
2201.0,0.0021769192542746563
2200.0,0.0021769192542746563
2199.0,0.0022205691343961664
2198.0,0.0022205691343961664
2197.0,0.0021769192542746563
2196.0,0.0021332737608552588
2195.0,0.002089632653256679
2194.0,0.002089632653256679
2193.0,0.0021332737608552588
2192.0,0.0021769192542746563
2191.0,0.0022205691343961664
2190.0,0.0022642234021015284
2189.0,0.0022642234021015284
2188.0,0.0022205691343961664
2187.0,0.0021769192542746563
2186.0,0.0021332737608552588
2185.0,0.0021332737608552588
2184.0,0.0021769192542746563
2183.0,0.0021769192542746563
2182.0,0.0021332737608552588
2181.0,0.0021332737608552588
2180.0,0.002089632653256679
2179.0,0.0021332737608552588
2178.0,0.0021332737608552588
2177.0,0.0021769192542746563
2176.0,0.0021769192542746563
2175.0,0.0021332737608552588
2174.0,0.002089632653256679
2173.0,0.0020459959305969555
2172.0,0.0020459959305969555
2171.0,0.0020459959305969555
2170.0,0.0020023635919956817
2169.0,0.0020023635919956817
2168.0,0.0020023635919956817
2167.0,0.0020459959305969555
2166.0,0.0020459959305969555
2165.0,0.0020459959305969555
2164.0,0.0020459959305969555
2163.0,0.0020459959305969555
2162.0,0.002089632653256679
2161.0,0.002089632653256679
2160.0,0.002089632653256679
2159.0,0.0020459959305969555
2158.0,0.0020023635919956817
2157.0,0.0020023635919956817
2156.0,0.0020459959305969555
2155.0,0.0020459959305969555
2154.0,0.0020459959305969555
2153.0,0.0020459959305969555
2152.0,0.0020459959305969555
2151.0,0.0020023635919956817
2150.0,0.0020023635919956817
2149.0,0.0020023635919956817
2148.0,0.0020023635919956817
2147.0,0.0020459959305969555
2146.0,0.002089632653256679
2145.0,0.002089632653256679
2144.0,0.002089632653256679
2143.0,0.002089632653256679
2142.0,0.002089632653256679
2141.0,0.002089632653256679
2140.0,0.0020459959305969555
2139.0,0.0020459959305969555
2138.0,0.0020023635919956817
2137.0,0.0020023635919956817
2136.0,0.0020023635919956817
2135.0,0.0019587356365717845
2134.0,0.001915112063444413
2133.0,0.001915112063444413
2132.0,0.001915112063444413
2131.0,0.0019587356365717845
2130.0,0.0019587356365717845
2129.0,0.0020023635919956817
2128.0,0.0020459959305969555
2127.0,0.0020459959305969555
2126.0,0.0020459959305969555
2125.0,0.0020459959305969555
2124.0,0.0020459959305969555
2123.0,0.0020023635919956817
2122.0,0.0020023635919956817
2121.0,0.0019587356365717845
2120.0,0.001915112063444413
2119.0,0.0018714928717336043
2118.0,0.0018278780605593958
2117.0,0.0018714928717336043
2116.0,0.001915112063444413
2115.0,0.0020023635919956817
2114.0,0.0020023635919956817
2113.0,0.0020459959305969555
2112.0,0.0020459959305969555
2111.0,0.0020459959305969555
2110.0,0.0020459959305969555
2109.0,0.0020459959305969555
2108.0,0.0020459959305969555
2107.0,0.0020023635919956817
2106.0,0.0019587356365717845
2105.0,0.0019587356365717845
2104.0,0.001915112063444413
2103.0,0.0018714928717336043
2102.0,0.0018714928717336043
2101.0,0.0018714928717336043
2100.0,0.0018714928717336043
2099.0,0.0018714928717336043
2098.0,0.001915112063444413
2097.0,0.001915112063444413
2096.0,0.0019587356365717845
2095.0,0.0019587356365717845
2094.0,0.0019587356365717845
2093.0,0.0019587356365717845
2092.0,0.0019587356365717845
2091.0,0.0019587356365717845
2090.0,0.0019587356365717845
2089.0,0.0019587356365717845
2088.0,0.0019587356365717845
2087.0,0.0019587356365717845
2086.0,0.0019587356365717845
2085.0,0.0019587356365717845
2084.0,0.0019587356365717845
2083.0,0.0019587356365717845
2082.0,0.0019587356365717845
2081.0,0.001915112063444413
2080.0,0.001915112063444413
2079.0,0.001915112063444413
2078.0,0.001915112063444413
2077.0,0.0019587356365717845
2076.0,0.0019587356365717845
2075.0,0.0020023635919956817
2074.0,0.0020023635919956817
2073.0,0.0020023635919956817
2072.0,0.0020023635919956817
2071.0,0.0019587356365717845
2070.0,0.0019587356365717845
2069.0,0.0020023635919956817
2068.0,0.0020023635919956817
2067.0,0.0020023635919956817
2066.0,0.0019587356365717845
2065.0,0.0019587356365717845
2064.0,0.0019587356365717845
2063.0,0.0019587356365717845
2062.0,0.0019587356365717845
2061.0,0.0019587356365717845
2060.0,0.001915112063444413
2059.0,0.001915112063444413
2058.0,0.001915112063444413
2057.0,0.001915112063444413
2056.0,0.001915112063444413
2055.0,0.001915112063444413
2054.0,0.0019587356365717845
2053.0,0.0019587356365717845
2052.0,0.0019587356365717845
2051.0,0.001915112063444413
2050.0,0.001915112063444413
2049.0,0.001915112063444413
2048.0,0.001915112063444413
2047.0,0.0019587356365717845
2046.0,0.0019587356365717845
2045.0,0.0019587356365717845
2044.0,0.001915112063444413
2043.0,0.001915112063444413
2042.0,0.001915112063444413
2041.0,0.0019587356365717845
2040.0,0.0019587356365717845
2039.0,0.0019587356365717845
2038.0,0.001915112063444413
2037.0,0.0018278780605593958
2036.0,0.0018278780605593958
2035.0,0.0017842676290416026
2034.0,0.0018278780605593958
2033.0,0.0018278780605593958
2032.0,0.0018278780605593958
2031.0,0.0018278780605593958
2030.0,0.0018278780605593958
2029.0,0.0018714928717336043
2028.0,0.001915112063444413
2027.0,0.001915112063444413
2026.0,0.001915112063444413
2025.0,0.0018714928717336043
2024.0,0.0018278780605593958
2023.0,0.0018278780605593958
2022.0,0.0018714928717336043
2021.0,0.0018714928717336043
2020.0,0.001915112063444413
2019.0,0.001915112063444413
2018.0,0.0018714928717336043
2017.0,0.0017842676290416026
2016.0,0.0017406615763013722
2015.0,0.0017406615763013722
2014.0,0.0017842676290416026
2013.0,0.0018278780605593958
2012.0,0.0018278780605593958
2011.0,0.0018278780605593958
2010.0,0.0018278780605593958
2009.0,0.0018714928717336043
2008.0,0.001915112063444413
2007.0,0.001915112063444413
2006.0,0.001915112063444413
2005.0,0.0018714928717336043
2004.0,0.0018278780605593958
2003.0,0.0017842676290416026
2002.0,0.0017842676290416026
2001.0,0.0017842676290416026
2000.0,0.0017842676290416026
1999.0,0.0017842676290416026
1998.0,0.0017842676290416026
1997.0,0.0017406615763013722
1996.0,0.0017406615763013722
1995.0,0.0017842676290416026
1994.0,0.0018278780605593958
1993.0,0.0018714928717336043
1992.0,0.0018714928717336043
1991.0,0.0018714928717336043
1990.0,0.0018714928717336043
1989.0,0.0018714928717336043
1988.0,0.0018278780605593958
1987.0,0.0018278780605593958
1986.0,0.0017842676290416026
1985.0,0.0017406615763013722
1984.0,0.0017406615763013722
1983.0,0.0017406615763013722
1982.0,0.0017406615763013722
1981.0,0.0017406615763013722
1980.0,0.0017406615763013722
1979.0,0.0017406615763013722
1978.0,0.0017406615763013722
1977.0,0.0017406615763013722
1976.0,0.0017406615763013722
1975.0,0.0017406615763013722
1974.0,0.0016970599014589638
1973.0,0.0016970599014589638
1972.0,0.0016970599014589638
1971.0,0.0017406615763013722
1970.0,0.0017406615763013722
1969.0,0.0017406615763013722
1968.0,0.0017406615763013722
1967.0,0.0016970599014589638
1966.0,0.0016970599014589638
1965.0,0.0016970599014589638
1964.0,0.0016970599014589638
1963.0,0.0016970599014589638
1962.0,0.0016534626036355249
1961.0,0.001609869681952425
1960.0,0.001609869681952425
1959.0,0.001609869681952425
1958.0,0.001609869681952425
1957.0,0.001609869681952425
1956.0,0.001609869681952425
1955.0,0.001609869681952425
1954.0,0.001609869681952425
1953.0,0.001609869681952425
1952.0,0.001609869681952425
1951.0,0.001609869681952425
1950.0,0.0015662811355310335
1949.0,0.001609869681952425
1948.0,0.001609869681952425
1947.0,0.001609869681952425
1946.0,0.001609869681952425
1945.0,0.0015662811355310335
1944.0,0.0015226969634936083
1943.0,0.0014791171649619628
1942.0,0.0013919706849057079
1941.0,0.0013919706849057079
1940.0,0.0014355417390583547
1939.0,0.0014791171649619628
1938.0,0.0015226969634936083
1937.0,0.0015226969634936083
1936.0,0.0015226969634936083
1935.0,0.0015226969634936083
1934.0,0.0015226969634936083
1933.0,0.0015226969634936083
1932.0,0.0015226969634936083
1931.0,0.0014791171649619628
1930.0,0.0014791171649619628
1929.0,0.0014355417390583547
1928.0,0.0014355417390583547
1927.0,0.0014791171649619628
1926.0,0.0014791171649619628
1925.0,0.0015226969634936083
1924.0,0.0015226969634936083
1923.0,0.0014791171649619628
1922.0,0.0014355417390583547
1921.0,0.0014791171649619628
1920.0,0.001609869681952425
1919.0,0.0016534626036355249
1918.0,0.0015662811355310335
1917.0,0.0014355417390583547
1916.0,0.0013919706849057079
1915.0,0.0013919706849057079
1914.0,0.0014355417390583547
1913.0,0.0014355417390583547
1912.0,0.0014355417390583547
1911.0,0.0014355417390583547
1910.0,0.0013919706849057079
1909.0,0.001348404001626502
1908.0,0.001348404001626502
1907.0,0.0013919706849057079
1906.0,0.0013919706849057079
1905.0,0.0014355417390583547
1904.0,0.0014355417390583547
1903.0,0.0014355417390583547
1902.0,0.0014355417390583547
1901.0,0.0014791171649619628
1900.0,0.0014791171649619628
1899.0,0.0014791171649619628
1898.0,0.0015226969634936083
1897.0,0.0015226969634936083
1896.0,0.0015226969634936083
1895.0,0.0014791171649619628
1894.0,0.0014355417390583547
1893.0,0.0013919706849057079
1892.0,0.0014355417390583547
1891.0,0.0014791171649619628
1890.0,0.0014791171649619628
1889.0,0.0014355417390583547
1888.0,0.0014355417390583547
1887.0,0.0014791171649619628
1886.0,0.0015226969634936083
1885.0,0.0015662811355310335
1884.0,0.0015662811355310335
1883.0,0.0015226969634936083
1882.0,0.0014791171649619628
1881.0,0.0014791171649619628
1880.0,0.0014791171649619628
1879.0,0.0014791171649619628
1878.0,0.0014791171649619628
1877.0,0.0014791171649619628
1876.0,0.0014791171649619628
1875.0,0.0014791171649619628
1874.0,0.0014791171649619628
1873.0,0.0014791171649619628
1872.0,0.0015226969634936083
1871.0,0.001609869681952425
1870.0,0.001609869681952425
1869.0,0.0015226969634936083
1868.0,0.001348404001626502
1867.0,0.001304841688344327
1866.0,0.001304841688344327
1865.0,0.001304841688344327
1864.0,0.001348404001626502
1863.0,0.001304841688344327
1862.0,0.001304841688344327
1861.0,0.001304841688344327
1860.0,0.001348404001626502
1859.0,0.001348404001626502
1858.0,0.001304841688344327
1857.0,0.001304841688344327
1856.0,0.001304841688344327
1855.0,0.001304841688344327
1854.0,0.001304841688344327
1853.0,0.001304841688344327
1852.0,0.001348404001626502
1851.0,0.001304841688344327
1850.0,0.001304841688344327
1849.0,0.001304841688344327
1848.0,0.001348404001626502
1847.0,0.0014355417390583547
1846.0,0.0014355417390583547
1845.0,0.0014791171649619628
1844.0,0.0014791171649619628
1843.0,0.0014355417390583547
1842.0,0.001348404001626502
1841.0,0.001304841688344327
1840.0,0.0012612837441823288
1839.0,0.0012612837441823288
1838.0,0.0012177301682640973
1837.0,0.0011741809597138886
1836.0,0.0011741809597138886
1835.0,0.0011741809597138886
1834.0,0.0012177301682640973
1833.0,0.001348404001626502
1832.0,0.0014355417390583547
1831.0,0.0014355417390583547
1830.0,0.001304841688344327
1829.0,0.0010870956412141197
1828.0,0.0010435595295137379
1827.0,0.0011741809597138886
1826.0,0.001304841688344327
1825.0,0.001304841688344327
1824.0,0.0011741809597138886
1823.0,0.0011306361176557367
1822.0,0.0010870956412141197
1821.0,0.0011306361176557367
1820.0,0.0011306361176557367
1819.0,0.0011306361176557367
1818.0,0.0011306361176557367
1817.0,0.0011306361176557367
1816.0,0.0011306361176557367
1815.0,0.0011306361176557367
1814.0,0.0011741809597138886
1813.0,0.0012177301682640973
1812.0,0.0012612837441823288
1811.0,0.0012612837441823288
1810.0,0.0011741809597138886
1809.0,0.0010870956412141197
1808.0,0.0010435595295137379
1807.0,0.0010435595295137379
1806.0,0.0010870956412141197
1805.0,0.0011306361176557367
1804.0,0.0011741809597138886
1803.0,0.0012177301682640973
1802.0,0.0012612837441823288
1801.0,0.0012177301682640973
1800.0,0.0011741809597138886
1799.0,0.0011306361176557367
1798.0,0.0010870956412141197
1797.0,0.0011306361176557367
1796.0,0.0012177301682640973
1795.0,0.0012612837441823288
1794.0,0.001304841688344327
1793.0,0.0012612837441823288
1792.0,0.0010870956412141197
1791.0,0.0009565003968372565
1790.0,0.0009565003968372565
1789.0,0.0010435595295137379
1788.0,0.0011306361176557367
1787.0,0.0011741809597138886
1786.0,0.0011306361176557367
1785.0,0.0010870956412141197
1784.0,0.0010870956412141197
1783.0,0.0010870956412141197
1782.0,0.0011741809597138886
1781.0,0.0011741809597138886
1780.0,0.0011741809597138886
1779.0,0.0011741809597138886
1778.0,0.0012177301682640973
1777.0,0.001304841688344327
1776.0,0.001348404001626502
1775.0,0.0014355417390583547
1774.0,0.0014791171649619628
1773.0,0.001348404001626502
1772.0,0.0010870956412141197
1771.0,0.0009129773741116676
1770.0,0.0010000277816797354
1769.0,0.0012177301682640973
1768.0,0.001348404001626502
1767.0,0.001304841688344327
1766.0,0.0012612837441823288
1765.0,0.001348404001626502
1764.0,0.0014355417390583547
1763.0,0.0014791171649619628
1762.0,0.0014355417390583547
1761.0,0.001348404001626502
1760.0,0.0014355417390583547
1759.0,0.001609869681952425
1758.0,0.0017842676290416026
1757.0,0.0017842676290416026
1756.0,0.0017842676290416026
1755.0,0.0018278780605593958
1754.0,0.0019587356365717845
1753.0,0.0021332737608552588
1752.0,0.0022205691343961664
1751.0,0.0022205691343961664
1750.0,0.0022205691343961664
1749.0,0.0022205691343961664
1748.0,0.0022642234021015284
1747.0,0.0023078820582733695
1746.0,0.0024388843664115978
1745.0,0.0026573093983774942
1744.0,0.0028321285541661467
1743.0,0.0029632891174733444
1742.0,0.003050751504618754
1741.0,0.0030944893043338695
1740.0,0.0030944893043338695
1739.0,0.003050751504618754
1738.0,0.0030944893043338695
1737.0,0.0033132443998284966
1736.0,0.0035758960449088217
1735.0,0.0036634819042162814
1734.0,0.0035321097382827737
1733.0,0.0033132443998284966
1732.0,0.0033570086445275926
1731.0,0.0035321097382827737
1730.0,0.003707281458678491
1729.0,0.0037510854308679953
1728.0,0.0037510854308679953
1727.0,0.003794893821675638
1726.0,0.0038387066319929275
1725.0,0.0038825238627120395
1724.0,0.003926345514724705
1723.0,0.003926345514724705
1722.0,0.00401400208620073
1721.0,0.004101676353562844
1720.0,0.004277078004534696
1719.0,0.0043648054024501
1718.0,0.0043648054024501
1717.0,0.004320939488377862
1716.0,0.004320939488377862
1715.0,0.0043648054024501
1714.0,0.004408675747646695
1713.0,0.004408675747646695
1712.0,0.0044964297349936455
1711.0,0.004540313378935901
1710.0,0.00458420145758498
1709.0,0.004628093971837721
1708.0,0.004671990922590297
1707.0,0.004759798137184523
1706.0,0.004803708402820517
1705.0,0.00489154225525934
1704.0,0.005023326350308999
1703.0,0.0052870145684298375
1702.0,0.005506877116487674
1701.0,0.005638848091999105
1700.0,0.00577085918230158
1699.0,0.00590291041179003
1698.0,0.00625524344553785
1697.0,0.006696062080525422
1696.0,0.007049039429553483
1695.0,0.007181479933320523
1694.0,0.007269796045857202
1693.0,0.007534852191956709
1692.0,0.007844288957383316
1691.0,0.008065450281052211
1690.0,0.008242460465651913
1689.0,0.008463824699968647
1688.0,0.0087296108049002
1687.0,0.008906891951112605
1686.0,0.008995559669244813
1685.0,0.009350411681145587
1684.0,0.010105436281226954
1683.0,0.010683695010048622
1682.0,0.010995384301463185
1681.0,0.011262724711199823
1680.0,0.011574829993696856
1679.0,0.011797899741219142
1678.0,0.0119764380713403
1677.0,0.01215504982870197
1676.0,0.012467797270160563
1675.0,0.012959713020733288
1674.0,0.013362604389846044
1673.0,0.013541787262693505
1672.0,0.01372104409400876
1671.0,0.014079779876432497
1670.0,0.014663358264387139
1669.0,0.015427684378367834
1668.0,0.01596801972881945
1667.0,0.016193358021584725
1666.0,0.01632861713980338
1665.0,0.016373712875465518
1664.0,0.016599261819461697
1663.0,0.017141057687924732
1662.0,0.017774008325325275
1661.0,0.018226681372252695
1660.0,0.018498511851753108
1659.0,0.018634490921455527
1658.0,0.018679826740892747
1657.0,0.018634490921455527
1656.0,0.01845319495476394
1655.0,0.018226681372252695
1654.0,0.01845319495476394
1653.0,0.019723858922159776
1652.0,0.020497151212598652
1651.0,0.02036058777709271
1650.0,0.02013307743509718
1649.0,0.019860222254245663
1648.0,0.019814763052665052
1647.0,0.020315076172974234
1646.0,0.020952673052035298
1645.0,0.021089422824428272
1644.0,0.020907099361673565
1643.0,0.020724852408976924
1642.0,0.02058821736556471
1641.0,0.02045162529590483
1640.0,0.02026956933771462
1639.0,0.020087589665283012
1638.0,0.01990568621470623
1637.0,0.01995115493504329
1636.0,0.02045162529590483
1635.0,0.0209982515252789
1634.0,0.020952673052035298
1633.0,0.020724852408976924
1632.0,0.02045162529590483
1631.0,0.020178569969774962
1630.0,0.01990568621470623
1629.0,0.019769308608968306
1628.0,0.019678413991243593
1627.0,0.01958753839310856
1626.0,0.01940584422377989
1625.0,0.0190880622231564
1624.0,0.018906576854070378
1623.0,0.018815862601645694
1622.0,0.018770512579999288
1621.0,0.01858915983411169
1620.0,0.018271974638383703
1619.0,0.017909760704207134
1618.0,0.017638298366853045
1617.0,0.017457417697056554
1616.0,0.01727661233145472
1615.0,0.017050711425501408
1614.0,0.016870075265299933
1613.0,0.016599261819461697
1612.0,0.01632861713980338
1611.0,0.016058141016111804
1610.0,0.015832872853011715
1609.0,0.015652742414136167
1608.0,0.015427684378367834
1607.0,0.015247721884586563
1606.0,0.015067833932588037
1605.0,0.014843078722943437
1604.0,0.014618439768003144
1603.0,0.014438812226654996
1602.0,0.014214382227394795
1601.0,0.013990068146738865
1600.0,0.013765869865004277
1599.0,0.013586594534531482
1598.0,0.013407393177789162
1597.0,0.01322826573375524
1596.0,0.013049212141483357
1595.0,0.012914970375878188
1594.0,0.012825498912458322
1593.0,0.012691326268817527
1592.0,0.012557195064198723
1591.0,0.012423105273012602
1590.0,0.012289056869694281
1589.0,0.01215504982870197
1588.0,0.012021084124518078
1587.0,0.011887159731648111
1586.0,0.011797899741219142
1585.0,0.011708658092512314
1584.0,0.011574829993696856
1583.0,0.011530229790124524
1582.0,0.011441043121384498
1581.0,0.011351874764248926
1580.0,0.011262724711199823
1579.0,0.01117359295472431
1578.0,0.011129033935354915
1577.0,0.011084479487313281
1576.0,0.011084479487313281
1575.0,0.010995384301463185
1574.0,0.010950843561779777
1573.0,0.010995384301463185
1572.0,0.010995384301463185
1571.0,0.010906307389674463
1570.0,0.010950843561779777
1569.0,0.010995384301463185
1568.0,0.011039929609661936
1567.0,0.011084479487313281
1566.0,0.01117359295472431
1565.0,0.01117359295472431
1564.0,0.01117359295472431
1563.0,0.011218156546359825
1562.0,0.01117359295472431
1561.0,0.011039929609661936
1560.0,0.010950843561779777
1559.0,0.011530229790124524
1558.0,0.012110390002254778
1557.0,0.01215504982870197
1556.0,0.012289056869694281
1555.0,0.012512493866907004
1554.0,0.012736045877764557
1553.0,0.012870232340102872
1552.0,0.013004460275618523
1551.0,0.013138729709955221
1550.0,0.013317820220494436
1549.0,0.013452186585275916
1548.0,0.013496984613259544
1547.0,0.013452186585275916
1546.0,0.013407393177789162
1545.0,0.013317820220494436
1544.0,0.013317820220494436
1543.0,0.013273040668781544
1542.0,0.01318349541446362
1541.0,0.013273040668781544
1540.0,0.013452186585275916
1539.0,0.013407393177789162
1538.0,0.01322826573375524
1537.0,0.01318349541446362
1536.0,0.01318349541446362
1535.0,0.013093968619278806
1534.0,0.013004460275618523
1533.0,0.012914970375878188
1532.0,0.012870232340102872
1531.0,0.012736045877764557
1530.0,0.01260190086298274
1529.0,0.012467797270160563
1528.0,0.012378417874516323
1527.0,0.012289056869694281
1526.0,0.012199714248127602
1525.0,0.01215504982870197
1524.0,0.01215504982870197
1523.0,0.012110390002254778
1522.0,0.012110390002254778
1521.0,0.012110390002254778
1520.0,0.012021084124518078
1519.0,0.011931796607364653
1518.0,0.011931796607364653
1517.0,0.011887159731648111
1516.0,0.011842527443247208
1515.0,0.011753276624621556
1514.0,0.011619434777991433
1513.0,0.011441043121384498
1512.0,0.011262724711199823
1511.0,0.011084479487313281
1510.0,0.010906307389674463
1509.0,0.010817248744452446
1508.0,0.01077272626946324
1507.0,0.010817248744452446
1506.0,0.01046119667949763
1505.0,0.009972101229705377
1504.0,0.009838807101520963
1503.0,0.009794384815193347
1502.0,0.00974996707218323
1501.0,0.009705553871561357
1500.0,0.009616741093766423
1499.0,0.009572341514736404
1498.0,0.009483555971770974
1497.0,0.009350411681145587
1496.0,0.009217308196862062
1495.0,0.00908424549391551
1494.0,0.008995559669244813
1493.0,0.008995559669244813
1492.0,0.008951223547323472
1491.0,0.008862564879688284
1490.0,0.008773924307505121
1489.0,0.008773924307505121
1488.0,0.008773924307505121
1487.0,0.008685301823389224
1486.0,0.008596697419959609
1485.0,0.008552401996197112
1484.0,0.008552401996197112
1483.0,0.008552401996197112
1482.0,0.008596697419959609
1481.0,0.008640997362049818
1480.0,0.008685301823389224
1479.0,0.0087296108049002
1478.0,0.0087296108049002
1477.0,0.008773924307505121
1476.0,0.008862564879688284
1475.0,0.008995559669244813
1474.0,0.009172949432521227
1473.0,0.009439170005980158
1472.0,0.00974996707218323
1471.0,0.009927665307847056
1470.0,0.010105436281226954
1469.0,0.010194349063173958
1468.0,0.010283280051895272
1467.0,0.010327752376126709
1466.0,0.010416710688994968
1465.0,0.010550182333308289
1464.0,0.010728208358306901
1463.0,0.010817248744452446
1462.0,0.01086177578421088
1461.0,0.01086177578421088
1460.0,0.010906307389674463
1459.0,0.010995384301463185
1458.0,0.011218156546359825
1457.0,0.011485634166333858
1456.0,0.011574829993696856
1455.0,0.011530229790124524
1454.0,0.011530229790124524
1453.0,0.011530229790124524
1452.0,0.011530229790124524
1451.0,0.011530229790124524
1450.0,0.011530229790124524
1449.0,0.011619434777991433
1448.0,0.011753276624621556
1447.0,0.011842527443247208
1446.0,0.011842527443247208
1445.0,0.011842527443247208
1444.0,0.011797899741219142
1443.0,0.011797899741219142
1442.0,0.011797899741219142
1441.0,0.011797899741219142
1440.0,0.011842527443247208
1439.0,0.011797899741219142
1438.0,0.011842527443247208
1437.0,0.011931796607364653
1436.0,0.012110390002254778
1435.0,0.012244383261476699
1434.0,0.012244383261476699
1433.0,0.012244383261476699
1432.0,0.012199714248127602
1431.0,0.012199714248127602
1430.0,0.012199714248127602
1429.0,0.012244383261476699
1428.0,0.012244383261476699
1427.0,0.012244383261476699
1426.0,0.012244383261476699
1425.0,0.012244383261476699
1424.0,0.012289056869694281
1423.0,0.012333735073725371
1422.0,0.012289056869694281
1421.0,0.012199714248127602
1420.0,0.012110390002254778
1419.0,0.01215504982870197
1418.0,0.012199714248127602
1417.0,0.012199714248127602
1416.0,0.012065734767841452
1415.0,0.011887159731648111
1414.0,0.011619434777991433
1413.0,0.011396456654336085
1412.0,0.01117359295472431
1411.0,0.010995384301463185
1410.0,0.010817248744452446
1409.0,0.010683695010048622
1408.0,0.010505687227290839
1407.0,0.01037222925484893
1406.0,0.01023881228122181
1405.0,0.010105436281226954
1404.0,0.009972101229705377
1403.0,0.009883233932095559
1402.0,0.009794384815193347
1401.0,0.009705553871561357
1400.0,0.00966114521239847
1399.0,0.009616741093766423
1398.0,0.009572341514736404
1397.0,0.009439170005980158
1396.0,0.009128595198514056
1395.0,0.008773924307505121
1394.0,0.008463824699968647
1393.0,0.008375265465994541
1392.0,0.008463824699968647
1391.0,0.008552401996197112
1390.0,0.008596697419959609
1389.0,0.008596697419959609
1388.0,0.00850811108984062
1387.0,0.008463824699968647
1386.0,0.008375265465994541
1385.0,0.008286724286910463
1384.0,0.008153946355103248
1383.0,0.008065450281052211
1382.0,0.007976972236149349
1381.0,0.007976972236149349
1380.0,0.007976972236149349
1379.0,0.007976972236149349
1378.0,0.008021209005416363
1377.0,0.008021209005416363
1376.0,0.008021209005416363
1375.0,0.008065450281052211
1374.0,0.008109696063975047
1373.0,0.008153946355103248
1372.0,0.008153946355103248
1371.0,0.008153946355103248
1370.0,0.008153946355103248
1369.0,0.008153946355103248
1368.0,0.008153946355103248
1367.0,0.008109696063975047
1366.0,0.008109696063975047
1365.0,0.008065450281052211
1364.0,0.008065450281052211
1363.0,0.008065450281052211
1362.0,0.008109696063975047
1361.0,0.008065450281052211
1360.0,0.008021209005416363
1359.0,0.007976972236149349
1358.0,0.007888512213050314
1357.0,0.007844288957383316
1356.0,0.007800070204414977
1355.0,0.007800070204414977
1354.0,0.007755855953228474
1353.0,0.007711646202907652
1352.0,0.007711646202907652
1351.0,0.007711646202907652
1350.0,0.007711646202907652
1349.0,0.007755855953228474
1348.0,0.007800070204414977
1347.0,0.007844288957383316
1346.0,0.007844288957383316
1345.0,0.007844288957383316
1344.0,0.007888512213050314
1343.0,0.007888512213050314
1342.0,0.007932739972333236
1341.0,0.007976972236149349
1340.0,0.008065450281052211
1339.0,0.008153946355103248
1338.0,0.008198201155356077
1337.0,0.008198201155356077
1336.0,0.008153946355103248
1335.0,0.008153946355103248
1334.0,0.008109696063975047
1333.0,0.008065450281052211
1332.0,0.008065450281052211
1331.0,0.008065450281052211
1330.0,0.008021209005416363
1329.0,0.008021209005416363
1328.0,0.008021209005416363
1327.0,0.008021209005416363
1326.0,0.008065450281052211
1325.0,0.008109696063975047
1324.0,0.008153946355103248
1323.0,0.008153946355103248
1322.0,0.008198201155356077
1321.0,0.008198201155356077
1320.0,0.008242460465651913
1319.0,0.008286724286910463
1318.0,0.008286724286910463
1317.0,0.008242460465651913
1316.0,0.008242460465651913
1315.0,0.008198201155356077
1314.0,0.008153946355103248
1313.0,0.008153946355103248
1312.0,0.008109696063975047
1311.0,0.008021209005416363
1310.0,0.007976972236149349
1309.0,0.007932739972333236
1308.0,0.007888512213050314
1307.0,0.007888512213050314
1306.0,0.007888512213050314
1305.0,0.007888512213050314
1304.0,0.007844288957383316
1303.0,0.007800070204414977
1302.0,0.007800070204414977
1301.0,0.007844288957383316
1300.0,0.007844288957383316
1299.0,0.007888512213050314
1298.0,0.007932739972333236
1297.0,0.007976972236149349
1296.0,0.008065450281052211
1295.0,0.008153946355103248
1294.0,0.008286724286910463
1293.0,0.008375265465994541
1292.0,0.00850811108984062
1291.0,0.008640997362049818
1290.0,0.008773924307505121
1289.0,0.008906891951112605
1288.0,0.009039900317800775
1287.0,0.009172949432521227
1286.0,0.009350411681145587
1285.0,0.009527946474380489
1284.0,0.009705553871561357
1283.0,0.009883233932095559
1282.0,0.010060986715464404
1281.0,0.010283280051895272
1280.0,0.01046119667949763
1279.0,0.010639186223752484
1278.0,0.01086177578421088
1277.0,0.011084479487313281
1276.0,0.011351874764248926
1275.0,0.011619434777991433
1274.0,0.011887159731648111
1273.0,0.012110390002254778
1272.0,0.012289056869694281
1271.0,0.012512493866907004
1270.0,0.012736045877764557
1269.0,0.013004460275618523
1268.0,0.013273040668781544
1267.0,0.013541787262693505
1266.0,0.01381070026317599
1265.0,0.014079779876432497
1264.0,0.014349026309051105
1263.0,0.014618439768003144
1262.0,0.014843078722943437
1261.0,0.015067833932588037
1260.0,0.015337693809893471
1259.0,0.015652742414136167
1258.0,0.016013078034810446
1257.0,0.01632861713980338
1256.0,0.016644385668211692
1255.0,0.016960383953898095
1254.0,0.017321806616515723
1253.0,0.01768353030793479
1252.0,0.01809082990920774
1251.0,0.01845319495476394
1250.0,0.018906576854070378
1249.0,0.01940584422377989
1248.0,0.01995115493504329
1247.0,0.020497151212598652
1246.0,0.021043834782408455
1245.0,0.021545566634771474
1244.0,0.02200219004126036
1243.0,0.022367834754000393
1242.0,0.02277955336461468
1241.0,0.023237476732539397
1240.0,0.023787622882622816
1239.0,0.02438440203310499
1238.0,0.02484402159331056
1237.0,0.025258095499050004
1236.0,0.02562649291857677
1235.0,0.025995203102585407
1234.0,0.026318081496016443
1233.0,0.026595025589939425
1232.0,0.026872146400301444
1231.0,0.027149444152769986
1230.0,0.02747318213414429
1229.0,0.027797161620935595
1228.0,0.02812138297373412
1227.0,0.028353117935693284
1226.0,0.02863136320857662
1225.0,0.028816959143838528
1224.0,0.02904906565457588
1223.0,0.029281296279810798
1222.0,0.029467170231675777
1221.0,0.029653123769906697
1220.0,0.029885677714903025
1219.0,0.030164906924202484
1218.0,0.030397735151460825
1217.0,0.03058408764601861
1216.0,0.0307239045110681
1215.0,0.030910397045078586
1214.0,0.031003673351687855
1213.0,0.031143625385307683
1212.0,0.031236951802751545
1211.0,0.03137697904301118
1210.0,0.03147035562516054
1209.0,0.031563752288295444
1208.0,0.031657169041054534
1207.0,0.03175060589208267
1206.0,0.03175060589208267
1205.0,0.03179733185715028
1204.0,0.03179733185715028
1203.0,0.03189079887180224
1202.0,0.03193753992355086
1201.0,0.03193753992355086
1200.0,0.032031037121307726
1199.0,0.032124554451966825
1198.0,0.032218091924200776
1197.0,0.03226486821611996
1196.0,0.03226486821611996
1195.0,0.032218091924200776
1194.0,0.032218091924200776
1193.0,0.032218091924200776
1192.0,0.03226486821611996
1191.0,0.032311649546687526
1190.0,0.03235843591698884
1189.0,0.03240522732811035
1188.0,0.03245202378113787
1187.0,0.032545631817259224
1186.0,0.032592443402527316
1185.0,0.03263926003405038
1184.0,0.03263926003405038
1183.0,0.03273290844021437
1182.0,0.03282657704446046
1181.0,0.0329671178412978
1180.0,0.03310770413286357
1179.0,0.0332483359486222
1178.0,0.03343591590268957
1177.0,0.03367050483612166
1176.0,0.033905220553829274
1175.0,0.034187046963396917
1174.0,0.034469056377139484
1173.0,0.03475124903287918
1172.0,0.03498654972775217
1171.0,0.03522197797762394
1170.0,0.03550466044490741
1169.0,0.03578752703018084
1168.0,0.0360705779734416
1167.0,0.03635381351515665
1166.0,0.03658998431977123
1165.0,0.03682628362474838
1164.0,0.03701541568300293
1163.0,0.0371573187987575
1162.0,0.037299268295658994
1161.0,0.03744126420403626
1160.0,0.037583306554248797
1159.0,0.03782014709123227
1158.0,0.03800971255993524
1157.0,0.038199360808321536
1156.0,0.038341651362284734
1155.0,0.03848398855105106
1154.0,0.03862637240519895
1153.0,0.038816290187564384
1152.0,0.03905380426616856
1151.0,0.039338992729018196
1150.0,0.03948165721929198
1149.0,0.03967194946985697
1148.0,0.03981472339538916
1147.0,0.040005161671583744
1146.0,0.04019568349166214
1145.0,0.040338629726504704
1144.0,0.040529297924893015
1143.0,0.04076775094900409
1142.0,0.041006334969674096
1141.0,0.04129280891271536
1140.0,0.04153168163305643
1139.0,0.04181850243505214
1138.0,0.042057664554595586
1137.0,0.042344833056508824
1136.0,0.04263219156847242
1135.0,0.042967683653061695
1134.0,0.04320747962950522
1133.0,0.043495409683302455
1132.0,0.043735497301724546
1131.0,0.04397571771932274
1130.0,0.04426415772233416
1129.0,0.04455278942230456
1128.0,0.04488976902944808
1127.0,0.04527520902093718
1126.0,0.04570923829887308
1125.0,0.046192002334692894
1124.0,0.04662694927330402
1123.0,0.04711073508906982
1122.0,0.04749815213697639
1121.0,0.047885915093007325
1120.0,0.04827402457540786
1119.0,0.04871106272232795
1118.0,0.04909991063361274
1117.0,0.04944043838819989
1116.0,0.04982994019179987
1115.0,0.050171041064686284
1114.0,0.05056119896349576
1113.0,0.05095170768433621
1112.0,0.05134256785867963
1111.0,0.05178270644002936
1110.0,0.05217431555754937
1109.0,0.05261529831525902
1108.0,0.05310580489767336
1107.0,0.053646002773725554
1106.0,0.05413767551038262
1105.0,0.05462990550969615
1104.0,0.055172003656783764
1103.0,0.05571477931124735
1102.0,0.05635711724787096
1101.0,0.057000406633959555
1100.0,0.05764465029232335
1099.0,0.0582898510583536
1098.0,0.0588862729628985
1097.0,0.05948351506743288
1096.0,0.0601813371786204
1095.0,0.060880282351513104
1094.0,0.06148027482350815
1093.0,0.06198090252378963
1092.0,0.06243196139961715
1091.0,0.06278310913729457
1090.0,0.06313454102437754
1089.0,0.06343599486473406
1088.0,0.0636873663378068
1087.0,0.06398920428479049
1086.0,0.06424089625468832
1085.0,0.06444235490698613
1084.0,0.06469430971007495
1083.0,0.06484555278383164
1082.0,0.06494641076893504
1081.0,0.06504729218214189
1080.0,0.06519865825346338
1079.0,0.0654005617819271
1078.0,0.0655520510510299
1077.0,0.06570359318059427
1076.0,0.06580465065211571
1075.0,0.06590573164451952
1074.0,0.06600683616875758
1073.0,0.06620911585658007
1072.0,0.06646209802829528
1071.0,0.06676587128519196
1070.0,0.06696850489759454
1069.0,0.06691783763020887
1068.0,0.0666645899223488
1067.0,0.0663102910421054
1066.0,0.06610796423578891
1065.0,0.06615853710127872
1064.0,0.06641148980334699
1063.0,0.0666645899223488
1062.0,0.0666645899223488
1061.0,0.06646209802829528
1060.0,0.06605739725873905
1059.0,0.0655520510510299
1058.0,0.06494641076893504
1057.0,0.06444235490698613
1056.0,0.06403953101083348
1055.0,0.0636873663378068
1054.0,0.06323500239005853
1053.0,0.06268275223750575
1052.0,0.06218131530164395
1051.0,0.061680456657844385
1050.0,0.0611301784870133
1049.0,0.060530669156469985
1048.0,0.05993198626064755
1047.0,0.05938391766259232
1046.0,0.058737090681050264
1045.0,0.05809122563440061
1044.0,0.05749589383191922
1043.0,0.05690137699451481
1042.0,0.05635711724787096
1041.0,0.05571477931124735
1040.0,0.055122694036304765
1039.0,0.05453141486818014
1038.0,0.05394093961487645
1037.0,0.053351266093323746
1036.0,0.05290953578037816
1035.0,0.0525172634430815
1034.0,0.05212534510230182
1033.0,0.05163594401163074
1032.0,0.051098239029786274
1031.0,0.05051241005349638
1030.0,0.04978123335813667
1029.0,0.048954051864180226
1028.0,0.048128442871635535
1027.0,0.04749815213697639
1026.0,0.04696554274964315
1025.0,0.04653025674659861
1024.0,0.04609540658654021
1023.0,0.045612749855485024
1022.0,0.04513062893352182
1021.0,0.04469717723830824
1020.0,0.044312249686494276
1019.0,0.04402377775167454
1018.0,0.0437835307566099
1017.0,0.043495409683302455
1016.0,0.04320747962950522
1015.0,0.042967683653061695
1014.0,0.04263219156847242
1013.0,0.04229695845116854
1012.0,0.041914151478914974
1011.0,0.04153168163305643
1010.0,0.04105406750606355
1009.0,0.040529297924893015
1008.0,0.0400527842915015
1007.0,0.03957679292217042
1006.0,0.03914884628031379
1005.0,0.038721320914956836
1004.0,0.03829421599749461
1003.0,0.03791491948264003
1002.0,0.03753595394209874
1001.0,0.03720463014276687
1000.0,0.03682628362474838
999.0,0.03644826642590382
998.0,0.03602339000339416
997.0,0.03550466044490741
996.0,0.03498654972775217
995.0,0.03442204208947208
994.0,0.033905220553829274
993.0,0.033295223342125535
992.0,0.03263926003405038
991.0,0.032031037121307726
990.0,0.03147035562516054
989.0,0.030910397045078586
988.0,0.030444315779156517
987.0,0.03002526987828502
986.0,0.02960662792039992
985.0,0.029281296279810798
984.0,0.029002634427514717
983.0,0.028770552723758724
982.0,0.02858497661500481
981.0,0.028353117935693284
980.0,0.028167720075074953
979.0,0.02798240132598462
978.0,0.027797161620935595
977.0,0.027612000892527133
976.0,0.02751945012352408
975.0,0.02747318213414429
974.0,0.02751945012352408
973.0,0.027565723042634938
972.0,0.027565723042634938
971.0,0.02751945012352408
970.0,0.02747318213414429
969.0,0.02747318213414429
968.0,0.02747318213414429
967.0,0.02747318213414429
966.0,0.027334407733889066
965.0,0.027195677663422346
964.0,0.027056991894431892
963.0,0.02691835039863255
962.0,0.02682594731702781
961.0,0.026733563891471412
960.0,0.026595025589939425
959.0,0.026456531467510258
958.0,0.026225806029419818
957.0,0.025949097207122573
956.0,0.025672564576383117
955.0,0.025488307262671706
954.0,0.025350165561278004
953.0,0.02521206778644225
952.0,0.025074013910237447
951.0,0.02484402159331056
950.0,0.024660115394541604
949.0,0.024476287039668643
948.0,0.024292536462819925
947.0,0.024154774532432866
946.0,0.023925268380126097
945.0,0.023741750742954926
944.0,0.02351246269481
943.0,0.023329119375188556
942.0,0.023191662661933732
941.0,0.02314585342378117
940.0,0.023100049017062307
939.0,0.023054249440757957
938.0,0.022871099419317753
937.0,0.022642270454698687
936.0,0.02245929405346514
935.0,0.02227639471115217
934.0,0.0221849739168134
933.0,0.022093572362881675
932.0,0.02204787879853809
931.0,0.02200219004126036
930.0,0.021910826943857264
929.0,0.021728158389364705
928.0,0.021499930688540836
927.0,0.021317434843055594
926.0,0.0211806132671577
925.0,0.021135015652343103
924.0,0.021089422824428272
923.0,0.021043834782408455
922.0,0.020952673052035298
921.0,0.02081596632558158
920.0,0.02067930261797568
919.0,0.02058821736556471
918.0,0.020542681902151694
917.0,0.020497151212598652
916.0,0.020406104151069693
915.0,0.020315076172974234
914.0,0.02013307743509718
913.0,0.019996628416253603
912.0,0.019860222254245663
911.0,0.019723858922159776
910.0,0.01949668180660491
909.0,0.019269623464054586
908.0,0.01899731005860028
907.0,0.018770512579999288
906.0,0.01858915983411169
905.0,0.01845319495476394
904.0,0.01831727262871463
903.0,0.018181392829336396
902.0,0.018045555530026514
901.0,0.017909760704207134
900.0,0.017728766960431575
899.0,0.01759307113620534
898.0,0.017457417697056554
897.0,0.017412209298337533
896.0,0.017412209298337533
895.0,0.01727661233145472
894.0,0.017095882207371904
893.0,0.016824927962187042
892.0,0.016644385668211692
891.0,0.016554142658660398
890.0,0.016644385668211692
889.0,0.016734647433454652
888.0,0.016824927962187042
887.0,0.016915227262211507
886.0,0.017050711425501408
885.0,0.017186237868137555
884.0,0.017321806616515723
883.0,0.017412209298337533
882.0,0.017502630802287644
881.0,0.01759307113620534
880.0,0.01768353030793479
879.0,0.017728766960431575
878.0,0.017864505196230507
877.0,0.017955020928509757
876.0,0.018045555530026514
875.0,0.01800028587012159
874.0,0.01781925440359733
873.0,0.017547848615010242
872.0,0.017186237868137555
871.0,0.016870075265299933
870.0,0.016689514205884493
869.0,0.016599261819461697
868.0,0.016644385668211692
867.0,0.01677978535189717
866.0,0.016960383953898095
865.0,0.017186237868137555
864.0,0.017367005605150476
863.0,0.017457417697056554
862.0,0.01759307113620534
861.0,0.017774008325325275
860.0,0.018045555530026514
859.0,0.01831727262871463
858.0,0.018543833477873584
857.0,0.018725167293411005
856.0,0.018951941086827073
855.0,0.0192242260373785
854.0,0.019451260640229506
853.0,0.019678413991243593
852.0,0.019814763052665052
851.0,0.01995115493504329
850.0,0.01995115493504329
849.0,0.019860222254245663
848.0,0.019723858922159776
847.0,0.01954210772389997
846.0,0.019360432556262852
845.0,0.019269623464054586
844.0,0.019133445417920836
843.0,0.01899731005860028
842.0,0.018906576854070378
841.0,0.018861217359339655
840.0,0.018951941086827073
839.0,0.01899731005860028
838.0,0.0190880622231564
837.0,0.019133445417920836
836.0,0.0192242260373785
835.0,0.019269623464054586
834.0,0.019360432556262852
833.0,0.01949668180660491
832.0,0.01958753839310856
831.0,0.019723858922159776
830.0,0.01990568621470623
829.0,0.020087589665283012
828.0,0.020315076172974234
827.0,0.02058821736556471
826.0,0.020861530453190058
825.0,0.021135015652343103
824.0,0.021317434843055594
823.0,0.021363051615525652
822.0,0.02140867317992523
821.0,0.021545566634771474
820.0,0.021819483062586187
819.0,0.022093572362881675
818.0,0.022367834754000393
817.0,0.022505030926963654
816.0,0.022642270454698687
815.0,0.022688026603074007
814.0,0.022733787572707387
813.0,0.02282532397981263
812.0,0.02296266477531872
811.0,0.02314585342378117
810.0,0.023237476732539397
809.0,0.023329119375188556
808.0,0.023374947949272418
807.0,0.02342078135989012
806.0,0.02355831062115543
805.0,0.023741750742954926
804.0,0.023925268380126097
803.0,0.02406295751688936
802.0,0.024200690320592466
801.0,0.024292536462819925
800.0,0.024430342106337877
799.0,0.02461415101053266
798.0,0.024798037742147727
797.0,0.024890010313838973
796.0,0.024936003904763915
795.0,0.02498200236711723
794.0,0.025074013910237447
793.0,0.025258095499050004
792.0,0.02539620791296726
791.0,0.025488307262671706
790.0,0.02544225514642018
789.0,0.025304128090317013
788.0,0.025258095499050004
787.0,0.025258095499050004
786.0,0.025304128090317013
785.0,0.02539620791296726
784.0,0.02553436426275746
783.0,0.02562649291857677
782.0,0.02562649291857677
781.0,0.02553436426275746
780.0,0.025350165561278004
779.0,0.02521206778644225
778.0,0.025074013910237447
777.0,0.025074013910237447
776.0,0.02516604495145991
775.0,0.02516604495145991
774.0,0.025074013910237447
773.0,0.024798037742147727
772.0,0.024568191490736968
771.0,0.02438440203310499
770.0,0.024292536462819925
769.0,0.024292536462819925
768.0,0.024246610963712723
767.0,0.024108863598207186
766.0,0.023971159908874107
765.0,0.023787622882622816
764.0,0.02365002099672653
763.0,0.02351246269481
762.0,0.02342078135989012
761.0,0.02342078135989012
760.0,0.023604163388120325
759.0,0.023787622882622816
758.0,0.023925268380126097
757.0,0.023925268380126097
756.0,0.023879381700184332
755.0,0.023879381700184332
754.0,0.023879381700184332
753.0,0.023879381700184332
752.0,0.023925268380126097
751.0,0.02406295751688936
750.0,0.02406295751688936
749.0,0.024017056287453542
748.0,0.023925268380126097
747.0,0.023925268380126097
746.0,0.024017056287453542
745.0,0.024154774532432866
744.0,0.024200690320592466
743.0,0.024108863598207186
742.0,0.024017056287453542
741.0,0.02406295751688936
740.0,0.024292536462819925
739.0,0.02461415101053266
738.0,0.024936003904763915
737.0,0.025028005701930978
736.0,0.02498200236711723
735.0,0.024798037742147727
734.0,0.024660115394541604
733.0,0.024660115394541604
732.0,0.024890010313838973
731.0,0.025350165561278004
730.0,0.025810808881832736
729.0,0.026041313893296225
728.0,0.026041313893296225
727.0,0.025949097207122573
726.0,0.025902996205869
725.0,0.025995203102585407
724.0,0.02617967564731627
723.0,0.026410376572743033
722.0,0.02664120011360227
721.0,0.02677975314776626
720.0,0.026872146400301444
719.0,0.026872146400301444
718.0,0.02682594731702781
717.0,0.026687379547098322
716.0,0.026595025589939425
715.0,0.026687379547098322
714.0,0.026872146400301444
713.0,0.027056991894431892
712.0,0.02724191609646076
711.0,0.02738066094037661
710.0,0.02747318213414429
709.0,0.02751945012352408
708.0,0.027565723042634938
707.0,0.027565723042634938
706.0,0.02751945012352408
705.0,0.027426919073445077
704.0,0.02747318213414429
703.0,0.027658283674251827
702.0,0.02798240132598462
701.0,0.028445846553939003
700.0,0.028863370523193765
699.0,0.029234840219232394
698.0,0.02932775731028059
697.0,0.029188389127482228
696.0,0.029002634427514717
695.0,0.02904906565457588
694.0,0.029234840219232394
693.0,0.029234840219232394
692.0,0.028956208163971375
691.0,0.028538594975413334
690.0,0.028306761050139073
689.0,0.028353117935693284
688.0,0.02858497661500481
687.0,0.028816959143838528
686.0,0.029095501846216454
685.0,0.02942069428514915
684.0,0.029746130405213123
683.0,0.029932203450862893
682.0,0.029932203450862893
681.0,0.029792641193145286
680.0,0.02969962459782227
679.0,0.02969962459782227
678.0,0.02969962459782227
677.0,0.02969962459782227
676.0,0.02960662792039992
675.0,0.029374223311705583
674.0,0.029095501846216454
673.0,0.02890978686288448
672.0,0.028863370523193765
671.0,0.029002634427514717
670.0,0.029281296279810798
669.0,0.029978734171634214
668.0,0.031143625385307683
667.0,0.031984286006358165
666.0,0.03189079887180224
665.0,0.03128362253321426
664.0,0.0307239045110681
663.0,0.030444315779156517
662.0,0.030490901403433135
661.0,0.0307239045110681
660.0,0.031096969696171817
659.0,0.03142366482450232
658.0,0.03161045815293173
657.0,0.031563752288295444
656.0,0.03142366482450232
655.0,0.03128362253321426
654.0,0.03128362253321426
653.0,0.03133029827960798
652.0,0.03137697904301118
651.0,0.03161045815293173
650.0,0.03207779326948268
649.0,0.032686081712916426
648.0,0.0332483359486222
647.0,0.03352973627071565
646.0,0.03343591590268957
645.0,0.03310770413286357
644.0,0.032920265855503006
643.0,0.03301397488206215
642.0,0.03334211579824231
641.0,0.03357665405630694
640.0,0.03352973627071565
639.0,0.03338901331806565
638.0,0.03343591590268957
637.0,0.0338113190438627
636.0,0.03428102975577918
635.0,0.034516075754861264
634.0,0.034187046963396917
633.0,0.03362357691107709
632.0,0.03343591590268957
631.0,0.033905220553829274
630.0,0.03470420418834386
629.0,0.03541041251009669
628.0,0.03588185684851508
627.0,0.03625938114211591
626.0,0.03668448861388862
625.0,0.037062711569998186
624.0,0.037251946641359446
623.0,0.0371573187987575
622.0,0.0369681249461018
621.0,0.036731748473764814
620.0,0.03668448861388862
619.0,0.03701541568300293
618.0,0.03772539537668518
617.0,0.038436537637930535
616.0,0.038816290187564384
615.0,0.03886378261277468
614.0,0.038721320914956836
613.0,0.038721320914956836
612.0,0.038816290187564384
611.0,0.03910132267333921
610.0,0.03938654235209116
609.0,0.03948165721929198
608.0,0.03914884628031379
607.0,0.03838909190871931
606.0,0.03763066432997886
605.0,0.037488606492403154
604.0,0.03800971255993524
603.0,0.03910132267333921
602.0,0.04057697805689475
601.0,0.04200982159316968
600.0,0.042775942156833
