cm-1,A
4000.0,0.0009
3999.0,0.0009
3998.0,0.0009
3997.0,0.0009
3996.0,0.0009
3995.0,0.001
3994.0,0.0011
3993.0,0.0012
3992.0,0.0011
3991.0,0.0011
3990.0,0.001
3989.0,0.0009
3988.0,0.001
3987.0,0.001
3986.0,0.0011
3985.0,0.0012
3984.0,0.0012
3983.0,0.0012
3982.0,0.0011
3981.0,0.0011
3980.0,0.0011
3979.0,0.0011
3978.0,0.0011
3977.0,0.0012
3976.0,0.0012
3975.0,0.0012
3974.0,0.0012
3973.0,0.0012
3972.0,0.0012
3971.0,0.0012
3970.0,0.0012
3969.0,0.0012
3968.0,0.0011
3967.0,0.0011
3966.0,0.0011
3965.0,0.0011
3964.0,0.001
3963.0,0.0011
3962.0,0.0011
3961.0,0.0012
3960.0,0.0012
3959.0,0.0012
3958.0,0.0012
3957.0,0.0011
3956.0,0.001
3955.0,0.0009
3954.0,0.0009
3953.0,0.0009
3952.0,0.001
3951.0,0.0011
3950.0,0.0012
3949.0,0.0013
3948.0,0.0013
3947.0,0.0013
3946.0,0.0012
3945.0,0.0012
3944.0,0.0012
3943.0,0.0012
3942.0,0.0013
3941.0,0.0013
3940.0,0.0012
3939.0,0.0012
3938.0,0.0011
3937.0,0.0011
3936.0,0.0011
3935.0,0.0011
3934.0,0.0012
3933.0,0.0013
3932.0,0.0014
3931.0,0.0014
3930.0,0.0014
3929.0,0.0013
3928.0,0.0012
3927.0,0.0012
3926.0,0.0012
3925.0,0.0013
3924.0,0.0013
3923.0,0.0013
3922.0,0.0014
3921.0,0.0013
3920.0,0.0013
3919.0,0.0014
3918.0,0.0014
3917.0,0.0013
3916.0,0.0013
3915.0,0.0012
3914.0,0.0011
3913.0,0.0011
3912.0,0.0011
3911.0,0.0011
3910.0,0.0012
3909.0,0.0013
3908.0,0.0014
3907.0,0.0015
3906.0,0.0015
3905.0,0.0015
3904.0,0.0014
3903.0,0.0014
3902.0,0.0015
3901.0,0.0015
3900.0,0.0015
3899.0,0.0015
3898.0,0.0013
3897.0,0.0012
3896.0,0.0011
3895.0,0.001
3894.0,0.001
3893.0,0.0011
3892.0,0.0012
3891.0,0.0013
3890.0,0.0013
3889.0,0.0013
3888.0,0.0014
3887.0,0.0014
3886.0,0.0013
3885.0,0.0013
3884.0,0.0014
3883.0,0.0016
3882.0,0.0018
3881.0,0.0018
3880.0,0.0018
3879.0,0.0017
3878.0,0.0017
3877.0,0.0017
3876.0,0.0017
3875.0,0.0017
3874.0,0.0017
3873.0,0.0017
3872.0,0.0017
3871.0,0.0016
3870.0,0.0015
3869.0,0.0014
3868.0,0.0012
3867.0,0.0012
3866.0,0.0013
3865.0,0.0013
3864.0,0.0014
3863.0,0.0015
3862.0,0.0015
3861.0,0.0015
3860.0,0.0015
3859.0,0.0015
3858.0,0.0015
3857.0,0.0015
3856.0,0.0015
3855.0,0.0015
3854.0,0.0014
3853.0,0.0015
3852.0,0.0015
3851.0,0.0016
3850.0,0.0016
3849.0,0.0016
3848.0,0.0015
3847.0,0.0014
3846.0,0.0014
3845.0,0.0014
3844.0,0.0014
3843.0,0.0015
3842.0,0.0017
3841.0,0.0018
3840.0,0.0018
3839.0,0.0017
3838.0,0.0017
3837.0,0.0016
3836.0,0.0015
3835.0,0.0015
3834.0,0.0015
3833.0,0.0015
3832.0,0.0015
3831.0,0.0015
3830.0,0.0015
3829.0,0.0016
3828.0,0.0016
3827.0,0.0016
3826.0,0.0015
3825.0,0.0015
3824.0,0.0016
3823.0,0.0017
3822.0,0.0018
3821.0,0.0017
3820.0,0.0016
3819.0,0.0015
3818.0,0.0015
3817.0,0.0015
3816.0,0.0015
3815.0,0.0014
3814.0,0.0015
3813.0,0.0015
3812.0,0.0016
3811.0,0.0016
3810.0,0.0017
3809.0,0.0017
3808.0,0.0016
3807.0,0.0016
3806.0,0.0017
3805.0,0.0017
3804.0,0.0019
3803.0,0.0019
3802.0,0.0019
3801.0,0.0018
3800.0,0.0017
3799.0,0.0017
3798.0,0.0016
3797.0,0.0016
3796.0,0.0016
3795.0,0.0016
3794.0,0.0016
3793.0,0.0017
3792.0,0.0017
3791.0,0.0016
3790.0,0.0015
3789.0,0.0015
3788.0,0.0015
3787.0,0.0016
3786.0,0.0017
3785.0,0.0018
3784.0,0.0018
3783.0,0.0018
3782.0,0.0018
3781.0,0.0018
3780.0,0.0018
3779.0,0.0017
3778.0,0.0017
3777.0,0.0017
3776.0,0.0017
3775.0,0.0017
3774.0,0.0017
3773.0,0.0018
3772.0,0.0018
3771.0,0.0018
3770.0,0.0017
3769.0,0.0016
3768.0,0.0016
3767.0,0.0017
3766.0,0.0017
3765.0,0.0018
3764.0,0.0018
3763.0,0.0019
3762.0,0.002
3761.0,0.0021
3760.0,0.0021
3759.0,0.0022
3758.0,0.0022
3757.0,0.0021
3756.0,0.002
3755.0,0.002
3754.0,0.002
3753.0,0.0019
3752.0,0.0018
3751.0,0.0018
3750.0,0.0018
3749.0,0.0018
3748.0,0.0019
3747.0,0.002
3746.0,0.002
3745.0,0.0019
3744.0,0.0017
3743.0,0.0016
3742.0,0.0016
3741.0,0.0016
3740.0,0.0016
3739.0,0.0017
3738.0,0.0017
3737.0,0.0016
3736.0,0.0015
3735.0,0.0014
3734.0,0.0014
3733.0,0.0015
3732.0,0.0015
3731.0,0.0014
3730.0,0.0014
3729.0,0.0015
3728.0,0.0015
3727.0,0.0015
3726.0,0.0017
3725.0,0.0018
3724.0,0.0019
3723.0,0.002
3722.0,0.0019
3721.0,0.0019
3720.0,0.0019
3719.0,0.0018
3718.0,0.0018
3717.0,0.0017
3716.0,0.0016
3715.0,0.0016
3714.0,0.0015
3713.0,0.0015
3712.0,0.0015
3711.0,0.0016
3710.0,0.0016
3709.0,0.0016
3708.0,0.0016
3707.0,0.0016
3706.0,0.0017
3705.0,0.0017
3704.0,0.0017
3703.0,0.0018
3702.0,0.0019
3701.0,0.0019
3700.0,0.0018
3699.0,0.0018
3698.0,0.0018
3697.0,0.0018
3696.0,0.0017
3695.0,0.0017
3694.0,0.0017
3693.0,0.0017
3692.0,0.0017
3691.0,0.0017
3690.0,0.0017
3689.0,0.0018
3688.0,0.0018
3687.0,0.0017
3686.0,0.0017
3685.0,0.0017
3684.0,0.0017
3683.0,0.0018
3682.0,0.002
3681.0,0.0021
3680.0,0.0021
3679.0,0.002
3678.0,0.0019
3677.0,0.0019
3676.0,0.002
3675.0,0.0021
3674.0,0.0021
3673.0,0.0021
3672.0,0.0021
3671.0,0.0021
3670.0,0.002
3669.0,0.0019
3668.0,0.0019
3667.0,0.0019
3666.0,0.002
3665.0,0.002
3664.0,0.002
3663.0,0.002
3662.0,0.002
3661.0,0.0019
3660.0,0.002
3659.0,0.0021
3658.0,0.0022
3657.0,0.0022
3656.0,0.0022
3655.0,0.0021
3654.0,0.0021
3653.0,0.0021
3652.0,0.0021
3651.0,0.0021
3650.0,0.0023
3649.0,0.0026
3648.0,0.0026
3647.0,0.0025
3646.0,0.0023
3645.0,0.0022
3644.0,0.002
3643.0,0.002
3642.0,0.002
3641.0,0.002
3640.0,0.0021
3639.0,0.0021
3638.0,0.0021
3637.0,0.0021
3636.0,0.0021
3635.0,0.0022
3634.0,0.0023
3633.0,0.0024
3632.0,0.0025
3631.0,0.0025
3630.0,0.0024
3629.0,0.0023
3628.0,0.0021
3627.0,0.0021
3626.0,0.0021
3625.0,0.0021
3624.0,0.0021
3623.0,0.0022
3622.0,0.0023
3621.0,0.0025
3620.0,0.0026
3619.0,0.0026
3618.0,0.0026
3617.0,0.0025
3616.0,0.0025
3615.0,0.0025
3614.0,0.0024
3613.0,0.0024
3612.0,0.0023
3611.0,0.0022
3610.0,0.0022
3609.0,0.0022
3608.0,0.0022
3607.0,0.0022
3606.0,0.0022
3605.0,0.0021
3604.0,0.0021
3603.0,0.0021
3602.0,0.0022
3601.0,0.0023
3600.0,0.0023
3599.0,0.0023
3598.0,0.0022
3597.0,0.0021
3596.0,0.0021
3595.0,0.0022
3594.0,0.0023
3593.0,0.0023
3592.0,0.0024
3591.0,0.0024
3590.0,0.0024
3589.0,0.0024
3588.0,0.0024
3587.0,0.0024
3586.0,0.0025
3585.0,0.0025
3584.0,0.0025
3583.0,0.0025
3582.0,0.0025
3581.0,0.0025
3580.0,0.0025
3579.0,0.0025
3578.0,0.0025
3577.0,0.0024
3576.0,0.0023
3575.0,0.0022
3574.0,0.0023
3573.0,0.0024
3572.0,0.0024
3571.0,0.0025
3570.0,0.0024
3569.0,0.0024
3568.0,0.0024
3567.0,0.0024
3566.0,0.0025
3565.0,0.0025
3564.0,0.0025
3563.0,0.0025
3562.0,0.0025
3561.0,0.0025
3560.0,0.0025
3559.0,0.0026
3558.0,0.0026
3557.0,0.0025
3556.0,0.0025
3555.0,0.0025
3554.0,0.0026
3553.0,0.0027
3552.0,0.0027
3551.0,0.0027
3550.0,0.0026
3549.0,0.0026
3548.0,0.0026
3547.0,0.0026
3546.0,0.0026
3545.0,0.0026
3544.0,0.0025
3543.0,0.0025
3542.0,0.0025
3541.0,0.0025
3540.0,0.0026
3539.0,0.0025
3538.0,0.0025
3537.0,0.0024
3536.0,0.0024
3535.0,0.0024
3534.0,0.0025
3533.0,0.0026
3532.0,0.0027
3531.0,0.0027
3530.0,0.0028
3529.0,0.0028
3528.0,0.0028
3527.0,0.0028
3526.0,0.0027
3525.0,0.0027
3524.0,0.0027
3523.0,0.0026
3522.0,0.0026
3521.0,0.0025
3520.0,0.0025
3519.0,0.0025
3518.0,0.0025
3517.0,0.0025
3516.0,0.0026
3515.0,0.0026
3514.0,0.0027
3513.0,0.0027
3512.0,0.0027
3511.0,0.0026
3510.0,0.0025
3509.0,0.0025
3508.0,0.0025
3507.0,0.0026
3506.0,0.0028
3505.0,0.0029
3504.0,0.0029
3503.0,0.003
3502.0,0.0029
3501.0,0.0029
3500.0,0.0028
3499.0,0.0027
3498.0,0.0026
3497.0,0.0026
3496.0,0.0025
3495.0,0.0025
3494.0,0.0025
3493.0,0.0025
3492.0,0.0026
3491.0,0.0026
3490.0,0.0026
3489.0,0.0026
3488.0,0.0025
3487.0,0.0025
3486.0,0.0024
3485.0,0.0024
3484.0,0.0024
3483.0,0.0024
3482.0,0.0024
3481.0,0.0024
3480.0,0.0025
3479.0,0.0026
3478.0,0.0026
3477.0,0.0027
3476.0,0.0027
3475.0,0.0027
3474.0,0.0027
3473.0,0.0026
3472.0,0.0025
3471.0,0.0025
3470.0,0.0025
3469.0,0.0025
3468.0,0.0026
3467.0,0.0026
3466.0,0.0026
3465.0,0.0026
3464.0,0.0026
3463.0,0.0026
3462.0,0.0026
3461.0,0.0027
3460.0,0.0028
3459.0,0.0028
3458.0,0.0028
3457.0,0.0027
3456.0,0.0026
3455.0,0.0026
3454.0,0.0026
3453.0,0.0026
3452.0,0.0026
3451.0,0.0027
3450.0,0.0028
3449.0,0.0029
3448.0,0.0031
3447.0,0.0031
3446.0,0.0032
3445.0,0.0032
3444.0,0.0031
3443.0,0.003
3442.0,0.0028
3441.0,0.0027
3440.0,0.0027
3439.0,0.0027
3438.0,0.0027
3437.0,0.0028
3436.0,0.0028
3435.0,0.0029
3434.0,0.0029
3433.0,0.003
3432.0,0.0029
3431.0,0.0029
3430.0,0.0029
3429.0,0.0028
3428.0,0.0028
3427.0,0.0028
3426.0,0.0028
3425.0,0.0027
3424.0,0.0027
3423.0,0.0028
3422.0,0.0029
3421.0,0.0029
3420.0,0.0029
3419.0,0.0029
3418.0,0.0029
3417.0,0.0029
3416.0,0.003
3415.0,0.0031
3414.0,0.0031
3413.0,0.003
3412.0,0.0029
3411.0,0.0027
3410.0,0.0027
3409.0,0.0026
3408.0,0.0027
3407.0,0.0028
3406.0,0.0029
3405.0,0.0029
3404.0,0.0029
3403.0,0.0028
3402.0,0.0026
3401.0,0.0025
3400.0,0.0024
3399.0,0.0025
3398.0,0.0026
3397.0,0.0028
3396.0,0.0029
3395.0,0.0029
3394.0,0.003
3393.0,0.003
3392.0,0.003
3391.0,0.0029
3390.0,0.0029
3389.0,0.0028
3388.0,0.0028
3387.0,0.0028
3386.0,0.0028
3385.0,0.0027
3384.0,0.0026
3383.0,0.0025
3382.0,0.0025
3381.0,0.0026
3380.0,0.0027
3379.0,0.0027
3378.0,0.0027
3377.0,0.0027
3376.0,0.0027
3375.0,0.0027
3374.0,0.0027
3373.0,0.0027
3372.0,0.0026
3371.0,0.0025
3370.0,0.0025
3369.0,0.0025
3368.0,0.0026
3367.0,0.0027
3366.0,0.0028
3365.0,0.0029
3364.0,0.0028
3363.0,0.0028
3362.0,0.0028
3361.0,0.0029
3360.0,0.0029
3359.0,0.0028
3358.0,0.0027
3357.0,0.0026
3356.0,0.0026
3355.0,0.0026
3354.0,0.0026
3353.0,0.0026
3352.0,0.0025
3351.0,0.0024
3350.0,0.0024
3349.0,0.0025
3348.0,0.0025
3347.0,0.0026
3346.0,0.0026
3345.0,0.0027
3344.0,0.0027
3343.0,0.0027
3342.0,0.0026
3341.0,0.0025
3340.0,0.0025
3339.0,0.0026
3338.0,0.0027
3337.0,0.0027
3336.0,0.0028
3335.0,0.0027
3334.0,0.0027
3333.0,0.0026
3332.0,0.0026
3331.0,0.0027
3330.0,0.0027
3329.0,0.0027
3328.0,0.0027
3327.0,0.0027
3326.0,0.0027
3325.0,0.0027
3324.0,0.0027
3323.0,0.0027
3322.0,0.0026
3321.0,0.0026
3320.0,0.0027
3319.0,0.0027
3318.0,0.0028
3317.0,0.0028
3316.0,0.0028
3315.0,0.0027
3314.0,0.0028
3313.0,0.0027
3312.0,0.0027
3311.0,0.0027
3310.0,0.0026
3309.0,0.0026
3308.0,0.0027
3307.0,0.0026
3306.0,0.0026
3305.0,0.0026
3304.0,0.0027
3303.0,0.0027
3302.0,0.0027
3301.0,0.0027
3300.0,0.0027
3299.0,0.0027
3298.0,0.0027
3297.0,0.0026
3296.0,0.0025
3295.0,0.0024
3294.0,0.0024
3293.0,0.0024
3292.0,0.0025
3291.0,0.0026
3290.0,0.0028
3289.0,0.0028
3288.0,0.0028
3287.0,0.0027
3286.0,0.0026
3285.0,0.0025
3284.0,0.0025
3283.0,0.0025
3282.0,0.0025
3281.0,0.0027
3280.0,0.0028
3279.0,0.0028
3278.0,0.0028
3277.0,0.0028
3276.0,0.0028
3275.0,0.0028
3274.0,0.0028
3273.0,0.0028
3272.0,0.0027
3271.0,0.0026
3270.0,0.0025
3269.0,0.0025
3268.0,0.0025
3267.0,0.0025
3266.0,0.0025
3265.0,0.0025
3264.0,0.0025
3263.0,0.0025
3262.0,0.0025
3261.0,0.0025
3260.0,0.0025
3259.0,0.0024
3258.0,0.0023
3257.0,0.0023
3256.0,0.0023
3255.0,0.0024
3254.0,0.0024
3253.0,0.0024
3252.0,0.0024
3251.0,0.0024
3250.0,0.0025
3249.0,0.0026
3248.0,0.0026
3247.0,0.0025
3246.0,0.0025
3245.0,0.0024
3244.0,0.0024
3243.0,0.0024
3242.0,0.0024
3241.0,0.0024
3240.0,0.0025
3239.0,0.0026
3238.0,0.0026
3237.0,0.0025
3236.0,0.0025
3235.0,0.0024
3234.0,0.0023
3233.0,0.0022
3232.0,0.0021
3231.0,0.0021
3230.0,0.0022
3229.0,0.0023
3228.0,0.0024
3227.0,0.0024
3226.0,0.0023
3225.0,0.0023
3224.0,0.0022
3223.0,0.0022
3222.0,0.0022
3221.0,0.0023
3220.0,0.0023
3219.0,0.0024
3218.0,0.0026
3217.0,0.0027
3216.0,0.0028
3215.0,0.0027
3214.0,0.0026
3213.0,0.0025
3212.0,0.0025
3211.0,0.0025
3210.0,0.0025
3209.0,0.0026
3208.0,0.0026
3207.0,0.0026
3206.0,0.0025
3205.0,0.0024
3204.0,0.0024
3203.0,0.0024
3202.0,0.0024
3201.0,0.0024
3200.0,0.0024
3199.0,0.0023
3198.0,0.0023
3197.0,0.0022
3196.0,0.0022
3195.0,0.0022
3194.0,0.0022
3193.0,0.0024
3192.0,0.0025
3191.0,0.0026
3190.0,0.0027
3189.0,0.0026
3188.0,0.0026
3187.0,0.0025
3186.0,0.0025
3185.0,0.0025
3184.0,0.0025
3183.0,0.0025
3182.0,0.0024
3181.0,0.0024
3180.0,0.0025
3179.0,0.0026
3178.0,0.0027
3177.0,0.0028
3176.0,0.0027
3175.0,0.0027
3174.0,0.0026
3173.0,0.0025
3172.0,0.0024
3171.0,0.0024
3170.0,0.0023
3169.0,0.0023
3168.0,0.0023
3167.0,0.0023
3166.0,0.0023
3165.0,0.0024
3164.0,0.0025
3163.0,0.0026
3162.0,0.0027
3161.0,0.0027
3160.0,0.0027
3159.0,0.0027
3158.0,0.0026
3157.0,0.0025
3156.0,0.0025
3155.0,0.0026
3154.0,0.0026
3153.0,0.0026
3152.0,0.0026
3151.0,0.0026
3150.0,0.0026
3149.0,0.0026
3148.0,0.0025
3147.0,0.0025
3146.0,0.0025
3145.0,0.0025
3144.0,0.0026
3143.0,0.0026
3142.0,0.0025
3141.0,0.0024
3140.0,0.0024
3139.0,0.0024
3138.0,0.0025
3137.0,0.0026
3136.0,0.0027
3135.0,0.0028
3134.0,0.0028
3133.0,0.0027
3132.0,0.0027
3131.0,0.0027
3130.0,0.0027
3129.0,0.0027
3128.0,0.0027
3127.0,0.0027
3126.0,0.0027
3125.0,0.0027
3124.0,0.0026
3123.0,0.0025
3122.0,0.0025
3121.0,0.0025
3120.0,0.0026
3119.0,0.0027
3118.0,0.0027
3117.0,0.0027
3116.0,0.0026
3115.0,0.0026
3114.0,0.0026
3113.0,0.0026
3112.0,0.0027
3111.0,0.0027
3110.0,0.0026
3109.0,0.0026
3108.0,0.0026
3107.0,0.0027
3106.0,0.0027
3105.0,0.0028
3104.0,0.0028
3103.0,0.0028
3102.0,0.0028
3101.0,0.0027
3100.0,0.0027
3099.0,0.0028
3098.0,0.0028
3097.0,0.0029
3096.0,0.0029
3095.0,0.0029
3094.0,0.0029
3093.0,0.0029
3092.0,0.0029
3091.0,0.0029
3090.0,0.0029
3089.0,0.003
3088.0,0.003
3087.0,0.0031
3086.0,0.0032
3085.0,0.0032
3084.0,0.0032
3083.0,0.0031
3082.0,0.003
3081.0,0.0029
3080.0,0.0029
3079.0,0.003
3078.0,0.003
3077.0,0.003
3076.0,0.003
3075.0,0.003
3074.0,0.003
3073.0,0.003
3072.0,0.0031
3071.0,0.0032
3070.0,0.0032
3069.0,0.0032
3068.0,0.0032
3067.0,0.0031
3066.0,0.0031
3065.0,0.0031
3064.0,0.0032
3063.0,0.0032
3062.0,0.0031
3061.0,0.0031
3060.0,0.003
3059.0,0.003
3058.0,0.0031
3057.0,0.0031
3056.0,0.0032
3055.0,0.0033
3054.0,0.0033
3053.0,0.0033
3052.0,0.0033
3051.0,0.0033
3050.0,0.0033
3049.0,0.0033
3048.0,0.0032
3047.0,0.0032
3046.0,0.0031
3045.0,0.0031
3044.0,0.0031
3043.0,0.003
3042.0,0.003
3041.0,0.0029
3040.0,0.0029
3039.0,0.0028
3038.0,0.0028
3037.0,0.0028
3036.0,0.0028
3035.0,0.0029
3034.0,0.003
3033.0,0.003
3032.0,0.0029
3031.0,0.0029
3030.0,0.0029
3029.0,0.003
3028.0,0.003
3027.0,0.003
3026.0,0.0029
3025.0,0.0029
3024.0,0.0029
3023.0,0.003
3022.0,0.0031
3021.0,0.0032
3020.0,0.0032
3019.0,0.0032
3018.0,0.0032
3017.0,0.0032
3016.0,0.0032
3015.0,0.0032
3014.0,0.0032
3013.0,0.0032
3012.0,0.0032
3011.0,0.0032
3010.0,0.0032
3009.0,0.0032
3008.0,0.0032
3007.0,0.0032
3006.0,0.0033
3005.0,0.0033
3004.0,0.0034
3003.0,0.0034
3002.0,0.0034
3001.0,0.0034
3000.0,0.0035
2999.0,0.0035
2998.0,0.0034
2997.0,0.0034
2996.0,0.0033
2995.0,0.0033
2994.0,0.0033
2993.0,0.0034
2992.0,0.0035
2991.0,0.0036
2990.0,0.0037
2989.0,0.0038
2988.0,0.0038
2987.0,0.0038
2986.0,0.0038
2985.0,0.0037
2984.0,0.0038
2983.0,0.0038
2982.0,0.0039
2981.0,0.0039
2980.0,0.004
2979.0,0.004
2978.0,0.004
2977.0,0.0041
2976.0,0.0042
2975.0,0.0043
2974.0,0.0045
2973.0,0.0046
2972.0,0.0046
2971.0,0.0045
2970.0,0.0045
2969.0,0.0045
2968.0,0.0046
2967.0,0.0047
2966.0,0.0048
2965.0,0.0048
2964.0,0.0049
2963.0,0.0049
2962.0,0.0049
2961.0,0.0049
2960.0,0.0049
2959.0,0.0049
2958.0,0.0049
2957.0,0.0049
2956.0,0.0049
2955.0,0.0048
2954.0,0.0049
2953.0,0.0049
2952.0,0.0049
2951.0,0.0048
2950.0,0.0048
2949.0,0.0048
2948.0,0.0047
2947.0,0.0047
2946.0,0.0047
2945.0,0.0046
2944.0,0.0046
2943.0,0.0046
2942.0,0.0045
2941.0,0.0044
2940.0,0.0044
2939.0,0.0043
2938.0,0.0042
2937.0,0.0042
2936.0,0.0042
2935.0,0.0041
2934.0,0.0041
2933.0,0.0041
2932.0,0.004
2931.0,0.004
2930.0,0.004
2929.0,0.004
2928.0,0.004
2927.0,0.004
2926.0,0.004
2925.0,0.004
2924.0,0.004
2923.0,0.0041
2922.0,0.004
2921.0,0.004
2920.0,0.0039
2919.0,0.0039
2918.0,0.0039
2917.0,0.004
2916.0,0.004
2915.0,0.0041
2914.0,0.0041
2913.0,0.0041
2912.0,0.0041
2911.0,0.0042
2910.0,0.0042
2909.0,0.0042
2908.0,0.0043
2907.0,0.0043
2906.0,0.0043
2905.0,0.0044
2904.0,0.0044
2903.0,0.0044
2902.0,0.0043
2901.0,0.0043
2900.0,0.0042
2899.0,0.0041
2898.0,0.004
2897.0,0.004
2896.0,0.0039
2895.0,0.0039
2894.0,0.0039
2893.0,0.0039
2892.0,0.0039
2891.0,0.004
2890.0,0.004
2889.0,0.0041
2888.0,0.0041
2887.0,0.0041
2886.0,0.0042
2885.0,0.0042
2884.0,0.0042
2883.0,0.0042
2882.0,0.0042
2881.0,0.0041
2880.0,0.0041
2879.0,0.0041
2878.0,0.0041
2877.0,0.004
2876.0,0.004
2875.0,0.004
2874.0,0.0039
2873.0,0.0039
2872.0,0.0039
2871.0,0.004
2870.0,0.004
2869.0,0.004
2868.0,0.004
2867.0,0.0039
2866.0,0.0039
2865.0,0.0039
2864.0,0.0039
2863.0,0.004
2862.0,0.004
2861.0,0.004
2860.0,0.004
2859.0,0.004
2858.0,0.0039
2857.0,0.0039
2856.0,0.0039
2855.0,0.0039
2854.0,0.0039
2853.0,0.0038
2852.0,0.0038
2851.0,0.0038
2850.0,0.0038
2849.0,0.0038
2848.0,0.0038
2847.0,0.0038
2846.0,0.0038
2845.0,0.0038
2844.0,0.0038
2843.0,0.0038
2842.0,0.0037
2841.0,0.0037
2840.0,0.0037
2839.0,0.0037
2838.0,0.0037
2837.0,0.0037
2836.0,0.0037
2835.0,0.0037
2834.0,0.0037
2833.0,0.0037
2832.0,0.0036
2831.0,0.0036
2830.0,0.0036
2829.0,0.0036
2828.0,0.0036
2827.0,0.0036
2826.0,0.0037
2825.0,0.0037
2824.0,0.0038
2823.0,0.0038
2822.0,0.0037
2821.0,0.0037
2820.0,0.0036
2819.0,0.0036
2818.0,0.0036
2817.0,0.0036
2816.0,0.0036
2815.0,0.0036
2814.0,0.0036
2813.0,0.0036
2812.0,0.0036
2811.0,0.0037
2810.0,0.0037
2809.0,0.0037
2808.0,0.0037
2807.0,0.0037
2806.0,0.0037
2805.0,0.0037
2804.0,0.0037
2803.0,0.0037
2802.0,0.0036
2801.0,0.0036
2800.0,0.0036
2799.0,0.0036
2798.0,0.0036
2797.0,0.0036
2796.0,0.0036
2795.0,0.0036
2794.0,0.0036
2793.0,0.0036
2792.0,0.0035
2791.0,0.0035
2790.0,0.0035
2789.0,0.0035
2788.0,0.0035
2787.0,0.0036
2786.0,0.0036
2785.0,0.0036
2784.0,0.0036
2783.0,0.0036
2782.0,0.0036
2781.0,0.0036
2780.0,0.0036
2779.0,0.0035
2778.0,0.0035
2777.0,0.0035
2776.0,0.0035
2775.0,0.0034
2774.0,0.0034
2773.0,0.0035
2772.0,0.0035
2771.0,0.0035
2770.0,0.0036
2769.0,0.0036
2768.0,0.0036
2767.0,0.0037
2766.0,0.0037
2765.0,0.0036
2764.0,0.0036
2763.0,0.0035
2762.0,0.0035
2761.0,0.0035
2760.0,0.0035
2759.0,0.0035
2758.0,0.0035
2757.0,0.0035
2756.0,0.0035
2755.0,0.0035
2754.0,0.0036
2753.0,0.0036
2752.0,0.0036
2751.0,0.0036
2750.0,0.0036
2749.0,0.0035
2748.0,0.0034
2747.0,0.0034
2746.0,0.0035
2745.0,0.0035
2744.0,0.0035
2743.0,0.0035
2742.0,0.0035
2741.0,0.0035
2740.0,0.0035
2739.0,0.0035
2738.0,0.0035
2737.0,0.0035
2736.0,0.0034
2735.0,0.0034
2734.0,0.0035
2733.0,0.0035
2732.0,0.0036
2731.0,0.0035
2730.0,0.0035
2729.0,0.0035
2728.0,0.0036
2727.0,0.0036
2726.0,0.0036
2725.0,0.0035
2724.0,0.0035
2723.0,0.0036
2722.0,0.0036
2721.0,0.0036
2720.0,0.0036
2719.0,0.0035
2718.0,0.0035
2717.0,0.0034
2716.0,0.0034
2715.0,0.0035
2714.0,0.0035
2713.0,0.0035
2712.0,0.0035
2711.0,0.0035
2710.0,0.0035
2709.0,0.0035
2708.0,0.0035
2707.0,0.0035
2706.0,0.0034
2705.0,0.0034
2704.0,0.0034
2703.0,0.0034
2702.0,0.0034
2701.0,0.0034
2700.0,0.0035
2699.0,0.0035
2698.0,0.0035
2697.0,0.0035
2696.0,0.0035
2695.0,0.0035
2694.0,0.0035
2693.0,0.0035
2692.0,0.0036
2691.0,0.0036
2690.0,0.0037
2689.0,0.0036
2688.0,0.0036
2687.0,0.0036
2686.0,0.0036
2685.0,0.0036
2684.0,0.0035
2683.0,0.0035
2682.0,0.0035
2681.0,0.0035
2680.0,0.0035
2679.0,0.0036
2678.0,0.0036
2677.0,0.0036
2676.0,0.0037
2675.0,0.0036
2674.0,0.0036
2673.0,0.0036
2672.0,0.0035
2671.0,0.0035
2670.0,0.0035
2669.0,0.0035
2668.0,0.0034
2667.0,0.0034
2666.0,0.0033
2665.0,0.0033
2664.0,0.0034
2663.0,0.0034
2662.0,0.0035
2661.0,0.0035
2660.0,0.0035
2659.0,0.0034
2658.0,0.0034
2657.0,0.0034
2656.0,0.0034
2655.0,0.0034
2654.0,0.0035
2653.0,0.0035
2652.0,0.0035
2651.0,0.0035
2650.0,0.0035
2649.0,0.0035
2648.0,0.0035
2647.0,0.0034
2646.0,0.0034
2645.0,0.0034
2644.0,0.0034
2643.0,0.0034
2642.0,0.0034
2641.0,0.0034
2640.0,0.0034
2639.0,0.0034
2638.0,0.0034
2637.0,0.0035
2636.0,0.0035
2635.0,0.0035
2634.0,0.0035
2633.0,0.0034
2632.0,0.0034
2631.0,0.0034
2630.0,0.0034
2629.0,0.0034
2628.0,0.0034
2627.0,0.0034
2626.0,0.0034
2625.0,0.0034
2624.0,0.0034
2623.0,0.0034
2622.0,0.0035
2621.0,0.0034
2620.0,0.0034
2619.0,0.0033
2618.0,0.0033
2617.0,0.0033
2616.0,0.0033
2615.0,0.0033
2614.0,0.0033
2613.0,0.0033
2612.0,0.0033
2611.0,0.0033
2610.0,0.0034
2609.0,0.0034
2608.0,0.0033
2607.0,0.0033
2606.0,0.0033
2605.0,0.0033
2604.0,0.0033
2603.0,0.0034
2602.0,0.0034
2601.0,0.0034
2600.0,0.0034
2599.0,0.0034
2598.0,0.0033
2597.0,0.0033
2596.0,0.0033
2595.0,0.0033
2594.0,0.0033
2593.0,0.0033
2592.0,0.0033
2591.0,0.0033
2590.0,0.0034
2589.0,0.0034
2588.0,0.0033
2587.0,0.0032
2586.0,0.0032
2585.0,0.0032
2584.0,0.0033
2583.0,0.0033
2582.0,0.0034
2581.0,0.0034
2580.0,0.0034
2579.0,0.0034
2578.0,0.0034
2577.0,0.0033
2576.0,0.0033
2575.0,0.0033
2574.0,0.0033
2573.0,0.0033
2572.0,0.0033
2571.0,0.0033
2570.0,0.0034
2569.0,0.0034
2568.0,0.0034
2567.0,0.0035
2566.0,0.0035
2565.0,0.0035
2564.0,0.0035
2563.0,0.0036
2562.0,0.0036
2561.0,0.0036
2560.0,0.0035
2559.0,0.0034
2558.0,0.0034
2557.0,0.0034
2556.0,0.0033
2555.0,0.0033
2554.0,0.0033
2553.0,0.0033
2552.0,0.0033
2551.0,0.0033
2550.0,0.0033
2549.0,0.0033
2548.0,0.0034
2547.0,0.0034
2546.0,0.0034
2545.0,0.0034
2544.0,0.0034
2543.0,0.0034
2542.0,0.0035
2541.0,0.0035
2540.0,0.0035
2539.0,0.0034
2538.0,0.0034
2537.0,0.0034
2536.0,0.0034
2535.0,0.0035
2534.0,0.0034
2533.0,0.0034
2532.0,0.0033
2531.0,0.0033
2530.0,0.0033
2529.0,0.0033
2528.0,0.0033
2527.0,0.0033
2526.0,0.0033
2525.0,0.0034
2524.0,0.0034
2523.0,0.0034
2522.0,0.0035
2521.0,0.0035
2520.0,0.0035
2519.0,0.0034
2518.0,0.0033
2517.0,0.0033
2516.0,0.0033
2515.0,0.0033
2514.0,0.0033
2513.0,0.0033
2512.0,0.0033
2511.0,0.0033
2510.0,0.0034
2509.0,0.0034
2508.0,0.0033
2507.0,0.0032
2506.0,0.0032
2505.0,0.0032
2504.0,0.0033
2503.0,0.0033
2502.0,0.0033
2501.0,0.0033
2500.0,0.0033
2499.0,0.0033
2498.0,0.0033
2497.0,0.0033
2496.0,0.0033
2495.0,0.0033
2494.0,0.0033
2493.0,0.0032
2492.0,0.0032
2491.0,0.0033
2490.0,0.0033
2489.0,0.0033
2488.0,0.0034
2487.0,0.0033
2486.0,0.0033
2485.0,0.0032
2484.0,0.0032
2483.0,0.0032
2482.0,0.0032
2481.0,0.0033
2480.0,0.0033
2479.0,0.0032
2478.0,0.0032
2477.0,0.0032
2476.0,0.0031
2475.0,0.0031
2474.0,0.0031
2473.0,0.0031
2472.0,0.0031
2471.0,0.0031
2470.0,0.0032
2469.0,0.0032
2468.0,0.0031
2467.0,0.0031
2466.0,0.0031
2465.0,0.0032
2464.0,0.0032
2463.0,0.0032
2462.0,0.0031
2461.0,0.0031
2460.0,0.0031
2459.0,0.0031
2458.0,0.003
2457.0,0.003
2456.0,0.003
2455.0,0.003
2454.0,0.003
2453.0,0.003
2452.0,0.0031
2451.0,0.0031
2450.0,0.0031
2449.0,0.0031
2448.0,0.0031
2447.0,0.0031
2446.0,0.0031
2445.0,0.003
2444.0,0.0031
2443.0,0.0031
2442.0,0.0031
2441.0,0.003
2440.0,0.003
2439.0,0.003
2438.0,0.003
2437.0,0.0029
2436.0,0.0029
2435.0,0.0029
2434.0,0.0029
2433.0,0.0029
2432.0,0.0029
2431.0,0.003
2430.0,0.0031
2429.0,0.0031
2428.0,0.0031
2427.0,0.0031
2426.0,0.0031
2425.0,0.003
2424.0,0.003
2423.0,0.003
2422.0,0.003
2421.0,0.003
2420.0,0.003
2419.0,0.0029
2418.0,0.003
2417.0,0.003
2416.0,0.003
2415.0,0.0031
2414.0,0.0031
2413.0,0.0031
2412.0,0.0031
2411.0,0.0031
2410.0,0.0031
2409.0,0.0031
2408.0,0.0031
2407.0,0.0031
2406.0,0.0031
2405.0,0.0031
2404.0,0.0031
2403.0,0.0031
2402.0,0.003
2401.0,0.003
2400.0,0.003
2399.0,0.003
2398.0,0.003
2397.0,0.0031
2396.0,0.0031
2395.0,0.0031
2394.0,0.0031
2393.0,0.0031
2392.0,0.0031
2391.0,0.0031
2390.0,0.0031
2389.0,0.003
2388.0,0.003
2387.0,0.0029
2386.0,0.0028
2385.0,0.0026
2384.0,0.0025
2383.0,0.0024
2382.0,0.0023
2381.0,0.0023
2380.0,0.0022
2379.0,0.0022
2378.0,0.0021
2377.0,0.002
2376.0,0.0018
2375.0,0.0013
2374.0,0.0006
2373.0,0.0001
2372.0,-0.0001
2371.0,0.0005
2370.0,0.0015
2369.0,0.0025
2368.0,0.0029
2367.0,0.0027
2366.0,0.0023
2365.0,0.0018
2364.0,0.0011
2363.0,0.0007
2362.0,0.0009
2361.0,0.0014
2360.0,0.0013
2359.0,0.0005
2358.0,0.0001
2357.0,0.0008
2356.0,0.0016
2355.0,0.0017
2354.0,0.0012
2353.0,0.0008
2352.0,0.0008
2351.0,0.0008
2350.0,0.0007
2349.0,0.0009
2348.0,0.0011
2347.0,0.0014
2346.0,0.0013
2345.0,0.0006
2344.0,-0.0007
2343.0,-0.0019
2342.0,-0.0024
2341.0,-0.0021
2340.0,-0.0012
2339.0,-0.0002
2338.0,0.0007
2337.0,0.0011
2336.0,0.001
2335.0,0.0006
2334.0,0.0001
2333.0,-0.0002
2332.0,-0.0002
2331.0,0.0004
2330.0,0.0011
2329.0,0.0017
2328.0,0.0018
2327.0,0.0017
2326.0,0.0015
2325.0,0.0015
2324.0,0.0016
2323.0,0.0016
2322.0,0.0016
2321.0,0.0015
2320.0,0.0014
2319.0,0.0015
2318.0,0.0016
2317.0,0.0016
2316.0,0.0015
2315.0,0.0013
2314.0,0.0013
2313.0,0.0013
2312.0,0.0015
2311.0,0.0016
2310.0,0.0017
2309.0,0.0019
2308.0,0.002
2307.0,0.0022
2306.0,0.0022
2305.0,0.0021
2304.0,0.0019
2303.0,0.0018
2302.0,0.0018
2301.0,0.0018
2300.0,0.0019
2299.0,0.002
2298.0,0.002
2297.0,0.0021
2296.0,0.0021
2295.0,0.0021
2294.0,0.0021
2293.0,0.0022
2292.0,0.0023
2291.0,0.0023
2290.0,0.0025
2289.0,0.0026
2288.0,0.0026
2287.0,0.0026
2286.0,0.0026
2285.0,0.0025
2284.0,0.0025
2283.0,0.0025
2282.0,0.0025
2281.0,0.0025
2280.0,0.0025
2279.0,0.0025
2278.0,0.0025
2277.0,0.0025
2276.0,0.0025
2275.0,0.0025
2274.0,0.0024
2273.0,0.0024
2272.0,0.0025
2271.0,0.0025
2270.0,0.0026
2269.0,0.0026
2268.0,0.0026
2267.0,0.0026
2266.0,0.0025
2265.0,0.0024
2264.0,0.0023
2263.0,0.0023
2262.0,0.0023
2261.0,0.0024
2260.0,0.0025
2259.0,0.0025
2258.0,0.0025
2257.0,0.0025
2256.0,0.0025
2255.0,0.0026
2254.0,0.0026
2253.0,0.0026
2252.0,0.0025
2251.0,0.0025
2250.0,0.0025
2249.0,0.0024
2248.0,0.0024
2247.0,0.0024
2246.0,0.0024
2245.0,0.0024
2244.0,0.0024
2243.0,0.0024
2242.0,0.0025
2241.0,0.0025
2240.0,0.0025
2239.0,0.0025
2238.0,0.0025
2237.0,0.0025
2236.0,0.0025
2235.0,0.0025
2234.0,0.0025
2233.0,0.0025
2232.0,0.0025
2231.0,0.0025
2230.0,0.0025
2229.0,0.0025
2228.0,0.0025
2227.0,0.0025
2226.0,0.0024
2225.0,0.0024
2224.0,0.0024
2223.0,0.0024
2222.0,0.0024
2221.0,0.0023
2220.0,0.0023
2219.0,0.0023
2218.0,0.0023
2217.0,0.0023
2216.0,0.0024
2215.0,0.0024
2214.0,0.0023
2213.0,0.0023
2212.0,0.0023
2211.0,0.0023
2210.0,0.0023
2209.0,0.0023
2208.0,0.0024
2207.0,0.0024
2206.0,0.0024
2205.0,0.0024
2204.0,0.0024
2203.0,0.0024
2202.0,0.0023
2201.0,0.0023
2200.0,0.0022
2199.0,0.0023
2198.0,0.0023
2197.0,0.0023
2196.0,0.0023
2195.0,0.0023
2194.0,0.0023
2193.0,0.0023
2192.0,0.0023
2191.0,0.0023
2190.0,0.0023
2189.0,0.0023
2188.0,0.0023
2187.0,0.0023
2186.0,0.0023
2185.0,0.0022
2184.0,0.0022
2183.0,0.0022
2182.0,0.0021
2181.0,0.0021
2180.0,0.0021
2179.0,0.0021
2178.0,0.0021
2177.0,0.0021
2176.0,0.0021
2175.0,0.0021
2174.0,0.0021
2173.0,0.002
2172.0,0.002
2171.0,0.002
2170.0,0.002
2169.0,0.002
2168.0,0.0021
2167.0,0.0021
2166.0,0.0022
2165.0,0.0022
2164.0,0.0022
2163.0,0.0022
2162.0,0.0022
2161.0,0.0021
2160.0,0.0021
2159.0,0.0021
2158.0,0.002
2157.0,0.002
2156.0,0.002
2155.0,0.002
2154.0,0.002
2153.0,0.002
2152.0,0.002
2151.0,0.0021
2150.0,0.0021
2149.0,0.002
2148.0,0.002
2147.0,0.002
2146.0,0.0021
2145.0,0.0021
2144.0,0.0021
2143.0,0.0021
2142.0,0.002
2141.0,0.002
2140.0,0.002
2139.0,0.002
2138.0,0.0021
2137.0,0.0021
2136.0,0.0021
2135.0,0.0021
2134.0,0.0021
2133.0,0.0021
2132.0,0.0021
2131.0,0.0021
2130.0,0.0021
2129.0,0.0021
2128.0,0.0021
2127.0,0.0021
2126.0,0.0021
2125.0,0.002
2124.0,0.002
2123.0,0.002
2122.0,0.002
2121.0,0.002
2120.0,0.002
2119.0,0.002
2118.0,0.002
2117.0,0.0021
2116.0,0.0021
2115.0,0.0022
2114.0,0.0022
2113.0,0.0021
2112.0,0.0021
2111.0,0.002
2110.0,0.002
2109.0,0.002
2108.0,0.002
2107.0,0.002
2106.0,0.002
2105.0,0.002
2104.0,0.002
2103.0,0.002
2102.0,0.002
2101.0,0.002
2100.0,0.002
2099.0,0.0019
2098.0,0.0019
2097.0,0.0019
2096.0,0.0019
2095.0,0.0019
2094.0,0.0019
2093.0,0.0019
2092.0,0.0019
2091.0,0.0019
2090.0,0.0019
2089.0,0.0019
2088.0,0.0018
2087.0,0.0018
2086.0,0.0018
2085.0,0.0019
2084.0,0.0019
2083.0,0.0019
2082.0,0.0019
2081.0,0.0019
2080.0,0.0018
2079.0,0.0018
2078.0,0.0018
2077.0,0.0019
2076.0,0.0019
2075.0,0.0019
2074.0,0.0018
2073.0,0.0018
2072.0,0.0017
2071.0,0.0017
2070.0,0.0017
2069.0,0.0017
2068.0,0.0016
2067.0,0.0017
2066.0,0.0017
2065.0,0.0017
2064.0,0.0017
2063.0,0.0017
2062.0,0.0017
2061.0,0.0016
2060.0,0.0016
2059.0,0.0015
2058.0,0.0015
2057.0,0.0015
2056.0,0.0015
2055.0,0.0015
2054.0,0.0015
2053.0,0.0015
2052.0,0.0015
2051.0,0.0015
2050.0,0.0014
2049.0,0.0014
2048.0,0.0013
2047.0,0.0013
2046.0,0.0013
2045.0,0.0013
2044.0,0.0014
2043.0,0.0014
2042.0,0.0014
2041.0,0.0014
2040.0,0.0013
2039.0,0.0012
2038.0,0.0012
2037.0,0.0012
2036.0,0.0011
2035.0,0.0011
2034.0,0.0011
2033.0,0.0012
2032.0,0.0012
2031.0,0.0012
2030.0,0.0012
2029.0,0.0012
2028.0,0.0012
2027.0,0.0011
2026.0,0.0011
2025.0,0.0011
2024.0,0.0011
2023.0,0.0011
2022.0,0.0011
2021.0,0.0011
2020.0,0.0011
2019.0,0.0011
2018.0,0.0011
2017.0,0.0011
2016.0,0.0011
2015.0,0.0011
2014.0,0.0011
2013.0,0.001
2012.0,0.001
2011.0,0.001
2010.0,0.001
2009.0,0.0011
2008.0,0.001
2007.0,0.001
2006.0,0.001
2005.0,0.001
2004.0,0.001
2003.0,0.001
2002.0,0.001
2001.0,0.001
2000.0,0.001
1999.0,0.001
1998.0,0.001
1997.0,0.001
1996.0,0.001
1995.0,0.0009
1994.0,0.0009
1993.0,0.0009
1992.0,0.0009
1991.0,0.0009
1990.0,0.001
1989.0,0.001
1988.0,0.001
1987.0,0.001
1986.0,0.001
1985.0,0.001
1984.0,0.001
1983.0,0.001
1982.0,0.001
1981.0,0.001
1980.0,0.001
1979.0,0.001
1978.0,0.0009
1977.0,0.0009
1976.0,0.0009
1975.0,0.0009
1974.0,0.0009
1973.0,0.001
1972.0,0.001
1971.0,0.001
1970.0,0.001
1969.0,0.001
1968.0,0.001
1967.0,0.001
1966.0,0.001
1965.0,0.001
1964.0,0.001
1963.0,0.001
1962.0,0.001
1961.0,0.001
1960.0,0.001
1959.0,0.001
1958.0,0.001
1957.0,0.0011
1956.0,0.0011
1955.0,0.0012
1954.0,0.0012
1953.0,0.0012
1952.0,0.0011
1951.0,0.0011
1950.0,0.0011
1949.0,0.0011
1948.0,0.0011
1947.0,0.0012
1946.0,0.0013
1945.0,0.0013
1944.0,0.0012
1943.0,0.0012
1942.0,0.0011
1941.0,0.001
1940.0,0.001
1939.0,0.001
1938.0,0.0009
1937.0,0.0009
1936.0,0.0008
1935.0,0.0008
1934.0,0.0007
1933.0,0.0007
1932.0,0.0007
1931.0,0.0006
1930.0,0.0005
1929.0,0.0005
1928.0,0.0005
1927.0,0.0005
1926.0,0.0005
1925.0,0.0005
1924.0,0.0004
1923.0,0.0004
1922.0,0.0004
1921.0,0.0003
1920.0,0.0003
1919.0,0.0002
1918.0,0.0002
1917.0,0.0001
1916.0,0.0001
1915.0,0.0001
1914.0,0.0001
1913.0,0.0001
1912.0,0.0
1911.0,-0.0
1910.0,-0.0001
1909.0,-0.0002
1908.0,-0.0002
1907.0,-0.0002
1906.0,-0.0002
1905.0,-0.0002
1904.0,-0.0003
1903.0,-0.0003
1902.0,-0.0004
1901.0,-0.0004
1900.0,-0.0004
1899.0,-0.0004
1898.0,-0.0004
1897.0,-0.0005
1896.0,-0.0005
1895.0,-0.0006
1894.0,-0.0006
1893.0,-0.0006
1892.0,-0.0006
1891.0,-0.0006
1890.0,-0.0006
1889.0,-0.0007
1888.0,-0.0007
1887.0,-0.0008
1886.0,-0.0008
1885.0,-0.0008
1884.0,-0.0009
1883.0,-0.0009
1882.0,-0.001
1881.0,-0.001
1880.0,-0.0011
1879.0,-0.0011
1878.0,-0.0012
1877.0,-0.0012
1876.0,-0.0012
1875.0,-0.0012
1874.0,-0.0012
1873.0,-0.0013
1872.0,-0.0013
1871.0,-0.0012
1870.0,-0.0012
1869.0,-0.0012
1868.0,-0.0013
1867.0,-0.0014
1866.0,-0.0014
1865.0,-0.0014
1864.0,-0.0015
1863.0,-0.0015
1862.0,-0.0015
1861.0,-0.0016
1860.0,-0.0016
1859.0,-0.0016
1858.0,-0.0016
1857.0,-0.0016
1856.0,-0.0017
1855.0,-0.0017
1854.0,-0.0017
1853.0,-0.0018
1852.0,-0.0018
1851.0,-0.0018
1850.0,-0.0017
1849.0,-0.0017
1848.0,-0.0017
1847.0,-0.0017
1846.0,-0.0017
1845.0,-0.0017
1844.0,-0.0018
1843.0,-0.0019
1842.0,-0.0019
1841.0,-0.0019
1840.0,-0.0019
1839.0,-0.0019
1838.0,-0.0019
1837.0,-0.0019
1836.0,-0.002
1835.0,-0.002
1834.0,-0.002
1833.0,-0.002
1832.0,-0.0019
1831.0,-0.0019
1830.0,-0.0019
1829.0,-0.0019
1828.0,-0.0019
1827.0,-0.0019
1826.0,-0.0019
1825.0,-0.002
1824.0,-0.0021
1823.0,-0.0021
1822.0,-0.0021
1821.0,-0.0022
1820.0,-0.0022
1819.0,-0.0022
1818.0,-0.0023
1817.0,-0.0024
1816.0,-0.0025
1815.0,-0.0026
1814.0,-0.0026
1813.0,-0.0025
1812.0,-0.0025
1811.0,-0.0025
1810.0,-0.0026
1809.0,-0.0028
1808.0,-0.0029
1807.0,-0.003
1806.0,-0.003
1805.0,-0.003
1804.0,-0.003
1803.0,-0.003
1802.0,-0.003
1801.0,-0.0031
1800.0,-0.0032
1799.0,-0.0033
1798.0,-0.0033
1797.0,-0.0034
1796.0,-0.0035
1795.0,-0.0035
1794.0,-0.0035
1793.0,-0.0035
1792.0,-0.0036
1791.0,-0.0037
1790.0,-0.0038
1789.0,-0.0038
1788.0,-0.0039
1787.0,-0.0039
1786.0,-0.0039
1785.0,-0.004
1784.0,-0.0041
1783.0,-0.004
1782.0,-0.004
1781.0,-0.004
1780.0,-0.004
1779.0,-0.0041
1778.0,-0.0041
1777.0,-0.0041
1776.0,-0.0041
1775.0,-0.0041
1774.0,-0.0041
1773.0,-0.0041
1772.0,-0.0042
1771.0,-0.0042
1770.0,-0.0043
1769.0,-0.0043
1768.0,-0.0043
1767.0,-0.0043
1766.0,-0.0042
1765.0,-0.0041
1764.0,-0.0039
1763.0,-0.0038
1762.0,-0.0037
1761.0,-0.0037
1760.0,-0.0035
1759.0,-0.0033
1758.0,-0.003
1757.0,-0.0028
1756.0,-0.0025
1755.0,-0.0021
1754.0,-0.0017
1753.0,-0.0013
1752.0,-0.0008
1751.0,-0.0001
1750.0,0.0007
1749.0,0.0016
1748.0,0.0027
1747.0,0.0039
1746.0,0.0052
1745.0,0.0067
1744.0,0.0085
1743.0,0.0104
1742.0,0.0125
1741.0,0.0149
1740.0,0.0176
1739.0,0.0205
1738.0,0.0227
1737.0,0.0246
1736.0,0.0265
1735.0,0.0295
1734.0,0.0333
1733.0,0.0365
1732.0,0.0388
1731.0,0.0411
1730.0,0.0435
1729.0,0.0458
1728.0,0.048
1727.0,0.0499
1726.0,0.0518
1725.0,0.0537
1724.0,0.0557
1723.0,0.0577
1722.0,0.0593
1721.0,0.0607
1720.0,0.0619
1719.0,0.0633
1718.0,0.0651
1717.0,0.0668
1716.0,0.0679
1715.0,0.0685
1714.0,0.0686
1713.0,0.0683
1712.0,0.0674
1711.0,0.0661
1710.0,0.0646
1709.0,0.0629
1708.0,0.0608
1707.0,0.0583
1706.0,0.0553
1705.0,0.0525
1704.0,0.0504
1703.0,0.0488
1702.0,0.0469
1701.0,0.0443
1700.0,0.0416
1699.0,0.0398
1698.0,0.0386
1697.0,0.0372
1696.0,0.0355
1695.0,0.0341
1694.0,0.0332
1693.0,0.0324
1692.0,0.0317
1691.0,0.0308
1690.0,0.0299
1689.0,0.0292
1688.0,0.0287
1687.0,0.0282
1686.0,0.0276
1685.0,0.0268
1684.0,0.0262
1683.0,0.0257
1682.0,0.0252
1681.0,0.0248
1680.0,0.0244
1679.0,0.0239
1678.0,0.0235
1677.0,0.0231
1676.0,0.0226
1675.0,0.0221
1674.0,0.0216
1673.0,0.0213
1672.0,0.0209
1671.0,0.0205
1670.0,0.02
1669.0,0.0196
1668.0,0.0192
1667.0,0.0188
1666.0,0.0185
1665.0,0.0182
1664.0,0.0178
1663.0,0.0173
1662.0,0.0169
1661.0,0.0166
1660.0,0.0162
1659.0,0.016
1658.0,0.0157
1657.0,0.0156
1656.0,0.0154
1655.0,0.0151
1654.0,0.0147
1653.0,0.0143
1652.0,0.014
1651.0,0.0138
1650.0,0.0138
1649.0,0.0137
1648.0,0.0135
1647.0,0.0131
1646.0,0.0129
1645.0,0.0127
1644.0,0.0126
1643.0,0.0124
1642.0,0.0123
1641.0,0.0121
1640.0,0.012
1639.0,0.0118
1638.0,0.0116
1637.0,0.0114
1636.0,0.0113
1635.0,0.0113
1634.0,0.0112
1633.0,0.011
1632.0,0.0109
1631.0,0.0108
1630.0,0.0107
1629.0,0.0107
1628.0,0.0106
1627.0,0.0105
1626.0,0.0104
1625.0,0.0103
1624.0,0.0102
1623.0,0.01
1622.0,0.0099
1621.0,0.0098
1620.0,0.0098
1619.0,0.0097
1618.0,0.0097
1617.0,0.0098
1616.0,0.01
1615.0,0.0101
1614.0,0.0101
1613.0,0.0101
1612.0,0.01
1611.0,0.0099
1610.0,0.0097
1609.0,0.0096
1608.0,0.0094
1607.0,0.0093
1606.0,0.0091
1605.0,0.0088
1604.0,0.0086
1603.0,0.0084
1602.0,0.0082
1601.0,0.008
1600.0,0.0078
1599.0,0.0077
1598.0,0.0075
1597.0,0.0074
1596.0,0.0072
1595.0,0.0071
1594.0,0.007
1593.0,0.0069
1592.0,0.0068
1591.0,0.0068
1590.0,0.0067
1589.0,0.0067
1588.0,0.0067
1587.0,0.0067
1586.0,0.0067
1585.0,0.0069
1584.0,0.0071
1583.0,0.0075
1582.0,0.008
1581.0,0.0085
1580.0,0.0089
1579.0,0.0093
1578.0,0.0095
1577.0,0.0095
1576.0,0.0093
1575.0,0.009
1574.0,0.0087
1573.0,0.0085
1572.0,0.0082
1571.0,0.0079
1570.0,0.0075
1569.0,0.0072
1568.0,0.0069
1567.0,0.0066
1566.0,0.0065
1565.0,0.0064
1564.0,0.0063
1563.0,0.0062
1562.0,0.0061
1561.0,0.006
1560.0,0.0057
1559.0,0.0055
1558.0,0.0054
1557.0,0.0054
1556.0,0.0053
1555.0,0.0053
1554.0,0.0052
1553.0,0.0051
1552.0,0.005
1551.0,0.0049
1550.0,0.0048
1549.0,0.0046
1548.0,0.0045
1547.0,0.0044
1546.0,0.0044
1545.0,0.0043
1544.0,0.0042
1543.0,0.0041
1542.0,0.004
1541.0,0.004
1540.0,0.004
1539.0,0.0039
1538.0,0.0037
1537.0,0.0037
1536.0,0.0037
1535.0,0.0038
1534.0,0.0039
1533.0,0.0039
1532.0,0.0039
1531.0,0.0038
1530.0,0.0037
1529.0,0.0037
1528.0,0.0037
1527.0,0.0037
1526.0,0.0037
1525.0,0.0037
1524.0,0.0036
1523.0,0.0035
1522.0,0.0034
1521.0,0.0034
1520.0,0.0033
1519.0,0.0032
1518.0,0.0031
1517.0,0.0029
1516.0,0.0029
1515.0,0.0028
1514.0,0.0028
1513.0,0.0028
1512.0,0.003
1511.0,0.0033
1510.0,0.0038
1509.0,0.0044
1508.0,0.0058
1507.0,0.0082
1506.0,0.0097
1505.0,0.0098
1504.0,0.0094
1503.0,0.0086
1502.0,0.0077
1501.0,0.0068
1500.0,0.0059
1499.0,0.0051
1498.0,0.0043
1497.0,0.0036
1496.0,0.0031
1495.0,0.0027
1494.0,0.0024
1493.0,0.0023
1492.0,0.0022
1491.0,0.0022
1490.0,0.0022
1489.0,0.0021
1488.0,0.0021
1487.0,0.0021
1486.0,0.0022
1485.0,0.0023
1484.0,0.0025
1483.0,0.0026
1482.0,0.0028
1481.0,0.0031
1480.0,0.0034
1479.0,0.0036
1478.0,0.0038
1477.0,0.0041
1476.0,0.0044
1475.0,0.0045
1474.0,0.0046
1473.0,0.0047
1472.0,0.0048
1471.0,0.0047
1470.0,0.0047
1469.0,0.0047
1468.0,0.0048
1467.0,0.005
1466.0,0.0052
1465.0,0.0055
1464.0,0.0058
1463.0,0.0061
1462.0,0.0064
1461.0,0.0067
1460.0,0.0071
1459.0,0.0074
1458.0,0.0078
1457.0,0.0083
1456.0,0.0086
1455.0,0.0087
1454.0,0.0088
1453.0,0.0088
1452.0,0.0087
1451.0,0.0085
1450.0,0.0083
1449.0,0.0082
1448.0,0.008
1447.0,0.0078
1446.0,0.0076
1445.0,0.0075
1444.0,0.0073
1443.0,0.0072
1442.0,0.0071
1441.0,0.007
1440.0,0.0069
1439.0,0.0067
1438.0,0.0065
1437.0,0.0061
1436.0,0.0055
1435.0,0.005
1434.0,0.0046
1433.0,0.0042
1432.0,0.0037
1431.0,0.0032
1430.0,0.0026
1429.0,0.002
1428.0,0.0016
1427.0,0.0013
1426.0,0.0012
1425.0,0.001
1424.0,0.0009
1423.0,0.0009
1422.0,0.001
1421.0,0.0013
1420.0,0.0018
1419.0,0.0027
1418.0,0.004
1417.0,0.0054
1416.0,0.0071
1415.0,0.0092
1414.0,0.0119
1413.0,0.015
1412.0,0.0183
1411.0,0.0215
1410.0,0.0239
1409.0,0.0254
1408.0,0.026
1407.0,0.0255
1406.0,0.0241
1405.0,0.022
1404.0,0.0199
1403.0,0.018
1402.0,0.0164
1401.0,0.0151
1400.0,0.0137
1399.0,0.0124
1398.0,0.0113
1397.0,0.0105
1396.0,0.0097
1395.0,0.0089
1394.0,0.0081
1393.0,0.0075
1392.0,0.007
1391.0,0.0066
1390.0,0.0063
1389.0,0.006
1388.0,0.0057
1387.0,0.0055
1386.0,0.0053
1385.0,0.0052
1384.0,0.0052
1383.0,0.0053
1382.0,0.0054
1381.0,0.0056
1380.0,0.0058
1379.0,0.0061
1378.0,0.0064
1377.0,0.0067
1376.0,0.0071
1375.0,0.0075
1374.0,0.008
1373.0,0.0083
1372.0,0.0084
1371.0,0.0084
1370.0,0.0083
1369.0,0.008
1368.0,0.0075
1367.0,0.007
1366.0,0.0064
1365.0,0.0058
1364.0,0.005
1363.0,0.0042
1362.0,0.0034
1361.0,0.0029
1360.0,0.0025
1359.0,0.0023
1358.0,0.0021
1357.0,0.0021
1356.0,0.0021
1355.0,0.0022
1354.0,0.0025
1353.0,0.0028
1352.0,0.0033
1351.0,0.0039
1350.0,0.0047
1349.0,0.0056
1348.0,0.0068
1347.0,0.0082
1346.0,0.0098
1345.0,0.0116
1344.0,0.0136
1343.0,0.0156
1342.0,0.0177
1341.0,0.0196
1340.0,0.0212
1339.0,0.022
1338.0,0.0218
1337.0,0.0207
1336.0,0.0189
1335.0,0.0166
1334.0,0.014
1333.0,0.0115
1332.0,0.0091
1331.0,0.0071
1330.0,0.0056
1329.0,0.0046
1328.0,0.0039
1327.0,0.0035
1326.0,0.0034
1325.0,0.0034
1324.0,0.0035
1323.0,0.0038
1322.0,0.0041
1321.0,0.0045
1320.0,0.005
1319.0,0.0054
1318.0,0.0058
1317.0,0.0063
1316.0,0.0067
1315.0,0.0072
1314.0,0.0078
1313.0,0.0084
1312.0,0.0091
1311.0,0.0098
1310.0,0.0105
1309.0,0.0113
1308.0,0.0122
1307.0,0.013
1306.0,0.0137
1305.0,0.0145
1304.0,0.0153
1303.0,0.0162
1302.0,0.0173
1301.0,0.0186
1300.0,0.02
1299.0,0.0216
1298.0,0.0233
1297.0,0.0251
1296.0,0.0269
1295.0,0.0287
1294.0,0.0304
1293.0,0.0321
1292.0,0.0337
1291.0,0.0352
1290.0,0.0366
1289.0,0.038
1288.0,0.0393
1287.0,0.0405
1286.0,0.0416
1285.0,0.0427
1284.0,0.0436
1283.0,0.0445
1282.0,0.0453
1281.0,0.0461
1280.0,0.047
1279.0,0.0478
1278.0,0.0487
1277.0,0.0497
1276.0,0.0508
1275.0,0.0522
1274.0,0.0537
1273.0,0.0556
1272.0,0.0577
1271.0,0.0601
1270.0,0.0626
1269.0,0.065
1268.0,0.0674
1267.0,0.0697
1266.0,0.0718
1265.0,0.0737
1264.0,0.0755
1263.0,0.077
1262.0,0.0781
1261.0,0.0791
1260.0,0.0798
1259.0,0.0803
1258.0,0.0806
1257.0,0.0808
1256.0,0.0811
1255.0,0.0815
1254.0,0.082
1253.0,0.0827
1252.0,0.0836
1251.0,0.0847
1250.0,0.0859
1249.0,0.0873
1248.0,0.0889
1247.0,0.0904
1246.0,0.0919
1245.0,0.0934
1244.0,0.095
1243.0,0.0966
1242.0,0.0979
1241.0,0.0991
1240.0,0.1
1239.0,0.1006
1238.0,0.1009
1237.0,0.1008
1236.0,0.1004
1235.0,0.0996
1234.0,0.0984
1233.0,0.097
1232.0,0.0953
1231.0,0.0934
1230.0,0.0913
1229.0,0.0891
1228.0,0.087
1227.0,0.0847
1226.0,0.0824
1225.0,0.0801
1224.0,0.0778
1223.0,0.0755
1222.0,0.0732
1221.0,0.071
1220.0,0.0689
1219.0,0.0667
1218.0,0.0645
1217.0,0.0625
1216.0,0.0605
1215.0,0.0586
1214.0,0.0568
1213.0,0.0551
1212.0,0.0535
1211.0,0.052
1210.0,0.0505
1209.0,0.0491
1208.0,0.0477
1207.0,0.0465
1206.0,0.0452
1205.0,0.044
1204.0,0.0428
1203.0,0.0416
1202.0,0.0405
1201.0,0.0394
1200.0,0.0383
1199.0,0.0372
1198.0,0.0361
1197.0,0.0351
1196.0,0.0341
1195.0,0.0331
1194.0,0.0321
1193.0,0.0312
1192.0,0.0303
1191.0,0.0294
1190.0,0.0285
1189.0,0.0277
1188.0,0.0269
1187.0,0.0262
1186.0,0.0256
1185.0,0.025
1184.0,0.0246
1183.0,0.0243
1182.0,0.0241
1181.0,0.0242
1180.0,0.0243
1179.0,0.0245
1178.0,0.0247
1177.0,0.0248
1176.0,0.0249
1175.0,0.0249
1174.0,0.0248
1173.0,0.0245
1172.0,0.0239
1171.0,0.0232
1170.0,0.0222
1169.0,0.0212
1168.0,0.0202
1167.0,0.0193
1166.0,0.0185
1165.0,0.0178
1164.0,0.0172
1163.0,0.0167
1162.0,0.0163
1161.0,0.016
1160.0,0.0157
1159.0,0.0154
1158.0,0.0153
1157.0,0.0152
1156.0,0.0152
1155.0,0.0152
1154.0,0.0154
1153.0,0.0157
1152.0,0.0161
1151.0,0.0167
1150.0,0.0174
1149.0,0.0181
1148.0,0.019
1147.0,0.02
1146.0,0.021
1145.0,0.0222
1144.0,0.0234
1143.0,0.0247
1142.0,0.026
1141.0,0.0273
1140.0,0.0287
1139.0,0.0301
1138.0,0.0316
1137.0,0.0331
1136.0,0.0346
1135.0,0.0362
1134.0,0.0378
1133.0,0.0396
1132.0,0.0414
1131.0,0.0434
1130.0,0.0455
1129.0,0.0478
1128.0,0.0501
1127.0,0.0526
1126.0,0.0552
1125.0,0.0578
1124.0,0.0604
1123.0,0.0629
1122.0,0.0652
1121.0,0.0674
1120.0,0.0692
1119.0,0.0707
1118.0,0.0718
1117.0,0.0724
1116.0,0.0725
1115.0,0.0721
1114.0,0.0715
1113.0,0.0708
1112.0,0.0704
1111.0,0.0706
1110.0,0.0714
1109.0,0.0731
1108.0,0.0755
1107.0,0.0784
1106.0,0.0816
1105.0,0.0848
1104.0,0.0881
1103.0,0.0912
1102.0,0.0941
1101.0,0.0969
1100.0,0.0994
1099.0,0.1017
1098.0,0.1036
1097.0,0.1052
1096.0,0.1066
1095.0,0.1076
1094.0,0.1083
1093.0,0.1087
1092.0,0.1088
1091.0,0.1085
1090.0,0.1079
1089.0,0.1071
1088.0,0.1063
1087.0,0.1053
1086.0,0.1043
1085.0,0.1032
1084.0,0.1021
1083.0,0.1009
1082.0,0.0994
1081.0,0.0978
1080.0,0.096
1079.0,0.0939
1078.0,0.0916
1077.0,0.0892
1076.0,0.0868
1075.0,0.0842
1074.0,0.0817
1073.0,0.0792
1072.0,0.0769
1071.0,0.0745
1070.0,0.0723
1069.0,0.0702
1068.0,0.0683
1067.0,0.0664
1066.0,0.0647
1065.0,0.063
1064.0,0.0615
1063.0,0.0601
1062.0,0.0586
1061.0,0.0573
1060.0,0.0561
1059.0,0.0551
1058.0,0.0541
1057.0,0.0534
1056.0,0.0528
1055.0,0.0523
1054.0,0.052
1053.0,0.0517
1052.0,0.0516
1051.0,0.0517
1050.0,0.0518
1049.0,0.0519
1048.0,0.0521
1047.0,0.0523
1046.0,0.0524
1045.0,0.0526
1044.0,0.0528
1043.0,0.0528
1042.0,0.0528
1041.0,0.0525
1040.0,0.0521
1039.0,0.0516
1038.0,0.051
1037.0,0.0504
1036.0,0.0496
1035.0,0.0487
1034.0,0.0478
1033.0,0.0469
1032.0,0.0461
1031.0,0.0452
1030.0,0.0443
1029.0,0.0435
1028.0,0.0429
1027.0,0.0426
1026.0,0.0431
1025.0,0.0445
1024.0,0.0471
1023.0,0.051
1022.0,0.0561
1021.0,0.0623
1020.0,0.0691
1019.0,0.0758
1018.0,0.0815
1017.0,0.0853
1016.0,0.0867
1015.0,0.0855
1014.0,0.0822
1013.0,0.0779
1012.0,0.0733
1011.0,0.0691
1010.0,0.0654
1009.0,0.0623
1008.0,0.0598
1007.0,0.0576
1006.0,0.0557
1005.0,0.0541
1004.0,0.0527
1003.0,0.0515
1002.0,0.0504
1001.0,0.0495
1000.0,0.0486
999.0,0.0478
998.0,0.0471
997.0,0.0464
996.0,0.0459
995.0,0.0453
994.0,0.0448
993.0,0.0442
992.0,0.0438
991.0,0.0433
990.0,0.043
989.0,0.0427
988.0,0.0425
987.0,0.0423
986.0,0.0422
985.0,0.0422
984.0,0.0421
983.0,0.0422
982.0,0.0424
981.0,0.0427
980.0,0.0432
979.0,0.0436
978.0,0.0442
977.0,0.0447
976.0,0.0452
975.0,0.0457
974.0,0.0462
973.0,0.0465
972.0,0.0467
971.0,0.0467
970.0,0.0466
969.0,0.0464
968.0,0.046
967.0,0.0456
966.0,0.0451
965.0,0.0446
964.0,0.0441
963.0,0.0434
962.0,0.0428
961.0,0.0422
960.0,0.0417
959.0,0.0411
958.0,0.0405
957.0,0.04
956.0,0.0395
955.0,0.039
954.0,0.0385
953.0,0.038
952.0,0.0376
951.0,0.0372
950.0,0.0369
949.0,0.0366
948.0,0.0363
947.0,0.0359
946.0,0.0356
945.0,0.0353
944.0,0.035
943.0,0.0348
942.0,0.0345
941.0,0.0342
940.0,0.034
939.0,0.0339
938.0,0.0337
937.0,0.0336
936.0,0.0333
935.0,0.0331
934.0,0.0329
933.0,0.0328
932.0,0.0326
931.0,0.0325
930.0,0.0324
929.0,0.0322
928.0,0.032
927.0,0.0317
926.0,0.0314
925.0,0.0311
924.0,0.0309
923.0,0.0306
922.0,0.0303
921.0,0.0301
920.0,0.03
919.0,0.0298
918.0,0.0297
917.0,0.0295
916.0,0.0294
915.0,0.0293
914.0,0.0292
913.0,0.0292
912.0,0.0292
911.0,0.0293
910.0,0.0295
909.0,0.0298
908.0,0.0303
907.0,0.0307
906.0,0.0312
905.0,0.0317
904.0,0.0322
903.0,0.0327
902.0,0.0331
901.0,0.0334
900.0,0.0337
899.0,0.034
898.0,0.0343
897.0,0.0346
896.0,0.0347
895.0,0.0346
894.0,0.0345
893.0,0.0344
892.0,0.0343
891.0,0.0341
890.0,0.034
889.0,0.0339
888.0,0.0339
887.0,0.0341
886.0,0.0344
885.0,0.035
884.0,0.0359
883.0,0.037
882.0,0.0384
881.0,0.0402
880.0,0.0425
879.0,0.045
878.0,0.0479
877.0,0.0509
876.0,0.0541
875.0,0.0571
874.0,0.0595
873.0,0.061
872.0,0.0613
871.0,0.0602
870.0,0.0582
869.0,0.0557
868.0,0.0532
867.0,0.0508
866.0,0.0488
865.0,0.0472
864.0,0.046
863.0,0.0451
862.0,0.0444
861.0,0.0438
860.0,0.0432
859.0,0.0427
858.0,0.0423
857.0,0.0421
856.0,0.042
855.0,0.0421
854.0,0.0422
853.0,0.0423
852.0,0.0424
851.0,0.0426
850.0,0.043
849.0,0.0434
848.0,0.0437
847.0,0.0438
846.0,0.0439
845.0,0.0439
844.0,0.0439
843.0,0.0439
842.0,0.0437
841.0,0.0435
840.0,0.0432
839.0,0.0429
838.0,0.0425
837.0,0.0421
836.0,0.0418
835.0,0.0413
834.0,0.0407
833.0,0.0401
832.0,0.0395
831.0,0.039
830.0,0.0385
829.0,0.038
828.0,0.0377
827.0,0.0373
826.0,0.0369
825.0,0.0365
824.0,0.0361
823.0,0.0357
822.0,0.0354
821.0,0.0352
820.0,0.035
819.0,0.0349
818.0,0.0348
817.0,0.0346
816.0,0.0345
815.0,0.0344
814.0,0.0343
813.0,0.0342
812.0,0.0341
811.0,0.034
810.0,0.0338
809.0,0.0336
808.0,0.0335
807.0,0.0333
806.0,0.0331
805.0,0.0329
804.0,0.0326
803.0,0.0323
802.0,0.032
801.0,0.0316
800.0,0.0314
799.0,0.0316
798.0,0.0322
797.0,0.0333
796.0,0.0347
795.0,0.0362
794.0,0.0373
793.0,0.0378
792.0,0.0378
791.0,0.0372
790.0,0.0363
789.0,0.0352
788.0,0.0341
787.0,0.0331
786.0,0.032
785.0,0.0312
784.0,0.0304
783.0,0.0298
782.0,0.0293
781.0,0.0289
780.0,0.0284
779.0,0.0279
778.0,0.0274
777.0,0.0269
776.0,0.0263
775.0,0.0257
774.0,0.0252
773.0,0.0248
772.0,0.0244
771.0,0.0239
770.0,0.0235
769.0,0.023
768.0,0.0225
767.0,0.0219
766.0,0.0213
765.0,0.0207
764.0,0.0202
763.0,0.0196
762.0,0.019
761.0,0.0184
760.0,0.0178
759.0,0.0172
758.0,0.0167
757.0,0.0163
756.0,0.016
755.0,0.0156
754.0,0.0151
753.0,0.0146
752.0,0.014
751.0,0.0134
750.0,0.013
749.0,0.0128
748.0,0.0128
747.0,0.0129
746.0,0.0131
745.0,0.0136
744.0,0.0145
743.0,0.0158
742.0,0.0181
741.0,0.0216
740.0,0.0268
739.0,0.0336
738.0,0.0418
737.0,0.0511
736.0,0.0611
735.0,0.0715
734.0,0.0822
733.0,0.0936
732.0,0.1055
731.0,0.1179
730.0,0.1307
729.0,0.1438
728.0,0.157
727.0,0.1694
726.0,0.1796
725.0,0.1866
724.0,0.1893
723.0,0.1872
722.0,0.1806
721.0,0.1707
720.0,0.159
719.0,0.1473
718.0,0.1367
717.0,0.1273
716.0,0.119
715.0,0.1119
714.0,0.1062
713.0,0.1018
712.0,0.0984
711.0,0.0956
710.0,0.0929
709.0,0.0904
708.0,0.0879
707.0,0.0855
706.0,0.0832
705.0,0.0814
704.0,0.0798
703.0,0.0782
702.0,0.0763
701.0,0.0741
700.0,0.0717
699.0,0.0693
698.0,0.0671
697.0,0.0654
696.0,0.0639
695.0,0.0625
694.0,0.0613
693.0,0.0604
692.0,0.0599
691.0,0.0597
690.0,0.0596
689.0,0.059
688.0,0.0576
687.0,0.0557
686.0,0.0542
685.0,0.0533
684.0,0.053
683.0,0.053
682.0,0.0532
681.0,0.0535
680.0,0.053
679.0,0.0517
678.0,0.0504
677.0,0.05
676.0,0.0506
675.0,0.0514
674.0,0.0515
673.0,0.0508
672.0,0.0497
671.0,0.0487
670.0,0.0484
669.0,0.0491
668.0,0.0497
667.0,0.0486
666.0,0.0471
665.0,0.0461
664.0,0.0455
663.0,0.0451
662.0,0.0449
661.0,0.0449
660.0,0.0449
659.0,0.0449
658.0,0.045
657.0,0.0453
656.0,0.0456
655.0,0.0455
654.0,0.045
653.0,0.0441
652.0,0.0432
651.0,0.0423
650.0,0.042
649.0,0.0425
648.0,0.0432
647.0,0.0432
646.0,0.0425
645.0,0.0416
644.0,0.0407
643.0,0.0401
642.0,0.0398
641.0,0.0401
640.0,0.0405
639.0,0.0408
638.0,0.0408
637.0,0.0409
636.0,0.0413
635.0,0.0421
634.0,0.0435
633.0,0.0448
632.0,0.0454
631.0,0.045
630.0,0.0441
629.0,0.0434
628.0,0.0431
627.0,0.043
626.0,0.0429
625.0,0.043
624.0,0.0428
623.0,0.0424
622.0,0.042
621.0,0.0416
620.0,0.0413
619.0,0.0407
618.0,0.0401
617.0,0.0398
616.0,0.0397
615.0,0.0395
614.0,0.0395
613.0,0.0399
612.0,0.0407
611.0,0.0413
610.0,0.0416
609.0,0.0417
608.0,0.0416
607.0,0.0409
606.0,0.0396
605.0,0.0381
604.0,0.0371
603.0,0.0372
602.0,0.0385
601.0,0.0402
600.0,0.0412
