cm-1,A
4000.0,0.0009565003968372565
3999.0,0.0009565003968372565
3998.0,0.0009565003968372565
3997.0,0.0009129773741116676
3996.0,0.0009129773741116676
3995.0,0.000869458712629001
3994.0,0.000869458712629001
3993.0,0.000869458712629001
3992.0,0.0008259444115150671
3991.0,0.0008259444115150671
3990.0,0.000869458712629001
3989.0,0.0009129773741116676
3988.0,0.0009565003968372565
3987.0,0.0010000277816797354
3986.0,0.0010000277816797354
3985.0,0.0010435595295137379
3984.0,0.0010435595295137379
3983.0,0.0010870956412141197
3982.0,0.0010870956412141197
3981.0,0.0010870956412141197
3980.0,0.0010435595295137379
3979.0,0.0010000277816797354
3978.0,0.0009129773741116676
3977.0,0.000869458712629001
3976.0,0.0008259444115150671
3975.0,0.0007824344698965646
3974.0,0.0007824344698965646
3973.0,0.0007824344698965646
3972.0,0.0007824344698965646
3971.0,0.0007824344698965646
3970.0,0.0008259444115150671
3969.0,0.0008259444115150671
3968.0,0.000869458712629001
3967.0,0.0009129773741116676
3966.0,0.0009129773741116676
3965.0,0.0009129773741116676
3964.0,0.000869458712629001
3963.0,0.0008259444115150671
3962.0,0.000869458712629001
3961.0,0.0009129773741116676
3960.0,0.0009565003968372565
3959.0,0.0010000277816797354
3958.0,0.0010000277816797354
3957.0,0.0010000277816797354
3956.0,0.0010000277816797354
3955.0,0.0010435595295137379
3954.0,0.0010435595295137379
3953.0,0.0010435595295137379
3952.0,0.0010000277816797354
3951.0,0.0009129773741116676
3950.0,0.0008259444115150671
3949.0,0.0007824344698965646
3948.0,0.0007389288868995258
3947.0,0.0006954276616513155
3946.0,0.0007389288868995258
3945.0,0.0007824344698965646
3944.0,0.000869458712629001
3943.0,0.0010000277816797354
3942.0,0.0010870956412141197
3941.0,0.0011741809597138886
3940.0,0.0011306361176557367
3939.0,0.0010870956412141197
3938.0,0.0009565003968372565
3937.0,0.0009129773741116676
3936.0,0.000869458712629001
3935.0,0.0008259444115150671
3934.0,0.000869458712629001
3933.0,0.000869458712629001
3932.0,0.000869458712629001
3931.0,0.0009129773741116676
3930.0,0.0009565003968372565
3929.0,0.0009565003968372565
3928.0,0.0010000277816797354
3927.0,0.0010435595295137379
3926.0,0.0010435595295137379
3925.0,0.0010435595295137379
3924.0,0.0010435595295137379
3923.0,0.0010000277816797354
3922.0,0.0009565003968372565
3921.0,0.0009129773741116676
3920.0,0.000869458712629001
3919.0,0.0008259444115150671
3918.0,0.0007824344698965646
3917.0,0.0007824344698965646
3916.0,0.0008259444115150671
3915.0,0.000869458712629001
3914.0,0.0009129773741116676
3913.0,0.0009565003968372565
3912.0,0.0010000277816797354
3911.0,0.0010000277816797354
3910.0,0.0010000277816797354
3909.0,0.0010435595295137379
3908.0,0.0010870956412141197
3907.0,0.0011306361176557367
3906.0,0.0010870956412141197
3905.0,0.0010000277816797354
3904.0,0.0009129773741116676
3903.0,0.0008259444115150671
3902.0,0.0007824344698965646
3901.0,0.000869458712629001
3900.0,0.0009129773741116676
3899.0,0.0009129773741116676
3898.0,0.0009129773741116676
3897.0,0.000869458712629001
3896.0,0.000869458712629001
3895.0,0.000869458712629001
3894.0,0.0008259444115150671
3893.0,0.0008259444115150671
3892.0,0.0008259444115150671
3891.0,0.0008259444115150671
3890.0,0.0008259444115150671
3889.0,0.0007824344698965646
3888.0,0.0007389288868995258
3887.0,0.0006519307932786322
3886.0,0.0006084382809090627
3885.0,0.0006084382809090627
3884.0,0.0006519307932786322
3883.0,0.0007389288868995258
3882.0,0.0008259444115150671
3881.0,0.0008259444115150671
3880.0,0.000869458712629001
3879.0,0.0009129773741116676
3878.0,0.0009565003968372565
3877.0,0.0009565003968372565
3876.0,0.0009565003968372565
3875.0,0.0009565003968372565
3874.0,0.0009129773741116676
3873.0,0.0009129773741116676
3872.0,0.0009129773741116676
3871.0,0.0009129773741116676
3870.0,0.000869458712629001
3869.0,0.0008259444115150671
3868.0,0.0007824344698965646
3867.0,0.0008259444115150671
3866.0,0.0009129773741116676
3865.0,0.0009129773741116676
3864.0,0.0008259444115150671
3863.0,0.0007389288868995258
3862.0,0.0007389288868995258
3861.0,0.0007824344698965646
3860.0,0.0008259444115150671
3859.0,0.0008259444115150671
3858.0,0.0007824344698965646
3857.0,0.0006954276616513155
3856.0,0.0006519307932786322
3855.0,0.0006519307932786322
3854.0,0.0007389288868995258
3853.0,0.0007389288868995258
3852.0,0.0007389288868995258
3851.0,0.0007824344698965646
3850.0,0.0008259444115150671
3849.0,0.000869458712629001
3848.0,0.0009565003968372565
3847.0,0.0010000277816797354
3846.0,0.0010435595295137379
3845.0,0.0010870956412141197
3844.0,0.0010870956412141197
3843.0,0.0010435595295137379
3842.0,0.0010435595295137379
3841.0,0.0010000277816797354
3840.0,0.0009129773741116676
3839.0,0.0007824344698965646
3838.0,0.0006954276616513155
3837.0,0.0006084382809090627
3836.0,0.0005649501236701937
3835.0,0.0005649501236701937
3834.0,0.0006084382809090627
3833.0,0.0006519307932786322
3832.0,0.0006954276616513155
3831.0,0.0007824344698965646
3830.0,0.000869458712629001
3829.0,0.0009129773741116676
3828.0,0.0009565003968372565
3827.0,0.0009565003968372565
3826.0,0.0009129773741116676
3825.0,0.000869458712629001
3824.0,0.0008259444115150671
3823.0,0.0008259444115150671
3822.0,0.000869458712629001
3821.0,0.0009129773741116676
3820.0,0.000869458712629001
3819.0,0.000869458712629001
3818.0,0.0009129773741116676
3817.0,0.0009129773741116676
3816.0,0.0009129773741116676
3815.0,0.000869458712629001
3814.0,0.0009129773741116676
3813.0,0.0009129773741116676
3812.0,0.0009129773741116676
3811.0,0.000869458712629001
3810.0,0.0008259444115150671
3809.0,0.0008259444115150671
3808.0,0.0007824344698965646
3807.0,0.0007389288868995258
3806.0,0.0007389288868995258
3805.0,0.0006954276616513155
3804.0,0.0006954276616513155
3803.0,0.0007389288868995258
3802.0,0.0007824344698965646
3801.0,0.0007389288868995258
3800.0,0.0006954276616513155
3799.0,0.0006954276616513155
3798.0,0.0007389288868995258
3797.0,0.0007824344698965646
3796.0,0.0008259444115150671
3795.0,0.000869458712629001
3794.0,0.000869458712629001
3793.0,0.000869458712629001
3792.0,0.000869458712629001
3791.0,0.000869458712629001
3790.0,0.000869458712629001
3789.0,0.000869458712629001
3788.0,0.0008259444115150671
3787.0,0.0007824344698965646
3786.0,0.0007824344698965646
3785.0,0.0008259444115150671
3784.0,0.0008259444115150671
3783.0,0.0008259444115150671
3782.0,0.0008259444115150671
3781.0,0.0008259444115150671
3780.0,0.000869458712629001
3779.0,0.0009129773741116676
3778.0,0.0009129773741116676
3777.0,0.0009129773741116676
3776.0,0.000869458712629001
3775.0,0.0008259444115150671
3774.0,0.0008259444115150671
3773.0,0.0008259444115150671
3772.0,0.000869458712629001
3771.0,0.0009129773741116676
3770.0,0.0009129773741116676
3769.0,0.0009129773741116676
3768.0,0.0009129773741116676
3767.0,0.0009129773741116676
3766.0,0.0009565003968372565
3765.0,0.0009565003968372565
3764.0,0.0009129773741116676
3763.0,0.0009129773741116676
3762.0,0.000869458712629001
3761.0,0.0008259444115150671
3760.0,0.0007824344698965646
3759.0,0.0007389288868995258
3758.0,0.0006954276616513155
3757.0,0.0007389288868995258
3756.0,0.0007389288868995258
3755.0,0.0006954276616513155
3754.0,0.0006519307932786322
3753.0,0.0006084382809090627
3752.0,0.000521466320689834
3751.0,0.0004779868710962365
3750.0,0.00043451177401765406
3749.0,0.00043451177401765406
3748.0,0.0003910410285830057
3747.0,0.00043451177401765406
3746.0,0.0004779868710962365
3745.0,0.000521466320689834
3744.0,0.000521466320689834
3743.0,0.000521466320689834
3742.0,0.000521466320689834
3741.0,0.000521466320689834
3740.0,0.0004779868710962365
3739.0,0.00043451177401765406
3738.0,0.00043451177401765406
3737.0,0.00043451177401765406
3736.0,0.00043451177401765406
3735.0,0.00043451177401765406
3734.0,0.00043451177401765406
3733.0,0.0003910410285830057
3732.0,0.00043451177401765406
3731.0,0.0003910410285830057
3730.0,0.0003910410285830057
3729.0,0.0003910410285830057
3728.0,0.00043451177401765406
3727.0,0.0004779868710962365
3726.0,0.0006084382809090627
3725.0,0.0006519307932786322
3724.0,0.0006954276616513155
3723.0,0.0006519307932786322
3722.0,0.0006954276616513155
3721.0,0.0006954276616513155
3720.0,0.0007389288868995258
3719.0,0.0007824344698965646
3718.0,0.0007824344698965646
3717.0,0.0007824344698965646
3716.0,0.0008259444115150671
3715.0,0.0008259444115150671
3714.0,0.0008259444115150671
3713.0,0.000869458712629001
3712.0,0.000869458712629001
3711.0,0.000869458712629001
3710.0,0.0008259444115150671
3709.0,0.0007824344698965646
3708.0,0.0007389288868995258
3707.0,0.0006519307932786322
3706.0,0.0006084382809090627
3705.0,0.0005649501236701937
3704.0,0.000521466320689834
3703.0,0.000521466320689834
3702.0,0.0005649501236701937
3701.0,0.0006084382809090627
3700.0,0.0006084382809090627
3699.0,0.0006519307932786322
3698.0,0.0006954276616513155
3697.0,0.0006954276616513155
3696.0,0.0006954276616513155
3695.0,0.0006954276616513155
3694.0,0.0006519307932786322
3693.0,0.0005649501236701937
3692.0,0.000521466320689834
3691.0,0.000521466320689834
3690.0,0.0006084382809090627
3689.0,0.0007824344698965646
3688.0,0.000869458712629001
3687.0,0.000869458712629001
3686.0,0.000869458712629001
3685.0,0.000869458712629001
3684.0,0.000869458712629001
3683.0,0.0008259444115150671
3682.0,0.0007824344698965646
3681.0,0.0007389288868995258
3680.0,0.0006954276616513155
3679.0,0.0007389288868995258
3678.0,0.0007824344698965646
3677.0,0.000869458712629001
3676.0,0.0009129773741116676
3675.0,0.0008259444115150671
3674.0,0.0007389288868995258
3673.0,0.0006954276616513155
3672.0,0.0007389288868995258
3671.0,0.0007824344698965646
3670.0,0.0008259444115150671
3669.0,0.0008259444115150671
3668.0,0.0008259444115150671
3667.0,0.0008259444115150671
3666.0,0.0008259444115150671
3665.0,0.000869458712629001
3664.0,0.0009129773741116676
3663.0,0.0009565003968372565
3662.0,0.0010000277816797354
3661.0,0.0010000277816797354
3660.0,0.0009565003968372565
3659.0,0.000869458712629001
3658.0,0.0008259444115150671
3657.0,0.0007389288868995258
3656.0,0.0006954276616513155
3655.0,0.0006954276616513155
3654.0,0.0006954276616513155
3653.0,0.0006954276616513155
3652.0,0.0006954276616513155
3651.0,0.0006519307932786322
3650.0,0.0005649501236701937
3649.0,0.0004779868710962365
3648.0,0.000521466320689834
3647.0,0.0006519307932786322
3646.0,0.0008259444115150671
3645.0,0.0009129773741116676
3644.0,0.0009565003968372565
3643.0,0.0009565003968372565
3642.0,0.0009129773741116676
3641.0,0.0008259444115150671
3640.0,0.0007824344698965646
3639.0,0.0007389288868995258
3638.0,0.0007389288868995258
3637.0,0.0007389288868995258
3636.0,0.0007824344698965646
3635.0,0.0007824344698965646
3634.0,0.0007824344698965646
3633.0,0.0007389288868995258
3632.0,0.0006519307932786322
3631.0,0.0006084382809090627
3630.0,0.0005649501236701937
3629.0,0.0004779868710962365
3628.0,0.0003910410285830057
3627.0,0.00043451177401765406
3626.0,0.000521466320689834
3625.0,0.0006084382809090627
3624.0,0.0006954276616513155
3623.0,0.0007389288868995258
3622.0,0.0007389288868995258
3621.0,0.0006954276616513155
3620.0,0.0006519307932786322
3619.0,0.0006084382809090627
3618.0,0.0006084382809090627
3617.0,0.0006519307932786322
3616.0,0.0006954276616513155
3615.0,0.0007389288868995258
3614.0,0.0007824344698965646
3613.0,0.0007824344698965646
3612.0,0.0007824344698965646
3611.0,0.0007824344698965646
3610.0,0.0006954276616513155
3609.0,0.0006519307932786322
3608.0,0.0006084382809090627
3607.0,0.0006519307932786322
3606.0,0.0007389288868995258
3605.0,0.0008259444115150671
3604.0,0.0008259444115150671
3603.0,0.0008259444115150671
3602.0,0.0007824344698965646
3601.0,0.0007389288868995258
3600.0,0.0007389288868995258
3599.0,0.0007824344698965646
3598.0,0.0007824344698965646
3597.0,0.0007824344698965646
3596.0,0.0007824344698965646
3595.0,0.0007389288868995258
3594.0,0.0007389288868995258
3593.0,0.0007824344698965646
3592.0,0.0007824344698965646
3591.0,0.0007389288868995258
3590.0,0.0007389288868995258
3589.0,0.0007389288868995258
3588.0,0.0007824344698965646
3587.0,0.000869458712629001
3586.0,0.0009565003968372565
3585.0,0.0010000277816797354
3584.0,0.0010435595295137379
3583.0,0.0010870956412141197
3582.0,0.0010870956412141197
3581.0,0.0010870956412141197
3580.0,0.0010870956412141197
3579.0,0.0011306361176557367
3578.0,0.0010870956412141197
3577.0,0.0010435595295137379
3576.0,0.0009565003968372565
3575.0,0.0009129773741116676
3574.0,0.0009129773741116676
3573.0,0.0009129773741116676
3572.0,0.0009129773741116676
3571.0,0.0009129773741116676
3570.0,0.0009129773741116676
3569.0,0.000869458712629001
3568.0,0.0008259444115150671
3567.0,0.0007824344698965646
3566.0,0.0007824344698965646
3565.0,0.000869458712629001
3564.0,0.0010000277816797354
3563.0,0.0010870956412141197
3562.0,0.0011741809597138886
3561.0,0.0011741809597138886
3560.0,0.0011306361176557367
3559.0,0.0011306361176557367
3558.0,0.0011741809597138886
3557.0,0.0012612837441823288
3556.0,0.0012612837441823288
3555.0,0.0012612837441823288
3554.0,0.0012612837441823288
3553.0,0.0012612837441823288
3552.0,0.0012612837441823288
3551.0,0.0012177301682640973
3550.0,0.0011306361176557367
3549.0,0.0010000277816797354
3548.0,0.000869458712629001
3547.0,0.0007824344698965646
3546.0,0.0008259444115150671
3545.0,0.0009129773741116676
3544.0,0.0010000277816797354
3543.0,0.0010435595295137379
3542.0,0.0011306361176557367
3541.0,0.0011741809597138886
3540.0,0.0011741809597138886
3539.0,0.0011741809597138886
3538.0,0.0011306361176557367
3537.0,0.0010870956412141197
3536.0,0.0010435595295137379
3535.0,0.0010870956412141197
3534.0,0.0011306361176557367
3533.0,0.0012177301682640973
3532.0,0.0012612837441823288
3531.0,0.001304841688344327
3530.0,0.001304841688344327
3529.0,0.0012612837441823288
3528.0,0.0012177301682640973
3527.0,0.0011741809597138886
3526.0,0.0011306361176557367
3525.0,0.0010870956412141197
3524.0,0.0010435595295137379
3523.0,0.0010000277816797354
3522.0,0.0010000277816797354
3521.0,0.0010435595295137379
3520.0,0.0010435595295137379
3519.0,0.0010870956412141197
3518.0,0.0011306361176557367
3517.0,0.0011741809597138886
3516.0,0.0011741809597138886
3515.0,0.0011306361176557367
3514.0,0.0010870956412141197
3513.0,0.0010870956412141197
3512.0,0.0010870956412141197
3511.0,0.0010870956412141197
3510.0,0.0011306361176557367
3509.0,0.0011741809597138886
3508.0,0.0012177301682640973
3507.0,0.0012612837441823288
3506.0,0.0012177301682640973
3505.0,0.0011741809597138886
3504.0,0.0010870956412141197
3503.0,0.0010870956412141197
3502.0,0.0010870956412141197
3501.0,0.0011741809597138886
3500.0,0.0012177301682640973
3499.0,0.0012612837441823288
3498.0,0.0012177301682640973
3497.0,0.0011741809597138886
3496.0,0.0011306361176557367
3495.0,0.0011741809597138886
3494.0,0.0012177301682640973
3493.0,0.0012177301682640973
3492.0,0.0012177301682640973
3491.0,0.0011741809597138886
3490.0,0.0010870956412141197
3489.0,0.0010435595295137379
3488.0,0.0010870956412141197
3487.0,0.0011306361176557367
3486.0,0.0012177301682640973
3485.0,0.0012177301682640973
3484.0,0.0012177301682640973
3483.0,0.0011306361176557367
3482.0,0.0010870956412141197
3481.0,0.0010870956412141197
3480.0,0.0010870956412141197
3479.0,0.0011306361176557367
3478.0,0.0011306361176557367
3477.0,0.0011741809597138886
3476.0,0.0011741809597138886
3475.0,0.0012177301682640973
3474.0,0.0012177301682640973
3473.0,0.0011741809597138886
3472.0,0.0011306361176557367
3471.0,0.0011306361176557367
3470.0,0.0011741809597138886
3469.0,0.0012177301682640973
3468.0,0.0012612837441823288
3467.0,0.0012612837441823288
3466.0,0.0012612837441823288
3465.0,0.0012177301682640973
3464.0,0.0011741809597138886
3463.0,0.0011741809597138886
3462.0,0.0011741809597138886
3461.0,0.0011741809597138886
3460.0,0.0011741809597138886
3459.0,0.0012177301682640973
3458.0,0.0012177301682640973
3457.0,0.0012177301682640973
3456.0,0.0012177301682640973
3455.0,0.0011741809597138886
3454.0,0.0011306361176557367
3453.0,0.0011741809597138886
3452.0,0.0012177301682640973
3451.0,0.0012612837441823288
3450.0,0.001304841688344327
3449.0,0.0012612837441823288
3448.0,0.0012612837441823288
3447.0,0.0012177301682640973
3446.0,0.0011741809597138886
3445.0,0.0011741809597138886
3444.0,0.0011306361176557367
3443.0,0.0011306361176557367
3442.0,0.0010870956412141197
3441.0,0.0010870956412141197
3440.0,0.0011306361176557367
3439.0,0.0011741809597138886
3438.0,0.0011741809597138886
3437.0,0.0011741809597138886
3436.0,0.0011306361176557367
3435.0,0.0010870956412141197
3434.0,0.0010870956412141197
3433.0,0.0010435595295137379
3432.0,0.0010435595295137379
3431.0,0.0010000277816797354
3430.0,0.0010000277816797354
3429.0,0.0009565003968372565
3428.0,0.0009565003968372565
3427.0,0.0009565003968372565
3426.0,0.0009565003968372565
3425.0,0.0009565003968372565
3424.0,0.0009129773741116676
3423.0,0.0009565003968372565
3422.0,0.0010000277816797354
3421.0,0.0011306361176557367
3420.0,0.0012612837441823288
3419.0,0.001348404001626502
3418.0,0.001348404001626502
3417.0,0.001304841688344327
3416.0,0.0012177301682640973
3415.0,0.0011741809597138886
3414.0,0.0011741809597138886
3413.0,0.0012177301682640973
3412.0,0.0012177301682640973
3411.0,0.0012177301682640973
3410.0,0.0011741809597138886
3409.0,0.0011741809597138886
3408.0,0.0011741809597138886
3407.0,0.0011306361176557367
3406.0,0.0011741809597138886
3405.0,0.0012177301682640973
3404.0,0.0012177301682640973
3403.0,0.0012177301682640973
3402.0,0.0011741809597138886
3401.0,0.0011741809597138886
3400.0,0.0011741809597138886
3399.0,0.0011741809597138886
3398.0,0.0011741809597138886
3397.0,0.0010870956412141197
3396.0,0.0010435595295137379
3395.0,0.0010435595295137379
3394.0,0.0010870956412141197
3393.0,0.0011306361176557367
3392.0,0.0011741809597138886
3391.0,0.0011741809597138886
3390.0,0.0011306361176557367
3389.0,0.0010870956412141197
3388.0,0.0010435595295137379
3387.0,0.0010000277816797354
3386.0,0.0010435595295137379
3385.0,0.0010870956412141197
3384.0,0.0011741809597138886
3383.0,0.0012612837441823288
3382.0,0.0012612837441823288
3381.0,0.0012612837441823288
3380.0,0.0012177301682640973
3379.0,0.0012177301682640973
3378.0,0.0011741809597138886
3377.0,0.0011306361176557367
3376.0,0.0010870956412141197
3375.0,0.0010435595295137379
3374.0,0.0010870956412141197
3373.0,0.0011306361176557367
3372.0,0.0012177301682640973
3371.0,0.0012612837441823288
3370.0,0.0012177301682640973
3369.0,0.0010870956412141197
3368.0,0.0010435595295137379
3367.0,0.0010000277816797354
3366.0,0.0010435595295137379
3365.0,0.0010870956412141197
3364.0,0.0011306361176557367
3363.0,0.0011306361176557367
3362.0,0.0011306361176557367
3361.0,0.0011306361176557367
3360.0,0.0011306361176557367
3359.0,0.0010870956412141197
3358.0,0.0010435595295137379
3357.0,0.0010435595295137379
3356.0,0.0010435595295137379
3355.0,0.0010870956412141197
3354.0,0.0011741809597138886
3353.0,0.0011741809597138886
3352.0,0.0011741809597138886
3351.0,0.0011741809597138886
3350.0,0.0011741809597138886
3349.0,0.0011306361176557367
3348.0,0.0011306361176557367
3347.0,0.0011306361176557367
3346.0,0.0011306361176557367
3345.0,0.0011306361176557367
3344.0,0.0011306361176557367
3343.0,0.0010870956412141197
3342.0,0.0010870956412141197
3341.0,0.0010870956412141197
3340.0,0.0010870956412141197
3339.0,0.0010870956412141197
3338.0,0.0010435595295137379
3337.0,0.0010000277816797354
3336.0,0.0010435595295137379
3335.0,0.0010435595295137379
3334.0,0.0010870956412141197
3333.0,0.0010870956412141197
3332.0,0.0010435595295137379
3331.0,0.0010000277816797354
3330.0,0.0010000277816797354
3329.0,0.0010870956412141197
3328.0,0.0011741809597138886
3327.0,0.0012177301682640973
3326.0,0.0012177301682640973
3325.0,0.0011741809597138886
3324.0,0.0012177301682640973
3323.0,0.0012612837441823288
3322.0,0.001304841688344327
3321.0,0.0012177301682640973
3320.0,0.0011306361176557367
3319.0,0.0010435595295137379
3318.0,0.0010435595295137379
3317.0,0.0010870956412141197
3316.0,0.0011306361176557367
3315.0,0.0010870956412141197
3314.0,0.0010435595295137379
3313.0,0.0010435595295137379
3312.0,0.0010435595295137379
3311.0,0.0010870956412141197
3310.0,0.0010435595295137379
3309.0,0.0010435595295137379
3308.0,0.0010435595295137379
3307.0,0.0010000277816797354
3306.0,0.0010000277816797354
3305.0,0.0010000277816797354
3304.0,0.0010000277816797354
3303.0,0.0010000277816797354
3302.0,0.0010435595295137379
3301.0,0.0010435595295137379
3300.0,0.0010435595295137379
3299.0,0.0010000277816797354
3298.0,0.0009565003968372565
3297.0,0.0009565003968372565
3296.0,0.0010000277816797354
3295.0,0.0010000277816797354
3294.0,0.0010435595295137379
3293.0,0.0010870956412141197
3292.0,0.0011306361176557367
3291.0,0.0011306361176557367
3290.0,0.0010870956412141197
3289.0,0.0010870956412141197
3288.0,0.0010870956412141197
3287.0,0.0011306361176557367
3286.0,0.0011741809597138886
3285.0,0.0012177301682640973
3284.0,0.0012177301682640973
3283.0,0.0011741809597138886
3282.0,0.0010870956412141197
3281.0,0.0010000277816797354
3280.0,0.0009129773741116676
3279.0,0.0009129773741116676
3278.0,0.0009565003968372565
3277.0,0.0010000277816797354
3276.0,0.0010435595295137379
3275.0,0.0010435595295137379
3274.0,0.0010435595295137379
3273.0,0.0010870956412141197
3272.0,0.0011306361176557367
3271.0,0.0011306361176557367
3270.0,0.0011306361176557367
3269.0,0.0011306361176557367
3268.0,0.0010870956412141197
3267.0,0.0011306361176557367
3266.0,0.0011741809597138886
3265.0,0.0011741809597138886
3264.0,0.0011741809597138886
3263.0,0.0011306361176557367
3262.0,0.0010870956412141197
3261.0,0.0010435595295137379
3260.0,0.0010000277816797354
3259.0,0.0010000277816797354
3258.0,0.0010435595295137379
3257.0,0.0010435595295137379
3256.0,0.0010435595295137379
3255.0,0.0010000277816797354
3254.0,0.0009565003968372565
3253.0,0.0010000277816797354
3252.0,0.0010870956412141197
3251.0,0.0011741809597138886
3250.0,0.0011741809597138886
3249.0,0.0012177301682640973
3248.0,0.0012177301682640973
3247.0,0.0011741809597138886
3246.0,0.0011741809597138886
3245.0,0.0011741809597138886
3244.0,0.0011741809597138886
3243.0,0.0011741809597138886
3242.0,0.0011741809597138886
3241.0,0.0011741809597138886
3240.0,0.0011741809597138886
3239.0,0.0011741809597138886
3238.0,0.0012177301682640973
3237.0,0.0012177301682640973
3236.0,0.0012612837441823288
3235.0,0.0012612837441823288
3234.0,0.0012612837441823288
3233.0,0.001304841688344327
3232.0,0.001348404001626502
3231.0,0.0013919706849057079
3230.0,0.001348404001626502
3229.0,0.001304841688344327
3228.0,0.0012612837441823288
3227.0,0.0011741809597138886
3226.0,0.0010870956412141197
3225.0,0.0010435595295137379
3224.0,0.0010870956412141197
3223.0,0.0011306361176557367
3222.0,0.0012177301682640973
3221.0,0.0012612837441823288
3220.0,0.0012177301682640973
3219.0,0.0011741809597138886
3218.0,0.0011306361176557367
3217.0,0.0010870956412141197
3216.0,0.0011306361176557367
3215.0,0.0011741809597138886
3214.0,0.0012177301682640973
3213.0,0.0012177301682640973
3212.0,0.0012177301682640973
3211.0,0.0011741809597138886
3210.0,0.0011741809597138886
3209.0,0.0011741809597138886
3208.0,0.0011306361176557367
3207.0,0.0010870956412141197
3206.0,0.0010435595295137379
3205.0,0.0009565003968372565
3204.0,0.0009565003968372565
3203.0,0.0010000277816797354
3202.0,0.0010435595295137379
3201.0,0.0010870956412141197
3200.0,0.0010435595295137379
3199.0,0.0009565003968372565
3198.0,0.000869458712629001
3197.0,0.0008259444115150671
3196.0,0.0008259444115150671
3195.0,0.000869458712629001
3194.0,0.0009129773741116676
3193.0,0.0009129773741116676
3192.0,0.0009565003968372565
3191.0,0.0010000277816797354
3190.0,0.0010435595295137379
3189.0,0.0011306361176557367
3188.0,0.0011306361176557367
3187.0,0.0010870956412141197
3186.0,0.0010435595295137379
3185.0,0.0010000277816797354
3184.0,0.0009565003968372565
3183.0,0.0009129773741116676
3182.0,0.0009129773741116676
3181.0,0.0009129773741116676
3180.0,0.0009129773741116676
3179.0,0.0009565003968372565
3178.0,0.0010000277816797354
3177.0,0.0010435595295137379
3176.0,0.0011306361176557367
3175.0,0.0011741809597138886
3174.0,0.0012177301682640973
3173.0,0.0012177301682640973
3172.0,0.0011741809597138886
3171.0,0.0011306361176557367
3170.0,0.0010870956412141197
3169.0,0.0010870956412141197
3168.0,0.0010870956412141197
3167.0,0.0010870956412141197
3166.0,0.0011306361176557367
3165.0,0.0011306361176557367
3164.0,0.0011306361176557367
3163.0,0.0010870956412141197
3162.0,0.0010870956412141197
3161.0,0.0010435595295137379
3160.0,0.0010435595295137379
3159.0,0.0010435595295137379
3158.0,0.0010870956412141197
3157.0,0.0011306361176557367
3156.0,0.0011741809597138886
3155.0,0.0011741809597138886
3154.0,0.0011306361176557367
3153.0,0.0010870956412141197
3152.0,0.0010435595295137379
3151.0,0.0010435595295137379
3150.0,0.0010000277816797354
3149.0,0.0009565003968372565
3148.0,0.0009565003968372565
3147.0,0.0009565003968372565
3146.0,0.0009565003968372565
3145.0,0.0009565003968372565
3144.0,0.0009565003968372565
3143.0,0.0009565003968372565
3142.0,0.0009565003968372565
3141.0,0.0010435595295137379
3140.0,0.0010870956412141197
3139.0,0.0011741809597138886
3138.0,0.0011741809597138886
3137.0,0.0011741809597138886
3136.0,0.0010870956412141197
3135.0,0.0010435595295137379
3134.0,0.0010000277816797354
3133.0,0.0009129773741116676
3132.0,0.0009129773741116676
3131.0,0.0009129773741116676
3130.0,0.0009565003968372565
3129.0,0.0010435595295137379
3128.0,0.0010435595295137379
3127.0,0.0010435595295137379
3126.0,0.0010435595295137379
3125.0,0.0010435595295137379
3124.0,0.0010870956412141197
3123.0,0.0011306361176557367
3122.0,0.0010870956412141197
3121.0,0.0010435595295137379
3120.0,0.0009565003968372565
3119.0,0.0009129773741116676
3118.0,0.000869458712629001
3117.0,0.0009129773741116676
3116.0,0.0009129773741116676
3115.0,0.0009565003968372565
3114.0,0.0009565003968372565
3113.0,0.0009129773741116676
3112.0,0.0009129773741116676
3111.0,0.0009129773741116676
3110.0,0.0009129773741116676
3109.0,0.0009565003968372565
3108.0,0.0009565003968372565
3107.0,0.0010000277816797354
3106.0,0.0010000277816797354
3105.0,0.0010000277816797354
3104.0,0.0009565003968372565
3103.0,0.0009129773741116676
3102.0,0.0009565003968372565
3101.0,0.0010000277816797354
3100.0,0.0010435595295137379
3099.0,0.0011306361176557367
3098.0,0.0011306361176557367
3097.0,0.0010870956412141197
3096.0,0.0010435595295137379
3095.0,0.0009565003968372565
3094.0,0.0009129773741116676
3093.0,0.000869458712629001
3092.0,0.0008259444115150671
3091.0,0.0008259444115150671
3090.0,0.0008259444115150671
3089.0,0.000869458712629001
3088.0,0.0008259444115150671
3087.0,0.0008259444115150671
3086.0,0.0007824344698965646
3085.0,0.0007824344698965646
3084.0,0.0007824344698965646
3083.0,0.0008259444115150671
3082.0,0.0008259444115150671
3081.0,0.0008259444115150671
3080.0,0.0008259444115150671
3079.0,0.0008259444115150671
3078.0,0.0008259444115150671
3077.0,0.0007824344698965646
3076.0,0.0007824344698965646
3075.0,0.0007824344698965646
3074.0,0.0008259444115150671
3073.0,0.000869458712629001
3072.0,0.0009129773741116676
3071.0,0.0009565003968372565
3070.0,0.0010000277816797354
3069.0,0.0010000277816797354
3068.0,0.0010435595295137379
3067.0,0.0010000277816797354
3066.0,0.0009565003968372565
3065.0,0.0009129773741116676
3064.0,0.000869458712629001
3063.0,0.000869458712629001
3062.0,0.0009129773741116676
3061.0,0.0009129773741116676
3060.0,0.0009565003968372565
3059.0,0.0009565003968372565
3058.0,0.0009565003968372565
3057.0,0.0010000277816797354
3056.0,0.0010870956412141197
3055.0,0.0010870956412141197
3054.0,0.0010870956412141197
3053.0,0.0010870956412141197
3052.0,0.0010435595295137379
3051.0,0.0010435595295137379
3050.0,0.0010000277816797354
3049.0,0.0010000277816797354
3048.0,0.0010000277816797354
3047.0,0.0010000277816797354
3046.0,0.0010000277816797354
3045.0,0.0010000277816797354
3044.0,0.0009565003968372565
3043.0,0.0009129773741116676
3042.0,0.000869458712629001
3041.0,0.0008259444115150671
3040.0,0.0008259444115150671
3039.0,0.0008259444115150671
3038.0,0.000869458712629001
3037.0,0.0009129773741116676
3036.0,0.0009129773741116676
3035.0,0.0009565003968372565
3034.0,0.0009565003968372565
3033.0,0.0009129773741116676
3032.0,0.0009129773741116676
3031.0,0.000869458712629001
3030.0,0.000869458712629001
3029.0,0.000869458712629001
3028.0,0.000869458712629001
3027.0,0.0008259444115150671
3026.0,0.0008259444115150671
3025.0,0.0008259444115150671
3024.0,0.0008259444115150671
3023.0,0.0008259444115150671
3022.0,0.0008259444115150671
3021.0,0.000869458712629001
3020.0,0.0009129773741116676
3019.0,0.0009129773741116676
3018.0,0.0009129773741116676
3017.0,0.000869458712629001
3016.0,0.000869458712629001
3015.0,0.0008259444115150671
3014.0,0.0007824344698965646
3013.0,0.0007389288868995258
3012.0,0.0007389288868995258
3011.0,0.0007824344698965646
3010.0,0.0008259444115150671
3009.0,0.0008259444115150671
3008.0,0.000869458712629001
3007.0,0.000869458712629001
3006.0,0.0008259444115150671
3005.0,0.0007824344698965646
3004.0,0.0007389288868995258
3003.0,0.0007389288868995258
3002.0,0.0007389288868995258
3001.0,0.0007389288868995258
3000.0,0.0006954276616513155
2999.0,0.0006519307932786322
2998.0,0.0006519307932786322
2997.0,0.0006519307932786322
2996.0,0.0006519307932786322
2995.0,0.0006954276616513155
2994.0,0.0006954276616513155
2993.0,0.0006954276616513155
2992.0,0.0006519307932786322
2991.0,0.0006519307932786322
2990.0,0.0006954276616513155
2989.0,0.0006954276616513155
2988.0,0.0006954276616513155
2987.0,0.0006954276616513155
2986.0,0.0006954276616513155
2985.0,0.0006519307932786322
2984.0,0.0006519307932786322
2983.0,0.0006519307932786322
2982.0,0.0006519307932786322
2981.0,0.0006954276616513155
2980.0,0.0006954276616513155
2979.0,0.0006954276616513155
2978.0,0.0006954276616513155
2977.0,0.0006954276616513155
2976.0,0.0006954276616513155
2975.0,0.0006954276616513155
2974.0,0.0006519307932786322
2973.0,0.0006519307932786322
2972.0,0.0006519307932786322
2971.0,0.0006519307932786322
2970.0,0.0006519307932786322
2969.0,0.0006519307932786322
2968.0,0.0006519307932786322
2967.0,0.0006519307932786322
2966.0,0.0006519307932786322
2965.0,0.0006954276616513155
2964.0,0.0006954276616513155
2963.0,0.0006954276616513155
2962.0,0.0006954276616513155
2961.0,0.0006954276616513155
2960.0,0.0007389288868995258
2959.0,0.0006954276616513155
2958.0,0.0006954276616513155
2957.0,0.0007389288868995258
2956.0,0.0007389288868995258
2955.0,0.0007389288868995258
2954.0,0.0007389288868995258
2953.0,0.0007389288868995258
2952.0,0.0007389288868995258
2951.0,0.0007389288868995258
2950.0,0.0007824344698965646
2949.0,0.0007389288868995258
2948.0,0.0006954276616513155
2947.0,0.0006519307932786322
2946.0,0.0006519307932786322
2945.0,0.0006084382809090627
2944.0,0.0006519307932786322
2943.0,0.0006519307932786322
2942.0,0.0006954276616513155
2941.0,0.0007389288868995258
2940.0,0.0007824344698965646
2939.0,0.0007824344698965646
2938.0,0.0007824344698965646
2937.0,0.0007824344698965646
2936.0,0.0008259444115150671
2935.0,0.0008259444115150671
2934.0,0.0007824344698965646
2933.0,0.0007389288868995258
2932.0,0.0007389288868995258
2931.0,0.0007389288868995258
2930.0,0.0007389288868995258
2929.0,0.0007389288868995258
2928.0,0.0006954276616513155
2927.0,0.0006084382809090627
2926.0,0.0005649501236701937
2925.0,0.000521466320689834
2924.0,0.0005649501236701937
2923.0,0.0006084382809090627
2922.0,0.0006519307932786322
2921.0,0.0006954276616513155
2920.0,0.0007389288868995258
2919.0,0.0007389288868995258
2918.0,0.0007824344698965646
2917.0,0.0007389288868995258
2916.0,0.0006954276616513155
2915.0,0.0006954276616513155
2914.0,0.0006954276616513155
2913.0,0.0006954276616513155
2912.0,0.0006954276616513155
2911.0,0.0006954276616513155
2910.0,0.0006519307932786322
2909.0,0.0006519307932786322
2908.0,0.0006519307932786322
2907.0,0.0006519307932786322
2906.0,0.0006084382809090627
2905.0,0.0005649501236701937
2904.0,0.0005649501236701937
2903.0,0.000521466320689834
2902.0,0.000521466320689834
2901.0,0.000521466320689834
2900.0,0.0005649501236701937
2899.0,0.0005649501236701937
2898.0,0.0006084382809090627
2897.0,0.0006084382809090627
2896.0,0.0006519307932786322
2895.0,0.0006519307932786322
2894.0,0.0006519307932786322
2893.0,0.0006954276616513155
2892.0,0.0007389288868995258
2891.0,0.0007824344698965646
2890.0,0.0007824344698965646
2889.0,0.0007389288868995258
2888.0,0.0007389288868995258
2887.0,0.0007389288868995258
2886.0,0.0007389288868995258
2885.0,0.0008259444115150671
2884.0,0.000869458712629001
2883.0,0.0009129773741116676
2882.0,0.000869458712629001
2881.0,0.0008259444115150671
2880.0,0.0007824344698965646
2879.0,0.0007389288868995258
2878.0,0.0007389288868995258
2877.0,0.0006954276616513155
2876.0,0.0006519307932786322
2875.0,0.0006519307932786322
2874.0,0.0006519307932786322
2873.0,0.0006954276616513155
2872.0,0.0007389288868995258
2871.0,0.0007824344698965646
2870.0,0.0008259444115150671
2869.0,0.000869458712629001
2868.0,0.000869458712629001
2867.0,0.000869458712629001
2866.0,0.0008259444115150671
2865.0,0.0007824344698965646
2864.0,0.0007389288868995258
2863.0,0.0007389288868995258
2862.0,0.0007389288868995258
2861.0,0.0007389288868995258
2860.0,0.0007824344698965646
2859.0,0.0008259444115150671
2858.0,0.0008259444115150671
2857.0,0.000869458712629001
2856.0,0.0008259444115150671
2855.0,0.0007824344698965646
2854.0,0.0007824344698965646
2853.0,0.0007824344698965646
2852.0,0.0007824344698965646
2851.0,0.0008259444115150671
2850.0,0.0008259444115150671
2849.0,0.0008259444115150671
2848.0,0.0007389288868995258
2847.0,0.0006954276616513155
2846.0,0.0006954276616513155
2845.0,0.0006954276616513155
2844.0,0.0006954276616513155
2843.0,0.0006954276616513155
2842.0,0.0007389288868995258
2841.0,0.0007389288868995258
2840.0,0.0008259444115150671
2839.0,0.000869458712629001
2838.0,0.000869458712629001
2837.0,0.000869458712629001
2836.0,0.0008259444115150671
2835.0,0.0008259444115150671
2834.0,0.0007824344698965646
2833.0,0.0007389288868995258
2832.0,0.0007389288868995258
2831.0,0.0007824344698965646
2830.0,0.0008259444115150671
2829.0,0.000869458712629001
2828.0,0.0009129773741116676
2827.0,0.0009565003968372565
2826.0,0.0010000277816797354
2825.0,0.0010000277816797354
2824.0,0.0009565003968372565
2823.0,0.0009129773741116676
2822.0,0.000869458712629001
2821.0,0.000869458712629001
2820.0,0.0008259444115150671
2819.0,0.0007824344698965646
2818.0,0.0007824344698965646
2817.0,0.0007824344698965646
2816.0,0.0007824344698965646
2815.0,0.0007824344698965646
2814.0,0.0008259444115150671
2813.0,0.0008259444115150671
2812.0,0.000869458712629001
2811.0,0.000869458712629001
2810.0,0.000869458712629001
2809.0,0.000869458712629001
2808.0,0.000869458712629001
2807.0,0.0008259444115150671
2806.0,0.0007824344698965646
2805.0,0.0007389288868995258
2804.0,0.0007824344698965646
2803.0,0.0008259444115150671
2802.0,0.0008259444115150671
2801.0,0.0008259444115150671
2800.0,0.0008259444115150671
2799.0,0.0008259444115150671
2798.0,0.0007824344698965646
2797.0,0.0007824344698965646
2796.0,0.0007824344698965646
2795.0,0.0008259444115150671
2794.0,0.000869458712629001
2793.0,0.0009129773741116676
2792.0,0.0009565003968372565
2791.0,0.0010000277816797354
2790.0,0.0010000277816797354
2789.0,0.0010000277816797354
2788.0,0.0010000277816797354
2787.0,0.0009565003968372565
2786.0,0.0009129773741116676
2785.0,0.000869458712629001
2784.0,0.000869458712629001
2783.0,0.000869458712629001
2782.0,0.000869458712629001
2781.0,0.0009129773741116676
2780.0,0.0009565003968372565
2779.0,0.0009129773741116676
2778.0,0.000869458712629001
2777.0,0.0008259444115150671
2776.0,0.0007824344698965646
2775.0,0.0007389288868995258
2774.0,0.0007389288868995258
2773.0,0.0007824344698965646
2772.0,0.000869458712629001
2771.0,0.0009129773741116676
2770.0,0.0009565003968372565
2769.0,0.0009565003968372565
2768.0,0.0009565003968372565
2767.0,0.0009129773741116676
2766.0,0.0009129773741116676
2765.0,0.0009129773741116676
2764.0,0.000869458712629001
2763.0,0.0008259444115150671
2762.0,0.0007824344698965646
2761.0,0.0007389288868995258
2760.0,0.0007389288868995258
2759.0,0.0007389288868995258
2758.0,0.0007824344698965646
2757.0,0.000869458712629001
2756.0,0.0009565003968372565
2755.0,0.0010000277816797354
2754.0,0.0010000277816797354
2753.0,0.0009565003968372565
2752.0,0.0009129773741116676
2751.0,0.000869458712629001
2750.0,0.0008259444115150671
2749.0,0.0007824344698965646
2748.0,0.0008259444115150671
2747.0,0.0008259444115150671
2746.0,0.000869458712629001
2745.0,0.000869458712629001
2744.0,0.0008259444115150671
2743.0,0.0008259444115150671
2742.0,0.0007824344698965646
2741.0,0.0007824344698965646
2740.0,0.0008259444115150671
2739.0,0.0008259444115150671
2738.0,0.0008259444115150671
2737.0,0.0008259444115150671
2736.0,0.0008259444115150671
2735.0,0.0008259444115150671
2734.0,0.0008259444115150671
2733.0,0.0008259444115150671
2732.0,0.000869458712629001
2731.0,0.000869458712629001
2730.0,0.000869458712629001
2729.0,0.000869458712629001
2728.0,0.0008259444115150671
2727.0,0.0007824344698965646
2726.0,0.0007824344698965646
2725.0,0.0007389288868995258
2724.0,0.0007389288868995258
2723.0,0.0007389288868995258
2722.0,0.0007824344698965646
2721.0,0.0008259444115150671
2720.0,0.0008259444115150671
2719.0,0.0008259444115150671
2718.0,0.0007824344698965646
2717.0,0.0007389288868995258
2716.0,0.0007389288868995258
2715.0,0.0007389288868995258
2714.0,0.0007824344698965646
2713.0,0.0008259444115150671
2712.0,0.0008259444115150671
2711.0,0.0008259444115150671
2710.0,0.0008259444115150671
2709.0,0.0008259444115150671
2708.0,0.0007824344698965646
2707.0,0.0007824344698965646
2706.0,0.0007824344698965646
2705.0,0.000869458712629001
2704.0,0.0009129773741116676
2703.0,0.000869458712629001
2702.0,0.000869458712629001
2701.0,0.0008259444115150671
2700.0,0.000869458712629001
2699.0,0.0009129773741116676
2698.0,0.0009129773741116676
2697.0,0.000869458712629001
2696.0,0.0008259444115150671
2695.0,0.0008259444115150671
2694.0,0.0008259444115150671
2693.0,0.000869458712629001
2692.0,0.0009129773741116676
2691.0,0.0009565003968372565
2690.0,0.0009565003968372565
2689.0,0.0009129773741116676
2688.0,0.0008259444115150671
2687.0,0.0007824344698965646
2686.0,0.0007824344698965646
2685.0,0.0007824344698965646
2684.0,0.0007824344698965646
2683.0,0.0007824344698965646
2682.0,0.0007389288868995258
2681.0,0.0006954276616513155
2680.0,0.0006519307932786322
2679.0,0.0006954276616513155
2678.0,0.0007389288868995258
2677.0,0.0007824344698965646
2676.0,0.0008259444115150671
2675.0,0.0007824344698965646
2674.0,0.0007389288868995258
2673.0,0.0006954276616513155
2672.0,0.0007389288868995258
2671.0,0.0007824344698965646
2670.0,0.0008259444115150671
2669.0,0.0008259444115150671
2668.0,0.0008259444115150671
2667.0,0.0008259444115150671
2666.0,0.0008259444115150671
2665.0,0.0007824344698965646
2664.0,0.0007824344698965646
2663.0,0.0007824344698965646
2662.0,0.0007389288868995258
2661.0,0.0007389288868995258
2660.0,0.0007389288868995258
2659.0,0.0007389288868995258
2658.0,0.0007389288868995258
2657.0,0.0007824344698965646
2656.0,0.0008259444115150671
2655.0,0.0009129773741116676
2654.0,0.0009565003968372565
2653.0,0.0009565003968372565
2652.0,0.0009129773741116676
2651.0,0.0009129773741116676
2650.0,0.000869458712629001
2649.0,0.0008259444115150671
2648.0,0.0007824344698965646
2647.0,0.0007389288868995258
2646.0,0.0007389288868995258
2645.0,0.0007389288868995258
2644.0,0.0007824344698965646
2643.0,0.000869458712629001
2642.0,0.0009129773741116676
2641.0,0.0009129773741116676
2640.0,0.0009129773741116676
2639.0,0.0009129773741116676
2638.0,0.000869458712629001
2637.0,0.000869458712629001
2636.0,0.000869458712629001
2635.0,0.0008259444115150671
2634.0,0.0008259444115150671
2633.0,0.0008259444115150671
2632.0,0.000869458712629001
2631.0,0.0009129773741116676
2630.0,0.0009565003968372565
2629.0,0.0009565003968372565
2628.0,0.000869458712629001
2627.0,0.0008259444115150671
2626.0,0.0007389288868995258
2625.0,0.0006954276616513155
2624.0,0.0006954276616513155
2623.0,0.0007389288868995258
2622.0,0.0007824344698965646
2621.0,0.0007824344698965646
2620.0,0.0007389288868995258
2619.0,0.0007389288868995258
2618.0,0.0007824344698965646
2617.0,0.000869458712629001
2616.0,0.0009129773741116676
2615.0,0.0009565003968372565
2614.0,0.0009565003968372565
2613.0,0.0009565003968372565
2612.0,0.0009129773741116676
2611.0,0.000869458712629001
2610.0,0.000869458712629001
2609.0,0.000869458712629001
2608.0,0.0008259444115150671
2607.0,0.0007824344698965646
2606.0,0.0007389288868995258
2605.0,0.0007389288868995258
2604.0,0.0007389288868995258
2603.0,0.0007389288868995258
2602.0,0.0007824344698965646
2601.0,0.0008259444115150671
2600.0,0.0007824344698965646
2599.0,0.0007389288868995258
2598.0,0.0006954276616513155
2597.0,0.0007389288868995258
2596.0,0.0008259444115150671
2595.0,0.0009129773741116676
2594.0,0.0009129773741116676
2593.0,0.0009129773741116676
2592.0,0.000869458712629001
2591.0,0.000869458712629001
2590.0,0.000869458712629001
2589.0,0.000869458712629001
2588.0,0.000869458712629001
2587.0,0.000869458712629001
2586.0,0.0008259444115150671
2585.0,0.0008259444115150671
2584.0,0.0008259444115150671
2583.0,0.000869458712629001
2582.0,0.000869458712629001
2581.0,0.000869458712629001
2580.0,0.000869458712629001
2579.0,0.000869458712629001
2578.0,0.0009129773741116676
2577.0,0.0009565003968372565
2576.0,0.0009565003968372565
2575.0,0.0009565003968372565
2574.0,0.0009129773741116676
2573.0,0.000869458712629001
2572.0,0.000869458712629001
2571.0,0.0009129773741116676
2570.0,0.0009129773741116676
2569.0,0.0009129773741116676
2568.0,0.000869458712629001
2567.0,0.0008259444115150671
2566.0,0.0007389288868995258
2565.0,0.0006954276616513155
2564.0,0.0006519307932786322
2563.0,0.0006954276616513155
2562.0,0.0007389288868995258
2561.0,0.0007824344698965646
2560.0,0.0008259444115150671
2559.0,0.0008259444115150671
2558.0,0.0007824344698965646
2557.0,0.0007389288868995258
2556.0,0.0007389288868995258
2555.0,0.0006954276616513155
2554.0,0.0007389288868995258
2553.0,0.0007824344698965646
2552.0,0.0008259444115150671
2551.0,0.0008259444115150671
2550.0,0.0008259444115150671
2549.0,0.0007824344698965646
2548.0,0.0007824344698965646
2547.0,0.0007824344698965646
2546.0,0.0008259444115150671
2545.0,0.000869458712629001
2544.0,0.0009129773741116676
2543.0,0.000869458712629001
2542.0,0.0008259444115150671
2541.0,0.0007824344698965646
2540.0,0.0007824344698965646
2539.0,0.0007824344698965646
2538.0,0.0007824344698965646
2537.0,0.0007824344698965646
2536.0,0.0007824344698965646
2535.0,0.0007824344698965646
2534.0,0.0008259444115150671
2533.0,0.000869458712629001
2532.0,0.0009129773741116676
2531.0,0.0009129773741116676
2530.0,0.000869458712629001
2529.0,0.0008259444115150671
2528.0,0.0007824344698965646
2527.0,0.0007389288868995258
2526.0,0.0006954276616513155
2525.0,0.0007389288868995258
2524.0,0.0007824344698965646
2523.0,0.0008259444115150671
2522.0,0.0009129773741116676
2521.0,0.0009565003968372565
2520.0,0.0009565003968372565
2519.0,0.0009129773741116676
2518.0,0.0009129773741116676
2517.0,0.000869458712629001
2516.0,0.0008259444115150671
2515.0,0.0008259444115150671
2514.0,0.0008259444115150671
2513.0,0.000869458712629001
2512.0,0.0009129773741116676
2511.0,0.0009129773741116676
2510.0,0.0009129773741116676
2509.0,0.0009129773741116676
2508.0,0.000869458712629001
2507.0,0.0008259444115150671
2506.0,0.0008259444115150671
2505.0,0.0008259444115150671
2504.0,0.000869458712629001
2503.0,0.000869458712629001
2502.0,0.0008259444115150671
2501.0,0.0007824344698965646
2500.0,0.0007824344698965646
2499.0,0.0007824344698965646
2498.0,0.0007824344698965646
2497.0,0.000869458712629001
2496.0,0.0009565003968372565
2495.0,0.0010000277816797354
2494.0,0.0009565003968372565
2493.0,0.0009129773741116676
2492.0,0.000869458712629001
2491.0,0.000869458712629001
2490.0,0.000869458712629001
2489.0,0.0009129773741116676
2488.0,0.0009129773741116676
2487.0,0.0009129773741116676
2486.0,0.000869458712629001
2485.0,0.0008259444115150671
2484.0,0.0008259444115150671
2483.0,0.000869458712629001
2482.0,0.000869458712629001
2481.0,0.000869458712629001
2480.0,0.000869458712629001
2479.0,0.0008259444115150671
2478.0,0.0008259444115150671
2477.0,0.0008259444115150671
2476.0,0.0008259444115150671
2475.0,0.000869458712629001
2474.0,0.000869458712629001
2473.0,0.0008259444115150671
2472.0,0.0008259444115150671
2471.0,0.0008259444115150671
2470.0,0.0008259444115150671
2469.0,0.0009129773741116676
2468.0,0.0009129773741116676
2467.0,0.0009565003968372565
2466.0,0.0009565003968372565
2465.0,0.0009129773741116676
2464.0,0.0009129773741116676
2463.0,0.000869458712629001
2462.0,0.000869458712629001
2461.0,0.0008259444115150671
2460.0,0.0008259444115150671
2459.0,0.0008259444115150671
2458.0,0.000869458712629001
2457.0,0.0009129773741116676
2456.0,0.0009129773741116676
2455.0,0.000869458712629001
2454.0,0.000869458712629001
2453.0,0.0008259444115150671
2452.0,0.0007824344698965646
2451.0,0.0007824344698965646
2450.0,0.0007824344698965646
2449.0,0.0007824344698965646
2448.0,0.0008259444115150671
2447.0,0.0008259444115150671
2446.0,0.0007824344698965646
2445.0,0.0007824344698965646
2444.0,0.0007824344698965646
2443.0,0.0008259444115150671
2442.0,0.0008259444115150671
2441.0,0.0008259444115150671
2440.0,0.0008259444115150671
2439.0,0.0008259444115150671
2438.0,0.0007824344698965646
2437.0,0.0007824344698965646
2436.0,0.0007824344698965646
2435.0,0.0007824344698965646
2434.0,0.0008259444115150671
2433.0,0.000869458712629001
2432.0,0.0009129773741116676
2431.0,0.0009565003968372565
2430.0,0.0010000277816797354
2429.0,0.0010000277816797354
2428.0,0.0009565003968372565
2427.0,0.0009129773741116676
2426.0,0.000869458712629001
2425.0,0.0008259444115150671
2424.0,0.0007824344698965646
2423.0,0.0007389288868995258
2422.0,0.0006954276616513155
2421.0,0.0007389288868995258
2420.0,0.0007389288868995258
2419.0,0.0007824344698965646
2418.0,0.0007824344698965646
2417.0,0.0007824344698965646
2416.0,0.0007824344698965646
2415.0,0.0007824344698965646
2414.0,0.0007824344698965646
2413.0,0.0007824344698965646
2412.0,0.0008259444115150671
2411.0,0.0008259444115150671
2410.0,0.0008259444115150671
2409.0,0.0008259444115150671
2408.0,0.0007824344698965646
2407.0,0.0007824344698965646
2406.0,0.0007824344698965646
2405.0,0.0008259444115150671
2404.0,0.0007824344698965646
2403.0,0.0007824344698965646
2402.0,0.0007824344698965646
2401.0,0.0007824344698965646
2400.0,0.0008259444115150671
2399.0,0.0008259444115150671
2398.0,0.0008259444115150671
2397.0,0.0007824344698965646
2396.0,0.0006954276616513155
2395.0,0.0006954276616513155
2394.0,0.0006954276616513155
2393.0,0.0007389288868995258
2392.0,0.0007824344698965646
2391.0,0.0007824344698965646
2390.0,0.0007389288868995258
2389.0,0.0006954276616513155
2388.0,0.0006519307932786322
2387.0,0.0006084382809090627
2386.0,0.0006519307932786322
2385.0,0.0006519307932786322
2384.0,0.0006084382809090627
2383.0,0.0005649501236701937
2382.0,0.000521466320689834
2381.0,0.0004779868710962365
2380.0,0.0004779868710962365
2379.0,0.0004779868710962365
2378.0,0.0004779868710962365
2377.0,0.00043451177401765406
2376.0,0.00043451177401765406
2375.0,0.0003910410285830057
2374.0,0.0003910410285830057
2373.0,0.00043451177401765406
2372.0,0.0004779868710962365
2371.0,0.0005649501236701937
2370.0,0.000521466320689834
2369.0,0.00043451177401765406
2368.0,0.0004779868710962365
2367.0,0.0008259444115150671
2366.0,0.0013919706849057079
2365.0,0.0019587356365717845
2364.0,0.0022205691343961664
2363.0,0.0021769192542746563
2362.0,0.001915112063444413
2361.0,0.0014791171649619628
2360.0,0.0006954276616513155
2359.0,-0.00030389978481260016
2358.0,-0.00121432528617893
2357.0,-0.0015173768235041685
2356.0,-0.0011277002770349043
2355.0,-0.0003906892499099257
2354.0,0.0001303078917322953
2353.0,0.0003475746339209884
2352.0,0.0003475746339209884
2351.0,0.00030411258916074324
2350.0,0.00021720154586435392
2349.0,0.00021720154586435392
2348.0,0.00026065489343207737
2347.0,0.00030411258916074324
2346.0,0.00026065489343207737
2345.0,0.0001303078917322953
2344.0,0.0
2343.0,-8.685021164911433e-05
2342.0,-4.3427276862573194e-05
2341.0,4.343161980746579e-05
2340.0,8.686758342868472e-05
2339.0,0.0
2338.0,-0.00021709297223004853
2337.0,-0.0004774613744551459
2336.0,-0.0005642161653756084
2335.0,-0.00043407747931878404
2334.0,-0.00017368305846510168
2333.0,0.0001303078917322953
2332.0,0.00026065489343207737
2331.0,0.00030411258916074324
2330.0,0.0003910410285830057
2329.0,0.000521466320689834
2328.0,0.0006954276616513155
2327.0,0.0007824344698965646
2326.0,0.0008259444115150671
2325.0,0.0007824344698965646
2324.0,0.0006084382809090627
2323.0,0.0004779868710962365
2322.0,0.0003910410285830057
2321.0,0.00043451177401765406
2320.0,0.0005649501236701937
2319.0,0.0006519307932786322
2318.0,0.0006519307932786322
2317.0,0.0005649501236701937
2316.0,0.0003910410285830057
2315.0,0.00026065489343207737
2314.0,0.0001303078917322953
2313.0,4.343161980746579e-05
2312.0,-4.3427276862573194e-05
2311.0,-8.685021164911433e-05
2310.0,-8.685021164911433e-05
2309.0,-4.3427276862573194e-05
2308.0,0.0
2307.0,4.343161980746579e-05
2306.0,4.343161980746579e-05
2305.0,4.343161980746579e-05
2304.0,0.0
2303.0,-4.3427276862573194e-05
2302.0,-4.3427276862573194e-05
2301.0,-4.3427276862573194e-05
2300.0,0.0
2299.0,4.343161980746579e-05
2298.0,0.0001303078917322953
2297.0,0.00021720154586435392
2296.0,0.00030411258916074324
2295.0,0.0003475746339209884
2294.0,0.00043451177401765406
2293.0,0.00043451177401765406
2292.0,0.0004779868710962365
2291.0,0.0004779868710962365
2290.0,0.000521466320689834
2289.0,0.0005649501236701937
2288.0,0.0005649501236701937
2287.0,0.0006084382809090627
2286.0,0.0006519307932786322
2285.0,0.0006519307932786322
2284.0,0.0006954276616513155
2283.0,0.0006519307932786322
2282.0,0.0006519307932786322
2281.0,0.0006084382809090627
2280.0,0.0006519307932786322
2279.0,0.0006519307932786322
2278.0,0.0006954276616513155
2277.0,0.0006954276616513155
2276.0,0.0007389288868995258
2275.0,0.0006954276616513155
2274.0,0.0006954276616513155
2273.0,0.0006519307932786322
2272.0,0.0006084382809090627
2271.0,0.0006084382809090627
2270.0,0.0006954276616513155
2269.0,0.0007389288868995258
2268.0,0.0007824344698965646
2267.0,0.0007824344698965646
2266.0,0.0007389288868995258
2265.0,0.0007389288868995258
2264.0,0.0007824344698965646
2263.0,0.0007824344698965646
2262.0,0.0007824344698965646
2261.0,0.0007389288868995258
2260.0,0.0006954276616513155
2259.0,0.0006954276616513155
2258.0,0.0006954276616513155
2257.0,0.0006954276616513155
2256.0,0.0006954276616513155
2255.0,0.0006954276616513155
2254.0,0.0006954276616513155
2253.0,0.0007389288868995258
2252.0,0.0007824344698965646
2251.0,0.0007824344698965646
2250.0,0.0008259444115150671
2249.0,0.0008259444115150671
2248.0,0.0008259444115150671
2247.0,0.0008259444115150671
2246.0,0.0007824344698965646
2245.0,0.0007824344698965646
2244.0,0.0007389288868995258
2243.0,0.0006954276616513155
2242.0,0.0006954276616513155
2241.0,0.0006954276616513155
2240.0,0.0007389288868995258
2239.0,0.0008259444115150671
2238.0,0.0008259444115150671
2237.0,0.000869458712629001
2236.0,0.000869458712629001
2235.0,0.0009129773741116676
2234.0,0.0009129773741116676
2233.0,0.0009565003968372565
2232.0,0.0009565003968372565
2231.0,0.0009129773741116676
2230.0,0.0008259444115150671
2229.0,0.0007824344698965646
2228.0,0.0007389288868995258
2227.0,0.0006954276616513155
2226.0,0.0006954276616513155
2225.0,0.0007389288868995258
2224.0,0.0007824344698965646
2223.0,0.000869458712629001
2222.0,0.000869458712629001
2221.0,0.0009129773741116676
2220.0,0.0009129773741116676
2219.0,0.0009565003968372565
2218.0,0.0009565003968372565
2217.0,0.0009565003968372565
2216.0,0.0009565003968372565
2215.0,0.0009565003968372565
2214.0,0.0009129773741116676
2213.0,0.0009129773741116676
2212.0,0.000869458712629001
2211.0,0.000869458712629001
2210.0,0.0008259444115150671
2209.0,0.0008259444115150671
2208.0,0.0008259444115150671
2207.0,0.0008259444115150671
2206.0,0.0008259444115150671
2205.0,0.0008259444115150671
2204.0,0.0008259444115150671
2203.0,0.0007824344698965646
2202.0,0.0007824344698965646
2201.0,0.0008259444115150671
2200.0,0.0008259444115150671
2199.0,0.000869458712629001
2198.0,0.000869458712629001
2197.0,0.000869458712629001
2196.0,0.000869458712629001
2195.0,0.000869458712629001
2194.0,0.000869458712629001
2193.0,0.0008259444115150671
2192.0,0.0008259444115150671
2191.0,0.0008259444115150671
2190.0,0.0008259444115150671
2189.0,0.0008259444115150671
2188.0,0.000869458712629001
2187.0,0.000869458712629001
2186.0,0.000869458712629001
2185.0,0.000869458712629001
2184.0,0.0008259444115150671
2183.0,0.0008259444115150671
2182.0,0.0008259444115150671
2181.0,0.0008259444115150671
2180.0,0.0008259444115150671
2179.0,0.0008259444115150671
2178.0,0.0008259444115150671
2177.0,0.0008259444115150671
2176.0,0.000869458712629001
2175.0,0.000869458712629001
2174.0,0.0009129773741116676
2173.0,0.0009129773741116676
2172.0,0.0009129773741116676
2171.0,0.000869458712629001
2170.0,0.000869458712629001
2169.0,0.000869458712629001
2168.0,0.000869458712629001
2167.0,0.000869458712629001
2166.0,0.0008259444115150671
2165.0,0.0008259444115150671
2164.0,0.0008259444115150671
2163.0,0.0008259444115150671
2162.0,0.0008259444115150671
2161.0,0.0008259444115150671
2160.0,0.0008259444115150671
2159.0,0.0008259444115150671
2158.0,0.0008259444115150671
2157.0,0.0008259444115150671
2156.0,0.0008259444115150671
2155.0,0.0008259444115150671
2154.0,0.0008259444115150671
2153.0,0.0008259444115150671
2152.0,0.0008259444115150671
2151.0,0.0008259444115150671
2150.0,0.0008259444115150671
2149.0,0.0008259444115150671
2148.0,0.0008259444115150671
2147.0,0.000869458712629001
2146.0,0.000869458712629001
2145.0,0.0009129773741116676
2144.0,0.0009129773741116676
2143.0,0.0009129773741116676
2142.0,0.0009129773741116676
2141.0,0.0009565003968372565
2140.0,0.0009129773741116676
2139.0,0.0009129773741116676
2138.0,0.000869458712629001
2137.0,0.0008259444115150671
2136.0,0.0008259444115150671
2135.0,0.0008259444115150671
2134.0,0.0008259444115150671
2133.0,0.000869458712629001
2132.0,0.000869458712629001
2131.0,0.0008259444115150671
2130.0,0.0007824344698965646
2129.0,0.0007824344698965646
2128.0,0.0007389288868995258
2127.0,0.0007389288868995258
2126.0,0.0007389288868995258
2125.0,0.0007389288868995258
2124.0,0.0007389288868995258
2123.0,0.0007824344698965646
2122.0,0.0008259444115150671
2121.0,0.0008259444115150671
2120.0,0.0008259444115150671
2119.0,0.0008259444115150671
2118.0,0.0008259444115150671
2117.0,0.0008259444115150671
2116.0,0.0008259444115150671
2115.0,0.0007824344698965646
2114.0,0.0007389288868995258
2113.0,0.0007389288868995258
2112.0,0.0007389288868995258
2111.0,0.0007824344698965646
2110.0,0.0008259444115150671
2109.0,0.0008259444115150671
2108.0,0.0007824344698965646
2107.0,0.0007824344698965646
2106.0,0.0007389288868995258
2105.0,0.0006954276616513155
2104.0,0.0006954276616513155
2103.0,0.0007389288868995258
2102.0,0.0007824344698965646
2101.0,0.0008259444115150671
2100.0,0.0008259444115150671
2099.0,0.0008259444115150671
2098.0,0.0008259444115150671
2097.0,0.0007824344698965646
2096.0,0.0007824344698965646
2095.0,0.0007824344698965646
2094.0,0.0007824344698965646
2093.0,0.0007824344698965646
2092.0,0.0007824344698965646
2091.0,0.0007824344698965646
2090.0,0.0007824344698965646
2089.0,0.0007824344698965646
2088.0,0.0007824344698965646
2087.0,0.0008259444115150671
2086.0,0.0008259444115150671
2085.0,0.000869458712629001
2084.0,0.0008259444115150671
2083.0,0.0007824344698965646
2082.0,0.0007824344698965646
2081.0,0.0007389288868995258
2080.0,0.0007824344698965646
2079.0,0.0007824344698965646
2078.0,0.0007824344698965646
2077.0,0.0007389288868995258
2076.0,0.0007824344698965646
2075.0,0.0008259444115150671
2074.0,0.000869458712629001
2073.0,0.000869458712629001
2072.0,0.000869458712629001
2071.0,0.0008259444115150671
2070.0,0.0007824344698965646
2069.0,0.0007389288868995258
2068.0,0.0006954276616513155
2067.0,0.0007389288868995258
2066.0,0.0007389288868995258
2065.0,0.0007824344698965646
2064.0,0.000869458712629001
2063.0,0.0009129773741116676
2062.0,0.0009129773741116676
2061.0,0.000869458712629001
2060.0,0.0008259444115150671
2059.0,0.0008259444115150671
2058.0,0.0008259444115150671
2057.0,0.000869458712629001
2056.0,0.000869458712629001
2055.0,0.0008259444115150671
2054.0,0.0007824344698965646
2053.0,0.0007389288868995258
2052.0,0.0007389288868995258
2051.0,0.0007389288868995258
2050.0,0.0007389288868995258
2049.0,0.0007389288868995258
2048.0,0.0007389288868995258
2047.0,0.0007389288868995258
2046.0,0.0007824344698965646
2045.0,0.0007824344698965646
2044.0,0.0008259444115150671
2043.0,0.0008259444115150671
2042.0,0.000869458712629001
2041.0,0.0009129773741116676
2040.0,0.0009129773741116676
2039.0,0.000869458712629001
2038.0,0.000869458712629001
2037.0,0.000869458712629001
2036.0,0.0009129773741116676
2035.0,0.0009129773741116676
2034.0,0.0009129773741116676
2033.0,0.000869458712629001
2032.0,0.0008259444115150671
2031.0,0.0007824344698965646
2030.0,0.0007824344698965646
2029.0,0.0007389288868995258
2028.0,0.0007389288868995258
2027.0,0.0007389288868995258
2026.0,0.0007824344698965646
2025.0,0.0007824344698965646
2024.0,0.0008259444115150671
2023.0,0.0008259444115150671
2022.0,0.0007824344698965646
2021.0,0.0007389288868995258
2020.0,0.0006954276616513155
2019.0,0.0006954276616513155
2018.0,0.0006519307932786322
2017.0,0.0006519307932786322
2016.0,0.0006519307932786322
2015.0,0.0006954276616513155
2014.0,0.0006954276616513155
2013.0,0.0006954276616513155
2012.0,0.0006954276616513155
2011.0,0.0006954276616513155
2010.0,0.0007389288868995258
2009.0,0.0007824344698965646
2008.0,0.0007824344698965646
2007.0,0.0008259444115150671
2006.0,0.0008259444115150671
2005.0,0.0008259444115150671
2004.0,0.0008259444115150671
2003.0,0.0008259444115150671
2002.0,0.0007824344698965646
2001.0,0.0007824344698965646
2000.0,0.0007824344698965646
1999.0,0.0008259444115150671
1998.0,0.000869458712629001
1997.0,0.000869458712629001
1996.0,0.0008259444115150671
1995.0,0.0008259444115150671
1994.0,0.0007824344698965646
1993.0,0.0007824344698965646
1992.0,0.0007824344698965646
1991.0,0.0008259444115150671
1990.0,0.0008259444115150671
1989.0,0.0008259444115150671
1988.0,0.0008259444115150671
1987.0,0.0008259444115150671
1986.0,0.0007824344698965646
1985.0,0.0007389288868995258
1984.0,0.0007389288868995258
1983.0,0.0006954276616513155
1982.0,0.0007389288868995258
1981.0,0.0007824344698965646
1980.0,0.0008259444115150671
1979.0,0.0008259444115150671
1978.0,0.0008259444115150671
1977.0,0.0008259444115150671
1976.0,0.0008259444115150671
1975.0,0.000869458712629001
1974.0,0.000869458712629001
1973.0,0.000869458712629001
1972.0,0.0008259444115150671
1971.0,0.0007824344698965646
1970.0,0.0007389288868995258
1969.0,0.0006954276616513155
1968.0,0.0007389288868995258
1967.0,0.0007389288868995258
1966.0,0.0007824344698965646
1965.0,0.0007824344698965646
1964.0,0.0007389288868995258
1963.0,0.0007389288868995258
1962.0,0.0007389288868995258
1961.0,0.0007389288868995258
1960.0,0.0007824344698965646
1959.0,0.0007824344698965646
1958.0,0.0007824344698965646
1957.0,0.0007824344698965646
1956.0,0.0007824344698965646
1955.0,0.0007824344698965646
1954.0,0.0008259444115150671
1953.0,0.0008259444115150671
1952.0,0.000869458712629001
1951.0,0.000869458712629001
1950.0,0.000869458712629001
1949.0,0.0009129773741116676
1948.0,0.0009129773741116676
1947.0,0.0009129773741116676
1946.0,0.0009129773741116676
1945.0,0.000869458712629001
1944.0,0.0008259444115150671
1943.0,0.0007389288868995258
1942.0,0.0007389288868995258
1941.0,0.0007389288868995258
1940.0,0.0007824344698965646
1939.0,0.0007824344698965646
1938.0,0.0007824344698965646
1937.0,0.0007389288868995258
1936.0,0.0007389288868995258
1935.0,0.0007389288868995258
1934.0,0.0007389288868995258
1933.0,0.0007389288868995258
1932.0,0.0007824344698965646
1931.0,0.0007824344698965646
1930.0,0.0007824344698965646
1929.0,0.0007824344698965646
1928.0,0.0008259444115150671
1927.0,0.0008259444115150671
1926.0,0.0008259444115150671
1925.0,0.0008259444115150671
1924.0,0.0007824344698965646
1923.0,0.0008259444115150671
1922.0,0.0008259444115150671
1921.0,0.0007824344698965646
1920.0,0.0007824344698965646
1919.0,0.0007824344698965646
1918.0,0.0007824344698965646
1917.0,0.0007824344698965646
1916.0,0.0007389288868995258
1915.0,0.0007389288868995258
1914.0,0.0007824344698965646
1913.0,0.0007824344698965646
1912.0,0.0008259444115150671
1911.0,0.0008259444115150671
1910.0,0.0008259444115150671
1909.0,0.0008259444115150671
1908.0,0.0008259444115150671
1907.0,0.0007824344698965646
1906.0,0.0007824344698965646
1905.0,0.0007389288868995258
1904.0,0.0007389288868995258
1903.0,0.0007824344698965646
1902.0,0.0008259444115150671
1901.0,0.000869458712629001
1900.0,0.000869458712629001
1899.0,0.000869458712629001
1898.0,0.000869458712629001
1897.0,0.000869458712629001
1896.0,0.0008259444115150671
1895.0,0.0008259444115150671
1894.0,0.0008259444115150671
1893.0,0.0007824344698965646
1892.0,0.0007824344698965646
1891.0,0.0007389288868995258
1890.0,0.0007389288868995258
1889.0,0.0007824344698965646
1888.0,0.0008259444115150671
1887.0,0.0008259444115150671
1886.0,0.0008259444115150671
1885.0,0.0008259444115150671
1884.0,0.0008259444115150671
1883.0,0.000869458712629001
1882.0,0.000869458712629001
1881.0,0.0008259444115150671
1880.0,0.0007824344698965646
1879.0,0.0007389288868995258
1878.0,0.0007389288868995258
1877.0,0.0007389288868995258
1876.0,0.0007389288868995258
1875.0,0.0007389288868995258
1874.0,0.0007389288868995258
1873.0,0.0007824344698965646
1872.0,0.0007824344698965646
1871.0,0.0008259444115150671
1870.0,0.0007824344698965646
1869.0,0.0007389288868995258
1868.0,0.0006954276616513155
1867.0,0.0006954276616513155
1866.0,0.0006954276616513155
1865.0,0.0007389288868995258
1864.0,0.0007389288868995258
1863.0,0.0007824344698965646
1862.0,0.0007824344698965646
1861.0,0.0007824344698965646
1860.0,0.0007389288868995258
1859.0,0.0007389288868995258
1858.0,0.0007824344698965646
1857.0,0.0007824344698965646
1856.0,0.0008259444115150671
1855.0,0.0007824344698965646
1854.0,0.0007389288868995258
1853.0,0.0006954276616513155
1852.0,0.0006954276616513155
1851.0,0.0006954276616513155
1850.0,0.0006954276616513155
1849.0,0.0006954276616513155
1848.0,0.0007824344698965646
1847.0,0.0008259444115150671
1846.0,0.000869458712629001
1845.0,0.000869458712629001
1844.0,0.0009129773741116676
1843.0,0.0009129773741116676
1842.0,0.000869458712629001
1841.0,0.0008259444115150671
1840.0,0.0007824344698965646
1839.0,0.0007389288868995258
1838.0,0.0007389288868995258
1837.0,0.0007389288868995258
1836.0,0.0007389288868995258
1835.0,0.0007824344698965646
1834.0,0.0007824344698965646
1833.0,0.0008259444115150671
1832.0,0.0007824344698965646
1831.0,0.0007824344698965646
1830.0,0.0007824344698965646
1829.0,0.0007824344698965646
1828.0,0.0008259444115150671
1827.0,0.0008259444115150671
1826.0,0.000869458712629001
1825.0,0.000869458712629001
1824.0,0.0008259444115150671
1823.0,0.0008259444115150671
1822.0,0.0007824344698965646
1821.0,0.0007824344698965646
1820.0,0.0007824344698965646
1819.0,0.0007824344698965646
1818.0,0.0007824344698965646
1817.0,0.0007824344698965646
1816.0,0.0008259444115150671
1815.0,0.0008259444115150671
1814.0,0.0008259444115150671
1813.0,0.0008259444115150671
1812.0,0.0008259444115150671
1811.0,0.0007824344698965646
1810.0,0.0007389288868995258
1809.0,0.0007389288868995258
1808.0,0.0007389288868995258
1807.0,0.0007389288868995258
1806.0,0.0007389288868995258
1805.0,0.0007824344698965646
1804.0,0.0008259444115150671
1803.0,0.000869458712629001
1802.0,0.000869458712629001
1801.0,0.0008259444115150671
1800.0,0.0007824344698965646
1799.0,0.0006954276616513155
1798.0,0.0006954276616513155
1797.0,0.0006954276616513155
1796.0,0.0006954276616513155
1795.0,0.0006954276616513155
1794.0,0.0006954276616513155
1793.0,0.0006954276616513155
1792.0,0.0007389288868995258
1791.0,0.0007824344698965646
1790.0,0.0007824344698965646
1789.0,0.0007824344698965646
1788.0,0.0007824344698965646
1787.0,0.0007824344698965646
1786.0,0.0007389288868995258
1785.0,0.0007824344698965646
1784.0,0.0007824344698965646
1783.0,0.0008259444115150671
1782.0,0.0008259444115150671
1781.0,0.0008259444115150671
1780.0,0.0007824344698965646
1779.0,0.0007389288868995258
1778.0,0.0007389288868995258
1777.0,0.0007389288868995258
1776.0,0.0007389288868995258
1775.0,0.0007389288868995258
1774.0,0.0007824344698965646
1773.0,0.0008259444115150671
1772.0,0.000869458712629001
1771.0,0.000869458712629001
1770.0,0.000869458712629001
1769.0,0.0008259444115150671
1768.0,0.0007824344698965646
1767.0,0.0007824344698965646
1766.0,0.0007824344698965646
1765.0,0.0007389288868995258
1764.0,0.0006954276616513155
1763.0,0.0006519307932786322
1762.0,0.0006084382809090627
1761.0,0.0006519307932786322
1760.0,0.0006954276616513155
1759.0,0.0007389288868995258
1758.0,0.0007824344698965646
1757.0,0.0008259444115150671
1756.0,0.0008259444115150671
1755.0,0.000869458712629001
1754.0,0.000869458712629001
1753.0,0.0008259444115150671
1752.0,0.0007389288868995258
1751.0,0.0006954276616513155
1750.0,0.0006954276616513155
1749.0,0.0006954276616513155
1748.0,0.0007389288868995258
1747.0,0.0007389288868995258
1746.0,0.0007824344698965646
1745.0,0.0008259444115150671
1744.0,0.0008259444115150671
1743.0,0.0008259444115150671
1742.0,0.0007824344698965646
1741.0,0.0006954276616513155
1740.0,0.0006954276616513155
1739.0,0.0006954276616513155
1738.0,0.0007389288868995258
1737.0,0.0007824344698965646
1736.0,0.0007824344698965646
1735.0,0.0007824344698965646
1734.0,0.0007824344698965646
1733.0,0.0007824344698965646
1732.0,0.0007824344698965646
1731.0,0.0007389288868995258
1730.0,0.0007389288868995258
1729.0,0.0007389288868995258
1728.0,0.0007824344698965646
1727.0,0.0007824344698965646
1726.0,0.0007824344698965646
1725.0,0.0007389288868995258
1724.0,0.0007389288868995258
1723.0,0.0007824344698965646
1722.0,0.0008259444115150671
1721.0,0.0008259444115150671
1720.0,0.0007824344698965646
1719.0,0.0006954276616513155
1718.0,0.0006954276616513155
1717.0,0.0007389288868995258
1716.0,0.0007824344698965646
1715.0,0.0008259444115150671
1714.0,0.0008259444115150671
1713.0,0.0008259444115150671
1712.0,0.0007824344698965646
1711.0,0.0007824344698965646
1710.0,0.0007389288868995258
1709.0,0.0006954276616513155
1708.0,0.0006954276616513155
1707.0,0.0006954276616513155
1706.0,0.0006954276616513155
1705.0,0.0007389288868995258
1704.0,0.0007824344698965646
1703.0,0.0007389288868995258
1702.0,0.0007389288868995258
1701.0,0.0006954276616513155
1700.0,0.0006954276616513155
1699.0,0.0006519307932786322
1698.0,0.0006519307932786322
1697.0,0.0006084382809090627
1696.0,0.0006084382809090627
1695.0,0.0006954276616513155
1694.0,0.0007824344698965646
1693.0,0.0008259444115150671
1692.0,0.0007824344698965646
1691.0,0.0007824344698965646
1690.0,0.0007389288868995258
1689.0,0.0006954276616513155
1688.0,0.0006954276616513155
1687.0,0.0006519307932786322
1686.0,0.0006519307932786322
1685.0,0.0006954276616513155
1684.0,0.0007389288868995258
1683.0,0.0007389288868995258
1682.0,0.0007824344698965646
1681.0,0.0008259444115150671
1680.0,0.0007824344698965646
1679.0,0.0007824344698965646
1678.0,0.0007824344698965646
1677.0,0.0007389288868995258
1676.0,0.0007389288868995258
1675.0,0.0007389288868995258
1674.0,0.0007389288868995258
1673.0,0.0007389288868995258
1672.0,0.0007824344698965646
1671.0,0.0007824344698965646
1670.0,0.0007824344698965646
1669.0,0.0007824344698965646
1668.0,0.0008259444115150671
1667.0,0.0008259444115150671
1666.0,0.0008259444115150671
1665.0,0.0007824344698965646
1664.0,0.0007824344698965646
1663.0,0.0007389288868995258
1662.0,0.0007389288868995258
1661.0,0.0007389288868995258
1660.0,0.0007389288868995258
1659.0,0.0007824344698965646
1658.0,0.0007824344698965646
1657.0,0.0007824344698965646
1656.0,0.0007824344698965646
1655.0,0.0007824344698965646
1654.0,0.000869458712629001
1653.0,0.0009129773741116676
1652.0,0.0009129773741116676
1651.0,0.0009129773741116676
1650.0,0.0009129773741116676
1649.0,0.000869458712629001
1648.0,0.0008259444115150671
1647.0,0.0007389288868995258
1646.0,0.0006954276616513155
1645.0,0.0006954276616513155
1644.0,0.0007389288868995258
1643.0,0.0008259444115150671
1642.0,0.0008259444115150671
1641.0,0.0007824344698965646
1640.0,0.0007824344698965646
1639.0,0.0007389288868995258
1638.0,0.0007824344698965646
1637.0,0.0008259444115150671
1636.0,0.0008259444115150671
1635.0,0.0008259444115150671
1634.0,0.0007824344698965646
1633.0,0.0007389288868995258
1632.0,0.0007389288868995258
1631.0,0.0006954276616513155
1630.0,0.0006954276616513155
1629.0,0.0007389288868995258
1628.0,0.0007824344698965646
1627.0,0.0008259444115150671
1626.0,0.0008259444115150671
1625.0,0.0008259444115150671
1624.0,0.0008259444115150671
1623.0,0.000869458712629001
1622.0,0.000869458712629001
1621.0,0.000869458712629001
1620.0,0.000869458712629001
1619.0,0.000869458712629001
1618.0,0.0008259444115150671
1617.0,0.0008259444115150671
1616.0,0.0008259444115150671
1615.0,0.0008259444115150671
1614.0,0.0007824344698965646
1613.0,0.0007389288868995258
1612.0,0.0007389288868995258
1611.0,0.0007389288868995258
1610.0,0.0006954276616513155
1609.0,0.0006954276616513155
1608.0,0.0006954276616513155
1607.0,0.0006519307932786322
1606.0,0.0006519307932786322
1605.0,0.0006519307932786322
1604.0,0.0006954276616513155
1603.0,0.0007389288868995258
1602.0,0.0007824344698965646
1601.0,0.0007824344698965646
1600.0,0.0008259444115150671
1599.0,0.0008259444115150671
1598.0,0.0007824344698965646
1597.0,0.0007824344698965646
1596.0,0.0007389288868995258
1595.0,0.0006954276616513155
1594.0,0.0006954276616513155
1593.0,0.0006954276616513155
1592.0,0.0006954276616513155
1591.0,0.0006954276616513155
1590.0,0.0006954276616513155
1589.0,0.0007389288868995258
1588.0,0.0007389288868995258
1587.0,0.0007824344698965646
1586.0,0.0007824344698965646
1585.0,0.0008259444115150671
1584.0,0.0008259444115150671
1583.0,0.0007824344698965646
1582.0,0.0007389288868995258
1581.0,0.0006519307932786322
1580.0,0.0006084382809090627
1579.0,0.0005649501236701937
1578.0,0.000521466320689834
1577.0,0.0004779868710962365
1576.0,0.000521466320689834
1575.0,0.0006084382809090627
1574.0,0.0006519307932786322
1573.0,0.0006954276616513155
1572.0,0.0006954276616513155
1571.0,0.0006954276616513155
1570.0,0.0006954276616513155
1569.0,0.0006954276616513155
1568.0,0.0006519307932786322
1567.0,0.0006519307932786322
1566.0,0.0006084382809090627
1565.0,0.0006084382809090627
1564.0,0.0006084382809090627
1563.0,0.0006519307932786322
1562.0,0.0006954276616513155
1561.0,0.0007389288868995258
1560.0,0.0008259444115150671
1559.0,0.000869458712629001
1558.0,0.0008259444115150671
1557.0,0.0008259444115150671
1556.0,0.0008259444115150671
1555.0,0.0007824344698965646
1554.0,0.0007824344698965646
1553.0,0.0008259444115150671
1552.0,0.0008259444115150671
1551.0,0.0008259444115150671
1550.0,0.0008259444115150671
1549.0,0.0007824344698965646
1548.0,0.0007824344698965646
1547.0,0.0007389288868995258
1546.0,0.0007389288868995258
1545.0,0.0007389288868995258
1544.0,0.0007389288868995258
1543.0,0.0007389288868995258
1542.0,0.0007824344698965646
1541.0,0.0008259444115150671
1540.0,0.0008259444115150671
1539.0,0.0007389288868995258
1538.0,0.0006954276616513155
1537.0,0.0007389288868995258
1536.0,0.0007389288868995258
1535.0,0.0006954276616513155
1534.0,0.0006954276616513155
1533.0,0.0007389288868995258
1532.0,0.0007389288868995258
1531.0,0.0007824344698965646
1530.0,0.0007824344698965646
1529.0,0.0007824344698965646
1528.0,0.0007824344698965646
1527.0,0.0008259444115150671
1526.0,0.0007824344698965646
1525.0,0.0007389288868995258
1524.0,0.0006954276616513155
1523.0,0.0006519307932786322
1522.0,0.0006519307932786322
1521.0,0.0006519307932786322
1520.0,0.0006954276616513155
1519.0,0.0006954276616513155
1518.0,0.0006954276616513155
1517.0,0.0006519307932786322
1516.0,0.0006084382809090627
1515.0,0.0006084382809090627
1514.0,0.0006519307932786322
1513.0,0.0006954276616513155
1512.0,0.0007389288868995258
1511.0,0.0007389288868995258
1510.0,0.0007824344698965646
1509.0,0.0008259444115150671
1508.0,0.0009129773741116676
1507.0,0.0009565003968372565
1506.0,0.000869458712629001
1505.0,0.0007824344698965646
1504.0,0.0007389288868995258
1503.0,0.0006954276616513155
1502.0,0.0006954276616513155
1501.0,0.0007389288868995258
1500.0,0.0007389288868995258
1499.0,0.0006954276616513155
1498.0,0.0006954276616513155
1497.0,0.0006954276616513155
1496.0,0.0006954276616513155
1495.0,0.0006954276616513155
1494.0,0.0006954276616513155
1493.0,0.0006954276616513155
1492.0,0.0006519307932786322
1491.0,0.0006084382809090627
1490.0,0.0005649501236701937
1489.0,0.0006084382809090627
1488.0,0.0006519307932786322
1487.0,0.0006954276616513155
1486.0,0.0007824344698965646
1485.0,0.0007824344698965646
1484.0,0.0008259444115150671
1483.0,0.0008259444115150671
1482.0,0.0007824344698965646
1481.0,0.0007389288868995258
1480.0,0.0007389288868995258
1479.0,0.0007389288868995258
1478.0,0.0006954276616513155
1477.0,0.0006954276616513155
1476.0,0.0006954276616513155
1475.0,0.0006954276616513155
1474.0,0.0006954276616513155
1473.0,0.0006954276616513155
1472.0,0.0007389288868995258
1471.0,0.0007389288868995258
1470.0,0.0007824344698965646
1469.0,0.0007389288868995258
1468.0,0.0006954276616513155
1467.0,0.0006519307932786322
1466.0,0.0006084382809090627
1465.0,0.0006084382809090627
1464.0,0.0006519307932786322
1463.0,0.0006954276616513155
1462.0,0.0007389288868995258
1461.0,0.0007824344698965646
1460.0,0.0008259444115150671
1459.0,0.0009129773741116676
1458.0,0.0009565003968372565
1457.0,0.0009129773741116676
1456.0,0.0008259444115150671
1455.0,0.0007824344698965646
1454.0,0.0007389288868995258
1453.0,0.0007389288868995258
1452.0,0.0007389288868995258
1451.0,0.0007389288868995258
1450.0,0.0007389288868995258
1449.0,0.0007389288868995258
1448.0,0.0007824344698965646
1447.0,0.0007824344698965646
1446.0,0.0007824344698965646
1445.0,0.0007824344698965646
1444.0,0.0007824344698965646
1443.0,0.0007389288868995258
1442.0,0.0007389288868995258
1441.0,0.0007389288868995258
1440.0,0.0007824344698965646
1439.0,0.0007824344698965646
1438.0,0.0007824344698965646
1437.0,0.0006954276616513155
1436.0,0.0006519307932786322
1435.0,0.0006519307932786322
1434.0,0.0006519307932786322
1433.0,0.0006954276616513155
1432.0,0.0006954276616513155
1431.0,0.0006519307932786322
1430.0,0.0006519307932786322
1429.0,0.0006519307932786322
1428.0,0.0006519307932786322
1427.0,0.0006954276616513155
1426.0,0.0007389288868995258
1425.0,0.0007389288868995258
1424.0,0.0006954276616513155
1423.0,0.0006954276616513155
1422.0,0.0006954276616513155
1421.0,0.0007389288868995258
1420.0,0.0007824344698965646
1419.0,0.0008259444115150671
1418.0,0.0007824344698965646
1417.0,0.0007389288868995258
1416.0,0.0006954276616513155
1415.0,0.0006519307932786322
1414.0,0.0006519307932786322
1413.0,0.0006519307932786322
1412.0,0.0006519307932786322
1411.0,0.0006519307932786322
1410.0,0.0006084382809090627
1409.0,0.0006084382809090627
1408.0,0.0006084382809090627
1407.0,0.0006084382809090627
1406.0,0.0006084382809090627
1405.0,0.0006519307932786322
1404.0,0.0006954276616513155
1403.0,0.0006954276616513155
1402.0,0.0006954276616513155
1401.0,0.0006519307932786322
1400.0,0.0006519307932786322
1399.0,0.0006519307932786322
1398.0,0.0006519307932786322
1397.0,0.0006519307932786322
1396.0,0.0006084382809090627
1395.0,0.0006084382809090627
1394.0,0.0006084382809090627
1393.0,0.0006084382809090627
1392.0,0.0006084382809090627
1391.0,0.0006084382809090627
1390.0,0.0006519307932786322
1389.0,0.0006954276616513155
1388.0,0.0006954276616513155
1387.0,0.0006519307932786322
1386.0,0.0006519307932786322
1385.0,0.0006084382809090627
1384.0,0.0006084382809090627
1383.0,0.0006519307932786322
1382.0,0.0006519307932786322
1381.0,0.0006519307932786322
1380.0,0.0006954276616513155
1379.0,0.0006954276616513155
1378.0,0.0006519307932786322
1377.0,0.0006519307932786322
1376.0,0.0006084382809090627
1375.0,0.0006084382809090627
1374.0,0.0006084382809090627
1373.0,0.0006084382809090627
1372.0,0.0006519307932786322
1371.0,0.0006519307932786322
1370.0,0.0006519307932786322
1369.0,0.0006519307932786322
1368.0,0.0006519307932786322
1367.0,0.0006954276616513155
1366.0,0.0006954276616513155
1365.0,0.0006954276616513155
1364.0,0.0006954276616513155
1363.0,0.0006954276616513155
1362.0,0.0007389288868995258
1361.0,0.0007389288868995258
1360.0,0.0007824344698965646
1359.0,0.0007824344698965646
1358.0,0.0007824344698965646
1357.0,0.0007389288868995258
1356.0,0.0007389288868995258
1355.0,0.0007389288868995258
1354.0,0.0006954276616513155
1353.0,0.0006954276616513155
1352.0,0.0006954276616513155
1351.0,0.0006954276616513155
1350.0,0.0007389288868995258
1349.0,0.0007389288868995258
1348.0,0.0007389288868995258
1347.0,0.0007389288868995258
1346.0,0.0006954276616513155
1345.0,0.0006954276616513155
1344.0,0.0006954276616513155
1343.0,0.0006519307932786322
1342.0,0.0006519307932786322
1341.0,0.0006084382809090627
1340.0,0.0006084382809090627
1339.0,0.0006519307932786322
1338.0,0.0006954276616513155
1337.0,0.0006954276616513155
1336.0,0.0006954276616513155
1335.0,0.0006519307932786322
1334.0,0.0006519307932786322
1333.0,0.0006519307932786322
1332.0,0.0006954276616513155
1331.0,0.0006954276616513155
1330.0,0.0007389288868995258
1329.0,0.0006954276616513155
1328.0,0.0006954276616513155
1327.0,0.0006954276616513155
1326.0,0.0006954276616513155
1325.0,0.0006954276616513155
1324.0,0.0006954276616513155
1323.0,0.0006954276616513155
1322.0,0.0006954276616513155
1321.0,0.0006954276616513155
1320.0,0.0006954276616513155
1319.0,0.0007389288868995258
1318.0,0.0007389288868995258
1317.0,0.0007389288868995258
1316.0,0.0007389288868995258
1315.0,0.0006954276616513155
1314.0,0.0006954276616513155
1313.0,0.0007389288868995258
1312.0,0.0007389288868995258
1311.0,0.0007824344698965646
1310.0,0.0007824344698965646
1309.0,0.0007389288868995258
1308.0,0.0007389288868995258
1307.0,0.0006954276616513155
1306.0,0.0006954276616513155
1305.0,0.0006519307932786322
1304.0,0.0006954276616513155
1303.0,0.0007389288868995258
1302.0,0.0007389288868995258
1301.0,0.0007824344698965646
1300.0,0.0007824344698965646
1299.0,0.0007389288868995258
1298.0,0.0007389288868995258
1297.0,0.0006954276616513155
1296.0,0.0006954276616513155
1295.0,0.0006954276616513155
1294.0,0.0006519307932786322
1293.0,0.0006519307932786322
1292.0,0.0006084382809090627
1291.0,0.0006084382809090627
1290.0,0.0006519307932786322
1289.0,0.0006519307932786322
1288.0,0.0006954276616513155
1287.0,0.0006954276616513155
1286.0,0.0006954276616513155
1285.0,0.0006954276616513155
1284.0,0.0007389288868995258
1283.0,0.0007389288868995258
1282.0,0.0007824344698965646
1281.0,0.0007389288868995258
1280.0,0.0007389288868995258
1279.0,0.0006954276616513155
1278.0,0.0007389288868995258
1277.0,0.0007389288868995258
1276.0,0.0007389288868995258
1275.0,0.0006954276616513155
1274.0,0.0006954276616513155
1273.0,0.0006954276616513155
1272.0,0.0006954276616513155
1271.0,0.0006954276616513155
1270.0,0.0006954276616513155
1269.0,0.0006954276616513155
1268.0,0.0006954276616513155
1267.0,0.0006519307932786322
1266.0,0.0006519307932786322
1265.0,0.0006519307932786322
1264.0,0.0006519307932786322
1263.0,0.0006519307932786322
1262.0,0.0006519307932786322
1261.0,0.0006954276616513155
1260.0,0.0006519307932786322
1259.0,0.0006084382809090627
1258.0,0.0006084382809090627
1257.0,0.0006084382809090627
1256.0,0.0006519307932786322
1255.0,0.0006519307932786322
1254.0,0.0006519307932786322
1253.0,0.0006954276616513155
1252.0,0.0006519307932786322
1251.0,0.0006519307932786322
1250.0,0.0006084382809090627
1249.0,0.0006084382809090627
1248.0,0.0006084382809090627
1247.0,0.0006519307932786322
1246.0,0.0006519307932786322
1245.0,0.0006954276616513155
1244.0,0.0006954276616513155
1243.0,0.0006519307932786322
1242.0,0.0006519307932786322
1241.0,0.0006519307932786322
1240.0,0.0006954276616513155
1239.0,0.0006954276616513155
1238.0,0.0007389288868995258
1237.0,0.0006954276616513155
1236.0,0.0006954276616513155
1235.0,0.0006954276616513155
1234.0,0.0006954276616513155
1233.0,0.0006519307932786322
1232.0,0.0006084382809090627
1231.0,0.0005649501236701937
1230.0,0.0005649501236701937
1229.0,0.0006084382809090627
1228.0,0.0006519307932786322
1227.0,0.0006519307932786322
1226.0,0.0006084382809090627
1225.0,0.0005649501236701937
1224.0,0.000521466320689834
1223.0,0.0005649501236701937
1222.0,0.0005649501236701937
1221.0,0.0006519307932786322
1220.0,0.0006954276616513155
1219.0,0.0006954276616513155
1218.0,0.0006954276616513155
1217.0,0.0006954276616513155
1216.0,0.0006954276616513155
1215.0,0.0006954276616513155
1214.0,0.0006954276616513155
1213.0,0.0007389288868995258
1212.0,0.0007389288868995258
1211.0,0.0006954276616513155
1210.0,0.0006954276616513155
1209.0,0.0006519307932786322
1208.0,0.0006084382809090627
1207.0,0.0005649501236701937
1206.0,0.0005649501236701937
1205.0,0.0005649501236701937
1204.0,0.0005649501236701937
1203.0,0.0006084382809090627
1202.0,0.0006084382809090627
1201.0,0.0006519307932786322
1200.0,0.0006954276616513155
1199.0,0.0006954276616513155
1198.0,0.0006954276616513155
1197.0,0.0006954276616513155
1196.0,0.0006954276616513155
1195.0,0.0006519307932786322
1194.0,0.0006084382809090627
1193.0,0.0006084382809090627
1192.0,0.0006084382809090627
1191.0,0.0006519307932786322
1190.0,0.0006954276616513155
1189.0,0.0007389288868995258
1188.0,0.0007389288868995258
1187.0,0.0007389288868995258
1186.0,0.0007389288868995258
1185.0,0.0007389288868995258
1184.0,0.0007389288868995258
1183.0,0.0006954276616513155
1182.0,0.0006519307932786322
1181.0,0.0006519307932786322
1180.0,0.0006084382809090627
1179.0,0.0006084382809090627
1178.0,0.0006084382809090627
1177.0,0.0006084382809090627
1176.0,0.0006084382809090627
1175.0,0.0006519307932786322
1174.0,0.0006954276616513155
1173.0,0.0006954276616513155
1172.0,0.0007389288868995258
1171.0,0.0007824344698965646
1170.0,0.0007824344698965646
1169.0,0.0007824344698965646
1168.0,0.0007389288868995258
1167.0,0.0006954276616513155
1166.0,0.0006519307932786322
1165.0,0.0006519307932786322
1164.0,0.0006519307932786322
1163.0,0.0006519307932786322
1162.0,0.0006954276616513155
1161.0,0.0006954276616513155
1160.0,0.0007389288868995258
1159.0,0.0007389288868995258
1158.0,0.0007389288868995258
1157.0,0.0007389288868995258
1156.0,0.0006954276616513155
1155.0,0.0006954276616513155
1154.0,0.0006954276616513155
1153.0,0.0007389288868995258
1152.0,0.0007824344698965646
1151.0,0.0008259444115150671
1150.0,0.0008259444115150671
1149.0,0.0007824344698965646
1148.0,0.0007389288868995258
1147.0,0.0007389288868995258
1146.0,0.0006954276616513155
1145.0,0.0006954276616513155
1144.0,0.0006954276616513155
1143.0,0.0006519307932786322
1142.0,0.0006519307932786322
1141.0,0.0006519307932786322
1140.0,0.0006954276616513155
1139.0,0.0007389288868995258
1138.0,0.0007389288868995258
1137.0,0.0006954276616513155
1136.0,0.0006084382809090627
1135.0,0.0005649501236701937
1134.0,0.0006084382809090627
1133.0,0.0006519307932786322
1132.0,0.0007389288868995258
1131.0,0.0007824344698965646
1130.0,0.0007824344698965646
1129.0,0.0007824344698965646
1128.0,0.0007389288868995258
1127.0,0.0007389288868995258
1126.0,0.0006954276616513155
1125.0,0.0006954276616513155
1124.0,0.0007389288868995258
1123.0,0.0007824344698965646
1122.0,0.0007824344698965646
1121.0,0.0007824344698965646
1120.0,0.0007824344698965646
1119.0,0.0007389288868995258
1118.0,0.0006954276616513155
1117.0,0.0006519307932786322
1116.0,0.0005649501236701937
1115.0,0.000521466320689834
1114.0,0.000521466320689834
1113.0,0.000521466320689834
1112.0,0.000521466320689834
1111.0,0.0005649501236701937
1110.0,0.0005649501236701937
1109.0,0.0006084382809090627
1108.0,0.0006084382809090627
1107.0,0.0006084382809090627
1106.0,0.0006084382809090627
1105.0,0.0006084382809090627
1104.0,0.0006954276616513155
1103.0,0.0007389288868995258
1102.0,0.0007389288868995258
1101.0,0.0007389288868995258
1100.0,0.0006954276616513155
1099.0,0.0006519307932786322
1098.0,0.0006954276616513155
1097.0,0.0007389288868995258
1096.0,0.0007824344698965646
1095.0,0.0008259444115150671
1094.0,0.0007389288868995258
1093.0,0.0006954276616513155
1092.0,0.0006084382809090627
1091.0,0.0005649501236701937
1090.0,0.0006084382809090627
1089.0,0.0006084382809090627
1088.0,0.0006084382809090627
1087.0,0.0005649501236701937
1086.0,0.0004779868710962365
1085.0,0.00043451177401765406
1084.0,0.0003910410285830057
1083.0,0.00043451177401765406
1082.0,0.00043451177401765406
1081.0,0.00043451177401765406
1080.0,0.0003475746339209884
1079.0,0.00030411258916074324
1078.0,0.00030411258916074324
1077.0,0.00030411258916074324
1076.0,0.0003475746339209884
1075.0,0.0003475746339209884
1074.0,0.00043451177401765406
1073.0,0.000521466320689834
1072.0,0.0006084382809090627
1071.0,0.0006519307932786322
1070.0,0.0006954276616513155
1069.0,0.0006519307932786322
1068.0,0.0005649501236701937
1067.0,0.000521466320689834
1066.0,0.00043451177401765406
1065.0,0.0003910410285830057
1064.0,0.0003910410285830057
1063.0,0.00043451177401765406
1062.0,0.000521466320689834
1061.0,0.000521466320689834
1060.0,0.000521466320689834
1059.0,0.00043451177401765406
1058.0,0.0003910410285830057
1057.0,0.0003910410285830057
1056.0,0.00043451177401765406
1055.0,0.0004779868710962365
1054.0,0.0004779868710962365
1053.0,0.00043451177401765406
1052.0,0.0003910410285830057
1051.0,0.0003475746339209884
1050.0,0.00030411258916074324
1049.0,0.00026065489343207737
1048.0,0.00026065489343207737
1047.0,0.00030411258916074324
1046.0,0.0003475746339209884
1045.0,0.0003475746339209884
1044.0,0.0003910410285830057
1043.0,0.0003910410285830057
1042.0,0.0004779868710962365
1041.0,0.000521466320689834
1040.0,0.0006084382809090627
1039.0,0.0006084382809090627
1038.0,0.0005649501236701937
1037.0,0.000521466320689834
1036.0,0.000521466320689834
1035.0,0.000521466320689834
1034.0,0.000521466320689834
1033.0,0.0004779868710962365
1032.0,0.0004779868710962365
1031.0,0.0004779868710962365
1030.0,0.000521466320689834
1029.0,0.000521466320689834
1028.0,0.000521466320689834
1027.0,0.0005649501236701937
1026.0,0.0006084382809090627
1025.0,0.0006519307932786322
1024.0,0.0006519307932786322
1023.0,0.0006519307932786322
1022.0,0.0006519307932786322
1021.0,0.0006519307932786322
1020.0,0.0006519307932786322
1019.0,0.0006954276616513155
1018.0,0.0006954276616513155
1017.0,0.0006954276616513155
1016.0,0.0006519307932786322
1015.0,0.0006519307932786322
1014.0,0.0006084382809090627
1013.0,0.0006084382809090627
1012.0,0.0006084382809090627
1011.0,0.0006084382809090627
1010.0,0.0005649501236701937
1009.0,0.000521466320689834
1008.0,0.000521466320689834
1007.0,0.000521466320689834
1006.0,0.000521466320689834
1005.0,0.0004779868710962365
1004.0,0.0004779868710962365
1003.0,0.0004779868710962365
1002.0,0.000521466320689834
1001.0,0.0006084382809090627
1000.0,0.0006954276616513155
999.0,0.0007389288868995258
998.0,0.0006954276616513155
997.0,0.0006519307932786322
996.0,0.0006519307932786322
995.0,0.0006084382809090627
994.0,0.0006084382809090627
993.0,0.0005649501236701937
992.0,0.0005649501236701937
991.0,0.0006084382809090627
990.0,0.0006954276616513155
989.0,0.0007389288868995258
988.0,0.0007824344698965646
987.0,0.0007824344698965646
986.0,0.0007389288868995258
985.0,0.0006519307932786322
984.0,0.0006519307932786322
983.0,0.0006084382809090627
982.0,0.0006084382809090627
981.0,0.0006084382809090627
980.0,0.0006084382809090627
979.0,0.0006084382809090627
978.0,0.0006084382809090627
977.0,0.0006084382809090627
976.0,0.0006084382809090627
975.0,0.0006519307932786322
974.0,0.0006519307932786322
973.0,0.0006954276616513155
972.0,0.0007389288868995258
971.0,0.0007389288868995258
970.0,0.0006519307932786322
969.0,0.0006084382809090627
968.0,0.0005649501236701937
967.0,0.0005649501236701937
966.0,0.0006084382809090627
965.0,0.0006519307932786322
964.0,0.0006954276616513155
963.0,0.0006954276616513155
962.0,0.0006954276616513155
961.0,0.0006954276616513155
960.0,0.0007389288868995258
959.0,0.0007824344698965646
958.0,0.0007824344698965646
957.0,0.0007824344698965646
956.0,0.0007389288868995258
955.0,0.0006954276616513155
954.0,0.0006519307932786322
953.0,0.0006084382809090627
952.0,0.0006084382809090627
951.0,0.0006084382809090627
950.0,0.0006084382809090627
949.0,0.0006519307932786322
948.0,0.0006519307932786322
947.0,0.0006954276616513155
946.0,0.0006954276616513155
945.0,0.0006954276616513155
944.0,0.0006954276616513155
943.0,0.0007389288868995258
942.0,0.0007824344698965646
941.0,0.0008259444115150671
940.0,0.000869458712629001
939.0,0.0008259444115150671
938.0,0.0007824344698965646
937.0,0.0006954276616513155
936.0,0.0006954276616513155
935.0,0.0007389288868995258
934.0,0.0008259444115150671
933.0,0.0008259444115150671
932.0,0.0008259444115150671
931.0,0.0008259444115150671
930.0,0.0008259444115150671
929.0,0.000869458712629001
928.0,0.000869458712629001
927.0,0.000869458712629001
926.0,0.0008259444115150671
925.0,0.0007389288868995258
924.0,0.0006954276616513155
923.0,0.0006954276616513155
922.0,0.0006954276616513155
921.0,0.0007389288868995258
920.0,0.0008259444115150671
919.0,0.000869458712629001
918.0,0.000869458712629001
917.0,0.0008259444115150671
916.0,0.0007824344698965646
915.0,0.0007824344698965646
914.0,0.0007824344698965646
913.0,0.0008259444115150671
912.0,0.000869458712629001
911.0,0.000869458712629001
910.0,0.0008259444115150671
909.0,0.0007824344698965646
908.0,0.0007824344698965646
907.0,0.0007824344698965646
906.0,0.0007824344698965646
905.0,0.0007389288868995258
904.0,0.0006954276616513155
903.0,0.0006519307932786322
902.0,0.0006519307932786322
901.0,0.0006519307932786322
900.0,0.0006954276616513155
899.0,0.0006954276616513155
898.0,0.0006519307932786322
897.0,0.0005649501236701937
896.0,0.000521466320689834
895.0,0.000521466320689834
894.0,0.000521466320689834
893.0,0.0006084382809090627
892.0,0.0006954276616513155
891.0,0.0006954276616513155
890.0,0.0006954276616513155
889.0,0.0006084382809090627
888.0,0.000521466320689834
887.0,0.000521466320689834
886.0,0.0006084382809090627
885.0,0.0007389288868995258
884.0,0.0008259444115150671
883.0,0.000869458712629001
882.0,0.0008259444115150671
881.0,0.0007389288868995258
880.0,0.0006954276616513155
879.0,0.0006084382809090627
878.0,0.0005649501236701937
877.0,0.0006084382809090627
876.0,0.0006519307932786322
875.0,0.0006519307932786322
874.0,0.0006519307932786322
873.0,0.0006519307932786322
872.0,0.0006519307932786322
871.0,0.0006954276616513155
870.0,0.0006954276616513155
869.0,0.0006954276616513155
868.0,0.0006519307932786322
867.0,0.0006084382809090627
866.0,0.000521466320689834
865.0,0.0004779868710962365
864.0,0.0004779868710962365
863.0,0.0005649501236701937
862.0,0.0007389288868995258
861.0,0.000869458712629001
860.0,0.0009565003968372565
859.0,0.0009565003968372565
858.0,0.0009129773741116676
857.0,0.0008259444115150671
856.0,0.0007824344698965646
855.0,0.0007389288868995258
854.0,0.0006519307932786322
853.0,0.0006084382809090627
852.0,0.0006519307932786322
851.0,0.0006954276616513155
850.0,0.0007389288868995258
849.0,0.0007389288868995258
848.0,0.0006954276616513155
847.0,0.0006954276616513155
846.0,0.0006954276616513155
845.0,0.0007389288868995258
844.0,0.0007824344698965646
843.0,0.0007389288868995258
842.0,0.0006519307932786322
841.0,0.000521466320689834
840.0,0.00043451177401765406
839.0,0.00043451177401765406
838.0,0.000521466320689834
837.0,0.0005649501236701937
836.0,0.0006084382809090627
835.0,0.0006084382809090627
834.0,0.0005649501236701937
833.0,0.0005649501236701937
832.0,0.0006084382809090627
831.0,0.0006084382809090627
830.0,0.0006084382809090627
829.0,0.0006084382809090627
828.0,0.0006519307932786322
827.0,0.0007389288868995258
826.0,0.0007824344698965646
825.0,0.0007824344698965646
824.0,0.0007824344698965646
823.0,0.0007824344698965646
822.0,0.0006954276616513155
821.0,0.0006084382809090627
820.0,0.0004779868710962365
819.0,0.0003475746339209884
818.0,0.00030411258916074324
817.0,0.0003910410285830057
816.0,0.000521466320689834
815.0,0.0006084382809090627
814.0,0.0005649501236701937
813.0,0.0004779868710962365
812.0,0.0003475746339209884
811.0,0.00030411258916074324
810.0,0.00030411258916074324
809.0,0.0003475746339209884
808.0,0.0003910410285830057
807.0,0.0003910410285830057
806.0,0.0003910410285830057
805.0,0.0003910410285830057
804.0,0.0003910410285830057
803.0,0.0004779868710962365
802.0,0.0005649501236701937
801.0,0.0006519307932786322
800.0,0.0006519307932786322
799.0,0.0006519307932786322
798.0,0.0006084382809090627
797.0,0.0005649501236701937
796.0,0.0005649501236701937
795.0,0.000521466320689834
794.0,0.0003910410285830057
793.0,0.00026065489343207737
792.0,0.00017375254558760211
791.0,0.00017375254558760211
790.0,0.00021720154586435392
789.0,0.00030411258916074324
788.0,0.0003475746339209884
787.0,0.0003910410285830057
786.0,0.00043451177401765406
785.0,0.0004779868710962365
784.0,0.0005649501236701937
783.0,0.0006084382809090627
782.0,0.0006519307932786322
781.0,0.0006519307932786322
780.0,0.0006954276616513155
779.0,0.0006954276616513155
778.0,0.0006954276616513155
777.0,0.0006084382809090627
776.0,0.0005649501236701937
775.0,0.0006084382809090627
774.0,0.0006519307932786322
773.0,0.0007389288868995258
772.0,0.0007824344698965646
771.0,0.0008259444115150671
770.0,0.0008259444115150671
769.0,0.0006954276616513155
768.0,0.0006084382809090627
767.0,0.0004779868710962365
766.0,0.0003910410285830057
765.0,0.00030411258916074324
764.0,0.00030411258916074324
763.0,0.0003475746339209884
762.0,0.0003475746339209884
761.0,0.0003910410285830057
760.0,0.0003475746339209884
759.0,0.0003910410285830057
758.0,0.0004779868710962365
757.0,0.000521466320689834
756.0,0.000521466320689834
755.0,0.000521466320689834
754.0,0.0004779868710962365
753.0,0.0003910410285830057
752.0,0.0003475746339209884
751.0,0.0003475746339209884
750.0,0.00030411258916074324
749.0,0.00026065489343207737
748.0,0.00021720154586435392
747.0,0.00021720154586435392
746.0,0.00021720154586435392
745.0,0.00030411258916074324
744.0,0.0004779868710962365
743.0,0.0006084382809090627
742.0,0.0006084382809090627
741.0,0.0006084382809090627
740.0,0.0005649501236701937
739.0,0.0006084382809090627
738.0,0.0006084382809090627
737.0,0.000521466320689834
736.0,0.0003475746339209884
735.0,0.00021720154586435392
734.0,0.00026065489343207737
733.0,0.00043451177401765406
732.0,0.0006519307932786322
731.0,0.0008259444115150671
730.0,0.0009129773741116676
729.0,0.0009129773741116676
728.0,0.0009129773741116676
727.0,0.000869458712629001
726.0,0.0007389288868995258
725.0,0.000521466320689834
724.0,0.0003475746339209884
723.0,0.00026065489343207737
722.0,0.00030411258916074324
721.0,0.00043451177401765406
720.0,0.0005649501236701937
719.0,0.0006519307932786322
718.0,0.0006954276616513155
717.0,0.0006519307932786322
716.0,0.0005649501236701937
715.0,0.000521466320689834
714.0,0.0005649501236701937
713.0,0.0005649501236701937
712.0,0.0005649501236701937
711.0,0.0006084382809090627
710.0,0.0007824344698965646
709.0,0.0010000277816797354
708.0,0.0011741809597138886
707.0,0.0011306361176557367
706.0,0.000869458712629001
705.0,0.0006084382809090627
704.0,0.000521466320689834
703.0,0.0005649501236701937
702.0,0.0006954276616513155
701.0,0.0006519307932786322
700.0,0.0003475746339209884
699.0,4.343161980746579e-05
698.0,8.686758342868472e-05
697.0,0.00043451177401765406
696.0,0.0008259444115150671
695.0,0.000869458712629001
694.0,0.0004779868710962365
693.0,-4.3427276862573194e-05
692.0,-0.0002604985473904087
691.0,0.0
690.0,0.00043451177401765406
689.0,0.0006084382809090627
688.0,0.000521466320689834
687.0,0.0006084382809090627
686.0,0.0011306361176557367
685.0,0.0018714928717336043
684.0,0.0024388843664115978
683.0,0.0027447101798967477
682.0,0.0028758443407954637
681.0,0.0026573093983774942
680.0,0.001915112063444413
679.0,0.0010870956412141197
678.0,0.0009129773741116676
677.0,0.001348404001626502
676.0,0.0015226969634936083
675.0,0.0009129773741116676
674.0,4.343161980746579e-05
673.0,-0.00030389978481260016
672.0,0.00021720154586435392
671.0,0.0012612837441823288
670.0,0.002351545103793873
669.0,0.0031382315093266833
668.0,0.0031382315093266833
667.0,0.002351545103793873
666.0,0.0012612837441823288
665.0,0.00026065489343207737
664.0,-0.0006075870628903246
663.0,-0.001344230411601366
662.0,-0.001733712809000476
661.0,-0.001257631312230778
660.0,0.0
659.0,0.001304841688344327
658.0,0.0018714928717336043
657.0,0.0015226969634936083
656.0,0.0007389288868995258
655.0,0.00021720154586435392
654.0,0.00043451177401765406
653.0,0.001304841688344327
652.0,0.0023078820582733695
651.0,0.0028321285541661467
650.0,0.0027447101798967477
649.0,0.0022205691343961664
648.0,0.0016970599014589638
647.0,0.0011741809597138886
646.0,0.0007389288868995258
645.0,0.000521466320689834
644.0,0.0004779868710962365
643.0,0.0004779868710962365
642.0,0.0003910410285830057
641.0,0.00021720154586435392
640.0,0.00026065489343207737
639.0,0.000521466320689834
638.0,0.0010000277816797354
637.0,0.0014791171649619628
636.0,0.0018278780605593958
635.0,0.001915112063444413
634.0,0.0016534626036355249
633.0,0.001304841688344327
632.0,0.0010870956412141197
631.0,0.0009129773741116676
630.0,0.000869458712629001
629.0,0.0009565003968372565
628.0,0.0012612837441823288
627.0,0.001304841688344327
626.0,0.0008259444115150671
625.0,-0.00021709297223004853
624.0,-0.0011277002770349043
623.0,-0.0013009330204178937
622.0,-0.0007376737740329986
621.0,0.0
620.0,0.00021720154586435392
619.0,-0.00013026880522692963
618.0,-0.0006509536295951079
617.0,-0.0008243766056055257
616.0,-0.0003906892499099257
615.0,0.0001303078917322953
614.0,0.0004779868710962365
613.0,0.0005649501236701937
612.0,0.0006084382809090627
611.0,0.0007824344698965646
610.0,0.0009565003968372565
609.0,0.0009565003968372565
608.0,0.0007389288868995258
607.0,0.0003475746339209884
606.0,0.0001303078917322953
605.0,0.0001303078917322953
604.0,0.0003475746339209884
603.0,0.0006084382809090627
602.0,0.0010000277816797354
601.0,0.0015662811355310335
600.0,0.0020023635919956817
