cm-1,A
4000.0,0.020770406977844713
3999.0,0.020770406977844713
3998.0,0.020770406977844713
3997.0,0.020770406977844713
3996.0,0.020724852408976924
3995.0,0.02067930261797568
3994.0,0.020633757603838898
3993.0,0.020633757603838898
3992.0,0.02067930261797568
3991.0,0.020724852408976924
3990.0,0.020770406977844713
3989.0,0.02081596632558158
3988.0,0.02081596632558158
3987.0,0.02081596632558158
3986.0,0.02081596632558158
3985.0,0.020770406977844713
3984.0,0.020724852408976924
3983.0,0.02067930261797568
3982.0,0.020633757603838898
3981.0,0.02058821736556471
3980.0,0.020542681902151694
3979.0,0.020497151212598652
3978.0,0.020497151212598652
3977.0,0.020497151212598652
3976.0,0.02058821736556471
3975.0,0.02067930261797568
3974.0,0.020724852408976924
3973.0,0.020724852408976924
3972.0,0.020770406977844713
3971.0,0.020770406977844713
3970.0,0.02081596632558158
3969.0,0.020861530453190058
3968.0,0.020861530453190058
3967.0,0.020861530453190058
3966.0,0.020770406977844713
3965.0,0.020724852408976924
3964.0,0.020633757603838898
3963.0,0.02067930261797568
3962.0,0.020724852408976924
3961.0,0.020861530453190058
3960.0,0.020952673052035298
3959.0,0.021089422824428272
3958.0,0.0211806132671577
3957.0,0.02122621566987748
3956.0,0.0211806132671577
3955.0,0.021089422824428272
3954.0,0.020952673052035298
3953.0,0.02081596632558158
3952.0,0.02067930261797568
3951.0,0.02058821736556471
3950.0,0.02058821736556471
3949.0,0.020633757603838898
3948.0,0.020633757603838898
3947.0,0.020633757603838898
3946.0,0.020633757603838898
3945.0,0.020724852408976924
3944.0,0.02081596632558158
3943.0,0.02081596632558158
3942.0,0.020770406977844713
3941.0,0.020724852408976924
3940.0,0.020724852408976924
3939.0,0.020770406977844713
3938.0,0.020861530453190058
3937.0,0.020861530453190058
3936.0,0.02081596632558158
3935.0,0.020724852408976924
3934.0,0.020724852408976924
3933.0,0.02067930261797568
3932.0,0.020633757603838898
3931.0,0.020633757603838898
3930.0,0.02058821736556471
3929.0,0.020542681902151694
3928.0,0.020542681902151694
3927.0,0.02058821736556471
3926.0,0.02067930261797568
3925.0,0.020724852408976924
3924.0,0.020724852408976924
3923.0,0.020633757603838898
3922.0,0.02058821736556471
3921.0,0.020542681902151694
3920.0,0.020497151212598652
3919.0,0.02058821736556471
3918.0,0.02067930261797568
3917.0,0.020861530453190058
3916.0,0.020907099361673565
3915.0,0.0209982515252789
3914.0,0.021089422824428272
3913.0,0.02122621566987748
3912.0,0.021271822861508305
3911.0,0.02122621566987748
3910.0,0.021089422824428272
3909.0,0.020861530453190058
3908.0,0.02058821736556471
3907.0,0.020315076172974234
3906.0,0.020087589665283012
3905.0,0.01995115493504329
3904.0,0.019769308608968306
3903.0,0.01954210772389997
3902.0,0.019451260640229506
3901.0,0.01958753839310856
3900.0,0.019860222254245663
3899.0,0.02013307743509718
3898.0,0.020315076172974234
3897.0,0.020497151212598652
3896.0,0.020633757603838898
3895.0,0.02067930261797568
3894.0,0.02067930261797568
3893.0,0.02067930261797568
3892.0,0.020724852408976924
3891.0,0.02058821736556471
3890.0,0.020315076172974234
3889.0,0.020178569969774962
3888.0,0.02026956933771462
3887.0,0.020497151212598652
3886.0,0.020633757603838898
3885.0,0.020542681902151694
3884.0,0.020406104151069693
3883.0,0.020406104151069693
3882.0,0.020633757603838898
3881.0,0.020861530453190058
3880.0,0.02081596632558158
3879.0,0.02058821736556471
3878.0,0.02045162529590483
3877.0,0.020542681902151694
3876.0,0.020724852408976924
3875.0,0.02067930261797568
3874.0,0.02036058777709271
3873.0,0.019996628416253603
3872.0,0.01990568621470623
3871.0,0.02013307743509718
3870.0,0.02036058777709271
3869.0,0.02026956933771462
3868.0,0.02013307743509718
3867.0,0.02026956933771462
3866.0,0.020542681902151694
3865.0,0.020724852408976924
3864.0,0.020770406977844713
3863.0,0.020770406977844713
3862.0,0.020724852408976924
3861.0,0.02067930261797568
3860.0,0.020633757603838898
3859.0,0.020497151212598652
3858.0,0.020315076172974234
3857.0,0.019996628416253603
3856.0,0.019769308608968306
3855.0,0.019860222254245663
3854.0,0.020315076172974234
3853.0,0.020406104151069693
3852.0,0.02013307743509718
3851.0,0.02026956933771462
3850.0,0.020861530453190058
3849.0,0.021317434843055594
3848.0,0.02140867317992523
3847.0,0.021317434843055594
3846.0,0.0211806132671577
3845.0,0.0209982515252789
3844.0,0.020770406977844713
3843.0,0.02045162529590483
3842.0,0.020087589665283012
3841.0,0.019814763052665052
3840.0,0.019814763052665052
3839.0,0.01995115493504329
3838.0,0.020087589665283012
3837.0,0.020087589665283012
3836.0,0.02013307743509718
3835.0,0.02026956933771462
3834.0,0.020542681902151694
3833.0,0.020770406977844713
3832.0,0.020907099361673565
3831.0,0.020907099361673565
3830.0,0.02081596632558158
3829.0,0.02081596632558158
3828.0,0.020907099361673565
3827.0,0.020952673052035298
3826.0,0.02081596632558158
3825.0,0.02058821736556471
3824.0,0.020406104151069693
3823.0,0.020497151212598652
3822.0,0.020770406977844713
3821.0,0.02081596632558158
3820.0,0.02045162529590483
3819.0,0.02022406727031445
3818.0,0.020542681902151694
3817.0,0.021043834782408455
3816.0,0.021363051615525652
3815.0,0.021317434843055594
3814.0,0.02122621566987748
3813.0,0.021363051615525652
3812.0,0.021499930688540836
3811.0,0.0214542995372613
3810.0,0.02122621566987748
3809.0,0.021135015652343103
3808.0,0.02122621566987748
3807.0,0.0211806132671577
3806.0,0.020861530453190058
3805.0,0.020497151212598652
3804.0,0.02045162529590483
3803.0,0.020633757603838898
3802.0,0.020907099361673565
3801.0,0.020907099361673565
3800.0,0.02067930261797568
3799.0,0.02081596632558158
3798.0,0.02122621566987748
3797.0,0.021545566634771474
3796.0,0.021545566634771474
3795.0,0.0214542995372613
3794.0,0.0214542995372613
3793.0,0.02159120737696063
3792.0,0.021728158389364705
3791.0,0.021773818325474092
3790.0,0.021773818325474092
3789.0,0.021728158389364705
3788.0,0.02168250325324883
3787.0,0.021728158389364705
3786.0,0.021728158389364705
3785.0,0.021728158389364705
3784.0,0.02159120737696063
3783.0,0.02140867317992523
3782.0,0.021317434843055594
3781.0,0.021363051615525652
3780.0,0.0214542995372613
3779.0,0.021545566634771474
3778.0,0.021545566634771474
3777.0,0.02159120737696063
3776.0,0.021773818325474092
3775.0,0.021865152601710403
3774.0,0.021773818325474092
3773.0,0.02168250325324883
3772.0,0.021636852916117055
3771.0,0.02168250325324883
3770.0,0.02159120737696063
3769.0,0.02140867317992523
3768.0,0.021317434843055594
3767.0,0.0214542995372613
3766.0,0.021636852916117055
3765.0,0.02168250325324883
3764.0,0.021545566634771474
3763.0,0.02140867317992523
3762.0,0.021317434843055594
3761.0,0.021317434843055594
3760.0,0.021271822861508305
3759.0,0.02122621566987748
3758.0,0.021135015652343103
3757.0,0.021043834782408455
3756.0,0.020907099361673565
3755.0,0.02081596632558158
3754.0,0.020633757603838898
3753.0,0.020497151212598652
3752.0,0.020542681902151694
3751.0,0.020724852408976924
3750.0,0.020770406977844713
3749.0,0.020497151212598652
3748.0,0.02036058777709271
3747.0,0.020406104151069693
3746.0,0.020724852408976924
3745.0,0.021089422824428272
3744.0,0.0209982515252789
3743.0,0.020633757603838898
3742.0,0.02067930261797568
3741.0,0.021135015652343103
3740.0,0.021317434843055594
3739.0,0.021135015652343103
3738.0,0.020861530453190058
3737.0,0.02067930261797568
3736.0,0.02058821736556471
3735.0,0.020542681902151694
3734.0,0.02058821736556471
3733.0,0.020770406977844713
3732.0,0.020952673052035298
3731.0,0.0209982515252789
3730.0,0.021089422824428272
3729.0,0.02122621566987748
3728.0,0.02140867317992523
3727.0,0.021545566634771474
3726.0,0.02159120737696063
3725.0,0.02159120737696063
3724.0,0.021636852916117055
3723.0,0.021728158389364705
3722.0,0.021728158389364705
3721.0,0.02168250325324883
3720.0,0.02168250325324883
3719.0,0.02168250325324883
3718.0,0.02168250325324883
3717.0,0.02159120737696063
3716.0,0.021499930688540836
3715.0,0.02140867317992523
3714.0,0.02140867317992523
3713.0,0.02140867317992523
3712.0,0.021499930688540836
3711.0,0.021545566634771474
3710.0,0.021545566634771474
3709.0,0.021545566634771474
3708.0,0.021636852916117055
3707.0,0.021728158389364705
3706.0,0.021773818325474092
3705.0,0.021819483062586187
3704.0,0.021865152601710403
3703.0,0.021910826943857264
3702.0,0.021865152601710403
3701.0,0.02168250325324883
3700.0,0.021545566634771474
3699.0,0.02159120737696063
3698.0,0.021773818325474092
3697.0,0.021956506090037076
3696.0,0.021956506090037076
3695.0,0.021773818325474092
3694.0,0.021499930688540836
3693.0,0.021135015652343103
3692.0,0.02081596632558158
3691.0,0.020724852408976924
3690.0,0.020952673052035298
3689.0,0.0211806132671577
3688.0,0.0211806132671577
3687.0,0.021271822861508305
3686.0,0.021545566634771474
3685.0,0.021910826943857264
3684.0,0.022139270735302752
3683.0,0.022093572362881675
3682.0,0.021910826943857264
3681.0,0.02168250325324883
3680.0,0.021363051615525652
3679.0,0.020952673052035298
3678.0,0.02067930261797568
3677.0,0.02081596632558158
3676.0,0.0211806132671577
3675.0,0.021043834782408455
3674.0,0.020633757603838898
3673.0,0.020542681902151694
3672.0,0.020861530453190058
3671.0,0.021317434843055594
3670.0,0.02168250325324883
3669.0,0.021773818325474092
3668.0,0.021819483062586187
3667.0,0.022093572362881675
3666.0,0.022413561996148967
3665.0,0.02255077261765881
3664.0,0.02259651912656535
3663.0,0.02255077261765881
3662.0,0.02245929405346514
3661.0,0.022413561996148967
3660.0,0.022322112326006227
3659.0,0.022322112326006227
3658.0,0.022413561996148967
3657.0,0.02259651912656535
3656.0,0.02255077261765881
3655.0,0.022322112326006227
3654.0,0.02200219004126036
3653.0,0.02168250325324883
3652.0,0.021271822861508305
3651.0,0.0209982515252789
3650.0,0.0211806132671577
3649.0,0.02168250325324883
3648.0,0.02204787879853809
3647.0,0.022322112326006227
3646.0,0.022688026603074007
3645.0,0.023054249440757957
3644.0,0.023466619608062178
3643.0,0.023741750742954926
3642.0,0.023879381700184332
3641.0,0.023925268380126097
3640.0,0.023925268380126097
3639.0,0.024017056287453542
3638.0,0.024108863598207186
3637.0,0.024108863598207186
3636.0,0.024108863598207186
3635.0,0.024017056287453542
3634.0,0.023787622882622816
3633.0,0.02351246269481
3632.0,0.023191662661933732
3631.0,0.023100049017062307
3630.0,0.02342078135989012
3629.0,0.023833499868024743
3628.0,0.023879381700184332
3627.0,0.023787622882622816
3626.0,0.024017056287453542
3625.0,0.02438440203310499
3624.0,0.024430342106337877
3623.0,0.024246610963712723
3622.0,0.023971159908874107
3621.0,0.023833499868024743
3620.0,0.023833499868024743
3619.0,0.023879381700184332
3618.0,0.023787622882622816
3617.0,0.023695883447997224
3616.0,0.023695883447997224
3615.0,0.023787622882622816
3614.0,0.023879381700184332
3613.0,0.024017056287453542
3612.0,0.024154774532432866
3611.0,0.024292536462819925
3610.0,0.024430342106337877
3609.0,0.024568191490736968
3608.0,0.024568191490736968
3607.0,0.024522236834125355
3606.0,0.024522236834125355
3605.0,0.024568191490736968
3604.0,0.02461415101053266
3603.0,0.02461415101053266
3602.0,0.02461415101053266
3601.0,0.024568191490736968
3600.0,0.024476287039668643
3599.0,0.02438440203310499
3598.0,0.024338466818941473
3597.0,0.024476287039668643
3596.0,0.02461415101053266
3595.0,0.02475205875931885
3594.0,0.024706084643793647
3593.0,0.024568191490736968
3592.0,0.024338466818941473
3591.0,0.024154774532432866
3590.0,0.02406295751688936
3589.0,0.024200690320592466
3588.0,0.024430342106337877
3587.0,0.024568191490736968
3586.0,0.024568191490736968
3585.0,0.024568191490736968
3584.0,0.02475205875931885
3583.0,0.02498200236711723
3582.0,0.02512002699306959
3581.0,0.02516604495145991
3580.0,0.02516604495145991
3579.0,0.02516604495145991
3578.0,0.02521206778644225
3577.0,0.025350165561278004
3576.0,0.025488307262671706
3575.0,0.02558042614771394
3574.0,0.025672564576383117
3573.0,0.025672564576383117
3572.0,0.02558042614771394
3571.0,0.02539620791296726
3570.0,0.02516604495145991
3569.0,0.025028005701930978
3568.0,0.025074013910237447
3567.0,0.02521206778644225
3566.0,0.025258095499050004
3565.0,0.025258095499050004
3564.0,0.025304128090317013
3563.0,0.025488307262671706
3562.0,0.025672564576383117
3561.0,0.025902996205869
3560.0,0.02613355016462182
3559.0,0.02636422658259252
3558.0,0.02654885597506529
3557.0,0.026595025589939425
3556.0,0.026595025589939425
3555.0,0.026595025589939425
3554.0,0.026595025589939425
3553.0,0.026595025589939425
3552.0,0.02654885597506529
3551.0,0.026456531467510258
3550.0,0.026318081496016443
3549.0,0.026271941311972746
3548.0,0.026271941311972746
3547.0,0.02636422658259252
3546.0,0.026502691267936695
3545.0,0.02654885597506529
3544.0,0.02664120011360227
3543.0,0.026687379547098322
3542.0,0.02677975314776626
3541.0,0.026872146400301444
3540.0,0.026872146400301444
3539.0,0.026872146400301444
3538.0,0.026872146400301444
3537.0,0.02691835039863255
3536.0,0.02696455931306696
3535.0,0.02696455931306696
3534.0,0.02691835039863255
3533.0,0.02682594731702781
3532.0,0.026687379547098322
3531.0,0.026595025589939425
3530.0,0.02654885597506529
3529.0,0.026595025589939425
3528.0,0.026595025589939425
3527.0,0.026595025589939425
3526.0,0.02654885597506529
3525.0,0.02654885597506529
3524.0,0.026595025589939425
3523.0,0.026687379547098322
3522.0,0.02677975314776626
3521.0,0.026872146400301444
3520.0,0.026872146400301444
3519.0,0.026872146400301444
3518.0,0.02682594731702781
3517.0,0.026733563891471412
3516.0,0.02664120011360227
3515.0,0.02654885597506529
3514.0,0.026456531467510258
3513.0,0.02636422658259252
3512.0,0.026318081496016443
3511.0,0.026410376572743033
3510.0,0.02654885597506529
3509.0,0.02664120011360227
3508.0,0.026687379547098322
3507.0,0.026687379547098322
3506.0,0.026733563891471412
3505.0,0.026733563891471412
3504.0,0.02677975314776626
3503.0,0.02682594731702781
3502.0,0.02682594731702781
3501.0,0.02682594731702781
3500.0,0.02682594731702781
3499.0,0.02682594731702781
3498.0,0.02677975314776626
3497.0,0.026733563891471412
3496.0,0.02664120011360227
3495.0,0.026595025589939425
3494.0,0.02654885597506529
3493.0,0.02654885597506529
3492.0,0.02654885597506529
3491.0,0.02654885597506529
3490.0,0.02654885597506529
3489.0,0.026595025589939425
3488.0,0.026595025589939425
3487.0,0.026595025589939425
3486.0,0.026595025589939425
3485.0,0.02654885597506529
3484.0,0.026456531467510258
3483.0,0.02636422658259252
3482.0,0.02636422658259252
3481.0,0.026410376572743033
3480.0,0.026502691267936695
3479.0,0.02664120011360227
3478.0,0.026733563891471412
3477.0,0.02677975314776626
3476.0,0.02682594731702781
3475.0,0.02682594731702781
3474.0,0.02677975314776626
3473.0,0.02677975314776626
3472.0,0.02682594731702781
3471.0,0.02682594731702781
3470.0,0.02682594731702781
3469.0,0.02677975314776626
3468.0,0.026733563891471412
3467.0,0.02677975314776626
3466.0,0.02682594731702781
3465.0,0.026872146400301444
3464.0,0.02691835039863255
3463.0,0.02696455931306696
3462.0,0.02696455931306696
3461.0,0.02696455931306696
3460.0,0.027010773144651168
3459.0,0.027149444152769986
3458.0,0.027288159452933503
3457.0,0.02747318213414429
3456.0,0.027658283674251827
3455.0,0.0277045713888604
3454.0,0.027750864037404455
3453.0,0.027797161620935595
3452.0,0.027843464140506313
3451.0,0.027889771597169544
3450.0,0.027936083991977778
3449.0,0.027936083991977778
3448.0,0.027936083991977778
3447.0,0.027936083991977778
3446.0,0.02798240132598462
3445.0,0.028075050815808744
3444.0,0.02826040911222183
3443.0,0.02849221828874393
3442.0,0.02863136320857662
3441.0,0.02872415126189476
3440.0,0.028770552723758724
3439.0,0.028816959143838528
3438.0,0.028863370523193765
3437.0,0.028956208163971375
3436.0,0.02904906565457588
3435.0,0.029095501846216454
3434.0,0.029095501846216454
3433.0,0.029095501846216454
3432.0,0.029095501846216454
3431.0,0.029141943003497595
3430.0,0.029141943003497595
3429.0,0.029141943003497595
3428.0,0.02904906565457588
3427.0,0.029002634427514717
3426.0,0.028956208163971375
3425.0,0.028956208163971375
3424.0,0.028956208163971375
3423.0,0.028956208163971375
3422.0,0.028863370523193765
3421.0,0.028770552723758724
3420.0,0.02872415126189476
3419.0,0.02872415126189476
3418.0,0.02872415126189476
3417.0,0.028677754757187035
3416.0,0.02863136320857662
3415.0,0.02858497661500481
3414.0,0.028445846553939003
3413.0,0.028353117935693284
3412.0,0.02826040911222183
3411.0,0.028167720075074953
3410.0,0.02812138297373412
3409.0,0.028075050815808744
3408.0,0.028075050815808744
3407.0,0.028075050815808744
3406.0,0.02798240132598462
3405.0,0.027889771597169544
3404.0,0.027797161620935595
3403.0,0.027797161620935595
3402.0,0.027750864037404455
3401.0,0.0277045713888604
3400.0,0.027658283674251827
3399.0,0.02751945012352408
3398.0,0.027426919073445077
3397.0,0.027288159452933503
3396.0,0.027195677663422346
3395.0,0.02710321556345563
3394.0,0.02710321556345563
3393.0,0.027149444152769986
3392.0,0.027195677663422346
3391.0,0.027288159452933503
3390.0,0.027334407733889066
3389.0,0.027334407733889066
3388.0,0.027334407733889066
3387.0,0.027334407733889066
3386.0,0.027334407733889066
3385.0,0.027288159452933503
3384.0,0.02724191609646076
3383.0,0.027195677663422346
3382.0,0.027195677663422346
3381.0,0.027195677663422346
3380.0,0.027288159452933503
3379.0,0.027334407733889066
3378.0,0.027334407733889066
3377.0,0.027288159452933503
3376.0,0.027195677663422346
3375.0,0.027149444152769986
3374.0,0.027056991894431892
3373.0,0.02696455931306696
3372.0,0.02691835039863255
3371.0,0.02691835039863255
3370.0,0.02696455931306696
3369.0,0.02696455931306696
3368.0,0.027010773144651168
3367.0,0.02696455931306696
3366.0,0.026872146400301444
3365.0,0.026733563891471412
3364.0,0.02664120011360227
3363.0,0.02664120011360227
3362.0,0.026733563891471412
3361.0,0.026872146400301444
3360.0,0.02696455931306696
3359.0,0.027010773144651168
3358.0,0.027010773144651168
3357.0,0.027010773144651168
3356.0,0.02696455931306696
3355.0,0.02691835039863255
3354.0,0.026872146400301444
3353.0,0.02691835039863255
3352.0,0.027056991894431892
3351.0,0.027149444152769986
3350.0,0.02724191609646076
3349.0,0.02724191609646076
3348.0,0.027195677663422346
3347.0,0.02710321556345563
3346.0,0.02710321556345563
3345.0,0.02710321556345563
3344.0,0.027195677663422346
3343.0,0.027288159452933503
3342.0,0.027334407733889066
3341.0,0.027334407733889066
3340.0,0.027288159452933503
3339.0,0.027149444152769986
3338.0,0.027056991894431892
3337.0,0.027010773144651168
3336.0,0.027056991894431892
3335.0,0.027056991894431892
3334.0,0.027056991894431892
3333.0,0.027056991894431892
3332.0,0.027010773144651168
3331.0,0.027010773144651168
3330.0,0.027056991894431892
3329.0,0.02710321556345563
3328.0,0.02710321556345563
3327.0,0.027056991894431892
3326.0,0.027010773144651168
3325.0,0.02691835039863255
3324.0,0.02691835039863255
3323.0,0.02691835039863255
3322.0,0.02696455931306696
3321.0,0.02696455931306696
3320.0,0.02696455931306696
3319.0,0.02696455931306696
3318.0,0.027010773144651168
3317.0,0.027056991894431892
3316.0,0.02710321556345563
3315.0,0.027056991894431892
3314.0,0.02696455931306696
3313.0,0.02677975314776626
3312.0,0.026687379547098322
3311.0,0.02664120011360227
3310.0,0.026687379547098322
3309.0,0.026733563891471412
3308.0,0.026733563891471412
3307.0,0.02677975314776626
3306.0,0.02682594731702781
3305.0,0.02682594731702781
3304.0,0.02682594731702781
3303.0,0.02677975314776626
3302.0,0.026687379547098322
3301.0,0.026595025589939425
3300.0,0.026595025589939425
3299.0,0.02664120011360227
3298.0,0.026733563891471412
3297.0,0.02677975314776626
3296.0,0.02677975314776626
3295.0,0.026733563891471412
3294.0,0.026733563891471412
3293.0,0.026733563891471412
3292.0,0.026733563891471412
3291.0,0.026733563891471412
3290.0,0.026733563891471412
3289.0,0.026733563891471412
3288.0,0.02677975314776626
3287.0,0.02682594731702781
3286.0,0.02682594731702781
3285.0,0.02677975314776626
3284.0,0.026687379547098322
3283.0,0.02654885597506529
3282.0,0.026456531467510258
3281.0,0.02636422658259252
3280.0,0.02636422658259252
3279.0,0.026410376572743033
3278.0,0.026456531467510258
3277.0,0.02654885597506529
3276.0,0.02654885597506529
3275.0,0.026595025589939425
3274.0,0.026595025589939425
3273.0,0.02654885597506529
3272.0,0.026502691267936695
3271.0,0.026410376572743033
3270.0,0.02636422658259252
3269.0,0.026271941311972746
3268.0,0.026271941311972746
3267.0,0.026318081496016443
3266.0,0.026318081496016443
3265.0,0.02636422658259252
3264.0,0.026318081496016443
3263.0,0.026318081496016443
3262.0,0.026318081496016443
3261.0,0.026271941311972746
3260.0,0.02617967564731627
3259.0,0.026087429580295085
3258.0,0.025995203102585407
3257.0,0.025995203102585407
3256.0,0.026041313893296225
3255.0,0.02613355016462182
3254.0,0.02617967564731627
3253.0,0.02617967564731627
3252.0,0.02617967564731627
3251.0,0.02617967564731627
3250.0,0.02613355016462182
3249.0,0.026087429580295085
3248.0,0.026041313893296225
3247.0,0.025995203102585407
3246.0,0.025949097207122573
3245.0,0.025902996205869
3244.0,0.025810808881832736
3243.0,0.025764722556973707
3242.0,0.025672564576383117
3241.0,0.02562649291857677
3240.0,0.02562649291857677
3239.0,0.025718641122169483
3238.0,0.025764722556973707
3237.0,0.025810808881832736
3236.0,0.025856900097785074
3235.0,0.025856900097785074
3234.0,0.025902996205869
3233.0,0.025902996205869
3232.0,0.025902996205869
3231.0,0.025810808881832736
3230.0,0.025718641122169483
3229.0,0.025672564576383117
3228.0,0.025672564576383117
3227.0,0.025718641122169483
3226.0,0.025810808881832736
3225.0,0.025902996205869
3224.0,0.025949097207122573
3223.0,0.025949097207122573
3222.0,0.025995203102585407
3221.0,0.025995203102585407
3220.0,0.025949097207122573
3219.0,0.025856900097785074
3218.0,0.025718641122169483
3217.0,0.025672564576383117
3216.0,0.02562649291857677
3215.0,0.02562649291857677
3214.0,0.02562649291857677
3213.0,0.02562649291857677
3212.0,0.02558042614771394
3211.0,0.025488307262671706
3210.0,0.02544225514642018
3209.0,0.02544225514642018
3208.0,0.025488307262671706
3207.0,0.02558042614771394
3206.0,0.02562649291857677
3205.0,0.025672564576383117
3204.0,0.02562649291857677
3203.0,0.02562649291857677
3202.0,0.025672564576383117
3201.0,0.025718641122169483
3200.0,0.025718641122169483
3199.0,0.025718641122169483
3198.0,0.025672564576383117
3197.0,0.02562649291857677
3196.0,0.02558042614771394
3195.0,0.02553436426275746
3194.0,0.02558042614771394
3193.0,0.02558042614771394
3192.0,0.02553436426275746
3191.0,0.02544225514642018
3190.0,0.02539620791296726
3189.0,0.025350165561278004
3188.0,0.025350165561278004
3187.0,0.02539620791296726
3186.0,0.025488307262671706
3185.0,0.02558042614771394
3184.0,0.02558042614771394
3183.0,0.02558042614771394
3182.0,0.02553436426275746
3181.0,0.025488307262671706
3180.0,0.02539620791296726
3179.0,0.025350165561278004
3178.0,0.025304128090317013
3177.0,0.025304128090317013
3176.0,0.025304128090317013
3175.0,0.02539620791296726
3174.0,0.02539620791296726
3173.0,0.02539620791296726
3172.0,0.02539620791296726
3171.0,0.025350165561278004
3170.0,0.025304128090317013
3169.0,0.025304128090317013
3168.0,0.025304128090317013
3167.0,0.025304128090317013
3166.0,0.025304128090317013
3165.0,0.025258095499050004
3164.0,0.02516604495145991
3163.0,0.02512002699306959
3162.0,0.025074013910237447
3161.0,0.02512002699306959
3160.0,0.02521206778644225
3159.0,0.025258095499050004
3158.0,0.025258095499050004
3157.0,0.02521206778644225
3156.0,0.02516604495145991
3155.0,0.02516604495145991
3154.0,0.02516604495145991
3153.0,0.02521206778644225
3152.0,0.025258095499050004
3151.0,0.025258095499050004
3150.0,0.025258095499050004
3149.0,0.02521206778644225
3148.0,0.02516604495145991
3147.0,0.02512002699306959
3146.0,0.025074013910237447
3145.0,0.025074013910237447
3144.0,0.025074013910237447
3143.0,0.02512002699306959
3142.0,0.02512002699306959
3141.0,0.02516604495145991
3140.0,0.02521206778644225
3139.0,0.025258095499050004
3138.0,0.025304128090317013
3137.0,0.025350165561278004
3136.0,0.025304128090317013
3135.0,0.025304128090317013
3134.0,0.025304128090317013
3133.0,0.02539620791296726
3132.0,0.025488307262671706
3131.0,0.02553436426275746
3130.0,0.02558042614771394
3129.0,0.02558042614771394
3128.0,0.02558042614771394
3127.0,0.02553436426275746
3126.0,0.02553436426275746
3125.0,0.025488307262671706
3124.0,0.02553436426275746
3123.0,0.02562649291857677
3122.0,0.025672564576383117
3121.0,0.025672564576383117
3120.0,0.02562649291857677
3119.0,0.02562649291857677
3118.0,0.025672564576383117
3117.0,0.025718641122169483
3116.0,0.025764722556973707
3115.0,0.025856900097785074
3114.0,0.025902996205869
3113.0,0.025902996205869
3112.0,0.025949097207122573
3111.0,0.026041313893296225
3110.0,0.02613355016462182
3109.0,0.026271941311972746
3108.0,0.026318081496016443
3107.0,0.02636422658259252
3106.0,0.02636422658259252
3105.0,0.026410376572743033
3104.0,0.026456531467510258
3103.0,0.026502691267936695
3102.0,0.026502691267936695
3101.0,0.026502691267936695
3100.0,0.026456531467510258
3099.0,0.02636422658259252
3098.0,0.026318081496016443
3097.0,0.026271941311972746
3096.0,0.026225806029419818
3095.0,0.02617967564731627
3094.0,0.02613355016462182
3093.0,0.02613355016462182
3092.0,0.026225806029419818
3091.0,0.02636422658259252
3090.0,0.026502691267936695
3089.0,0.026595025589939425
3088.0,0.026687379547098322
3087.0,0.026733563891471412
3086.0,0.02677975314776626
3085.0,0.02691835039863255
3084.0,0.027056991894431892
3083.0,0.027195677663422346
3082.0,0.027288159452933503
3081.0,0.027288159452933503
3080.0,0.027288159452933503
3079.0,0.027288159452933503
3078.0,0.027288159452933503
3077.0,0.02724191609646076
3076.0,0.02724191609646076
3075.0,0.027195677663422346
3074.0,0.027149444152769986
3073.0,0.027149444152769986
3072.0,0.02724191609646076
3071.0,0.027288159452933503
3070.0,0.027334407733889066
3069.0,0.02738066094037661
3068.0,0.027334407733889066
3067.0,0.027334407733889066
3066.0,0.027334407733889066
3065.0,0.027334407733889066
3064.0,0.027288159452933503
3063.0,0.02724191609646076
3062.0,0.027195677663422346
3061.0,0.027149444152769986
3060.0,0.027149444152769986
3059.0,0.027195677663422346
3058.0,0.027288159452933503
3057.0,0.027334407733889066
3056.0,0.027426919073445077
3055.0,0.02747318213414429
3054.0,0.02751945012352408
3053.0,0.02747318213414429
3052.0,0.027426919073445077
3051.0,0.027288159452933503
3050.0,0.027149444152769986
3049.0,0.02696455931306696
3048.0,0.026687379547098322
3047.0,0.026410376572743033
3046.0,0.026087429580295085
3045.0,0.025856900097785074
3044.0,0.025672564576383117
3043.0,0.02553436426275746
3042.0,0.02544225514642018
3041.0,0.025350165561278004
3040.0,0.02521206778644225
3039.0,0.025074013910237447
3038.0,0.024936003904763915
3037.0,0.024890010313838973
3036.0,0.02484402159331056
3035.0,0.024798037742147727
3034.0,0.02475205875931885
3033.0,0.024706084643793647
3032.0,0.024706084643793647
3031.0,0.02475205875931885
3030.0,0.024798037742147727
3029.0,0.024890010313838973
3028.0,0.024936003904763915
3027.0,0.024936003904763915
3026.0,0.024936003904763915
3025.0,0.024936003904763915
3024.0,0.024936003904763915
3023.0,0.024936003904763915
3022.0,0.024936003904763915
3021.0,0.024936003904763915
3020.0,0.02498200236711723
3019.0,0.025028005701930978
3018.0,0.02512002699306959
3017.0,0.02516604495145991
3016.0,0.02521206778644225
3015.0,0.025258095499050004
3014.0,0.025258095499050004
3013.0,0.025304128090317013
3012.0,0.02539620791296726
3011.0,0.025488307262671706
3010.0,0.02558042614771394
3009.0,0.025672564576383117
3008.0,0.025764722556973707
3007.0,0.025902996205869
3006.0,0.025995203102585407
3005.0,0.02613355016462182
3004.0,0.02617967564731627
3003.0,0.02613355016462182
3002.0,0.026087429580295085
3001.0,0.025995203102585407
3000.0,0.025949097207122573
2999.0,0.025949097207122573
2998.0,0.025995203102585407
2997.0,0.026087429580295085
2996.0,0.02617967564731627
2995.0,0.02636422658259252
2994.0,0.02654885597506529
2993.0,0.02664120011360227
2992.0,0.02664120011360227
2991.0,0.026595025589939425
2990.0,0.02654885597506529
2989.0,0.026687379547098322
2988.0,0.02691835039863255
2987.0,0.027288159452933503
2986.0,0.027658283674251827
2985.0,0.02798240132598462
2984.0,0.02826040911222183
2983.0,0.02858497661500481
2982.0,0.028863370523193765
2981.0,0.029188389127482228
2980.0,0.029560137048236124
2979.0,0.029885677714903025
2978.0,0.03025802323714588
2977.0,0.03058408764601861
2976.0,0.030910397045078586
2975.0,0.031236951802751545
2974.0,0.031563752288295444
2973.0,0.03193753992355086
2972.0,0.032311649546687526
2971.0,0.03273290844021437
2970.0,0.033201453616638954
2969.0,0.03362357691107709
2968.0,0.034046110897937076
2967.0,0.034469056377139484
2966.0,0.03484535401307465
2965.0,0.03517488211661135
2964.0,0.03545753392086315
2963.0,0.035693217696063595
2962.0,0.03592902944204468
2961.0,0.0360705779734416
2960.0,0.036117771071222604
2959.0,0.03616496929785207
2958.0,0.03621217265444465
2957.0,0.03616496929785207
2956.0,0.036117771071222604
2955.0,0.03597620715996652
2954.0,0.03583468937826462
2953.0,0.03559892883726867
2952.0,0.03526907894637077
2951.0,0.03489241415094413
2950.0,0.034469056377139484
2949.0,0.03399914237121604
2948.0,0.03352973627071565
2947.0,0.033060836978886954
2946.0,0.032592443402527316
2945.0,0.032124554451966825
2944.0,0.031657169041054534
2943.0,0.031190286087141805
2942.0,0.030770520137356927
2941.0,0.030351159519274695
2940.0,0.029978734171634214
2939.0,0.029653123769906697
2938.0,0.029374223311705583
2937.0,0.029141943003497595
2936.0,0.028956208163971375
2935.0,0.028816959143838528
2934.0,0.028677754757187035
2933.0,0.02849221828874393
2932.0,0.028306761050139073
2931.0,0.02812138297373412
2930.0,0.02798240132598462
2929.0,0.027889771597169544
2928.0,0.027843464140506313
2927.0,0.027797161620935595
2926.0,0.027750864037404455
2925.0,0.027658283674251827
2924.0,0.027612000892527133
2923.0,0.02751945012352408
2922.0,0.02747318213414429
2921.0,0.027426919073445077
2920.0,0.02738066094037661
2919.0,0.027426919073445077
2918.0,0.027426919073445077
2917.0,0.02747318213414429
2916.0,0.027426919073445077
2915.0,0.02738066094037661
2914.0,0.02738066094037661
2913.0,0.02738066094037661
2912.0,0.027426919073445077
2911.0,0.02751945012352408
2910.0,0.027658283674251827
2909.0,0.0277045713888604
2908.0,0.027750864037404455
2907.0,0.0277045713888604
2906.0,0.027658283674251827
2905.0,0.027565723042634938
2904.0,0.02747318213414429
2903.0,0.027334407733889066
2902.0,0.027288159452933503
2901.0,0.027334407733889066
2900.0,0.027426919073445077
2899.0,0.027565723042634938
2898.0,0.0277045713888604
2897.0,0.027797161620935595
2896.0,0.027843464140506313
2895.0,0.027843464140506313
2894.0,0.027889771597169544
2893.0,0.027936083991977778
2892.0,0.02798240132598462
2891.0,0.028028723600243666
2890.0,0.028028723600243666
2889.0,0.028028723600243666
2888.0,0.028028723600243666
2887.0,0.02798240132598462
2886.0,0.027936083991977778
2885.0,0.027843464140506313
2884.0,0.0277045713888604
2883.0,0.027612000892527133
2882.0,0.027565723042634938
2881.0,0.027565723042634938
2880.0,0.027565723042634938
2879.0,0.027565723042634938
2878.0,0.02751945012352408
2877.0,0.02751945012352408
2876.0,0.02747318213414429
2875.0,0.02747318213414429
2874.0,0.027426919073445077
2873.0,0.02738066094037661
2872.0,0.02738066094037661
2871.0,0.02738066094037661
2870.0,0.02738066094037661
2869.0,0.027334407733889066
2868.0,0.027334407733889066
2867.0,0.027288159452933503
2866.0,0.027334407733889066
2865.0,0.027334407733889066
2864.0,0.027334407733889066
2863.0,0.027334407733889066
2862.0,0.027334407733889066
2861.0,0.027334407733889066
2860.0,0.027334407733889066
2859.0,0.02738066094037661
2858.0,0.027426919073445077
2857.0,0.02747318213414429
2856.0,0.02751945012352408
2855.0,0.027565723042634938
2854.0,0.02751945012352408
2853.0,0.027426919073445077
2852.0,0.027334407733889066
2851.0,0.02724191609646076
2850.0,0.02710321556345563
2849.0,0.027010773144651168
2848.0,0.02691835039863255
2847.0,0.02682594731702781
2846.0,0.026733563891471412
2845.0,0.02664120011360227
2844.0,0.026502691267936695
2843.0,0.02636422658259252
2842.0,0.026225806029419818
2841.0,0.02617967564731627
2840.0,0.02613355016462182
2839.0,0.026041313893296225
2838.0,0.025949097207122573
2837.0,0.025856900097785074
2836.0,0.025810808881832736
2835.0,0.025764722556973707
2834.0,0.025718641122169483
2833.0,0.025672564576383117
2832.0,0.025718641122169483
2831.0,0.025718641122169483
2830.0,0.025764722556973707
2829.0,0.025764722556973707
2828.0,0.025672564576383117
2827.0,0.02558042614771394
2826.0,0.025488307262671706
2825.0,0.02544225514642018
2824.0,0.025488307262671706
2823.0,0.02553436426275746
2822.0,0.02558042614771394
2821.0,0.02553436426275746
2820.0,0.025488307262671706
2819.0,0.025488307262671706
2818.0,0.02544225514642018
2817.0,0.02544225514642018
2816.0,0.02544225514642018
2815.0,0.02544225514642018
2814.0,0.02544225514642018
2813.0,0.02544225514642018
2812.0,0.02539620791296726
2811.0,0.02539620791296726
2810.0,0.02539620791296726
2809.0,0.02544225514642018
2808.0,0.02544225514642018
2807.0,0.02539620791296726
2806.0,0.025304128090317013
2805.0,0.02521206778644225
2804.0,0.02521206778644225
2803.0,0.025304128090317013
2802.0,0.025350165561278004
2801.0,0.025350165561278004
2800.0,0.025258095499050004
2799.0,0.02516604495145991
2798.0,0.025074013910237447
2797.0,0.025028005701930978
2796.0,0.025074013910237447
2795.0,0.02512002699306959
2794.0,0.02516604495145991
2793.0,0.02521206778644225
2792.0,0.025258095499050004
2791.0,0.02521206778644225
2790.0,0.02516604495145991
2789.0,0.02512002699306959
2788.0,0.025074013910237447
2787.0,0.025074013910237447
2786.0,0.025028005701930978
2785.0,0.02498200236711723
2784.0,0.02498200236711723
2783.0,0.024936003904763915
2782.0,0.024936003904763915
2781.0,0.024890010313838973
2780.0,0.02484402159331056
2779.0,0.024798037742147727
2778.0,0.02475205875931885
2777.0,0.02475205875931885
2776.0,0.024798037742147727
2775.0,0.02484402159331056
2774.0,0.024890010313838973
2773.0,0.02484402159331056
2772.0,0.024798037742147727
2771.0,0.02475205875931885
2770.0,0.024706084643793647
2769.0,0.024660115394541604
2768.0,0.024660115394541604
2767.0,0.024660115394541604
2766.0,0.024660115394541604
2765.0,0.024706084643793647
2764.0,0.024660115394541604
2763.0,0.024660115394541604
2762.0,0.02461415101053266
2761.0,0.024660115394541604
2760.0,0.02475205875931885
2759.0,0.02484402159331056
2758.0,0.02484402159331056
2757.0,0.02484402159331056
2756.0,0.024798037742147727
2755.0,0.024798037742147727
2754.0,0.02475205875931885
2753.0,0.02475205875931885
2752.0,0.024706084643793647
2751.0,0.024660115394541604
2750.0,0.024660115394541604
2749.0,0.02461415101053266
2748.0,0.02461415101053266
2747.0,0.024660115394541604
2746.0,0.024660115394541604
2745.0,0.024660115394541604
2744.0,0.02461415101053266
2743.0,0.02461415101053266
2742.0,0.02461415101053266
2741.0,0.02461415101053266
2740.0,0.02461415101053266
2739.0,0.02461415101053266
2738.0,0.024568191490736968
2737.0,0.024568191490736968
2736.0,0.024522236834125355
2735.0,0.024522236834125355
2734.0,0.024522236834125355
2733.0,0.024476287039668643
2732.0,0.024430342106337877
2731.0,0.024338466818941473
2730.0,0.024292536462819925
2729.0,0.024246610963712723
2728.0,0.024292536462819925
2727.0,0.024338466818941473
2726.0,0.024338466818941473
2725.0,0.02438440203310499
2724.0,0.024338466818941473
2723.0,0.024338466818941473
2722.0,0.024338466818941473
2721.0,0.024292536462819925
2720.0,0.024292536462819925
2719.0,0.024246610963712723
2718.0,0.024154774532432866
2717.0,0.02406295751688936
2716.0,0.02406295751688936
2715.0,0.024108863598207186
2714.0,0.024108863598207186
2713.0,0.02406295751688936
2712.0,0.02406295751688936
2711.0,0.024017056287453542
2710.0,0.023971159908874107
2709.0,0.023971159908874107
2708.0,0.023925268380126097
2707.0,0.023971159908874107
2706.0,0.023971159908874107
2705.0,0.023971159908874107
2704.0,0.023925268380126097
2703.0,0.023879381700184332
2702.0,0.023833499868024743
2701.0,0.023787622882622816
2700.0,0.023741750742954926
2699.0,0.023787622882622816
2698.0,0.023833499868024743
2697.0,0.023879381700184332
2696.0,0.023925268380126097
2695.0,0.023925268380126097
2694.0,0.023879381700184332
2693.0,0.023879381700184332
2692.0,0.023879381700184332
2691.0,0.023925268380126097
2690.0,0.023925268380126097
2689.0,0.023971159908874107
2688.0,0.023925268380126097
2687.0,0.023879381700184332
2686.0,0.023787622882622816
2685.0,0.023741750742954926
2684.0,0.023695883447997224
2683.0,0.023695883447997224
2682.0,0.023695883447997224
2681.0,0.023695883447997224
2680.0,0.023695883447997224
2679.0,0.023695883447997224
2678.0,0.023695883447997224
2677.0,0.023695883447997224
2676.0,0.023695883447997224
2675.0,0.02365002099672653
2674.0,0.02365002099672653
2673.0,0.02355831062115543
2672.0,0.02351246269481
2671.0,0.023466619608062178
2670.0,0.023466619608062178
2669.0,0.023466619608062178
2668.0,0.023466619608062178
2667.0,0.023466619608062178
2666.0,0.02351246269481
2665.0,0.02351246269481
2664.0,0.02351246269481
2663.0,0.023466619608062178
2662.0,0.023466619608062178
2661.0,0.023466619608062178
2660.0,0.02342078135989012
2659.0,0.02342078135989012
2658.0,0.02342078135989012
2657.0,0.02342078135989012
2656.0,0.02342078135989012
2655.0,0.02342078135989012
2654.0,0.023374947949272418
2653.0,0.023374947949272418
2652.0,0.023329119375188556
2651.0,0.023329119375188556
2650.0,0.023374947949272418
2649.0,0.023374947949272418
2648.0,0.02342078135989012
2647.0,0.02342078135989012
2646.0,0.02342078135989012
2645.0,0.023374947949272418
2644.0,0.023374947949272418
2643.0,0.023374947949272418
2642.0,0.02342078135989012
2641.0,0.02342078135989012
2640.0,0.02342078135989012
2639.0,0.02342078135989012
2638.0,0.023466619608062178
2637.0,0.02351246269481
2636.0,0.02351246269481
2635.0,0.02355831062115543
2634.0,0.02351246269481
2633.0,0.02351246269481
2632.0,0.023466619608062178
2631.0,0.023466619608062178
2630.0,0.02351246269481
2629.0,0.02351246269481
2628.0,0.02351246269481
2627.0,0.02355831062115543
2626.0,0.02355831062115543
2625.0,0.02355831062115543
2624.0,0.02355831062115543
2623.0,0.02351246269481
2622.0,0.023466619608062178
2621.0,0.02342078135989012
2620.0,0.023374947949272418
2619.0,0.023374947949272418
2618.0,0.02342078135989012
2617.0,0.023466619608062178
2616.0,0.02351246269481
2615.0,0.02355831062115543
2614.0,0.02355831062115543
2613.0,0.02351246269481
2612.0,0.023466619608062178
2611.0,0.02342078135989012
2610.0,0.02342078135989012
2609.0,0.023374947949272418
2608.0,0.02342078135989012
2607.0,0.02342078135989012
2606.0,0.023466619608062178
2605.0,0.023466619608062178
2604.0,0.02342078135989012
2603.0,0.02342078135989012
2602.0,0.023374947949272418
2601.0,0.023329119375188556
2600.0,0.023283295636617574
2599.0,0.023283295636617574
2598.0,0.023329119375188556
2597.0,0.023329119375188556
2596.0,0.023329119375188556
2595.0,0.023374947949272418
2594.0,0.02342078135989012
2593.0,0.023466619608062178
2592.0,0.02351246269481
2591.0,0.02351246269481
2590.0,0.023466619608062178
2589.0,0.023374947949272418
2588.0,0.023329119375188556
2587.0,0.023374947949272418
2586.0,0.02342078135989012
2585.0,0.02342078135989012
2584.0,0.023466619608062178
2583.0,0.023466619608062178
2582.0,0.023466619608062178
2581.0,0.02351246269481
2580.0,0.023604163388120325
2579.0,0.02365002099672653
2578.0,0.023695883447997224
2577.0,0.02365002099672653
2576.0,0.02355831062115543
2575.0,0.023466619608062178
2574.0,0.023374947949272418
2573.0,0.023329119375188556
2572.0,0.023329119375188556
2571.0,0.023374947949272418
2570.0,0.023374947949272418
2569.0,0.02342078135989012
2568.0,0.023466619608062178
2567.0,0.02355831062115543
2566.0,0.023604163388120325
2565.0,0.023604163388120325
2564.0,0.02355831062115543
2563.0,0.02355831062115543
2562.0,0.02351246269481
2561.0,0.023466619608062178
2560.0,0.023466619608062178
2559.0,0.023466619608062178
2558.0,0.02351246269481
2557.0,0.02351246269481
2556.0,0.02351246269481
2555.0,0.02351246269481
2554.0,0.02351246269481
2553.0,0.02351246269481
2552.0,0.02351246269481
2551.0,0.023466619608062178
2550.0,0.02342078135989012
2549.0,0.023374947949272418
2548.0,0.023283295636617574
2547.0,0.023237476732539397
2546.0,0.023237476732539397
2545.0,0.023237476732539397
2544.0,0.023283295636617574
2543.0,0.023283295636617574
2542.0,0.023283295636617574
2541.0,0.023237476732539397
2540.0,0.023283295636617574
2539.0,0.023283295636617574
2538.0,0.023329119375188556
2537.0,0.023329119375188556
2536.0,0.023329119375188556
2535.0,0.023329119375188556
2534.0,0.023374947949272418
2533.0,0.023374947949272418
2532.0,0.023329119375188556
2531.0,0.023329119375188556
2530.0,0.023329119375188556
2529.0,0.023329119375188556
2528.0,0.023329119375188556
2527.0,0.023329119375188556
2526.0,0.023329119375188556
2525.0,0.023329119375188556
2524.0,0.023329119375188556
2523.0,0.023283295636617574
2522.0,0.023283295636617574
2521.0,0.023237476732539397
2520.0,0.023191662661933732
2519.0,0.023191662661933732
2518.0,0.02314585342378117
2517.0,0.02314585342378117
2516.0,0.02314585342378117
2515.0,0.02314585342378117
2514.0,0.023100049017062307
2513.0,0.023100049017062307
2512.0,0.023054249440757957
2511.0,0.023054249440757957
2510.0,0.02296266477531872
2509.0,0.02291687968414724
2508.0,0.022871099419317753
2507.0,0.02282532397981263
2506.0,0.02282532397981263
2505.0,0.022871099419317753
2504.0,0.022871099419317753
2503.0,0.02291687968414724
2502.0,0.02291687968414724
2501.0,0.022871099419317753
2500.0,0.022871099419317753
2499.0,0.022871099419317753
2498.0,0.022871099419317753
2497.0,0.022871099419317753
2496.0,0.022871099419317753
2495.0,0.02282532397981263
2494.0,0.02277955336461468
2493.0,0.022688026603074007
2492.0,0.022642270454698687
2491.0,0.02259651912656535
2490.0,0.02259651912656535
2489.0,0.02259651912656535
2488.0,0.02255077261765881
2487.0,0.022505030926963654
2486.0,0.022505030926963654
2485.0,0.02245929405346514
2484.0,0.02245929405346514
2483.0,0.022413561996148967
2482.0,0.022413561996148967
2481.0,0.02245929405346514
2480.0,0.02245929405346514
2479.0,0.022413561996148967
2478.0,0.022322112326006227
2477.0,0.022230681908425698
2476.0,0.022230681908425698
2475.0,0.022230681908425698
2474.0,0.02227639471115217
2473.0,0.02227639471115217
2472.0,0.022230681908425698
2471.0,0.0221849739168134
2470.0,0.0221849739168134
2469.0,0.0221849739168134
2468.0,0.0221849739168134
2467.0,0.022139270735302752
2466.0,0.022093572362881675
2465.0,0.022093572362881675
2464.0,0.022093572362881675
2463.0,0.022093572362881675
2462.0,0.02204787879853809
2461.0,0.02200219004126036
2460.0,0.02200219004126036
2459.0,0.02200219004126036
2458.0,0.021956506090037076
2457.0,0.021910826943857264
2456.0,0.021865152601710403
2455.0,0.021819483062586187
2454.0,0.021773818325474092
2453.0,0.021773818325474092
2452.0,0.021728158389364705
2451.0,0.021728158389364705
2450.0,0.021728158389364705
2449.0,0.021728158389364705
2448.0,0.021773818325474092
2447.0,0.021819483062586187
2446.0,0.021865152601710403
2445.0,0.021865152601710403
2444.0,0.021819483062586187
2443.0,0.021773818325474092
2442.0,0.021819483062586187
2441.0,0.021819483062586187
2440.0,0.021819483062586187
2439.0,0.021819483062586187
2438.0,0.021819483062586187
2437.0,0.021819483062586187
2436.0,0.021819483062586187
2435.0,0.021865152601710403
2434.0,0.021865152601710403
2433.0,0.021819483062586187
2432.0,0.021819483062586187
2431.0,0.021773818325474092
2430.0,0.021773818325474092
2429.0,0.021773818325474092
2428.0,0.021773818325474092
2427.0,0.021819483062586187
2426.0,0.021865152601710403
2425.0,0.021865152601710403
2424.0,0.021865152601710403
2423.0,0.021819483062586187
2422.0,0.021819483062586187
2421.0,0.021819483062586187
2420.0,0.021819483062586187
2419.0,0.021910826943857264
2418.0,0.021956506090037076
2417.0,0.02200219004126036
2416.0,0.02204787879853809
2415.0,0.02204787879853809
2414.0,0.022093572362881675
2413.0,0.022093572362881675
2412.0,0.022093572362881675
2411.0,0.022093572362881675
2410.0,0.022093572362881675
2409.0,0.022139270735302752
2408.0,0.022139270735302752
2407.0,0.022139270735302752
2406.0,0.022139270735302752
2405.0,0.022139270735302752
2404.0,0.022093572362881675
2403.0,0.022093572362881675
2402.0,0.022093572362881675
2401.0,0.022093572362881675
2400.0,0.022139270735302752
2399.0,0.0221849739168134
2398.0,0.022230681908425698
2397.0,0.02227639471115217
2396.0,0.02227639471115217
2395.0,0.022322112326006227
2394.0,0.022322112326006227
2393.0,0.02227639471115217
2392.0,0.022230681908425698
2391.0,0.022230681908425698
2390.0,0.0221849739168134
2389.0,0.022230681908425698
2388.0,0.022322112326006227
2387.0,0.02245929405346514
2386.0,0.02255077261765881
2385.0,0.02259651912656535
2384.0,0.02259651912656535
2383.0,0.02255077261765881
2382.0,0.022413561996148967
2381.0,0.022322112326006227
2380.0,0.022230681908425698
2379.0,0.0221849739168134
2378.0,0.022230681908425698
2377.0,0.0221849739168134
2376.0,0.022093572362881675
2375.0,0.02200219004126036
2374.0,0.021910826943857264
2373.0,0.02168250325324883
2372.0,0.021545566634771474
2371.0,0.021773818325474092
2370.0,0.022413561996148967
2369.0,0.022871099419317753
2368.0,0.02282532397981263
2367.0,0.02245929405346514
2366.0,0.02227639471115217
2365.0,0.02227639471115217
2364.0,0.022413561996148967
2363.0,0.022733787572707387
2362.0,0.023237476732539397
2361.0,0.023329119375188556
2360.0,0.023100049017062307
2359.0,0.022871099419317753
2358.0,0.022688026603074007
2357.0,0.02227639471115217
2356.0,0.021819483062586187
2355.0,0.02058821736556471
2354.0,0.02013307743509718
2353.0,0.018045555530026514
2352.0,0.027334407733889066
2351.0,0.02849221828874393
2350.0,0.026595025589939425
2349.0,0.02613355016462182
2348.0,0.026872146400301444
2347.0,0.027612000892527133
2346.0,0.025488307262671706
2345.0,0.022139270735302752
2344.0,0.019360432556262852
2343.0,0.01809082990920774
2342.0,0.017864505196230507
2341.0,0.017638298366853045
2340.0,0.017864505196230507
2339.0,0.018634490921455527
2338.0,0.01954210772389997
2337.0,0.019996628416253603
2336.0,0.01995115493504329
2335.0,0.019632973815224997
2334.0,0.01899731005860028
2333.0,0.018271974638383703
2332.0,0.01781925440359733
2331.0,0.01768353030793479
2330.0,0.017774008325325275
2329.0,0.018136109008649592
2328.0,0.018770512579999288
2327.0,0.01958753839310856
2326.0,0.01990568621470623
2325.0,0.019769308608968306
2324.0,0.019360432556262852
2323.0,0.019042683770379876
2322.0,0.018951941086827073
2321.0,0.018951941086827073
2320.0,0.019178833355664393
2319.0,0.019360432556262852
2318.0,0.01958753839310856
2317.0,0.019678413991243593
2316.0,0.01990568621470623
2315.0,0.020087589665283012
2314.0,0.02022406727031445
2313.0,0.02026956933771462
2312.0,0.02022406727031445
2311.0,0.020178569969774962
2310.0,0.020087589665283012
2309.0,0.019996628416253603
2308.0,0.01990568621470623
2307.0,0.01990568621470623
2306.0,0.01995115493504329
2305.0,0.019996628416253603
2304.0,0.020087589665283012
2303.0,0.02022406727031445
2302.0,0.020315076172974234
2301.0,0.020315076172974234
2300.0,0.02036058777709271
2299.0,0.020406104151069693
2298.0,0.02045162529590483
2297.0,0.020497151212598652
2296.0,0.020542681902151694
2295.0,0.02058821736556471
2294.0,0.02058821736556471
2293.0,0.020542681902151694
2292.0,0.020497151212598652
2291.0,0.020542681902151694
2290.0,0.020633757603838898
2289.0,0.020770406977844713
2288.0,0.020907099361673565
2287.0,0.0209982515252789
2286.0,0.021043834782408455
2285.0,0.021043834782408455
2284.0,0.0209982515252789
2283.0,0.020952673052035298
2282.0,0.020952673052035298
2281.0,0.020907099361673565
2280.0,0.02081596632558158
2279.0,0.02081596632558158
2278.0,0.020770406977844713
2277.0,0.020724852408976924
2276.0,0.020633757603838898
2275.0,0.02058821736556471
2274.0,0.02058821736556471
2273.0,0.02058821736556471
2272.0,0.020542681902151694
2271.0,0.020497151212598652
2270.0,0.02045162529590483
2269.0,0.020406104151069693
2268.0,0.02036058777709271
2267.0,0.02036058777709271
2266.0,0.02036058777709271
2265.0,0.02036058777709271
2264.0,0.02036058777709271
2263.0,0.020406104151069693
2262.0,0.020406104151069693
2261.0,0.020406104151069693
2260.0,0.020406104151069693
2259.0,0.020406104151069693
2258.0,0.020406104151069693
2257.0,0.020406104151069693
2256.0,0.020406104151069693
2255.0,0.02036058777709271
2254.0,0.02036058777709271
2253.0,0.020315076172974234
2252.0,0.02026956933771462
2251.0,0.02026956933771462
2250.0,0.02022406727031445
2249.0,0.020178569969774962
2248.0,0.02013307743509718
2247.0,0.020087589665283012
2246.0,0.020087589665283012
2245.0,0.02004210665933459
2244.0,0.019996628416253603
2243.0,0.01995115493504329
2242.0,0.01995115493504329
2241.0,0.01995115493504329
2240.0,0.01990568621470623
2239.0,0.01990568621470623
2238.0,0.01990568621470623
2237.0,0.01990568621470623
2236.0,0.01990568621470623
2235.0,0.01995115493504329
2234.0,0.019996628416253603
2233.0,0.019996628416253603
2232.0,0.019996628416253603
2231.0,0.019996628416253603
2230.0,0.019996628416253603
2229.0,0.019996628416253603
2228.0,0.01995115493504329
2227.0,0.019860222254245663
2226.0,0.019814763052665052
2225.0,0.019723858922159776
2224.0,0.019678413991243593
2223.0,0.019632973815224997
2222.0,0.019632973815224997
2221.0,0.01958753839310856
2220.0,0.01958753839310856
2219.0,0.01958753839310856
2218.0,0.01958753839310856
2217.0,0.01954210772389997
2216.0,0.01954210772389997
2215.0,0.01958753839310856
2214.0,0.01958753839310856
2213.0,0.01958753839310856
2212.0,0.01954210772389997
2211.0,0.01954210772389997
2210.0,0.01949668180660491
2209.0,0.019451260640229506
2208.0,0.01940584422377989
2207.0,0.019360432556262852
2206.0,0.019315025636685412
2205.0,0.019269623464054586
2204.0,0.019269623464054586
2203.0,0.019269623464054586
2202.0,0.019269623464054586
2201.0,0.0192242260373785
2200.0,0.019178833355664393
2199.0,0.019178833355664393
2198.0,0.019133445417920836
2197.0,0.0190880622231564
2196.0,0.019042683770379876
2195.0,0.019042683770379876
2194.0,0.01899731005860028
2193.0,0.01899731005860028
2192.0,0.01899731005860028
2191.0,0.01899731005860028
2190.0,0.01899731005860028
2189.0,0.01899731005860028
2188.0,0.018951941086827073
2187.0,0.018951941086827073
2186.0,0.018951941086827073
2185.0,0.018906576854070378
2184.0,0.018906576854070378
2183.0,0.018861217359339655
2182.0,0.018815862601645694
2181.0,0.018770512579999288
2180.0,0.018770512579999288
2179.0,0.018815862601645694
2178.0,0.018861217359339655
2177.0,0.018906576854070378
2176.0,0.018906576854070378
2175.0,0.018906576854070378
2174.0,0.018906576854070378
2173.0,0.018861217359339655
2172.0,0.018815862601645694
2171.0,0.018815862601645694
2170.0,0.018861217359339655
2169.0,0.018815862601645694
2168.0,0.018815862601645694
2167.0,0.018815862601645694
2166.0,0.018815862601645694
2165.0,0.018815862601645694
2164.0,0.018815862601645694
2163.0,0.018906576854070378
2162.0,0.018906576854070378
2161.0,0.018906576854070378
2160.0,0.018906576854070378
2159.0,0.018906576854070378
2158.0,0.018906576854070378
2157.0,0.018861217359339655
2156.0,0.018861217359339655
2155.0,0.018906576854070378
2154.0,0.018906576854070378
2153.0,0.018906576854070378
2152.0,0.018861217359339655
2151.0,0.018861217359339655
2150.0,0.018906576854070378
2149.0,0.018951941086827073
2148.0,0.018951941086827073
2147.0,0.018951941086827073
2146.0,0.018951941086827073
2145.0,0.018861217359339655
2144.0,0.018861217359339655
2143.0,0.018861217359339655
2142.0,0.018951941086827073
2141.0,0.01899731005860028
2140.0,0.019042683770379876
2139.0,0.019042683770379876
2138.0,0.019042683770379876
2137.0,0.018951941086827073
2136.0,0.018906576854070378
2135.0,0.018861217359339655
2134.0,0.018815862601645694
2133.0,0.018861217359339655
2132.0,0.018861217359339655
2131.0,0.018861217359339655
2130.0,0.018906576854070378
2129.0,0.018861217359339655
2128.0,0.018861217359339655
2127.0,0.018861217359339655
2126.0,0.018861217359339655
2125.0,0.018861217359339655
2124.0,0.018861217359339655
2123.0,0.018815862601645694
2122.0,0.018815862601645694
2121.0,0.018770512579999288
2120.0,0.018770512579999288
2119.0,0.018815862601645694
2118.0,0.018815862601645694
2117.0,0.018861217359339655
2116.0,0.018861217359339655
2115.0,0.018906576854070378
2114.0,0.018906576854070378
2113.0,0.018906576854070378
2112.0,0.018906576854070378
2111.0,0.018906576854070378
2110.0,0.018906576854070378
2109.0,0.018861217359339655
2108.0,0.018815862601645694
2107.0,0.018815862601645694
2106.0,0.018770512579999288
2105.0,0.018770512579999288
2104.0,0.018725167293411005
2103.0,0.018679826740892747
2102.0,0.018634490921455527
2101.0,0.018543833477873584
2100.0,0.018498511851753108
2099.0,0.018498511851753108
2098.0,0.018543833477873584
2097.0,0.018543833477873584
2096.0,0.018543833477873584
2095.0,0.018498511851753108
2094.0,0.01840788278591865
2093.0,0.01831727262871463
2092.0,0.018226681372252695
2091.0,0.018226681372252695
2090.0,0.018226681372252695
2089.0,0.018226681372252695
2088.0,0.018226681372252695
2087.0,0.018181392829336396
2086.0,0.018136109008649592
2085.0,0.018136109008649592
2084.0,0.01809082990920774
2083.0,0.018045555530026514
2082.0,0.01800028587012159
2081.0,0.017909760704207134
2080.0,0.017864505196230507
2079.0,0.017864505196230507
2078.0,0.01781925440359733
2077.0,0.017728766960431575
2076.0,0.017638298366853045
2075.0,0.01759307113620534
2074.0,0.017547848615010242
2073.0,0.017547848615010242
2072.0,0.017502630802287644
2071.0,0.017412209298337533
2070.0,0.017321806616515723
2069.0,0.017231422748988034
2068.0,0.017141057687924732
2067.0,0.017095882207371904
2066.0,0.017050711425501408
2065.0,0.017050711425501408
2064.0,0.017005545341335804
2063.0,0.016960383953898095
2062.0,0.016870075265299933
2061.0,0.016824927962187042
2060.0,0.016734647433454652
2059.0,0.016734647433454652
2058.0,0.016644385668211692
2057.0,0.016554142658660398
2056.0,0.01646391839700767
2055.0,0.016418813294209356
2054.0,0.01632861713980338
2053.0,0.01628352608625061
2052.0,0.01628352608625061
2051.0,0.016238439713835096
2050.0,0.016193358021584725
2049.0,0.016148281008528276
2048.0,0.016058141016111804
2047.0,0.016013078034810446
2046.0,0.01596801972881945
2045.0,0.01596801972881945
2044.0,0.015922966097169144
2043.0,0.015922966097169144
2042.0,0.015877917138889863
2041.0,0.015832872853011715
2040.0,0.01578783323856614
2039.0,0.01578783323856614
2038.0,0.015742798294583915
2037.0,0.015742798294583915
2036.0,0.015697768020096703
2035.0,0.015652742414136167
2034.0,0.015607721475734415
2033.0,0.015562705203923999
2032.0,0.015517693597737248
2031.0,0.015517693597737248
2030.0,0.015517693597737248
2029.0,0.01547268665620738
2028.0,0.01547268665620738
2027.0,0.015427684378367834
2026.0,0.015427684378367834
2025.0,0.015427684378367834
2024.0,0.01538268676325183
2023.0,0.01538268676325183
2022.0,0.015337693809893471
2021.0,0.015292705517326866
2020.0,0.015292705517326866
2019.0,0.015337693809893471
2018.0,0.015337693809893471
2017.0,0.015337693809893471
2016.0,0.015292705517326866
2015.0,0.015247721884586563
2014.0,0.015247721884586563
2013.0,0.015202742910707112
2012.0,0.015202742910707112
2011.0,0.015247721884586563
2010.0,0.015247721884586563
2009.0,0.015247721884586563
2008.0,0.015247721884586563
2007.0,0.015292705517326866
2006.0,0.015337693809893471
2005.0,0.015337693809893471
2004.0,0.015292705517326866
2003.0,0.015247721884586563
2002.0,0.015202742910707112
2001.0,0.015202742910707112
2000.0,0.015247721884586563
1999.0,0.015337693809893471
1998.0,0.01538268676325183
1997.0,0.01538268676325183
1996.0,0.01538268676325183
1995.0,0.01538268676325183
1994.0,0.01547268665620738
1993.0,0.015562705203923999
1992.0,0.015652742414136167
1991.0,0.015742798294583915
1990.0,0.01578783323856614
1989.0,0.01578783323856614
1988.0,0.015832872853011715
1987.0,0.015832872853011715
1986.0,0.01578783323856614
1985.0,0.015742798294583915
1984.0,0.015697768020096703
1983.0,0.015742798294583915
1982.0,0.01578783323856614
1981.0,0.01578783323856614
1980.0,0.01578783323856614
1979.0,0.01578783323856614
1978.0,0.01578783323856614
1977.0,0.01578783323856614
1976.0,0.015832872853011715
1975.0,0.015877917138889863
1974.0,0.01596801972881945
1973.0,0.016013078034810446
1972.0,0.016058141016111804
1971.0,0.016103208673694303
1970.0,0.016148281008528276
1969.0,0.016148281008528276
1968.0,0.016238439713835096
1967.0,0.01632861713980338
1966.0,0.016418813294209356
1965.0,0.01646391839700767
1964.0,0.016509028184833463
1963.0,0.016599261819461697
1962.0,0.016644385668211692
1961.0,0.016689514205884493
1960.0,0.01677978535189717
1959.0,0.016870075265299933
1958.0,0.016960383953898095
1957.0,0.017050711425501408
1956.0,0.017095882207371904
1955.0,0.017186237868137555
1954.0,0.01727661233145472
1953.0,0.017321806616515723
1952.0,0.017321806616515723
1951.0,0.017367005605150476
1950.0,0.017367005605150476
1949.0,0.01727661233145472
1948.0,0.017141057687924732
1947.0,0.017050711425501408
1946.0,0.016915227262211507
1945.0,0.01677978535189717
1944.0,0.016734647433454652
1943.0,0.016644385668211692
1942.0,0.016554142658660398
1941.0,0.016373712875465518
1940.0,0.016193358021584725
1939.0,0.016013078034810446
1938.0,0.015832872853011715
1937.0,0.015652742414136167
1936.0,0.015427684378367834
1935.0,0.015292705517326866
1934.0,0.015157768594724175
1933.0,0.014977917890464765
1932.0,0.014798141635428141
1931.0,0.014618439768003144
1930.0,0.0144837121472845
1929.0,0.014304140310157809
1928.0,0.014169510141607944
1927.0,0.013990068146738865
1926.0,0.01385553528947936
1925.0,0.013765869865004277
1924.0,0.013676222949234651
1923.0,0.013631406429727155
1922.0,0.013541787262693505
1921.0,0.013452186585275916
1920.0,0.013362604389846044
1919.0,0.013273040668781544
1918.0,0.01318349541446362
1917.0,0.012959713020733288
1916.0,0.012780770091995297
1915.0,0.01264661126420652
1914.0,0.012512493866907004
1913.0,0.012378417874516323
1912.0,0.012244383261476699
1911.0,0.012110390002254778
1910.0,0.012065734767841452
1909.0,0.011931796607364653
1908.0,0.011842527443247208
1907.0,0.011753276624621556
1906.0,0.011619434777991433
1905.0,0.011485634166333858
1904.0,0.011307297450183107
1903.0,0.011218156546359825
1902.0,0.011084479487313281
1901.0,0.010950843561779777
1900.0,0.01086177578421088
1899.0,0.01077272626946324
1898.0,0.010683695010048622
1897.0,0.010550182333308289
1896.0,0.010416710688994968
1895.0,0.01037222925484893
1894.0,0.01023881228122181
1893.0,0.010105436281226954
1892.0,0.01001654169860089
1891.0,0.009927665307847056
1890.0,0.009883233932095559
1889.0,0.00974996707218323
1888.0,0.009572341514736404
1887.0,0.009439170005980158
1886.0,0.009306039320248427
1885.0,0.009217308196862062
1884.0,0.00908424549391551
1883.0,0.009039900317800775
1882.0,0.008995559669244813
1881.0,0.008906891951112605
1880.0,0.008862564879688284
1879.0,0.008773924307505121
1878.0,0.008685301823389224
1877.0,0.008596697419959609
1876.0,0.008463824699968647
1875.0,0.008375265465994541
1874.0,0.008286724286910463
1873.0,0.008153946355103248
1872.0,0.008021209005416363
1871.0,0.008021209005416363
1870.0,0.008021209005416363
1869.0,0.008021209005416363
1868.0,0.007976972236149349
1867.0,0.007888512213050314
1866.0,0.007844288957383316
1865.0,0.007755855953228474
1864.0,0.00762324020119709
1863.0,0.007534852191956709
1862.0,0.007490664932224611
1861.0,0.0074464821678643656
1860.0,0.007358130121602358
1859.0,0.007358130121602358
1858.0,0.007313960837872058
1857.0,0.007225635744644521
1856.0,0.007137328610972382
1855.0,0.007137328610972382
1854.0,0.007137328610972382
1853.0,0.007093181776687496
1852.0,0.007049039429553483
1851.0,0.007049039429553483
1850.0,0.007093181776687496
1849.0,0.007049039429553483
1848.0,0.007049039429553483
1847.0,0.007137328610972382
1846.0,0.007358130121602358
1845.0,0.007490664932224611
1844.0,0.007490664932224611
1843.0,0.0074464821678643656
1842.0,0.007402303897961815
1841.0,0.007358130121602358
1840.0,0.007358130121602358
1839.0,0.007313960837872058
1838.0,0.007358130121602358
1837.0,0.007313960837872058
1836.0,0.007313960837872058
1835.0,0.007358130121602358
1834.0,0.0074464821678643656
1833.0,0.0074464821678643656
1832.0,0.007490664932224611
1831.0,0.0075790439479759275
1830.0,0.00762324020119709
1829.0,0.007490664932224611
1828.0,0.007358130121602358
1827.0,0.0074464821678643656
1826.0,0.007534852191956709
1825.0,0.007534852191956709
1824.0,0.007402303897961815
1823.0,0.007313960837872058
1822.0,0.007225635744644521
1821.0,0.007049039429553483
1820.0,0.006828394969235152
1819.0,0.006696062080525422
1818.0,0.00656376950238835
1817.0,0.006387442061109638
1816.0,0.00625524344553785
1815.0,0.00612308505878878
1814.0,0.005990966876386672
1813.0,0.00577085918230158
1812.0,0.005550862985963967
1811.0,0.00541891874010525
1810.0,0.0052870145684298375
1809.0,0.005067263269958211
1808.0,0.00489154225525934
1807.0,0.004671990922590297
1806.0,0.0044964297349936455
1805.0,0.004233220950025984
1804.0,0.0040578370074493275
1803.0,0.0040578370074493275
1802.0,0.0040578370074493275
1801.0,0.003926345514724705
1800.0,0.0036634819042162814
1799.0,0.0034007772998332353
1798.0,0.0031819781204844855
1797.0,0.0029195645282691363
1796.0,0.0027447101798967477
1795.0,0.002701007590486082
1794.0,0.002701007590486082
1793.0,0.002569926202528716
1792.0,0.0023078820582733695
1791.0,0.0021332737608552588
1790.0,0.0020023635919956817
1789.0,0.0017842676290416026
1788.0,0.0015662811355310335
1787.0,0.0014791171649619628
1786.0,0.0014355417390583547
1785.0,0.0012612837441823288
1784.0,0.0010000277816797354
1783.0,0.0008259444115150671
1782.0,0.0006954276616513155
1781.0,0.00043451177401765406
1780.0,0.00017375254558760211
1779.0,8.686758342868472e-05
1778.0,0.0
1777.0,-0.00013026880522692963
1776.0,-0.0002604985473904087
1775.0,-0.00017368305846510168
1774.0,-4.3427276862573194e-05
1773.0,-0.00021709297223004853
1772.0,-0.0004774613744551459
1771.0,-0.0005208409361854294
1770.0,-0.0002604985473904087
1769.0,-8.685021164911433e-05
1768.0,4.343161980746579e-05
1767.0,0.00026065489343207737
1766.0,0.0004779868710962365
1765.0,0.0006519307932786322
1764.0,0.0010000277816797354
1763.0,0.001609869681952425
1762.0,0.0022642234021015284
1761.0,0.002613615602686581
1760.0,0.003050751504618754
1759.0,0.0038387066319929275
1758.0,0.004935465843858511
1757.0,0.006035001804881146
1756.0,0.007137328610972382
1755.0,0.00850811108984062
1754.0,0.01001654169860089
1753.0,0.011708658092512314
1752.0,0.01385553528947936
1751.0,0.017005545341335804
1750.0,0.02081596632558158
1749.0,0.02498200236711723
1748.0,0.029653123769906697
1747.0,0.03503362516890207
1746.0,0.04105406750606355
1745.0,0.047885915093007325
1744.0,0.05601112492622806
1743.0,0.06519865825346338
1742.0,0.07494587968815725
1741.0,0.08602728844902896
1740.0,0.09941441335003853
1739.0,0.11322735694556196
1738.0,0.1244757360506914
1737.0,0.13324021650489182
1736.0,0.14315032127482774
1735.0,0.15976840504189105
1734.0,0.18302996224270052
1733.0,0.20245548563827365
1732.0,0.21631076365268354
1731.0,0.2302535328205466
1730.0,0.24649354300903004
1729.0,0.2636831920958911
1728.0,0.28008893580166117
1727.0,0.29593532059143257
1726.0,0.3123818704282302
1725.0,0.3301254975101975
1724.0,0.3492069603480692
1723.0,0.3682519256034307
1722.0,0.384681343388521
1721.0,0.39750593119271893
1720.0,0.40815658877521566
1719.0,0.42113167133397145
1718.0,0.43842163169903947
1717.0,0.4523483416400309
1716.0,0.4571745730408201
1715.0,0.4563043676907552
1714.0,0.4516105818670817
1713.0,0.4418916983694503
1712.0,0.42736070295718664
1711.0,0.4092695942073097
1710.0,0.38912699961994823
1709.0,0.3679478332941901
1708.0,0.3457271729022895
1707.0,0.3212995650016959
1706.0,0.29533481454547084
1705.0,0.2723774220308628
1704.0,0.2560201347581572
1703.0,0.24389662841489446
1702.0,0.23128791962233652
1701.0,0.21431433171909875
1700.0,0.19661117501638659
1699.0,0.18482086986058133
1698.0,0.17730898922394545
1697.0,0.16973219906635828
1696.0,0.16077342598656452
1695.0,0.1527358982292355
1694.0,0.1472151313194523
1693.0,0.1432711096171173
1692.0,0.13948232253825377
1691.0,0.13519237097385295
1690.0,0.1308856730206247
1689.0,0.12731939284807026
1688.0,0.12470717462899183
1687.0,0.12222565000860186
1686.0,0.11935787359571504
1685.0,0.11616828667054757
1684.0,0.11328372588352176
1683.0,0.11081038795292675
1682.0,0.10879717273970457
1681.0,0.10684878687013422
1680.0,0.10463271122663809
1679.0,0.10226297465457268
1678.0,0.10001543745060903
1677.0,0.0978882765519955
1676.0,0.09560907998763835
1675.0,0.09312646527792956
1674.0,0.0908185240221473
1673.0,0.08894897967187343
1672.0,0.0872997918091396
1671.0,0.08539243222891946
1670.0,0.08333553545860273
1669.0,0.08155025759884227
1668.0,0.07992887570247587
1667.0,0.07836553894629472
1666.0,0.07685964397479927
1665.0,0.07530729697981409
1664.0,0.07370901311513656
1663.0,0.07196279359311708
1662.0,0.07032568205141221
1661.0,0.06905096883247697
1660.0,0.06788152797087754
1659.0,0.06661395809694559
1658.0,0.0654005617819271
1657.0,0.06434161389936577
1656.0,0.06338573802478864
1655.0,0.062281556382736136
1654.0,0.06123017721688262
1653.0,0.06058059667068294
1652.0,0.05953332233647113
1651.0,0.05858795962645047
1650.0,0.05794231615860479
1649.0,0.05734718830678798
1648.0,0.0567528748621382
1647.0,0.05606053552778367
1646.0,0.05536929814372171
1645.0,0.05482695382609992
1644.0,0.05428528594013993
1643.0,0.053646002773725554
1642.0,0.05300765925162776
1641.0,0.052468254304406825
1640.0,0.05192951848105887
1639.0,0.05134256785867963
1638.0,0.050707598587974356
1637.0,0.050317309204795935
1636.0,0.05012229596312534
1635.0,0.04978123335813667
1634.0,0.049294465226138895
1633.0,0.048905443158337114
1632.0,0.04841965509660828
1631.0,0.047885915093007325
1630.0,0.047352830241056854
1629.0,0.04696554274964315
1628.0,0.04662694927330402
1627.0,0.046192002334692894
1626.0,0.04575749056067524
1625.0,0.0454680573730859
1624.0,0.04522701031028298
1623.0,0.04508244626504121
1622.0,0.044937930324967956
1621.0,0.04488976902944808
1620.0,0.044937930324967956
1619.0,0.0451788169482068
1618.0,0.04580574818413763
1617.0,0.047062332249019345
1616.0,0.04817696468408794
1615.0,0.048565334467987054
1614.0,0.048565334467987054
1613.0,0.04837110616336182
1612.0,0.047885915093007325
1611.0,0.04715914332429838
1610.0,0.04624030826677128
1609.0,0.045323413081356456
1608.0,0.044360346976747955
1607.0,0.0433514207947967
1606.0,0.042392712939904875
1605.0,0.041483896576958834
1604.0,0.04062466342415694
1603.0,0.039767126871487646
1602.0,0.038911280232103884
1601.0,0.038151940981675736
1600.0,0.037488606492403154
1599.0,0.03682628362474838
1598.0,0.03625938114211591
1597.0,0.03583468937826462
1596.0,0.03545753392086315
1595.0,0.03512779136222477
1594.0,0.03489241415094413
1593.0,0.03475124903287918
1592.0,0.03465716443937783
1591.0,0.03456310022373987
1590.0,0.03456310022373987
1589.0,0.03475124903287918
1588.0,0.03503362516890207
1587.0,0.03555179208333925
1586.0,0.03644826642590382
1585.0,0.03786753070176463
1584.0,0.03995754427315856
1583.0,0.042584285277331047
1582.0,0.045516282844447975
1581.0,0.04832256265669943
1580.0,0.05065879322950262
1579.0,0.05217431555754937
1578.0,0.05261529831525902
1577.0,0.05173378011970464
1576.0,0.04963514562387683
1575.0,0.04730440041308315
1574.0,0.04537162249272897
1573.0,0.04387961360698034
1572.0,0.042392712939904875
1571.0,0.04072004986906119
1570.0,0.038911280232103884
1569.0,0.037346595106788616
1568.0,0.03625938114211591
1567.0,0.03545753392086315
1566.0,0.03470420418834386
1565.0,0.03399914237121604
1564.0,0.03334211579824231
1563.0,0.032920265855503006
1562.0,0.032592443402527316
1561.0,0.032218091924200776
1560.0,0.03189079887180224
1559.0,0.03175060589208267
1558.0,0.031190286087141805
1557.0,0.0307239045110681
1556.0,0.030490901403433135
1555.0,0.030164906924202484
1554.0,0.029792641193145286
1553.0,0.02932775731028059
1552.0,0.028956208163971375
1551.0,0.02872415126189476
1550.0,0.02849221828874393
1549.0,0.028214062120885508
1548.0,0.027936083991977778
1547.0,0.027612000892527133
1546.0,0.027288159452933503
1545.0,0.02710321556345563
1544.0,0.02691835039863255
1543.0,0.02664120011360227
1542.0,0.026318081496016443
1541.0,0.026225806029419818
1540.0,0.02613355016462182
1539.0,0.025718641122169483
1538.0,0.025304128090317013
1537.0,0.025258095499050004
1536.0,0.025304128090317013
1535.0,0.02544225514642018
1534.0,0.025672564576383117
1533.0,0.026041313893296225
1532.0,0.02617967564731627
1531.0,0.02617967564731627
1530.0,0.026087429580295085
1529.0,0.026087429580295085
1528.0,0.02613355016462182
1527.0,0.02617967564731627
1526.0,0.026087429580295085
1525.0,0.025902996205869
1524.0,0.025672564576383117
1523.0,0.02539620791296726
1522.0,0.025258095499050004
1521.0,0.02512002699306959
1520.0,0.024890010313838973
1519.0,0.02461415101053266
1518.0,0.02438440203310499
1517.0,0.024246610963712723
1516.0,0.024200690320592466
1515.0,0.024200690320592466
1514.0,0.024430342106337877
1513.0,0.02498200236711723
1512.0,0.025902996205869
1511.0,0.027149444152769986
1510.0,0.02890978686288448
1509.0,0.031657169041054534
1508.0,0.037488606492403154
1507.0,0.04696554274964315
1506.0,0.05330216275425803
1505.0,0.05399011523423525
1504.0,0.05188057561946402
1503.0,0.04837110616336182
1502.0,0.044071843103049346
1501.0,0.03948165721929198
1500.0,0.03512779136222477
1499.0,0.03133029827960798
1498.0,0.028028723600243666
1497.0,0.02539620791296726
1496.0,0.023374947949272418
1495.0,0.021865152601710403
1494.0,0.02081596632558158
1493.0,0.02026956933771462
1492.0,0.01995115493504329
1491.0,0.019723858922159776
1490.0,0.01949668180660491
1489.0,0.01949668180660491
1488.0,0.01958753839310856
1487.0,0.01958753839310856
1486.0,0.019632973815224997
1485.0,0.019860222254245663
1484.0,0.02022406727031445
1483.0,0.020633757603838898
1482.0,0.021135015652343103
1481.0,0.021773818325474092
1480.0,0.02245929405346514
1479.0,0.02300845469384938
1478.0,0.02351246269481
1477.0,0.024154774532432866
1476.0,0.02475205875931885
1475.0,0.02516604495145991
1474.0,0.025488307262671706
1473.0,0.026041313893296225
1472.0,0.02664120011360227
1471.0,0.02696455931306696
1470.0,0.02724191609646076
1469.0,0.0277045713888604
1468.0,0.028445846553939003
1467.0,0.029513651152349718
1466.0,0.031190286087141805
1465.0,0.03357665405630694
1464.0,0.036117771071222604
1463.0,0.038199360808321536
1462.0,0.03995754427315856
1461.0,0.0417706858116178
1460.0,0.043735497301724546
1459.0,0.04609540658654021
1458.0,0.04939177521576932
1457.0,0.053203972728539606
1456.0,0.05541863577307371
1455.0,0.05606053552778367
1454.0,0.05620880107069848
1453.0,0.05630767289398331
1452.0,0.05625823416868636
1451.0,0.055912320584565744
1450.0,0.05551732784983132
1449.0,0.055122694036304765
1448.0,0.054679159207724926
1447.0,0.054186873412661596
1446.0,0.053842605077627725
1445.0,0.053596866100945384
1444.0,0.053351266093323746
1443.0,0.05305672930217464
1442.0,0.05266432405126009
1441.0,0.05232126006306337
1440.0,0.0518316382728683
1439.0,0.05119595406718891
1438.0,0.05002482217034632
1437.0,0.04807992647970649
1436.0,0.0454680573730859
1435.0,0.042775942156833
1434.0,0.04019568349166214
1433.0,0.03763066432997886
1432.0,0.0349394793888016
1431.0,0.032124554451966825
1430.0,0.02942069428514915
1429.0,0.02696455931306696
1428.0,0.025028005701930978
1427.0,0.02355831062115543
1426.0,0.02245929405346514
1425.0,0.02159120737696063
1424.0,0.021043834782408455
1423.0,0.0209982515252789
1422.0,0.021363051615525652
1421.0,0.022367834754000393
1420.0,0.024660115394541604
1419.0,0.028770552723758724
1418.0,0.03414006319292828
1417.0,0.04043395336207234
1416.0,0.04817696468408794
1415.0,0.05784307153250956
1414.0,0.06986635415888243
1413.0,0.08417821237960132
1412.0,0.09990609845660159
1411.0,0.1145256971708426
1410.0,0.12534426740189897
1409.0,0.1311792938024825
1408.0,0.13182595914036166
1407.0,0.12743585690934855
1406.0,0.11907213473291511
1405.0,0.10885296955122903
1404.0,0.0990869322623309
1403.0,0.09097914578884403
1402.0,0.08454739831152125
1401.0,0.07893810920972144
1400.0,0.07355465218161061
1399.0,0.06844043290919477
1398.0,0.06419054619006714
1397.0,0.060880282351513104
1396.0,0.05779345772290467
1395.0,0.05458065739693696
1394.0,0.05163594401163074
1393.0,0.049294465226138895
1392.0,0.04744970610179822
1391.0,0.04575749056067524
1390.0,0.044167989767578186
1389.0,0.04272802000705722
1388.0,0.041436116778032606
1387.0,0.0402909757535701
1386.0,0.03948165721929198
1385.0,0.03905380426616856
1384.0,0.039006291057664066
1383.0,0.039338992729018196
1382.0,0.0400527842915015
1381.0,0.041197296600497646
1380.0,0.04282386959515394
1379.0,0.04464904263234004
1378.0,0.04667530361081473
1377.0,0.04875964967565971
1376.0,0.051098239029786274
1375.0,0.05379344615721715
1374.0,0.05655495097496965
1373.0,0.058786812414678646
1372.0,0.0601813371786204
1371.0,0.06078036414518184
1370.0,0.06058059667068294
1369.0,0.05938391766259232
1368.0,0.057198533682059516
1367.0,0.05423607688882637
1366.0,0.050707598587974356
1365.0,0.04682039893436585
1364.0,0.04248848854552012
1363.0,0.03786753070176463
1362.0,0.03367050483612166
1361.0,0.030444315779156517
1360.0,0.028075050815808744
1359.0,0.026225806029419818
1358.0,0.024798037742147727
1357.0,0.023833499868024743
1356.0,0.023191662661933732
1355.0,0.02291687968414724
1354.0,0.02291687968414724
1353.0,0.023374947949272418
1352.0,0.024292536462819925
1351.0,0.02562649291857677
1350.0,0.02751945012352408
1349.0,0.029978734171634214
1348.0,0.0329671178412978
1347.0,0.03649550058570927
1346.0,0.04043395336207234
1345.0,0.044793462458058375
1344.0,0.04934311749548925
1343.0,0.053646002773725554
1342.0,0.05754547365752294
1341.0,0.060880282351513104
1340.0,0.06313454102437754
1339.0,0.06338573802478864
1338.0,0.06133019897732073
1337.0,0.05734718830678798
1336.0,0.052027420754219955
1335.0,0.046143701775014145
1334.0,0.0402909757535701
1333.0,0.03512779136222477
1332.0,0.030910397045078586
1331.0,0.027797161620935595
1330.0,0.025718641122169483
1329.0,0.024660115394541604
1328.0,0.02438440203310499
1327.0,0.024706084643793647
1326.0,0.02558042614771394
1325.0,0.026872146400301444
1324.0,0.02839947976994095
1323.0,0.030118356253500123
1322.0,0.031984286006358165
1321.0,0.033952178923546183
1320.0,0.03602339000339416
1319.0,0.038199360808321536
1318.0,0.040338629726504704
1317.0,0.04244059810252043
1316.0,0.04460091336073302
1315.0,0.04682039893436585
1314.0,0.049294465226138895
1313.0,0.05197846685889629
1312.0,0.0549255115212699
1311.0,0.05794231615860479
1310.0,0.06108018775522828
1309.0,0.06434161389936577
1308.0,0.06772922410050963
1307.0,0.0709900145060387
1306.0,0.07412091069849924
1305.0,0.07727454200674
1304.0,0.08060807322614072
1303.0,0.08433639649422697
1302.0,0.08873582900163002
1301.0,0.09393445524476318
1300.0,0.10001543745060903
1299.0,0.10684878687013422
1298.0,0.11418662533951118
1297.0,0.12211057462851604
1296.0,0.13041629228657614
1295.0,0.13870460647330418
1294.0,0.14691047014813452
1293.0,0.1550260618531123
1292.0,0.16310648362356628
1291.0,0.17095366314681737
1290.0,0.17842097208799124
1289.0,0.18575240426807982
1288.0,0.1928710444075783
1287.0,0.19955787866374353
1286.0,0.20558166912585896
1285.0,0.21119550695535172
1284.0,0.21638223480925123
1283.0,0.22112552799726037
1282.0,0.2252641174482466
1281.0,0.2290743853610009
1280.0,0.2327699018892817
1279.0,0.2361229685043451
1278.0,0.23927602785804836
1277.0,0.24267990345332757
1276.0,0.2467234298155816
1275.0,0.25150187338626306
1274.0,0.25743196563385795
1273.0,0.26496029496627926
1272.0,0.2744967311406845
1271.0,0.28567024025476706
1270.0,0.2982593675627876
1269.0,0.3122927203751811
1268.0,0.32762502125392046
1267.0,0.3435184842095014
1266.0,0.3596179552904315
1265.0,0.3757179041643317
1264.0,0.39147396642280596
1263.0,0.40604970473601254
1262.0,0.4187331947263293
1261.0,0.42969061456412017
1260.0,0.4387793210660562
1259.0,0.4452686233240335
1258.0,0.449771646944906
1257.0,0.4532106483687419
1256.0,0.45680141436235333
1255.0,0.46054750845053904
1254.0,0.46470587995722945
1253.0,0.4703130462270835
1252.0,0.4778166823813137
1251.0,0.48651604329574294
1250.0,0.496209316942819
1249.0,0.5072396109731625
1248.0,0.5194182131708311
1247.0,0.5316526695878427
1246.0,0.5431786519784014
1245.0,0.5545514857339502
1244.0,0.5649523586600353
1243.0,0.5731635461964919
1242.0,0.5780671867214915
1241.0,0.5802094138936373
1240.0,0.5790545940780278
1239.0,0.5739769843101239
1238.0,0.5643148620583702
1237.0,0.5514482607984219
1236.0,0.5356595153723327
1235.0,0.5168407902830203
1234.0,0.4958010814605551
1233.0,0.47404865875198743
1232.0,0.45210228243690276
1231.0,0.430041181903406
1230.0,0.4082677610481644
1229.0,0.3876400520322256
1228.0,0.3681505378401819
1227.0,0.3494011018273431
1226.0,0.3314277308154421
1225.0,0.3144373888417702
1224.0,0.298518364379073
1223.0,0.2833290244398645
1222.0,0.2689756201843121
1221.0,0.25570701687732367
1220.0,0.243439956993317
1219.0,0.23195418589758332
1218.0,0.22119779598676126
1217.0,0.21140744407964052
1216.0,0.20245548563827365
1215.0,0.1941594511853273
1214.0,0.18655245573517876
1213.0,0.17960147729601839
1212.0,0.17327747983100794
1211.0,0.16729952903943257
1210.0,0.16165473122400909
1209.0,0.15639352807548912
1208.0,0.1515645446685292
1207.0,0.14691047014813452
1206.0,0.1425468829647336
1205.0,0.1384058553561347
1204.0,0.13448148092522594
1203.0,0.13070959579060148
1202.0,0.12697018793895576
1201.0,0.12343578601615435
1200.0,0.12004441487725082
1199.0,0.11667932161702477
1198.0,0.11339648571328764
1197.0,0.11025022473596224
1196.0,0.10723776538418317
1195.0,0.10424605792627206
1194.0,0.10138450258381404
1193.0,0.09870518283443275
1192.0,0.09620485725896466
1191.0,0.09382663635595145
1190.0,0.09167586072382083
1189.0,0.08974922769985194
1188.0,0.08825662214406838
1187.0,0.08708744882390307
1186.0,0.08634506491338012
1185.0,0.08602728844902896
1184.0,0.086239113587677
1183.0,0.08692825969074924
1182.0,0.08799062441302175
1181.0,0.08953568400438638
1180.0,0.09135416109288674
1179.0,0.09328794305703592
1178.0,0.09512223303659528
1177.0,0.09674718310604158
1176.0,0.09794268919153337
1175.0,0.09854167860388774
1174.0,0.09832376867362447
1173.0,0.09718153191774648
1172.0,0.09512223303659528
1171.0,0.09226626300234453
1170.0,0.08878910686244668
1169.0,0.08496970974083906
1168.0,0.0812359689720008
1167.0,0.0777417765670334
1166.0,0.07463633264589853
1165.0,0.07206531825882068
1164.0,0.06996838504902692
1163.0,0.06828793294324442
1162.0,0.06696850489759454
1161.0,0.06590573164451952
1160.0,0.06524912533642091
1159.0,0.06489597884855036
1158.0,0.06484555278383164
1157.0,0.06524912533642091
1156.0,0.06610796423578891
1155.0,0.06742477650170953
1154.0,0.0692037370166998
1153.0,0.07145053299833615
1152.0,0.07422394616325367
1151.0,0.07743023101428781
1150.0,0.08118360963962057
1149.0,0.08539243222891946
1148.0,0.09012318200960712
1147.0,0.09523037409340485
1146.0,0.10067205012234592
1145.0,0.10651565378151395
1144.0,0.1125514997500463
1143.0,0.11872949607064243
1142.0,0.12482294018529605
1141.0,0.1308856730206247
1140.0,0.1369151746796402
1139.0,0.14260718907909875
1138.0,0.1480693213597324
1137.0,0.15335367142288248
1136.0,0.15857795559764076
1135.0,0.16361258067358908
1134.0,0.16857818293497795
1133.0,0.17379557650074728
1132.0,0.17933886535640453
1131.0,0.18528638730402336
1130.0,0.1917214904172322
1129.0,0.19893947015214453
1128.0,0.20711825461460287
1127.0,0.21623930425607596
1126.0,0.2261404476233131
1125.0,0.23709647150094293
1124.0,0.24864390027460637
1123.0,0.26034855629062315
1122.0,0.2717274021049829
1121.0,0.2824127031445396
1120.0,0.29200425357707105
1119.0,0.2998156703778023
1118.0,0.30521936398793836
1117.0,0.3082114755973018
1116.0,0.3087416418668889
1115.0,0.3068888845378588
1114.0,0.3032069149182557
1113.0,0.29929628285498056
1112.0,0.2963647624161041
1111.0,0.2955920726131591
1110.0,0.29800052511036323
1109.0,0.30434324006380975
1108.0,0.3147062186132159
1107.0,0.32845691473742633
1106.0,0.3446694419906591
1105.0,0.3629107264696696
1104.0,0.3825802532628235
1103.0,0.4028535121663046
1102.0,0.423083044034793
1101.0,0.44297427761361674
1100.0,0.461929212956828
1099.0,0.478992747591396
1098.0,0.4933596944334975
1097.0,0.5054280157698015
1096.0,0.514988785421427
1095.0,0.5212892444872406
1094.0,0.5238932831598087
1093.0,0.5236031732746698
1092.0,0.5208567520213869
1091.0,0.5152731957013381
1090.0,0.5075189898711234
1089.0,0.4982562703720055
1088.0,0.4882502886550171
1087.0,0.4770344045080135
1086.0,0.4645792819438266
1085.0,0.4516105818670817
1084.0,0.43806423668621863
1083.0,0.4235434675943799
1082.0,0.40771218404786924
1081.0,0.39104630072413715
1080.0,0.3737623148530995
1079.0,0.3556599011736774
1078.0,0.3372421683184259
1077.0,0.31939257100821217
1076.0,0.30233483735232536
1075.0,0.28617357561947543
1074.0,0.27091624295638805
1073.0,0.25703932978584754
1072.0,0.2445062715848807
1071.0,0.23299263605019593
1070.0,0.22235572230351508
1069.0,0.21268124337545258
1068.0,0.20398103065285067
1067.0,0.19599694527038736
1066.0,0.18882730493344568
1065.0,0.18263298371240588
1064.0,0.17724366704860928
1063.0,0.1724368887452763
1062.0,0.16800232276410365
1061.0,0.16418264570652719
1060.0,0.16108797259400132
1059.0,0.15870311250971825
1058.0,0.15707887924001773
1057.0,0.15645578805436489
1056.0,0.15664262156204445
1055.0,0.15757799664235028
1054.0,0.1590787998012282
1053.0,0.16115090926274478
1052.0,0.16380251922107458
1051.0,0.1666616110606025
1050.0,0.16973219906635828
1049.0,0.1730186630880064
1048.0,0.17626501160126873
1047.0,0.17933886535640453
1046.0,0.18203819546800593
1045.0,0.18442225167573278
1044.0,0.18635230465310326
1043.0,0.1875545971272441
1042.0,0.18809001957990112
1041.0,0.188023055663046
1040.0,0.18742084459095332
1039.0,0.1862189218259176
1038.0,0.18448866263723573
1037.0,0.18256685588861554
1036.0,0.18065351591954726
1035.0,0.17868302940890257
1034.0,0.17672144304832926
1033.0,0.17476867680009978
1032.0,0.17282465170130723
1031.0,0.17082492608291244
1030.0,0.16877030613293664
1029.0,0.16698045292346864
1028.0,0.16583371605737995
1027.0,0.16564288728159493
1026.0,0.16710805524020933
1025.0,0.1711468403233598
1024.0,0.1789452449531117
1023.0,0.19145144875959463
1022.0,0.20950372303289044
1021.0,0.23291837863667775
1020.0,0.2604276555499081
1019.0,0.2884458317498304
1018.0,0.3119363030536557
1017.0,0.325414397697086
1016.0,0.3250470519514348
1015.0,0.3108688027655022
1014.0,0.28718199979214987
1013.0,0.26026947143528245
1012.0,0.23515164280658918
1011.0,0.21388771628017356
1010.0,0.19688444510997294
1009.0,0.18349356295364294
1008.0,0.17276000049435458
1007.0,0.16405589990615188
1006.0,0.15689185800039307
1005.0,0.15107228677292173
1004.0,0.14642345638035836
1003.0,0.14248658522331015
1002.0,0.13900356324280416
1001.0,0.13596381727422502
1000.0,0.13329924395750092
999.0,0.13076828026902376
998.0,0.1284854412916181
997.0,0.12638880300353272
996.0,0.12453358413361437
995.0,0.12280148472821018
994.0,0.12119106764079435
993.0,0.11992991593593283
992.0,0.11890078161098283
991.0,0.11804502866039956
990.0,0.11730473761840288
989.0,0.116736140415026
988.0,0.11628179803604044
987.0,0.11599807523121286
986.0,0.11582793047608719
985.0,0.11582793047608719
984.0,0.11605480496572018
983.0,0.1163953390777075
982.0,0.11679296664760996
981.0,0.11730473761840288
980.0,0.11787408022996826
979.0,0.11844417020668851
978.0,0.11890078161098283
977.0,0.11935787359571504
976.0,0.11975822410451964
975.0,0.11992991593593283
974.0,0.11987267778337518
973.0,0.11964380058076385
972.0,0.11918640771920863
971.0,0.11844417020668851
970.0,0.11730473761840288
969.0,0.11594135290606156
968.0,0.11441264381034388
967.0,0.11272036546997688
966.0,0.11086644403327606
965.0,0.10896458468468917
964.0,0.10707101764479421
963.0,0.10507502264045665
962.0,0.10319830233507843
961.0,0.1014393550602879
960.0,0.09985143928065598
959.0,0.09832376867362447
958.0,0.09685572959046151
957.0,0.09550084460218011
956.0,0.09425807260839858
955.0,0.09312646527792956
954.0,0.0919977988274463
953.0,0.09092559859909577
952.0,0.08996287644694911
951.0,0.08905559425002108
950.0,0.08825662214406838
949.0,0.08756536662442538
948.0,0.08692825969074924
947.0,0.0862920860195171
946.0,0.08560394787021397
945.0,0.08502252755566908
944.0,0.08444188458847957
943.0,0.0838620168928248
942.0,0.0833881548906541
941.0,0.08296737783760655
940.0,0.08265206237222844
939.0,0.0823369756726251
938.0,0.08196966321511989
937.0,0.08155025759884227
936.0,0.08118360963962057
935.0,0.08081727095749947
934.0,0.08039897621588898
933.0,0.08003329851661278
932.0,0.07972010536705154
931.0,0.07930286553008004
930.0,0.07878187880504961
929.0,0.07831352451639795
928.0,0.07784567476894111
927.0,0.07737832847680104
926.0,0.07685964397479927
925.0,0.07634157820669385
924.0,0.07582412969807906
923.0,0.07530729697981409
922.0,0.07479107858799638
921.0,0.07443009045662374
920.0,0.07412091069849924
919.0,0.07391491307485598
918.0,0.07376047895413773
917.0,0.07370901311513656
916.0,0.07386342893255127
915.0,0.07422394616325367
914.0,0.07479107858799638
913.0,0.0756173227980268
912.0,0.07680780957933253
911.0,0.07826151631540124
910.0,0.07998108397108505
909.0,0.08212704480115218
908.0,0.08454739831152125
907.0,0.0872466963286771
906.0,0.0900697402471693
905.0,0.09301884677114591
904.0,0.09598811640261173
903.0,0.09886874864462802
902.0,0.1014393550602879
901.0,0.10374943753836186
900.0,0.10568393731556158
899.0,0.10723776538418317
898.0,0.1082953237608173
897.0,0.10890877353227624
896.0,0.10935546370475246
895.0,0.10952309103982927
894.0,0.10952309103982927
893.0,0.10952309103982927
892.0,0.10952309103982927
891.0,0.10963487855187593
890.0,0.10991447328367476
889.0,0.11058623595729111
888.0,0.11165198982195101
887.0,0.11317099532301778
886.0,0.11514801725400226
885.0,0.11776015198117662
884.0,0.12119106764079435
883.0,0.1252863112422209
882.0,0.13012318673323353
881.0,0.13584504399797437
880.0,0.1425468829647336
879.0,0.15002808767114995
878.0,0.15807768832054925
877.0,0.16627930955536674
876.0,0.17411970106382046
875.0,0.18085105719286587
874.0,0.18555262147751228
873.0,0.1875545971272441
872.0,0.18655245573517876
871.0,0.18250073813224166
870.0,0.17593928258134706
869.0,0.16806626953325465
868.0,0.15976840504189105
867.0,0.15168769637271562
866.0,0.14417809459397013
865.0,0.13763006287711765
864.0,0.13212021654162043
863.0,0.1275523522109867
862.0,0.12389767862220635
861.0,0.12101887660626365
860.0,0.11895789180659433
859.0,0.11736163830396129
858.0,0.11616828667054757
857.0,0.11531789579397489
856.0,0.11475189221861393
855.0,0.11435612816423602
854.0,0.1141301390960936
853.0,0.11396072443355765
852.0,0.11396072443355765
851.0,0.1138478180292033
850.0,0.11367851344052027
849.0,0.11350927482751816
848.0,0.11350927482751816
847.0,0.11356568037106163
846.0,0.1136220932414278
845.0,0.11367851344052027
844.0,0.1137349409702435
843.0,0.1136220932414278
842.0,0.11345287660889425
841.0,0.11317099532301778
840.0,0.11277666863747693
839.0,0.11221396516162851
838.0,0.11142740314240007
837.0,0.11041819785037621
836.0,0.10929960230112479
835.0,0.10790539730951965
834.0,0.1062937069352865
833.0,0.1047432468551055
832.0,0.10330847343711591
831.0,0.10193333935836524
830.0,0.1005625457138224
829.0,0.09935981601739963
828.0,0.09826930827078129
827.0,0.0972358560759139
826.0,0.09625905937846135
825.0,0.09544673702322726
824.0,0.09474395125154866
823.0,0.09404230090757282
822.0,0.09334178232840018
821.0,0.09285746899685954
820.0,0.09258863922541383
819.0,0.09237369515673355
818.0,0.0922125568893839
817.0,0.09215885741705532
816.0,0.09215885741705532
815.0,0.09205147838772776
814.0,0.09189045960744768
813.0,0.0917831469106074
812.0,0.0917831469106074
811.0,0.0917831469106074
810.0,0.09156860103399356
809.0,0.09124698081546634
808.0,0.0908185240221473
807.0,0.09033701484598189
806.0,0.08974922769985194
805.0,0.0892155652071629
804.0,0.08873582900163002
803.0,0.0881502035005799
802.0,0.08740600224789441
801.0,0.0867691288864394
800.0,0.0867160982395816
799.0,0.08772478950118767
798.0,0.09028354676565531
797.0,0.09436599867304518
796.0,0.09952362861074304
795.0,0.10446696051592963
794.0,0.10801676914803293
793.0,0.10935546370475246
792.0,0.10840679565103484
791.0,0.10546241500425357
790.0,0.10138450258381404
789.0,0.09701860020249709
788.0,0.09291125492570451
787.0,0.08900228368935714
786.0,0.08533956941077814
785.0,0.08202211740709164
784.0,0.07904229404455076
783.0,0.0763933569825408
782.0,0.07417242537525759
781.0,0.07232173586200852
780.0,0.07068327324650436
779.0,0.0691018855898955
778.0,0.0675769736232612
777.0,0.06610796423578891
776.0,0.06474471821595262
775.0,0.06333548699992453
774.0,0.06193081377661436
773.0,0.06058059667068294
772.0,0.05923456436878238
771.0,0.05789269101064454
770.0,0.05655495097496965
769.0,0.055270639696704205
768.0,0.054088483180726676
767.0,0.052762392129333646
766.0,0.05129369109514803
765.0,0.049927370249842395
764.0,0.04866248120408234
763.0,0.04749815213697639
762.0,0.04643358574299339
761.0,0.0454680573730859
760.0,0.044456557540257124
759.0,0.04325545471730896
758.0,0.04186632432376469
757.0,0.04038628892895613
756.0,0.038911280232103884
755.0,0.037488606492403154
754.0,0.03616496929785207
753.0,0.03503362516890207
752.0,0.03399914237121604
751.0,0.032920265855503006
750.0,0.03189079887180224
749.0,0.031236951802751545
748.0,0.030957032694186815
747.0,0.031236951802751545
746.0,0.03235843591698884
745.0,0.03484535401307465
744.0,0.03910132267333921
743.0,0.04537162249272897
742.0,0.05428528594013993
741.0,0.06661395809694559
740.0,0.08254700807033655
739.0,0.10165883427249067
738.0,0.12337808396572703
737.0,0.14745901423020125
736.0,0.17340694606595197
735.0,0.20038379551850105
734.0,0.2280452510360509
733.0,0.2569608451950669
732.0,0.288192770958809
731.0,0.32230181852548934
730.0,0.35991626862687975
729.0,0.4025242101296225
728.0,0.4496493276983846
727.0,0.4978461071286393
726.0,0.5404567417195871
725.0,0.5697636465884894
724.0,0.5787252087896535
723.0,0.5639964643301034
722.0,0.5276824536831581
721.0,0.4769041617474321
720.0,0.4220488722702449
719.0,0.37212230542002844
718.0,0.3311483519174814
717.0,0.2984320149440727
716.0,0.272214825817094
715.0,0.25134690657573255
714.0,0.23522628308895954
713.0,0.22322619758789308
712.0,0.21424320003735708
711.0,0.20704829174986794
710.0,0.20072839165012724
709.0,0.19477108579657387
708.0,0.18902860017779255
707.0,0.18342730397389695
706.0,0.17796275192741495
705.0,0.17282465170130723
704.0,0.16793838540927308
703.0,0.16291684917681404
702.0,0.15745316350498495
701.0,0.15162611615539823
700.0,0.1456332219591303
699.0,0.13978181533124334
698.0,0.13406733180681396
697.0,0.1287190271420271
696.0,0.12395544975390482
695.0,0.11992991593593283
694.0,0.11667932161702477
693.0,0.11407366019856902
692.0,0.11182050608167504
691.0,0.1098585399354226
690.0,0.1082953237608173
689.0,0.10723776538418317
688.0,0.10651565378151395
687.0,0.10579474085791629
686.0,0.10490910306560064
685.0,0.10402526764093545
684.0,0.10347378251044459
683.0,0.10347378251044459
682.0,0.10402526764093545
681.0,0.10490910306560064
680.0,0.10546241500425357
679.0,0.10490910306560064
678.0,0.10308815917397474
677.0,0.1005078038618683
676.0,0.09794268919153337
675.0,0.09582563171583658
674.0,0.09420411963213149
673.0,0.09301884677114591
672.0,0.0922125568893839
671.0,0.09135416109288674
670.0,0.08990945440593179
669.0,0.08783110394037297
668.0,0.0856568428805593
667.0,0.08465293767580806
666.0,0.08491689834879956
665.0,0.08475850269380558
664.0,0.08365134772453975
663.0,0.08217951800630297
662.0,0.08086958613938555
661.0,0.07992887570247587
660.0,0.0794592834975203
659.0,0.07951143534170213
658.0,0.08003329851661278
657.0,0.08060807322614072
656.0,0.08081727095749947
655.0,0.08039897621588898
654.0,0.07951143534170213
653.0,0.07826151631540124
652.0,0.07685964397479927
651.0,0.07541061433058172
650.0,0.07443009045662374
649.0,0.07422394616325367
648.0,0.07468790850035045
647.0,0.07525564752005143
646.0,0.07551395626608493
645.0,0.07546228222451012
644.0,0.07504911108438939
643.0,0.07427547306393745
642.0,0.07329750581735506
641.0,0.0725783049495814
640.0,0.07252697900472405
639.0,0.07304051161972436
638.0,0.07417242537525759
637.0,0.07618627890881036
636.0,0.079094395835976
635.0,0.08244197917456386
634.0,0.08533956941077814
633.0,0.08708744882390307
632.0,0.0872466963286771
631.0,0.08570974433405087
630.0,0.08301995267961781
629.0,0.08018997982980403
628.0,0.07794959783282618
627.0,0.07623803917129979
626.0,0.07494587968815725
625.0,0.07391491307485598
624.0,0.07309189829456408
623.0,0.07237303755504598
622.0,0.07170658776779781
621.0,0.07119462910671581
620.0,0.07078549626260622
619.0,0.07052998382251041
618.0,0.07047889936889606
617.0,0.07052998382251041
616.0,0.07037674848475972
615.0,0.06971335275448043
614.0,0.06864384953207203
613.0,0.06747550294945781
612.0,0.06646209802829528
611.0,0.06565307326174441
610.0,0.06514819703433927
609.0,0.06509774167768612
608.0,0.06545105233385295
607.0,0.06580465065211571
606.0,0.06605739725873905
605.0,0.0663102910421054
604.0,0.0665127121512945
603.0,0.06625970050306473
602.0,0.06565307326174441
601.0,0.06499684854634524
600.0,0.06444235490698613
599.0,0.06373765809652254
598.0,0.06293368798257193
597.0,0.06263258248271053
596.0,0.06313454102437754
595.0,0.06378795567975115
594.0,0.06393888339001164
593.0,0.06363708040225546
592.0,0.06328524178879635
591.0,0.06253226035662252
590.0,0.06133019897732073
589.0,0.0601813371786204
588.0,0.05963295401433477
587.0,0.05933412752417122
586.0,0.059135024033278416
585.0,0.05943371350990989
584.0,0.05983228596592505
583.0,0.05843887976392925
582.0,0.05330216275425803
581.0,0.044937930324967956
580.0,0.036117771071222604
579.0,0.030351159519274695
578.0,0.029467170231675777
577.0,0.03189079887180224
576.0,0.03465716443937783
575.0,0.03550466044490741
574.0,0.03475124903287918
573.0,0.03503362516890207
572.0,0.03824678581321739
571.0,0.04282386959515394
570.0,0.044937930324967956
569.0,0.042967683653061695
568.0,0.03810452633214956
567.0,0.032545631817259224
566.0,0.029095501846216454
565.0,0.02904906565457588
564.0,0.030957032694186815
563.0,0.03137697904301118
562.0,0.029513651152349718
561.0,0.028770552723758724
560.0,0.03207779326948268
559.0,0.037583306554248797
558.0,0.04010041213405646
557.0,0.03777276864991497
556.0,0.033201453616638954
555.0,0.02932775731028059
554.0,0.027612000892527133
553.0,0.0277045713888604
552.0,0.027797161620935595
551.0,0.025488307262671706
550.0,0.01995115493504329
549.0,0.01318349541446362
548.0,0.007800070204414977
547.0,0.00484762310854614
546.0,0.004628093971837721
545.0,0.007711646202907652
544.0,0.014708281407112
543.0,0.023695883447997224
542.0,0.030118356253500123
541.0,0.03067729388779794
540.0,0.026872146400301444
539.0,0.023100049017062307
538.0,0.02300845469384938
537.0,0.027612000892527133
536.0,0.03508070571335731
535.0,0.04091088563260792
534.0,0.040481623027001756
533.0,0.03376437590141812
532.0,0.025902996205869
531.0,0.022139270735302752
530.0,0.02259651912656535
529.0,0.023237476732539397
528.0,0.021819483062586187
527.0,0.02004210665933459
526.0,0.020724852408976924
525.0,0.024246610963712723
524.0,0.028167720075074953
523.0,0.02969962459782227
522.0,0.027658283674251827
521.0,0.023695883447997224
520.0,0.0211806132671577
519.0,0.02227639471115217
518.0,0.025672564576383117
517.0,0.027936083991977778
516.0,0.02738066094037661
515.0,0.025350165561278004
514.0,0.02475205875931885
513.0,0.027056991894431892
512.0,0.03128362253321426
511.0,0.03437503289075727
510.0,0.03423403581731388
509.0,0.03184406285002961
508.0,0.029839156962686353
507.0,0.02872415126189476
506.0,0.02682594731702781
505.0,0.023695883447997224
504.0,0.02204787879853809
503.0,0.023329119375188556
502.0,0.02498200236711723
501.0,0.024108863598207186
500.0,0.022230681908425698
499.0,0.023100049017062307
498.0,0.026595025589939425
497.0,0.02863136320857662
496.0,0.02682594731702781
495.0,0.023191662661933732
494.0,0.020861530453190058
493.0,0.020542681902151694
492.0,0.0214542995372613
491.0,0.02277955336461468
490.0,0.023971159908874107
489.0,0.024798037742147727
488.0,0.025995203102585407
487.0,0.027843464140506313
486.0,0.028863370523193765
485.0,0.027565723042634938
484.0,0.02516604495145991
483.0,0.02461415101053266
482.0,0.026410376572743033
481.0,0.028538594975413334
480.0,0.029653123769906697
479.0,0.030071810571884017
478.0,0.02969962459782227
477.0,0.027658283674251827
476.0,0.025258095499050004
475.0,0.025350165561278004
474.0,0.02826040911222183
473.0,0.030537492025363155
472.0,0.029746130405213123
471.0,0.02798240132598462
470.0,0.029002634427514717
469.0,0.03385826726096752
468.0,0.04010041213405646
467.0,0.044793462458058375
466.0,0.04638525830935958
465.0,0.044793462458058375
464.0,0.04057697805689475
463.0,0.03498654972775217
462.0,0.029932203450862893
461.0,0.02751945012352408
460.0,0.028816959143838528
459.0,0.032545631817259224
458.0,0.035740369803151095
457.0,0.03630659476198117
456.0,0.03512779136222477
455.0,0.033952178923546183
454.0,0.03277974021703267
453.0,0.031236951802751545
452.0,0.029885677714903025
451.0,0.02960662792039992
450.0,0.029885677714903025
