cm-1,A
4000.0,0.007093181776687496
3999.0,0.007004901568658406
3998.0,0.006916639301937977
3997.0,0.006872514894289861
3996.0,0.006872514894289861
3995.0,0.006916639301937977
3994.0,0.00696076819309055
3993.0,0.007004901568658406
3992.0,0.007004901568658406
3991.0,0.007004901568658406
3990.0,0.007049039429553483
3989.0,0.007093181776687496
3988.0,0.007137328610972382
3987.0,0.007225635744644521
3986.0,0.007269796045857202
3985.0,0.007269796045857202
3984.0,0.007269796045857202
3983.0,0.007225635744644521
3982.0,0.007181479933320523
3981.0,0.007093181776687496
3980.0,0.007093181776687496
3979.0,0.007093181776687496
3978.0,0.007137328610972382
3977.0,0.007137328610972382
3976.0,0.007093181776687496
3975.0,0.007049039429553483
3974.0,0.007004901568658406
3973.0,0.007004901568658406
3972.0,0.007093181776687496
3971.0,0.007137328610972382
3970.0,0.007093181776687496
3969.0,0.007049039429553483
3968.0,0.006916639301937977
3967.0,0.006828394969235152
3966.0,0.006740168563263094
3965.0,0.006740168563263094
3964.0,0.006784279525863024
3963.0,0.006872514894289861
3962.0,0.00696076819309055
3961.0,0.007049039429553483
3960.0,0.007137328610972382
3959.0,0.007137328610972382
3958.0,0.007049039429553483
3957.0,0.00696076819309055
3956.0,0.006872514894289861
3955.0,0.006828394969235152
3954.0,0.006872514894289861
3953.0,0.006916639301937977
3952.0,0.007004901568658406
3951.0,0.007004901568658406
3950.0,0.00696076819309055
3949.0,0.00696076819309055
3948.0,0.007004901568658406
3947.0,0.007093181776687496
3946.0,0.007137328610972382
3945.0,0.007137328610972382
3944.0,0.007049039429553483
3943.0,0.006916639301937977
3942.0,0.006872514894289861
3941.0,0.006916639301937977
3940.0,0.006916639301937977
3939.0,0.00696076819309055
3938.0,0.00696076819309055
3937.0,0.00696076819309055
3936.0,0.007049039429553483
3935.0,0.007093181776687496
3934.0,0.007137328610972382
3933.0,0.007181479933320523
3932.0,0.007313960837872058
3931.0,0.007402303897961815
3930.0,0.0074464821678643656
3929.0,0.0074464821678643656
3928.0,0.007402303897961815
3927.0,0.007402303897961815
3926.0,0.007313960837872058
3925.0,0.007269796045857202
3924.0,0.007225635744644521
3923.0,0.007181479933320523
3922.0,0.007137328610972382
3921.0,0.007093181776687496
3920.0,0.007137328610972382
3919.0,0.007225635744644521
3918.0,0.007358130121602358
3917.0,0.007358130121602358
3916.0,0.007313960837872058
3915.0,0.007225635744644521
3914.0,0.007181479933320523
3913.0,0.007181479933320523
3912.0,0.007181479933320523
3911.0,0.007225635744644521
3910.0,0.007358130121602358
3909.0,0.0074464821678643656
3908.0,0.007534852191956709
3907.0,0.007490664932224611
3906.0,0.007358130121602358
3905.0,0.007093181776687496
3904.0,0.007004901568658406
3903.0,0.007225635744644521
3902.0,0.0075790439479759275
3901.0,0.007844288957383316
3900.0,0.007800070204414977
3899.0,0.0075790439479759275
3898.0,0.007358130121602358
3897.0,0.007269796045857202
3896.0,0.007225635744644521
3895.0,0.007269796045857202
3894.0,0.007402303897961815
3893.0,0.007490664932224611
3892.0,0.0074464821678643656
3891.0,0.007269796045857202
3890.0,0.007181479933320523
3889.0,0.007225635744644521
3888.0,0.007358130121602358
3887.0,0.007269796045857202
3886.0,0.007093181776687496
3885.0,0.007093181776687496
3884.0,0.007269796045857202
3883.0,0.0075790439479759275
3882.0,0.007755855953228474
3881.0,0.007667440952535687
3880.0,0.007490664932224611
3879.0,0.007313960837872058
3878.0,0.007313960837872058
3877.0,0.007358130121602358
3876.0,0.007402303897961815
3875.0,0.007313960837872058
3874.0,0.007269796045857202
3873.0,0.007402303897961815
3872.0,0.007490664932224611
3871.0,0.007402303897961815
3870.0,0.007093181776687496
3869.0,0.00696076819309055
3868.0,0.007049039429553483
3867.0,0.007181479933320523
3866.0,0.007093181776687496
3865.0,0.00696076819309055
3864.0,0.007049039429553483
3863.0,0.007269796045857202
3862.0,0.007358130121602358
3861.0,0.007313960837872058
3860.0,0.007225635744644521
3859.0,0.007093181776687496
3858.0,0.007049039429553483
3857.0,0.007093181776687496
3856.0,0.007181479933320523
3855.0,0.007049039429553483
3854.0,0.006916639301937977
3853.0,0.00696076819309055
3852.0,0.007049039429553483
3851.0,0.007181479933320523
3850.0,0.007225635744644521
3849.0,0.007225635744644521
3848.0,0.007225635744644521
3847.0,0.007269796045857202
3846.0,0.007358130121602358
3845.0,0.007313960837872058
3844.0,0.007181479933320523
3843.0,0.007093181776687496
3842.0,0.007004901568658406
3841.0,0.00696076819309055
3840.0,0.00696076819309055
3839.0,0.007004901568658406
3838.0,0.007093181776687496
3837.0,0.007181479933320523
3836.0,0.007269796045857202
3835.0,0.007313960837872058
3834.0,0.007313960837872058
3833.0,0.007269796045857202
3832.0,0.007181479933320523
3831.0,0.007181479933320523
3830.0,0.007269796045857202
3829.0,0.007402303897961815
3828.0,0.0074464821678643656
3827.0,0.007358130121602358
3826.0,0.007269796045857202
3825.0,0.007358130121602358
3824.0,0.007534852191956709
3823.0,0.007490664932224611
3822.0,0.007225635744644521
3821.0,0.007049039429553483
3820.0,0.007004901568658406
3819.0,0.007049039429553483
3818.0,0.007049039429553483
3817.0,0.006740168563263094
3816.0,0.006475596832934416
3815.0,0.006519680930003435
3814.0,0.006740168563263094
3813.0,0.00696076819309055
3812.0,0.007049039429553483
3811.0,0.007049039429553483
3810.0,0.007093181776687496
3809.0,0.007049039429553483
3808.0,0.006872514894289861
3807.0,0.006607862550997545
3806.0,0.00656376950238835
3805.0,0.006784279525863024
3804.0,0.00696076819309055
3803.0,0.006828394969235152
3802.0,0.006607862550997545
3801.0,0.006651960076740071
3800.0,0.00696076819309055
3799.0,0.007269796045857202
3798.0,0.0074464821678643656
3797.0,0.007402303897961815
3796.0,0.007269796045857202
3795.0,0.007225635744644521
3794.0,0.007181479933320523
3793.0,0.007093181776687496
3792.0,0.007049039429553483
3791.0,0.007004901568658406
3790.0,0.007049039429553483
3789.0,0.007049039429553483
3788.0,0.007093181776687496
3787.0,0.007137328610972382
3786.0,0.007225635744644521
3785.0,0.007313960837872058
3784.0,0.007402303897961815
3783.0,0.0074464821678643656
3782.0,0.007534852191956709
3781.0,0.007490664932224611
3780.0,0.0074464821678643656
3779.0,0.007313960837872058
3778.0,0.007269796045857202
3777.0,0.007181479933320523
3776.0,0.007049039429553483
3775.0,0.006916639301937977
3774.0,0.006916639301937977
3773.0,0.007049039429553483
3772.0,0.007181479933320523
3771.0,0.007225635744644521
3770.0,0.007225635744644521
3769.0,0.007313960837872058
3768.0,0.0074464821678643656
3767.0,0.007534852191956709
3766.0,0.007490664932224611
3765.0,0.007402303897961815
3764.0,0.007358130121602358
3763.0,0.007358130121602358
3762.0,0.007313960837872058
3761.0,0.007269796045857202
3760.0,0.007313960837872058
3759.0,0.007490664932224611
3758.0,0.00762324020119709
3757.0,0.0075790439479759275
3756.0,0.007490664932224611
3755.0,0.007313960837872058
3754.0,0.007004901568658406
3753.0,0.006519680930003435
3752.0,0.00621118618129457
3751.0,0.00625524344553785
3750.0,0.006343371384537999
3749.0,0.006387442061109638
3748.0,0.00656376950238835
3747.0,0.006872514894289861
3746.0,0.007004901568658406
3745.0,0.006872514894289861
3744.0,0.006872514894289861
3743.0,0.007093181776687496
3742.0,0.0074464821678643656
3741.0,0.007534852191956709
3740.0,0.007490664932224611
3739.0,0.007402303897961815
3738.0,0.007358130121602358
3737.0,0.007313960837872058
3736.0,0.007358130121602358
3735.0,0.0075790439479759275
3734.0,0.007667440952535687
3733.0,0.007534852191956709
3732.0,0.007225635744644521
3731.0,0.00696076819309055
3730.0,0.006828394969235152
3729.0,0.006828394969235152
3728.0,0.006784279525863024
3727.0,0.006828394969235152
3726.0,0.007049039429553483
3725.0,0.007269796045857202
3724.0,0.007358130121602358
3723.0,0.007269796045857202
3722.0,0.007093181776687496
3721.0,0.006916639301937977
3720.0,0.006828394969235152
3719.0,0.006784279525863024
3718.0,0.006784279525863024
3717.0,0.006872514894289861
3716.0,0.007004901568658406
3715.0,0.007137328610972382
3714.0,0.007137328610972382
3713.0,0.006916639301937977
3712.0,0.006740168563263094
3711.0,0.006740168563263094
3710.0,0.006872514894289861
3709.0,0.006916639301937977
3708.0,0.006872514894289861
3707.0,0.006784279525863024
3706.0,0.006740168563263094
3705.0,0.006784279525863024
3704.0,0.006916639301937977
3703.0,0.007004901568658406
3702.0,0.007049039429553483
3701.0,0.00696076819309055
3700.0,0.006916639301937977
3699.0,0.006872514894289861
3698.0,0.006828394969235152
3697.0,0.006696062080525422
3696.0,0.00656376950238835
3695.0,0.006519680930003435
3694.0,0.006475596832934416
3693.0,0.006387442061109638
3692.0,0.006387442061109638
3691.0,0.006519680930003435
3690.0,0.006696062080525422
3689.0,0.006740168563263094
3688.0,0.006607862550997545
3687.0,0.006519680930003435
3686.0,0.00656376950238835
3685.0,0.006651960076740071
3684.0,0.006696062080525422
3683.0,0.006740168563263094
3682.0,0.006784279525863024
3681.0,0.006740168563263094
3680.0,0.006607862550997545
3679.0,0.00656376950238835
3678.0,0.00656376950238835
3677.0,0.006431517210272464
3676.0,0.006343371384537999
3675.0,0.006387442061109638
3674.0,0.00656376950238835
3673.0,0.006872514894289861
3672.0,0.007004901568658406
3671.0,0.00696076819309055
3670.0,0.00696076819309055
3669.0,0.007093181776687496
3668.0,0.007137328610972382
3667.0,0.007137328610972382
3666.0,0.007093181776687496
3665.0,0.00696076819309055
3664.0,0.006916639301937977
3663.0,0.006916639301937977
3662.0,0.006916639301937977
3661.0,0.006872514894289861
3660.0,0.006916639301937977
3659.0,0.00696076819309055
3658.0,0.007049039429553483
3657.0,0.007137328610972382
3656.0,0.007225635744644521
3655.0,0.007402303897961815
3654.0,0.00762324020119709
3653.0,0.007888512213050314
3652.0,0.008021209005416363
3651.0,0.008021209005416363
3650.0,0.008198201155356077
3649.0,0.008330992620051436
3648.0,0.008286724286910463
3647.0,0.008153946355103248
3646.0,0.008065450281052211
3645.0,0.008021209005416363
3644.0,0.007976972236149349
3643.0,0.007888512213050314
3642.0,0.007888512213050314
3641.0,0.007888512213050314
3640.0,0.007932739972333236
3639.0,0.007932739972333236
3638.0,0.007932739972333236
3637.0,0.008021209005416363
3636.0,0.008109696063975047
3635.0,0.008065450281052211
3634.0,0.007932739972333236
3633.0,0.007844288957383316
3632.0,0.007888512213050314
3631.0,0.007932739972333236
3630.0,0.007844288957383316
3629.0,0.007888512213050314
3628.0,0.008021209005416363
3627.0,0.008109696063975047
3626.0,0.008198201155356077
3625.0,0.008286724286910463
3624.0,0.008375265465994541
3623.0,0.008552401996197112
3622.0,0.008773924307505121
3621.0,0.008995559669244813
3620.0,0.009039900317800775
3619.0,0.008995559669244813
3618.0,0.008951223547323472
3617.0,0.008951223547323472
3616.0,0.009039900317800775
3615.0,0.00908424549391551
3614.0,0.009039900317800775
3613.0,0.008995559669244813
3612.0,0.008995559669244813
3611.0,0.009039900317800775
3610.0,0.009128595198514056
3609.0,0.009217308196862062
3608.0,0.009350411681145587
3607.0,0.009483555971770974
3606.0,0.009572341514736404
3605.0,0.00966114521239847
3604.0,0.00966114521239847
3603.0,0.00966114521239847
3602.0,0.00966114521239847
3601.0,0.009572341514736404
3600.0,0.009572341514736404
3599.0,0.009527946474380489
3598.0,0.009483555971770974
3597.0,0.009439170005980158
3596.0,0.00939478857608056
3595.0,0.009350411681145587
3594.0,0.009350411681145587
3593.0,0.009350411681145587
3592.0,0.009439170005980158
3591.0,0.009527946474380489
3590.0,0.00966114521239847
3589.0,0.009705553871561357
3588.0,0.00974996707218323
3587.0,0.009838807101520963
3586.0,0.009838807101520963
3585.0,0.00974996707218323
3584.0,0.00966114521239847
3583.0,0.009572341514736404
3582.0,0.009572341514736404
3581.0,0.009572341514736404
3580.0,0.009616741093766423
3579.0,0.00966114521239847
3578.0,0.009705553871561357
3577.0,0.00974996707218323
3576.0,0.009838807101520963
3575.0,0.009883233932095559
3574.0,0.009883233932095559
3573.0,0.009927665307847056
3572.0,0.009972101229705377
3571.0,0.010060986715464404
3570.0,0.010060986715464404
3569.0,0.010060986715464404
3568.0,0.010194349063173958
3567.0,0.010505687227290839
3566.0,0.010728208358306901
3565.0,0.01077272626946324
3564.0,0.010683695010048622
3563.0,0.010505687227290839
3562.0,0.01037222925484893
3561.0,0.01037222925484893
3560.0,0.010416710688994968
3559.0,0.01046119667949763
3558.0,0.010416710688994968
3557.0,0.01037222925484893
3556.0,0.010327752376126709
3555.0,0.010327752376126709
3554.0,0.01037222925484893
3553.0,0.010416710688994968
3552.0,0.010505687227290839
3551.0,0.010639186223752484
3550.0,0.010683695010048622
3549.0,0.010683695010048622
3548.0,0.010639186223752484
3547.0,0.010550182333308289
3546.0,0.010594681998483901
3545.0,0.010639186223752484
3544.0,0.010683695010048622
3543.0,0.010683695010048622
3542.0,0.010728208358306901
3541.0,0.01077272626946324
3540.0,0.010817248744452446
3539.0,0.010817248744452446
3538.0,0.010683695010048622
3537.0,0.010550182333308289
3536.0,0.01046119667949763
3535.0,0.01046119667949763
3534.0,0.010594681998483901
3533.0,0.010683695010048622
3532.0,0.010817248744452446
3531.0,0.010995384301463185
3530.0,0.01117359295472431
3529.0,0.011307297450183107
3528.0,0.011396456654336085
3527.0,0.011351874764248926
3526.0,0.011218156546359825
3525.0,0.011084479487313281
3524.0,0.011039929609661936
3523.0,0.010995384301463185
3522.0,0.011039929609661936
3521.0,0.011039929609661936
3520.0,0.010995384301463185
3519.0,0.010995384301463185
3518.0,0.010995384301463185
3517.0,0.011039929609661936
3516.0,0.011129033935354915
3515.0,0.011262724711199823
3514.0,0.011351874764248926
3513.0,0.011441043121384498
3512.0,0.011485634166333858
3511.0,0.011485634166333858
3510.0,0.011396456654336085
3509.0,0.011351874764248926
3508.0,0.011262724711199823
3507.0,0.011218156546359825
3506.0,0.01117359295472431
3505.0,0.01117359295472431
3504.0,0.01117359295472431
3503.0,0.011218156546359825
3502.0,0.011262724711199823
3501.0,0.011307297450183107
3500.0,0.011262724711199823
3499.0,0.011218156546359825
3498.0,0.01117359295472431
3497.0,0.011129033935354915
3496.0,0.011084479487313281
3495.0,0.011084479487313281
3494.0,0.011129033935354915
3493.0,0.011218156546359825
3492.0,0.011351874764248926
3491.0,0.011485634166333858
3490.0,0.011619434777991433
3489.0,0.011664044143949504
3488.0,0.011708658092512314
3487.0,0.011708658092512314
3486.0,0.011708658092512314
3485.0,0.011619434777991433
3484.0,0.011574829993696856
3483.0,0.011574829993696856
3482.0,0.011619434777991433
3481.0,0.011708658092512314
3480.0,0.011753276624621556
3479.0,0.011708658092512314
3478.0,0.011664044143949504
3477.0,0.011619434777991433
3476.0,0.011574829993696856
3475.0,0.011574829993696856
3474.0,0.011574829993696856
3473.0,0.011574829993696856
3472.0,0.011619434777991433
3471.0,0.011753276624621556
3470.0,0.011931796607364653
3469.0,0.012065734767841452
3468.0,0.012110390002254778
3467.0,0.012065734767841452
3466.0,0.012021084124518078
3465.0,0.0119764380713403
3464.0,0.0119764380713403
3463.0,0.012021084124518078
3462.0,0.012110390002254778
3461.0,0.012110390002254778
3460.0,0.012110390002254778
3459.0,0.012065734767841452
3458.0,0.0119764380713403
3457.0,0.011931796607364653
3456.0,0.011842527443247208
3455.0,0.011797899741219142
3454.0,0.011842527443247208
3453.0,0.011887159731648111
3452.0,0.012021084124518078
3451.0,0.012110390002254778
3450.0,0.012199714248127602
3449.0,0.012244383261476699
3448.0,0.012333735073725371
3447.0,0.012378417874516323
3446.0,0.012423105273012602
3445.0,0.012423105273012602
3444.0,0.012333735073725371
3443.0,0.012244383261476699
3442.0,0.01215504982870197
3441.0,0.012110390002254778
3440.0,0.012110390002254778
3439.0,0.01215504982870197
3438.0,0.012244383261476699
3437.0,0.012289056869694281
3436.0,0.012289056869694281
3435.0,0.012289056869694281
3434.0,0.012289056869694281
3433.0,0.012289056869694281
3432.0,0.012333735073725371
3431.0,0.012467797270160563
3430.0,0.01260190086298274
3429.0,0.012736045877764557
3428.0,0.012736045877764557
3427.0,0.01264661126420652
3426.0,0.012557195064198723
3425.0,0.012467797270160563
3424.0,0.012467797270160563
3423.0,0.012512493866907004
3422.0,0.01260190086298274
3421.0,0.01264661126420652
3420.0,0.01264661126420652
3419.0,0.01264661126420652
3418.0,0.01260190086298274
3417.0,0.01260190086298274
3416.0,0.01264661126420652
3415.0,0.012691326268817527
3414.0,0.012691326268817527
3413.0,0.01264661126420652
3412.0,0.01260190086298274
3411.0,0.012557195064198723
3410.0,0.012557195064198723
3409.0,0.01264661126420652
3408.0,0.012691326268817527
3407.0,0.01264661126420652
3406.0,0.01260190086298274
3405.0,0.012467797270160563
3404.0,0.012333735073725371
3403.0,0.012289056869694281
3402.0,0.012333735073725371
3401.0,0.012467797270160563
3400.0,0.012557195064198723
3399.0,0.01260190086298274
3398.0,0.01260190086298274
3397.0,0.01260190086298274
3396.0,0.01260190086298274
3395.0,0.01264661126420652
3394.0,0.012736045877764557
3393.0,0.012825498912458322
3392.0,0.012870232340102872
3391.0,0.012870232340102872
3390.0,0.012870232340102872
3389.0,0.012914970375878188
3388.0,0.012914970375878188
3387.0,0.012870232340102872
3386.0,0.012825498912458322
3385.0,0.012870232340102872
3384.0,0.012914970375878188
3383.0,0.012870232340102872
3382.0,0.012736045877764557
3381.0,0.01260190086298274
3380.0,0.012512493866907004
3379.0,0.012512493866907004
3378.0,0.012512493866907004
3377.0,0.012557195064198723
3376.0,0.012557195064198723
3375.0,0.01260190086298274
3374.0,0.01264661126420652
3373.0,0.012691326268817527
3372.0,0.012691326268817527
3371.0,0.012736045877764557
3370.0,0.012825498912458322
3369.0,0.012870232340102872
3368.0,0.012870232340102872
3367.0,0.012825498912458322
3366.0,0.012691326268817527
3365.0,0.012512493866907004
3364.0,0.012378417874516323
3363.0,0.012333735073725371
3362.0,0.012333735073725371
3361.0,0.012467797270160563
3360.0,0.01260190086298274
3359.0,0.012691326268817527
3358.0,0.012780770091995297
3357.0,0.012825498912458322
3356.0,0.012914970375878188
3355.0,0.012959713020733288
3354.0,0.012959713020733288
3353.0,0.012959713020733288
3352.0,0.012914970375878188
3351.0,0.012870232340102872
3350.0,0.012780770091995297
3349.0,0.012780770091995297
3348.0,0.012736045877764557
3347.0,0.012780770091995297
3346.0,0.012870232340102872
3345.0,0.012870232340102872
3344.0,0.012870232340102872
3343.0,0.012780770091995297
3342.0,0.012691326268817527
3341.0,0.012691326268817527
3340.0,0.01264661126420652
3339.0,0.01260190086298274
3338.0,0.012512493866907004
3337.0,0.012512493866907004
3336.0,0.01260190086298274
3335.0,0.012691326268817527
3334.0,0.012780770091995297
3333.0,0.012780770091995297
3332.0,0.012736045877764557
3331.0,0.01264661126420652
3330.0,0.01264661126420652
3329.0,0.012691326268817527
3328.0,0.012736045877764557
3327.0,0.012736045877764557
3326.0,0.012736045877764557
3325.0,0.01264661126420652
3324.0,0.01260190086298274
3323.0,0.012512493866907004
3322.0,0.012423105273012602
3321.0,0.012333735073725371
3320.0,0.012333735073725371
3319.0,0.012333735073725371
3318.0,0.012333735073725371
3317.0,0.012423105273012602
3316.0,0.012467797270160563
3315.0,0.012557195064198723
3314.0,0.01260190086298274
3313.0,0.012557195064198723
3312.0,0.012467797270160563
3311.0,0.012378417874516323
3310.0,0.012378417874516323
3309.0,0.012423105273012602
3308.0,0.012423105273012602
3307.0,0.012423105273012602
3306.0,0.012467797270160563
3305.0,0.012512493866907004
3304.0,0.01260190086298274
3303.0,0.01264661126420652
3302.0,0.01264661126420652
3301.0,0.012557195064198723
3300.0,0.012467797270160563
3299.0,0.012423105273012602
3298.0,0.012423105273012602
3297.0,0.012423105273012602
3296.0,0.012423105273012602
3295.0,0.012467797270160563
3294.0,0.012512493866907004
3293.0,0.012557195064198723
3292.0,0.01264661126420652
3291.0,0.01264661126420652
3290.0,0.012557195064198723
3289.0,0.012423105273012602
3288.0,0.012244383261476699
3287.0,0.012110390002254778
3286.0,0.012065734767841452
3285.0,0.012065734767841452
3284.0,0.012110390002254778
3283.0,0.01215504982870197
3282.0,0.012110390002254778
3281.0,0.012065734767841452
3280.0,0.012065734767841452
3279.0,0.01215504982870197
3278.0,0.012244383261476699
3277.0,0.012289056869694281
3276.0,0.012289056869694281
3275.0,0.012289056869694281
3274.0,0.012244383261476699
3273.0,0.012333735073725371
3272.0,0.012423105273012602
3271.0,0.012467797270160563
3270.0,0.012467797270160563
3269.0,0.012423105273012602
3268.0,0.012289056869694281
3267.0,0.01215504982870197
3266.0,0.012065734767841452
3265.0,0.012065734767841452
3264.0,0.012110390002254778
3263.0,0.01215504982870197
3262.0,0.012199714248127602
3261.0,0.01215504982870197
3260.0,0.01215504982870197
3259.0,0.012110390002254778
3258.0,0.012065734767841452
3257.0,0.012021084124518078
3256.0,0.012021084124518078
3255.0,0.0119764380713403
3254.0,0.0119764380713403
3253.0,0.012021084124518078
3252.0,0.012065734767841452
3251.0,0.012065734767841452
3250.0,0.012110390002254778
3249.0,0.012110390002254778
3248.0,0.012065734767841452
3247.0,0.012065734767841452
3246.0,0.012065734767841452
3245.0,0.012110390002254778
3244.0,0.012199714248127602
3243.0,0.012244383261476699
3242.0,0.01215504982870197
3241.0,0.0119764380713403
3240.0,0.011797899741219142
3239.0,0.011664044143949504
3238.0,0.011574829993696856
3237.0,0.011530229790124524
3236.0,0.011574829993696856
3235.0,0.011664044143949504
3234.0,0.011708658092512314
3233.0,0.011753276624621556
3232.0,0.011797899741219142
3231.0,0.011797899741219142
3230.0,0.011753276624621556
3229.0,0.011664044143949504
3228.0,0.011619434777991433
3227.0,0.011664044143949504
3226.0,0.011664044143949504
3225.0,0.011708658092512314
3224.0,0.011753276624621556
3223.0,0.011797899741219142
3222.0,0.011931796607364653
3221.0,0.0119764380713403
3220.0,0.0119764380713403
3219.0,0.011887159731648111
3218.0,0.011753276624621556
3217.0,0.011619434777991433
3216.0,0.011574829993696856
3215.0,0.011619434777991433
3214.0,0.011619434777991433
3213.0,0.011574829993696856
3212.0,0.011485634166333858
3211.0,0.011351874764248926
3210.0,0.011262724711199823
3209.0,0.01117359295472431
3208.0,0.011129033935354915
3207.0,0.011129033935354915
3206.0,0.01117359295472431
3205.0,0.011218156546359825
3204.0,0.011307297450183107
3203.0,0.011396456654336085
3202.0,0.011441043121384498
3201.0,0.011485634166333858
3200.0,0.011441043121384498
3199.0,0.011351874764248926
3198.0,0.011218156546359825
3197.0,0.011129033935354915
3196.0,0.011084479487313281
3195.0,0.011084479487313281
3194.0,0.011084479487313281
3193.0,0.011084479487313281
3192.0,0.010995384301463185
3191.0,0.010906307389674463
3190.0,0.010817248744452446
3189.0,0.010817248744452446
3188.0,0.010906307389674463
3187.0,0.011039929609661936
3186.0,0.011129033935354915
3185.0,0.011129033935354915
3184.0,0.011039929609661936
3183.0,0.010906307389674463
3182.0,0.01077272626946324
3181.0,0.010639186223752484
3180.0,0.010550182333308289
3179.0,0.010550182333308289
3178.0,0.010594681998483901
3177.0,0.010683695010048622
3176.0,0.010683695010048622
3175.0,0.010683695010048622
3174.0,0.010639186223752484
3173.0,0.010594681998483901
3172.0,0.010594681998483901
3171.0,0.010683695010048622
3170.0,0.010728208358306901
3169.0,0.010728208358306901
3168.0,0.010683695010048622
3167.0,0.010639186223752484
3166.0,0.010594681998483901
3165.0,0.010550182333308289
3164.0,0.010505687227290839
3163.0,0.01046119667949763
3162.0,0.01037222925484893
3161.0,0.01023881228122181
3160.0,0.010149890396819572
3159.0,0.010060986715464404
3158.0,0.01001654169860089
3157.0,0.009927665307847056
3156.0,0.009838807101520963
3155.0,0.009794384815193347
3154.0,0.00974996707218323
3153.0,0.009794384815193347
3152.0,0.009794384815193347
3151.0,0.00974996707218323
3150.0,0.009705553871561357
3149.0,0.009616741093766423
3148.0,0.009572341514736404
3147.0,0.009616741093766423
3146.0,0.00966114521239847
3145.0,0.00966114521239847
3144.0,0.009616741093766423
3143.0,0.009572341514736404
3142.0,0.009483555971770974
3141.0,0.009483555971770974
3140.0,0.009483555971770974
3139.0,0.009439170005980158
3138.0,0.009350411681145587
3137.0,0.009261671492462709
3136.0,0.009217308196862062
3135.0,0.009172949432521227
3134.0,0.009128595198514056
3133.0,0.009128595198514056
3132.0,0.009217308196862062
3131.0,0.009261671492462709
3130.0,0.009261671492462709
3129.0,0.009217308196862062
3128.0,0.009128595198514056
3127.0,0.009039900317800775
3126.0,0.008951223547323472
3125.0,0.008862564879688284
3124.0,0.008685301823389224
3123.0,0.008596697419959609
3122.0,0.008552401996197112
3121.0,0.008596697419959609
3120.0,0.008640997362049818
3119.0,0.008640997362049818
3118.0,0.008596697419959609
3117.0,0.008552401996197112
3116.0,0.00850811108984062
3115.0,0.00850811108984062
3114.0,0.00850811108984062
3113.0,0.008552401996197112
3112.0,0.008596697419959609
3111.0,0.008640997362049818
3110.0,0.008640997362049818
3109.0,0.008596697419959609
3108.0,0.008552401996197112
3107.0,0.00850811108984062
3106.0,0.00850811108984062
3105.0,0.008419542825660153
3104.0,0.008375265465994541
3103.0,0.008330992620051436
3102.0,0.008286724286910463
3101.0,0.008330992620051436
3100.0,0.008375265465994541
3099.0,0.008419542825660153
3098.0,0.008419542825660153
3097.0,0.008330992620051436
3096.0,0.008286724286910463
3095.0,0.008242460465651913
3094.0,0.008286724286910463
3093.0,0.008286724286910463
3092.0,0.008330992620051436
3091.0,0.008375265465994541
3090.0,0.008419542825660153
3089.0,0.008419542825660153
3088.0,0.008463824699968647
3087.0,0.00850811108984062
3086.0,0.008596697419959609
3085.0,0.008596697419959609
3084.0,0.008552401996197112
3083.0,0.008419542825660153
3082.0,0.008242460465651913
3081.0,0.008153946355103248
3080.0,0.008109696063975047
3079.0,0.008153946355103248
3078.0,0.008109696063975047
3077.0,0.008021209005416363
3076.0,0.007844288957383316
3075.0,0.007755855953228474
3074.0,0.007711646202907652
3073.0,0.007711646202907652
3072.0,0.007711646202907652
3071.0,0.007667440952535687
3070.0,0.007667440952535687
3069.0,0.00762324020119709
3068.0,0.0075790439479759275
3067.0,0.007534852191956709
3066.0,0.007490664932224611
3065.0,0.0074464821678643656
3064.0,0.0074464821678643656
3063.0,0.007402303897961815
3062.0,0.007402303897961815
3061.0,0.007402303897961815
3060.0,0.007402303897961815
3059.0,0.007358130121602358
3058.0,0.007358130121602358
3057.0,0.007313960837872058
3056.0,0.007313960837872058
3055.0,0.007269796045857202
3054.0,0.007269796045857202
3053.0,0.007225635744644521
3052.0,0.007225635744644521
3051.0,0.007181479933320523
3050.0,0.007137328610972382
3049.0,0.007093181776687496
3048.0,0.007093181776687496
3047.0,0.007049039429553483
3046.0,0.00696076819309055
3045.0,0.006916639301937977
3044.0,0.006916639301937977
3043.0,0.006872514894289861
3042.0,0.006828394969235152
3041.0,0.006784279525863024
3040.0,0.006740168563263094
3039.0,0.006651960076740071
3038.0,0.006607862550997545
3037.0,0.006519680930003435
3036.0,0.006431517210272464
3035.0,0.006387442061109638
3034.0,0.006299305179649828
3033.0,0.006299305179649828
3032.0,0.006299305179649828
3031.0,0.00625524344553785
3030.0,0.00625524344553785
3029.0,0.00621118618129457
3028.0,0.00612308505878878
3027.0,0.006035001804881146
3026.0,0.00590291041179003
3025.0,0.005726851026829571
3024.0,0.005506877116487674
3023.0,0.005330978174470591
3022.0,0.005199100705396198
3021.0,0.005111204635089406
3020.0,0.005023326350308999
3019.0,0.004935465843858511
3018.0,0.00484762310854614
3017.0,0.004759798137184523
3016.0,0.004628093971837721
3015.0,0.004452550524862486
3014.0,0.004277078004534696
3013.0,0.004101676353562844
3012.0,0.003970171588923321
3011.0,0.0038825238627120395
3010.0,0.0037510854308679953
3009.0,0.0036634819042162814
3008.0,0.0035321097382827737
3007.0,0.0033570086445275926
3006.0,0.0032257291386954545
3005.0,0.0030944893043338695
3004.0,0.0030070181092942683
3003.0,0.0029632891174733444
3002.0,0.0028758443407954637
3001.0,0.0027447101798967477
3000.0,0.0025262411970197185
2999.0,0.002351545103793873
2998.0,0.0022642234021015284
2997.0,0.0022642234021015284
2996.0,0.002351545103793873
2995.0,0.002351545103793873
2994.0,0.0023078820582733695
2993.0,0.0021332737608552588
2992.0,0.0018714928717336043
2991.0,0.001609869681952425
2990.0,0.0014355417390583547
2989.0,0.001348404001626502
2988.0,0.0013919706849057079
2987.0,0.0014355417390583547
2986.0,0.0014791171649619628
2985.0,0.001609869681952425
2984.0,0.0017406615763013722
2983.0,0.0018278780605593958
2982.0,0.0018714928717336043
2981.0,0.0019587356365717845
2980.0,0.0020023635919956817
2979.0,0.002089632653256679
2978.0,0.0022205691343961664
2977.0,0.002395212539545666
2976.0,0.0025262411970197185
2975.0,0.0027447101798967477
2974.0,0.0030070181092942683
2973.0,0.0032694845648473247
2972.0,0.0035321097382827737
2971.0,0.0038387066319929275
2970.0,0.004189368323957332
2969.0,0.004628093971837721
2968.0,0.005067263269958211
2967.0,0.005462895701502157
2966.0,0.00590291041179003
2965.0,0.006299305179649828
2964.0,0.006740168563263094
2963.0,0.007269796045857202
2962.0,0.007800070204414977
2961.0,0.008330992620051436
2960.0,0.008906891951112605
2959.0,0.00939478857608056
2958.0,0.009883233932095559
2957.0,0.010283280051895272
2956.0,0.010683695010048622
2955.0,0.011129033935354915
2954.0,0.011574829993696856
2953.0,0.012065734767841452
2952.0,0.01260190086298274
2951.0,0.013138729709955221
2950.0,0.013765869865004277
2949.0,0.014573525916998342
2948.0,0.015607721475734415
2947.0,0.016870075265299933
2946.0,0.01831727262871463
2945.0,0.01995115493504329
2944.0,0.021865152601710403
2943.0,0.02406295751688936
2942.0,0.02654885597506529
2941.0,0.029281296279810798
2940.0,0.032218091924200776
2939.0,0.035363296211498474
2938.0,0.03876880295533702
2937.0,0.04248848854552012
2936.0,0.04653025674659861
2935.0,0.05085404758005607
2934.0,0.05551732784983132
2933.0,0.06058059667068294
2932.0,0.06610796423578891
2931.0,0.07216786713341827
2930.0,0.07872981449018734
2929.0,0.08581556657675371
2928.0,0.09361107884716913
2927.0,0.1022080180607754
2926.0,0.11193288659256306
2925.0,0.12291674334934943
2924.0,0.13519237097385295
2923.0,0.14868048735125483
2922.0,0.16329620091026875
2921.0,0.1788141173911546
2920.0,0.1946350925335547
2919.0,0.2101373699536182
2918.0,0.22388020094701222
2917.0,0.2344059446805551
2916.0,0.24025663240227502
2915.0,0.24086118371883347
2914.0,0.23657200643706267
2913.0,0.22870655737094037
2912.0,0.21881927906273835
2911.0,0.20823919598709506
2910.0,0.19777376230892996
2909.0,0.1879561020697733
2908.0,0.17907641211868253
2907.0,0.17108243838331405
2906.0,0.16411926818260536
2905.0,0.15801519540988607
2904.0,0.15267416921457633
2903.0,0.1479471913021495
2902.0,0.1438755557576996
2901.0,0.14032142337155173
2900.0,0.13727247168202528
2899.0,0.13448148092522594
2898.0,0.13176713157753506
2897.0,0.1290696416513042
2896.0,0.12627261935332057
2895.0,0.12349349573411894
2894.0,0.12056003400478299
2893.0,0.11764625361128611
2892.0,0.11463877996848804
2891.0,0.11165198982195101
2890.0,0.10857405715200596
2889.0,0.10546241500425357
2888.0,0.10231793820358015
2887.0,0.09919606518963042
2886.0,0.0960964733098364
2885.0,0.09296504751658308
2884.0,0.08980263003399913
2883.0,0.08655704514060414
2882.0,0.08328292240118751
2881.0,0.07998108397108505
2880.0,0.07665234350217442
2879.0,0.07334892291111106
2878.0,0.07012147634321675
2877.0,0.06696850489759454
2876.0,0.06398920428479049
2875.0,0.06123017721688262
2874.0,0.05868737463933793
2873.0,0.05650548409389744
2872.0,0.05453141486818014
2871.0,0.05281143447390635
2870.0,0.05134256785867963
2869.0,0.05012229596312534
2868.0,0.04934311749548925
2867.0,0.04900266601119507
2866.0,0.04909991063361274
2865.0,0.04978123335813667
2864.0,0.05100054597304693
2863.0,0.05290953578037816
2862.0,0.055566682299785564
2861.0,0.05923456436878238
2860.0,0.06398920428479049
2859.0,0.07007043991541217
2858.0,0.07763790321520991
2857.0,0.08698131625203986
2856.0,0.09848719087006019
2855.0,0.11260778102815316
2854.0,0.12965462891904034
2853.0,0.1495988520028415
2852.0,0.17172688794793012
2851.0,0.1941594511853273
2850.0,0.21360353862769577
2849.0,0.22665245801917688
2848.0,0.23077041826340627
2847.0,0.2259942697417905
2846.0,0.21438547505317596
2845.0,0.19914550849643908
2844.0,0.1827652695745019
2843.0,0.16698045292346864
2842.0,0.15242734085788778
2841.0,0.13960209487268727
2840.0,0.1284854412916181
2839.0,0.1190150095132465
2838.0,0.11086644403327606
2837.0,0.10385974855798041
2836.0,0.0978882765519955
2835.0,0.09274991711867164
2834.0,0.08825662214406838
2833.0,0.08433639649422697
2832.0,0.08086958613938555
2831.0,0.07779372256098371
2830.0,0.07504911108438939
2829.0,0.07252697900472405
2828.0,0.0702746216219956
2827.0,0.06823711151882228
2826.0,0.0663102910421054
2825.0,0.06454311928839007
2824.0,0.06283329628496737
2823.0,0.06128018521761747
2822.0,0.05988213325228142
2821.0,0.05863766428823891
2820.0,0.05749589383191922
2819.0,0.05630767289398331
2818.0,0.055172003656783764
2817.0,0.054088483180726676
2816.0,0.05310580489767336
2815.0,0.05222329153526162
2814.0,0.05139145012356372
2813.0,0.0506099933550872
2812.0,0.04987865248862655
2811.0,0.04909991063361274
2810.0,0.04841965509660828
2809.0,0.047691990337874746
2808.0,0.04701393480294458
2807.0,0.04638525830935958
2806.0,0.04585401117045196
2805.0,0.045323413081356456
2804.0,0.04484161307420642
2803.0,0.044312249686494276
2802.0,0.0437835307566099
2801.0,0.04320747962950522
2800.0,0.04268010314465909
2799.0,0.04215336629184985
2798.0,0.04167506835594681
2797.0,0.04124505013091051
2796.0,0.04086316882962593
2795.0,0.040481623027001756
2794.0,0.0400527842915015
2793.0,0.03957679292217042
2792.0,0.03905380426616856
2791.0,0.03857890593355173
2790.0,0.038151940981675736
2789.0,0.03782014709123227
2788.0,0.037488606492403154
2787.0,0.037062711569998186
2786.0,0.03658998431977123
2785.0,0.036117771071222604
2784.0,0.035693217696063595
2783.0,0.035363296211498474
2782.0,0.03508070571335731
2781.0,0.03484535401307465
2780.0,0.03461012978487776
2779.0,0.03432802877989327
2778.0,0.03399914237121604
2777.0,0.03367050483612166
2776.0,0.03334211579824231
2775.0,0.033060836978886954
2774.0,0.03277974021703267
2773.0,0.032545631817259224
2772.0,0.03226486821611996
2771.0,0.032031037121307726
2770.0,0.03184406285002961
2769.0,0.031657169041054534
2768.0,0.03142366482450232
2767.0,0.031190286087141805
2766.0,0.030910397045078586
2765.0,0.03063068826647264
2764.0,0.030351159519274695
2763.0,0.030118356253500123
2762.0,0.029885677714903025
2761.0,0.02969962459782227
2760.0,0.029513651152349718
2759.0,0.029374223311705583
2758.0,0.029188389127482228
2757.0,0.029002634427514717
2756.0,0.028863370523193765
2755.0,0.02872415126189476
2754.0,0.02863136320857662
2753.0,0.02858497661500481
2752.0,0.028445846553939003
2751.0,0.028306761050139073
2750.0,0.028167720075074953
2749.0,0.02812138297373412
2748.0,0.028028723600243666
2747.0,0.02798240132598462
2746.0,0.027843464140506313
2745.0,0.0277045713888604
2744.0,0.027565723042634938
2743.0,0.02751945012352408
2742.0,0.02747318213414429
2741.0,0.02747318213414429
2740.0,0.027426919073445077
2739.0,0.027288159452933503
2738.0,0.027149444152769986
2737.0,0.02696455931306696
2736.0,0.02677975314776626
2735.0,0.026595025589939425
2734.0,0.026502691267936695
2733.0,0.02636422658259252
2732.0,0.026225806029419818
2731.0,0.026041313893296225
2730.0,0.025856900097785074
2729.0,0.025672564576383117
2728.0,0.02558042614771394
2727.0,0.025488307262671706
2726.0,0.02544225514642018
2725.0,0.02539620791296726
2724.0,0.025304128090317013
2723.0,0.02516604495145991
2722.0,0.025028005701930978
2721.0,0.024936003904763915
2720.0,0.024890010313838973
2719.0,0.024890010313838973
2718.0,0.02484402159331056
2717.0,0.024798037742147727
2716.0,0.024660115394541604
2715.0,0.024568191490736968
2714.0,0.02438440203310499
2713.0,0.024246610963712723
2712.0,0.024154774532432866
2711.0,0.02406295751688936
2710.0,0.023925268380126097
2709.0,0.023833499868024743
2708.0,0.023695883447997224
2707.0,0.023604163388120325
2706.0,0.02355831062115543
2705.0,0.02351246269481
2704.0,0.023466619608062178
2703.0,0.02342078135989012
2702.0,0.023329119375188556
2701.0,0.023283295636617574
2700.0,0.023283295636617574
2699.0,0.023237476732539397
2698.0,0.02314585342378117
2697.0,0.023054249440757957
2696.0,0.02291687968414724
2695.0,0.02277955336461468
2694.0,0.022642270454698687
2693.0,0.022642270454698687
2692.0,0.022642270454698687
2691.0,0.022642270454698687
2690.0,0.02255077261765881
2689.0,0.022367834754000393
2688.0,0.0221849739168134
2687.0,0.022093572362881675
2686.0,0.02204787879853809
2685.0,0.022093572362881675
2684.0,0.0221849739168134
2683.0,0.02227639471115217
2682.0,0.02227639471115217
2681.0,0.022230681908425698
2680.0,0.022139270735302752
2679.0,0.02200219004126036
2678.0,0.021910826943857264
2677.0,0.021910826943857264
2676.0,0.021956506090037076
2675.0,0.02200219004126036
2674.0,0.02200219004126036
2673.0,0.021956506090037076
2672.0,0.021910826943857264
2671.0,0.021910826943857264
2670.0,0.021956506090037076
2669.0,0.021956506090037076
2668.0,0.021956506090037076
2667.0,0.02200219004126036
2666.0,0.022093572362881675
2665.0,0.022139270735302752
2664.0,0.0221849739168134
2663.0,0.022139270735302752
2662.0,0.02200219004126036
2661.0,0.021956506090037076
2660.0,0.021910826943857264
2659.0,0.021865152601710403
2658.0,0.021865152601710403
2657.0,0.021819483062586187
2656.0,0.021773818325474092
2655.0,0.021773818325474092
2654.0,0.021773818325474092
2653.0,0.021819483062586187
2652.0,0.021865152601710403
2651.0,0.021910826943857264
2650.0,0.021956506090037076
2649.0,0.021956506090037076
2648.0,0.021865152601710403
2647.0,0.02168250325324883
2646.0,0.02159120737696063
2645.0,0.021636852916117055
2644.0,0.02168250325324883
2643.0,0.021728158389364705
2642.0,0.021728158389364705
2641.0,0.02168250325324883
2640.0,0.021636852916117055
2639.0,0.02159120737696063
2638.0,0.021545566634771474
2637.0,0.02159120737696063
2636.0,0.02159120737696063
2635.0,0.02159120737696063
2634.0,0.021545566634771474
2633.0,0.021545566634771474
2632.0,0.0214542995372613
2631.0,0.02140867317992523
2630.0,0.021317434843055594
2629.0,0.021271822861508305
2628.0,0.0211806132671577
2627.0,0.021135015652343103
2626.0,0.021043834782408455
2625.0,0.020907099361673565
2624.0,0.02081596632558158
2623.0,0.02067930261797568
2622.0,0.020542681902151694
2621.0,0.02045162529590483
2620.0,0.02036058777709271
2619.0,0.02026956933771462
2618.0,0.02022406727031445
2617.0,0.02013307743509718
2616.0,0.02004210665933459
2615.0,0.01995115493504329
2614.0,0.01995115493504329
2613.0,0.01995115493504329
2612.0,0.01990568621470623
2611.0,0.019860222254245663
2610.0,0.019769308608968306
2609.0,0.019723858922159776
2608.0,0.019632973815224997
2607.0,0.01958753839310856
2606.0,0.01954210772389997
2605.0,0.019451260640229506
2604.0,0.019360432556262852
2603.0,0.019315025636685412
2602.0,0.0192242260373785
2601.0,0.0190880622231564
2600.0,0.018951941086827073
2599.0,0.018861217359339655
2598.0,0.018815862601645694
2597.0,0.018861217359339655
2596.0,0.018861217359339655
2595.0,0.018861217359339655
2594.0,0.018815862601645694
2593.0,0.018725167293411005
2592.0,0.018679826740892747
2591.0,0.018634490921455527
2590.0,0.01858915983411169
2589.0,0.018543833477873584
2588.0,0.01845319495476394
2587.0,0.01831727262871463
2586.0,0.018271974638383703
2585.0,0.018226681372252695
2584.0,0.018181392829336396
2583.0,0.018136109008649592
2582.0,0.01809082990920774
2581.0,0.01809082990920774
2580.0,0.018045555530026514
2579.0,0.01800028587012159
2578.0,0.017955020928509757
2577.0,0.017864505196230507
2576.0,0.017728766960431575
2575.0,0.01768353030793479
2574.0,0.017638298366853045
2573.0,0.017638298366853045
2572.0,0.017638298366853045
2571.0,0.017547848615010242
2570.0,0.017502630802287644
2569.0,0.017412209298337533
2568.0,0.017321806616515723
2567.0,0.01727661233145472
2566.0,0.01727661233145472
2565.0,0.01727661233145472
2564.0,0.017321806616515723
2563.0,0.017367005605150476
2562.0,0.017412209298337533
2561.0,0.017321806616515723
2560.0,0.017231422748988034
2559.0,0.017095882207371904
2558.0,0.017050711425501408
2557.0,0.017050711425501408
2556.0,0.017095882207371904
2555.0,0.017095882207371904
2554.0,0.017095882207371904
2553.0,0.017095882207371904
2552.0,0.017050711425501408
2551.0,0.017050711425501408
2550.0,0.017005545341335804
2549.0,0.016960383953898095
2548.0,0.016870075265299933
2547.0,0.016824927962187042
2546.0,0.01677978535189717
2545.0,0.016734647433454652
2544.0,0.016644385668211692
2543.0,0.016509028184833463
2542.0,0.016418813294209356
2541.0,0.016373712875465518
2540.0,0.01632861713980338
2539.0,0.01632861713980338
2538.0,0.016238439713835096
2537.0,0.016238439713835096
2536.0,0.01628352608625061
2535.0,0.016373712875465518
2534.0,0.016418813294209356
2533.0,0.01646391839700767
2532.0,0.01646391839700767
2531.0,0.016373712875465518
2530.0,0.01628352608625061
2529.0,0.016193358021584725
2528.0,0.016148281008528276
2527.0,0.016103208673694303
2526.0,0.016103208673694303
2525.0,0.016148281008528276
2524.0,0.016148281008528276
2523.0,0.016058141016111804
2522.0,0.015922966097169144
2521.0,0.015832872853011715
2520.0,0.01578783323856614
2519.0,0.015742798294583915
2518.0,0.01578783323856614
2517.0,0.01578783323856614
2516.0,0.01578783323856614
2515.0,0.01578783323856614
2514.0,0.015832872853011715
2513.0,0.015877917138889863
2512.0,0.015877917138889863
2511.0,0.01578783323856614
2510.0,0.015697768020096703
2509.0,0.015607721475734415
2508.0,0.015562705203923999
2507.0,0.015517693597737248
2506.0,0.01547268665620738
2505.0,0.015427684378367834
2504.0,0.01547268665620738
2503.0,0.01547268665620738
2502.0,0.015427684378367834
2501.0,0.015337693809893471
2500.0,0.015292705517326866
2499.0,0.015292705517326866
2498.0,0.015292705517326866
2497.0,0.015292705517326866
2496.0,0.015247721884586563
2495.0,0.015202742910707112
2494.0,0.015202742910707112
2493.0,0.015202742910707112
2492.0,0.015247721884586563
2491.0,0.015247721884586563
2490.0,0.015247721884586563
2489.0,0.015202742910707112
2488.0,0.015202742910707112
2487.0,0.015112798935672522
2486.0,0.015067833932588037
2485.0,0.015067833932588037
2484.0,0.015067833932588037
2483.0,0.015067833932588037
2482.0,0.015022873584506602
2481.0,0.014977917890464765
2480.0,0.015022873584506602
2479.0,0.015157768594724175
2478.0,0.015202742910707112
2477.0,0.015247721884586563
2476.0,0.015247721884586563
2475.0,0.015202742910707112
2474.0,0.015247721884586563
2473.0,0.015292705517326866
2472.0,0.015247721884586563
2471.0,0.015112798935672522
2470.0,0.014932966849499074
2469.0,0.014798141635428141
2468.0,0.014708281407112
2467.0,0.014663358264387139
2466.0,0.014663358264387139
2465.0,0.014663358264387139
2464.0,0.014663358264387139
2463.0,0.014618439768003144
2462.0,0.014573525916998342
2461.0,0.014573525916998342
2460.0,0.014573525916998342
2459.0,0.014573525916998342
2458.0,0.01452861671041239
2457.0,0.0144837121472845
2456.0,0.014438812226654996
2455.0,0.014438812226654996
2454.0,0.014438812226654996
2453.0,0.0144837121472845
2452.0,0.014573525916998342
2451.0,0.014618439768003144
2450.0,0.014663358264387139
2449.0,0.014573525916998342
2448.0,0.014438812226654996
2447.0,0.014259258949925524
2446.0,0.014169510141607944
2445.0,0.014124642691606404
2444.0,0.014124642691606404
2443.0,0.014169510141607944
2442.0,0.014214382227394795
2441.0,0.014259258949925524
2440.0,0.014304140310157809
2439.0,0.014349026309051105
2438.0,0.014349026309051105
2437.0,0.014259258949925524
2436.0,0.014214382227394795
2435.0,0.014214382227394795
2434.0,0.014259258949925524
2433.0,0.014259258949925524
2432.0,0.014259258949925524
2431.0,0.014214382227394795
2430.0,0.014169510141607944
2429.0,0.014169510141607944
2428.0,0.014169510141607944
2427.0,0.014169510141607944
2426.0,0.014214382227394795
2425.0,0.014259258949925524
2424.0,0.014259258949925524
2423.0,0.014214382227394795
2422.0,0.014169510141607944
2421.0,0.014169510141607944
2420.0,0.014079779876432497
2419.0,0.01403492169512921
2418.0,0.013990068146738865
2417.0,0.013990068146738865
2416.0,0.014079779876432497
2415.0,0.014214382227394795
2414.0,0.014304140310157809
2413.0,0.014349026309051105
2412.0,0.014349026309051105
2411.0,0.014259258949925524
2410.0,0.014124642691606404
2409.0,0.01403492169512921
2408.0,0.01403492169512921
2407.0,0.01403492169512921
2406.0,0.014079779876432497
2405.0,0.014079779876432497
2404.0,0.01403492169512921
2403.0,0.013990068146738865
2402.0,0.013900374944870508
2401.0,0.01385553528947936
2400.0,0.01385553528947936
2399.0,0.01381070026317599
2398.0,0.01372104409400876
2397.0,0.013631406429727155
2396.0,0.013586594534531482
2395.0,0.013586594534531482
2394.0,0.013676222949234651
2393.0,0.013765869865004277
2392.0,0.01385553528947936
2391.0,0.013900374944870508
2390.0,0.01385553528947936
2389.0,0.013765869865004277
2388.0,0.01372104409400876
2387.0,0.013631406429727155
2386.0,0.013541787262693505
2385.0,0.013407393177789162
2384.0,0.013362604389846044
2383.0,0.013452186585275916
2382.0,0.013631406429727155
2381.0,0.01381070026317599
2380.0,0.01381070026317599
2379.0,0.013676222949234651
2378.0,0.013407393177789162
2377.0,0.013049212141483357
2376.0,0.012780770091995297
2375.0,0.012691326268817527
2374.0,0.012825498912458322
2373.0,0.013273040668781544
2372.0,0.01372104409400876
2371.0,0.013945219230304673
2370.0,0.01372104409400876
2369.0,0.013407393177789162
2368.0,0.01322826573375524
2367.0,0.01322826573375524
2366.0,0.013273040668781544
2365.0,0.013407393177789162
2364.0,0.013631406429727155
2363.0,0.013900374944870508
2362.0,0.01403492169512921
2361.0,0.013765869865004277
2360.0,0.013317820220494436
2359.0,0.01322826573375524
2358.0,0.013765869865004277
2357.0,0.0144837121472845
2356.0,0.0144837121472845
2355.0,0.013676222949234651
2354.0,0.012914970375878188
2353.0,0.013004460275618523
2352.0,0.01385553528947936
2351.0,0.014618439768003144
2350.0,0.014843078722943437
2349.0,0.01452861671041239
2348.0,0.01403492169512921
2347.0,0.013631406429727155
2346.0,0.013273040668781544
2345.0,0.012914970375878188
2344.0,0.01260190086298274
2343.0,0.01260190086298274
2342.0,0.013049212141483357
2341.0,0.013586594534531482
2340.0,0.013676222949234651
2339.0,0.01322826573375524
2338.0,0.012691326268817527
2337.0,0.012333735073725371
2336.0,0.012289056869694281
2335.0,0.012512493866907004
2334.0,0.013004460275618523
2333.0,0.013541787262693505
2332.0,0.01385553528947936
2331.0,0.013765869865004277
2330.0,0.013586594534531482
2329.0,0.013407393177789162
2328.0,0.013273040668781544
2327.0,0.013138729709955221
2326.0,0.01322826573375524
2325.0,0.013452186585275916
2324.0,0.013765869865004277
2323.0,0.01403492169512921
2322.0,0.01403492169512921
2321.0,0.01381070026317599
2320.0,0.013317820220494436
2319.0,0.012736045877764557
2318.0,0.012423105273012602
2317.0,0.012467797270160563
2316.0,0.012691326268817527
2315.0,0.012914970375878188
2314.0,0.012959713020733288
2313.0,0.012914970375878188
2312.0,0.012825498912458322
2311.0,0.012780770091995297
2310.0,0.012780770091995297
2309.0,0.012825498912458322
2308.0,0.012870232340102872
2307.0,0.012914970375878188
2306.0,0.013004460275618523
2305.0,0.013093968619278806
2304.0,0.013138729709955221
2303.0,0.013138729709955221
2302.0,0.013138729709955221
2301.0,0.013093968619278806
2300.0,0.012959713020733288
2299.0,0.012870232340102872
2298.0,0.012736045877764557
2297.0,0.01264661126420652
2296.0,0.01264661126420652
2295.0,0.012691326268817527
2294.0,0.012825498912458322
2293.0,0.012959713020733288
2292.0,0.013093968619278806
2291.0,0.01318349541446362
2290.0,0.01322826573375524
2289.0,0.013273040668781544
2288.0,0.013273040668781544
2287.0,0.01322826573375524
2286.0,0.01318349541446362
2285.0,0.01318349541446362
2284.0,0.01318349541446362
2283.0,0.01322826573375524
2282.0,0.013273040668781544
2281.0,0.013273040668781544
2280.0,0.013273040668781544
2279.0,0.01322826573375524
2278.0,0.01318349541446362
2277.0,0.013138729709955221
2276.0,0.013093968619278806
2275.0,0.013049212141483357
2274.0,0.013004460275618523
2273.0,0.012914970375878188
2272.0,0.012914970375878188
2271.0,0.012914970375878188
2270.0,0.012914970375878188
2269.0,0.012959713020733288
2268.0,0.012914970375878188
2267.0,0.012870232340102872
2266.0,0.012825498912458322
2265.0,0.012825498912458322
2264.0,0.012825498912458322
2263.0,0.012780770091995297
2262.0,0.012780770091995297
2261.0,0.012825498912458322
2260.0,0.012870232340102872
2259.0,0.012914970375878188
2258.0,0.012914970375878188
2257.0,0.012870232340102872
2256.0,0.012825498912458322
2255.0,0.012780770091995297
2254.0,0.012736045877764557
2253.0,0.012780770091995297
2252.0,0.012825498912458322
2251.0,0.012959713020733288
2250.0,0.013049212141483357
2249.0,0.013093968619278806
2248.0,0.013093968619278806
2247.0,0.013004460275618523
2246.0,0.012914970375878188
2245.0,0.012870232340102872
2244.0,0.012870232340102872
2243.0,0.012914970375878188
2242.0,0.012959713020733288
2241.0,0.012959713020733288
2240.0,0.012959713020733288
2239.0,0.012914970375878188
2238.0,0.012870232340102872
2237.0,0.012825498912458322
2236.0,0.012780770091995297
2235.0,0.012736045877764557
2234.0,0.012691326268817527
2233.0,0.01260190086298274
2232.0,0.01260190086298274
2231.0,0.01264661126420652
2230.0,0.012736045877764557
2229.0,0.012870232340102872
2228.0,0.012914970375878188
2227.0,0.012870232340102872
2226.0,0.012825498912458322
2225.0,0.012825498912458322
2224.0,0.012780770091995297
2223.0,0.012736045877764557
2222.0,0.012691326268817527
2221.0,0.01264661126420652
2220.0,0.01264661126420652
2219.0,0.012691326268817527
2218.0,0.012736045877764557
2217.0,0.012736045877764557
2216.0,0.012736045877764557
2215.0,0.012691326268817527
2214.0,0.01264661126420652
2213.0,0.01264661126420652
2212.0,0.012691326268817527
2211.0,0.012736045877764557
2210.0,0.012736045877764557
2209.0,0.012736045877764557
2208.0,0.012691326268817527
2207.0,0.012691326268817527
2206.0,0.012691326268817527
2205.0,0.012691326268817527
2204.0,0.012691326268817527
2203.0,0.012736045877764557
2202.0,0.012736045877764557
2201.0,0.012736045877764557
2200.0,0.012736045877764557
2199.0,0.012736045877764557
2198.0,0.012736045877764557
2197.0,0.012780770091995297
2196.0,0.012736045877764557
2195.0,0.012691326268817527
2194.0,0.01260190086298274
2193.0,0.012557195064198723
2192.0,0.01260190086298274
2191.0,0.012691326268817527
2190.0,0.012780770091995297
2189.0,0.012780770091995297
2188.0,0.012736045877764557
2187.0,0.01264661126420652
2186.0,0.012557195064198723
2185.0,0.012512493866907004
2184.0,0.012467797270160563
2183.0,0.012423105273012602
2182.0,0.012467797270160563
2181.0,0.012467797270160563
2180.0,0.012467797270160563
2179.0,0.012423105273012602
2178.0,0.012378417874516323
2177.0,0.012378417874516323
2176.0,0.012378417874516323
2175.0,0.012378417874516323
2174.0,0.012333735073725371
2173.0,0.012333735073725371
2172.0,0.012333735073725371
2171.0,0.012378417874516323
2170.0,0.012467797270160563
2169.0,0.012557195064198723
2168.0,0.01264661126420652
2167.0,0.01264661126420652
2166.0,0.01264661126420652
2165.0,0.012557195064198723
2164.0,0.012512493866907004
2163.0,0.012423105273012602
2162.0,0.012423105273012602
2161.0,0.012378417874516323
2160.0,0.012378417874516323
2159.0,0.012423105273012602
2158.0,0.012512493866907004
2157.0,0.01264661126420652
2156.0,0.012780770091995297
2155.0,0.012825498912458322
2154.0,0.012825498912458322
2153.0,0.012736045877764557
2152.0,0.01264661126420652
2151.0,0.01260190086298274
2150.0,0.012557195064198723
2149.0,0.01260190086298274
2148.0,0.01264661126420652
2147.0,0.012691326268817527
2146.0,0.012736045877764557
2145.0,0.012691326268817527
2144.0,0.012691326268817527
2143.0,0.01264661126420652
2142.0,0.012557195064198723
2141.0,0.012512493866907004
2140.0,0.012423105273012602
2139.0,0.012378417874516323
2138.0,0.012378417874516323
2137.0,0.012378417874516323
2136.0,0.012378417874516323
2135.0,0.012333735073725371
2134.0,0.012333735073725371
2133.0,0.012378417874516323
2132.0,0.012378417874516323
2131.0,0.012378417874516323
2130.0,0.012333735073725371
2129.0,0.012289056869694281
2128.0,0.012244383261476699
2127.0,0.01215504982870197
2126.0,0.012065734767841452
2125.0,0.0119764380713403
2124.0,0.0119764380713403
2123.0,0.0119764380713403
2122.0,0.012065734767841452
2121.0,0.012110390002254778
2120.0,0.01215504982870197
2119.0,0.01215504982870197
2118.0,0.01215504982870197
2117.0,0.01215504982870197
2116.0,0.012199714248127602
2115.0,0.012244383261476699
2114.0,0.012289056869694281
2113.0,0.012289056869694281
2112.0,0.012289056869694281
2111.0,0.012244383261476699
2110.0,0.012199714248127602
2109.0,0.01215504982870197
2108.0,0.012110390002254778
2107.0,0.012110390002254778
2106.0,0.012110390002254778
2105.0,0.012110390002254778
2104.0,0.012065734767841452
2103.0,0.012021084124518078
2102.0,0.012021084124518078
2101.0,0.012021084124518078
2100.0,0.012065734767841452
2099.0,0.012065734767841452
2098.0,0.012065734767841452
2097.0,0.012065734767841452
2096.0,0.012065734767841452
2095.0,0.012065734767841452
2094.0,0.012110390002254778
2093.0,0.01215504982870197
2092.0,0.012199714248127602
2091.0,0.012244383261476699
2090.0,0.012244383261476699
2089.0,0.012244383261476699
2088.0,0.012244383261476699
2087.0,0.012244383261476699
2086.0,0.012199714248127602
2085.0,0.012199714248127602
2084.0,0.012199714248127602
2083.0,0.012199714248127602
2082.0,0.01215504982870197
2081.0,0.01215504982870197
2080.0,0.01215504982870197
2079.0,0.012110390002254778
2078.0,0.012110390002254778
2077.0,0.012110390002254778
2076.0,0.01215504982870197
2075.0,0.012199714248127602
2074.0,0.012199714248127602
2073.0,0.01215504982870197
2072.0,0.012110390002254778
2071.0,0.012065734767841452
2070.0,0.012065734767841452
2069.0,0.012065734767841452
2068.0,0.012065734767841452
2067.0,0.012110390002254778
2066.0,0.012199714248127602
2065.0,0.012244383261476699
2064.0,0.012244383261476699
2063.0,0.012199714248127602
2062.0,0.01215504982870197
2061.0,0.012110390002254778
2060.0,0.012065734767841452
2059.0,0.012021084124518078
2058.0,0.012021084124518078
2057.0,0.012021084124518078
2056.0,0.012065734767841452
2055.0,0.012065734767841452
2054.0,0.012065734767841452
2053.0,0.012110390002254778
2052.0,0.012110390002254778
2051.0,0.012110390002254778
2050.0,0.012065734767841452
2049.0,0.012065734767841452
2048.0,0.01215504982870197
2047.0,0.012199714248127602
2046.0,0.012289056869694281
2045.0,0.012333735073725371
2044.0,0.012378417874516323
2043.0,0.012378417874516323
2042.0,0.012378417874516323
2041.0,0.012378417874516323
2040.0,0.012333735073725371
2039.0,0.012333735073725371
2038.0,0.012333735073725371
2037.0,0.012333735073725371
2036.0,0.012333735073725371
2035.0,0.012333735073725371
2034.0,0.012378417874516323
2033.0,0.012378417874516323
2032.0,0.012378417874516323
2031.0,0.012378417874516323
2030.0,0.012423105273012602
2029.0,0.012512493866907004
2028.0,0.01260190086298274
2027.0,0.01260190086298274
2026.0,0.01260190086298274
2025.0,0.012557195064198723
2024.0,0.012557195064198723
2023.0,0.012557195064198723
2022.0,0.012557195064198723
2021.0,0.01260190086298274
2020.0,0.01260190086298274
2019.0,0.01260190086298274
2018.0,0.01260190086298274
2017.0,0.012557195064198723
2016.0,0.012557195064198723
2015.0,0.012512493866907004
2014.0,0.012512493866907004
2013.0,0.012512493866907004
2012.0,0.012467797270160563
2011.0,0.012423105273012602
2010.0,0.012378417874516323
2009.0,0.012244383261476699
2008.0,0.01215504982870197
2007.0,0.012065734767841452
2006.0,0.012021084124518078
2005.0,0.0119764380713403
2004.0,0.012021084124518078
2003.0,0.012065734767841452
2002.0,0.012065734767841452
2001.0,0.012021084124518078
2000.0,0.0119764380713403
1999.0,0.011931796607364653
1998.0,0.011931796607364653
1997.0,0.011931796607364653
1996.0,0.0119764380713403
1995.0,0.0119764380713403
1994.0,0.011931796607364653
1993.0,0.011931796607364653
1992.0,0.0119764380713403
1991.0,0.012021084124518078
1990.0,0.012065734767841452
1989.0,0.012065734767841452
1988.0,0.012065734767841452
1987.0,0.012021084124518078
1986.0,0.012021084124518078
1985.0,0.012021084124518078
1984.0,0.012021084124518078
1983.0,0.012021084124518078
1982.0,0.012021084124518078
1981.0,0.012021084124518078
1980.0,0.0119764380713403
1979.0,0.0119764380713403
1978.0,0.011931796607364653
1977.0,0.011931796607364653
1976.0,0.0119764380713403
1975.0,0.012065734767841452
1974.0,0.012110390002254778
1973.0,0.012110390002254778
1972.0,0.012065734767841452
1971.0,0.0119764380713403
1970.0,0.011887159731648111
1969.0,0.011887159731648111
1968.0,0.011931796607364653
1967.0,0.0119764380713403
1966.0,0.0119764380713403
1965.0,0.0119764380713403
1964.0,0.0119764380713403
1963.0,0.011931796607364653
1962.0,0.011842527443247208
1961.0,0.011753276624621556
1960.0,0.011708658092512314
1959.0,0.011664044143949504
1958.0,0.011664044143949504
1957.0,0.011619434777991433
1956.0,0.011619434777991433
1955.0,0.011619434777991433
1954.0,0.011664044143949504
1953.0,0.011664044143949504
1952.0,0.011664044143949504
1951.0,0.011664044143949504
1950.0,0.011664044143949504
1949.0,0.011619434777991433
1948.0,0.011574829993696856
1947.0,0.011485634166333858
1946.0,0.011441043121384498
1945.0,0.011441043121384498
1944.0,0.011530229790124524
1943.0,0.011619434777991433
1942.0,0.011708658092512314
1941.0,0.011708658092512314
1940.0,0.011664044143949504
1939.0,0.011619434777991433
1938.0,0.011574829993696856
1937.0,0.011574829993696856
1936.0,0.011619434777991433
1935.0,0.011619434777991433
1934.0,0.011619434777991433
1933.0,0.011574829993696856
1932.0,0.011574829993696856
1931.0,0.011574829993696856
1930.0,0.011530229790124524
1929.0,0.011485634166333858
1928.0,0.011530229790124524
1927.0,0.011574829993696856
1926.0,0.011619434777991433
1925.0,0.011708658092512314
1924.0,0.011753276624621556
1923.0,0.011753276624621556
1922.0,0.011708658092512314
1921.0,0.011619434777991433
1920.0,0.011574829993696856
1919.0,0.011574829993696856
1918.0,0.011619434777991433
1917.0,0.011708658092512314
1916.0,0.011797899741219142
1915.0,0.011797899741219142
1914.0,0.011797899741219142
1913.0,0.011797899741219142
1912.0,0.011753276624621556
1911.0,0.011797899741219142
1910.0,0.011842527443247208
1909.0,0.011887159731648111
1908.0,0.011887159731648111
1907.0,0.011887159731648111
1906.0,0.011842527443247208
1905.0,0.011842527443247208
1904.0,0.011842527443247208
1903.0,0.011842527443247208
1902.0,0.011842527443247208
1901.0,0.011842527443247208
1900.0,0.011842527443247208
1899.0,0.011887159731648111
1898.0,0.011931796607364653
1897.0,0.012021084124518078
1896.0,0.012021084124518078
1895.0,0.012021084124518078
1894.0,0.012021084124518078
1893.0,0.012021084124518078
1892.0,0.011931796607364653
1891.0,0.011842527443247208
1890.0,0.011708658092512314
1889.0,0.011664044143949504
1888.0,0.011619434777991433
1887.0,0.011574829993696856
1886.0,0.011485634166333858
1885.0,0.011441043121384498
1884.0,0.011396456654336085
1883.0,0.011351874764248926
1882.0,0.011351874764248926
1881.0,0.011351874764248926
1880.0,0.011396456654336085
1879.0,0.011441043121384498
1878.0,0.011485634166333858
1877.0,0.011530229790124524
1876.0,0.011441043121384498
1875.0,0.011307297450183107
1874.0,0.011218156546359825
1873.0,0.011129033935354915
1872.0,0.011084479487313281
1871.0,0.010995384301463185
1870.0,0.010906307389674463
1869.0,0.010950843561779777
1868.0,0.011084479487313281
1867.0,0.01117359295472431
1866.0,0.011218156546359825
1865.0,0.011218156546359825
1864.0,0.01117359295472431
1863.0,0.011084479487313281
1862.0,0.011039929609661936
1861.0,0.011039929609661936
1860.0,0.011039929609661936
1859.0,0.010995384301463185
1858.0,0.010950843561779777
1857.0,0.010950843561779777
1856.0,0.010950843561779777
1855.0,0.010950843561779777
1854.0,0.010950843561779777
1853.0,0.010995384301463185
1852.0,0.010995384301463185
1851.0,0.010950843561779777
1850.0,0.010950843561779777
1849.0,0.010995384301463185
1848.0,0.010995384301463185
1847.0,0.010995384301463185
1846.0,0.010995384301463185
1845.0,0.010950843561779777
1844.0,0.010906307389674463
1843.0,0.01086177578421088
1842.0,0.010817248744452446
1841.0,0.010817248744452446
1840.0,0.010817248744452446
1839.0,0.01077272626946324
1838.0,0.010728208358306901
1837.0,0.010683695010048622
1836.0,0.010639186223752484
1835.0,0.010639186223752484
1834.0,0.010683695010048622
1833.0,0.010728208358306901
1832.0,0.010817248744452446
1831.0,0.010817248744452446
1830.0,0.01077272626946324
1829.0,0.010728208358306901
1828.0,0.010728208358306901
1827.0,0.010728208358306901
1826.0,0.010728208358306901
1825.0,0.010728208358306901
1824.0,0.010683695010048622
1823.0,0.010728208358306901
1822.0,0.010728208358306901
1821.0,0.01077272626946324
1820.0,0.010728208358306901
1819.0,0.010683695010048622
1818.0,0.010639186223752484
1817.0,0.010639186223752484
1816.0,0.010683695010048622
1815.0,0.010728208358306901
1814.0,0.01077272626946324
1813.0,0.01086177578421088
1812.0,0.01086177578421088
1811.0,0.01077272626946324
1810.0,0.010683695010048622
1809.0,0.010594681998483901
1808.0,0.010550182333308289
1807.0,0.01046119667949763
1806.0,0.01046119667949763
1805.0,0.010505687227290839
1804.0,0.010594681998483901
1803.0,0.010683695010048622
1802.0,0.010728208358306901
1801.0,0.010728208358306901
1800.0,0.010683695010048622
1799.0,0.010550182333308289
1798.0,0.010416710688994968
1797.0,0.01037222925484893
1796.0,0.010416710688994968
1795.0,0.010416710688994968
1794.0,0.01046119667949763
1793.0,0.010550182333308289
1792.0,0.010594681998483901
1791.0,0.010594681998483901
1790.0,0.010550182333308289
1789.0,0.010550182333308289
1788.0,0.010550182333308289
1787.0,0.010550182333308289
1786.0,0.010505687227290839
1785.0,0.01046119667949763
1784.0,0.01046119667949763
1783.0,0.010505687227290839
1782.0,0.010594681998483901
1781.0,0.010639186223752484
1780.0,0.010683695010048622
1779.0,0.010639186223752484
1778.0,0.010594681998483901
1777.0,0.010594681998483901
1776.0,0.010594681998483901
1775.0,0.010550182333308289
1774.0,0.010505687227290839
1773.0,0.01046119667949763
1772.0,0.010550182333308289
1771.0,0.010639186223752484
1770.0,0.010683695010048622
1769.0,0.010728208358306901
1768.0,0.010683695010048622
1767.0,0.010594681998483901
1766.0,0.010550182333308289
1765.0,0.010550182333308289
1764.0,0.010639186223752484
1763.0,0.010728208358306901
1762.0,0.010817248744452446
1761.0,0.01086177578421088
1760.0,0.010950843561779777
1759.0,0.010995384301463185
1758.0,0.011084479487313281
1757.0,0.011218156546359825
1756.0,0.011351874764248926
1755.0,0.011441043121384498
1754.0,0.011485634166333858
1753.0,0.011574829993696856
1752.0,0.011708658092512314
1751.0,0.0119764380713403
1750.0,0.012199714248127602
1749.0,0.012333735073725371
1748.0,0.012378417874516323
1747.0,0.012333735073725371
1746.0,0.012289056869694281
1745.0,0.012289056869694281
1744.0,0.012378417874516323
1743.0,0.012378417874516323
1742.0,0.012289056869694281
1741.0,0.012289056869694281
1740.0,0.012289056869694281
1739.0,0.012244383261476699
1738.0,0.01215504982870197
1737.0,0.012065734767841452
1736.0,0.0119764380713403
1735.0,0.011797899741219142
1734.0,0.011708658092512314
1733.0,0.011708658092512314
1732.0,0.011753276624621556
1731.0,0.011842527443247208
1730.0,0.0119764380713403
1729.0,0.0119764380713403
1728.0,0.011931796607364653
1727.0,0.011887159731648111
1726.0,0.011842527443247208
1725.0,0.011842527443247208
1724.0,0.011797899741219142
1723.0,0.011708658092512314
1722.0,0.011619434777991433
1721.0,0.011619434777991433
1720.0,0.011574829993696856
1719.0,0.011485634166333858
1718.0,0.011396456654336085
1717.0,0.011530229790124524
1716.0,0.011708658092512314
1715.0,0.011797899741219142
1714.0,0.011842527443247208
1713.0,0.011797899741219142
1712.0,0.011708658092512314
1711.0,0.011619434777991433
1710.0,0.011619434777991433
1709.0,0.011619434777991433
1708.0,0.011708658092512314
1707.0,0.011708658092512314
1706.0,0.011708658092512314
1705.0,0.011753276624621556
1704.0,0.011708658092512314
1703.0,0.011708658092512314
1702.0,0.011664044143949504
1701.0,0.011619434777991433
1700.0,0.011574829993696856
1699.0,0.011574829993696856
1698.0,0.011664044143949504
1697.0,0.011842527443247208
1696.0,0.011887159731648111
1695.0,0.011753276624621556
1694.0,0.011619434777991433
1693.0,0.011753276624621556
1692.0,0.011887159731648111
1691.0,0.0119764380713403
1690.0,0.0119764380713403
1689.0,0.012021084124518078
1688.0,0.012065734767841452
1687.0,0.012110390002254778
1686.0,0.012065734767841452
1685.0,0.012065734767841452
1684.0,0.012199714248127602
1683.0,0.012199714248127602
1682.0,0.012110390002254778
1681.0,0.01215504982870197
1680.0,0.01215504982870197
1679.0,0.01215504982870197
1678.0,0.012065734767841452
1677.0,0.012021084124518078
1676.0,0.011931796607364653
1675.0,0.011887159731648111
1674.0,0.011842527443247208
1673.0,0.011842527443247208
1672.0,0.011931796607364653
1671.0,0.012065734767841452
1670.0,0.012244383261476699
1669.0,0.012423105273012602
1668.0,0.012467797270160563
1667.0,0.012378417874516323
1666.0,0.012333735073725371
1665.0,0.012289056869694281
1664.0,0.012333735073725371
1663.0,0.012333735073725371
1662.0,0.012378417874516323
1661.0,0.012378417874516323
1660.0,0.012423105273012602
1659.0,0.012423105273012602
1658.0,0.012378417874516323
1657.0,0.012333735073725371
1656.0,0.012333735073725371
1655.0,0.012199714248127602
1654.0,0.012021084124518078
1653.0,0.01215504982870197
1652.0,0.012065734767841452
1651.0,0.0119764380713403
1650.0,0.01215504982870197
1649.0,0.012378417874516323
1648.0,0.012467797270160563
1647.0,0.012467797270160563
1646.0,0.012423105273012602
1645.0,0.012289056869694281
1644.0,0.012289056869694281
1643.0,0.012333735073725371
1642.0,0.012378417874516323
1641.0,0.012378417874516323
1640.0,0.012378417874516323
1639.0,0.012289056869694281
1638.0,0.012244383261476699
1637.0,0.012244383261476699
1636.0,0.012467797270160563
1635.0,0.012557195064198723
1634.0,0.012423105273012602
1633.0,0.012289056869694281
1632.0,0.012199714248127602
1631.0,0.012110390002254778
1630.0,0.012021084124518078
1629.0,0.011931796607364653
1628.0,0.011842527443247208
1627.0,0.011753276624621556
1626.0,0.011619434777991433
1625.0,0.011530229790124524
1624.0,0.011530229790124524
1623.0,0.011574829993696856
1622.0,0.011574829993696856
1621.0,0.011530229790124524
1620.0,0.011485634166333858
1619.0,0.011441043121384498
1618.0,0.011441043121384498
1617.0,0.011396456654336085
1616.0,0.011396456654336085
1615.0,0.011307297450183107
1614.0,0.011262724711199823
1613.0,0.011262724711199823
1612.0,0.01117359295472431
1611.0,0.011129033935354915
1610.0,0.011084479487313281
1609.0,0.011039929609661936
1608.0,0.011039929609661936
1607.0,0.011039929609661936
1606.0,0.011039929609661936
1605.0,0.011039929609661936
1604.0,0.011084479487313281
1603.0,0.011084479487313281
1602.0,0.011129033935354915
1601.0,0.011084479487313281
1600.0,0.011039929609661936
1599.0,0.010950843561779777
1598.0,0.010906307389674463
1597.0,0.01086177578421088
1596.0,0.01086177578421088
1595.0,0.010906307389674463
1594.0,0.010950843561779777
1593.0,0.010950843561779777
1592.0,0.010950843561779777
1591.0,0.010906307389674463
1590.0,0.01086177578421088
1589.0,0.01086177578421088
1588.0,0.01086177578421088
1587.0,0.01086177578421088
1586.0,0.01086177578421088
1585.0,0.01086177578421088
1584.0,0.01086177578421088
1583.0,0.01086177578421088
1582.0,0.01086177578421088
1581.0,0.010817248744452446
1580.0,0.010728208358306901
1579.0,0.010683695010048622
1578.0,0.010594681998483901
1577.0,0.01046119667949763
1576.0,0.01046119667949763
1575.0,0.010416710688994968
1574.0,0.01037222925484893
1573.0,0.01037222925484893
1572.0,0.01037222925484893
1571.0,0.010283280051895272
1570.0,0.010194349063173958
1569.0,0.010194349063173958
1568.0,0.01023881228122181
1567.0,0.010194349063173958
1566.0,0.01023881228122181
1565.0,0.01023881228122181
1564.0,0.01023881228122181
1563.0,0.010194349063173958
1562.0,0.01023881228122181
1561.0,0.010194349063173958
1560.0,0.010194349063173958
1559.0,0.010550182333308289
1558.0,0.010505687227290839
1557.0,0.010149890396819572
1556.0,0.010060986715464404
1555.0,0.010060986715464404
1554.0,0.009972101229705377
1553.0,0.009927665307847056
1552.0,0.01001654169860089
1551.0,0.010105436281226954
1550.0,0.010194349063173958
1549.0,0.010194349063173958
1548.0,0.010194349063173958
1547.0,0.010149890396819572
1546.0,0.010060986715464404
1545.0,0.010105436281226954
1544.0,0.01023881228122181
1543.0,0.010283280051895272
1542.0,0.01023881228122181
1541.0,0.010327752376126709
1540.0,0.010505687227290839
1539.0,0.01023881228122181
1538.0,0.009838807101520963
1537.0,0.00974996707218323
1536.0,0.009794384815193347
1535.0,0.00974996707218323
1534.0,0.009616741093766423
1533.0,0.00966114521239847
1532.0,0.009705553871561357
1531.0,0.009616741093766423
1530.0,0.009572341514736404
1529.0,0.009527946474380489
1528.0,0.009572341514736404
1527.0,0.009483555971770974
1526.0,0.00939478857608056
1525.0,0.00939478857608056
1524.0,0.009439170005980158
1523.0,0.00939478857608056
1522.0,0.009261671492462709
1521.0,0.009217308196862062
1520.0,0.009172949432521227
1519.0,0.009039900317800775
1518.0,0.009039900317800775
1517.0,0.009172949432521227
1516.0,0.009306039320248427
1515.0,0.009217308196862062
1514.0,0.009039900317800775
1513.0,0.008995559669244813
1512.0,0.008951223547323472
1511.0,0.008906891951112605
1510.0,0.008862564879688284
1509.0,0.008906891951112605
1508.0,0.009039900317800775
1507.0,0.009128595198514056
1506.0,0.008862564879688284
1505.0,0.008596697419959609
1504.0,0.00850811108984062
1503.0,0.00850811108984062
1502.0,0.008463824699968647
1501.0,0.008463824699968647
1500.0,0.008463824699968647
1499.0,0.008286724286910463
1498.0,0.008021209005416363
1497.0,0.007976972236149349
1496.0,0.008021209005416363
1495.0,0.007976972236149349
1494.0,0.007932739972333236
1493.0,0.008065450281052211
1492.0,0.008330992620051436
1491.0,0.008330992620051436
1490.0,0.008242460465651913
1489.0,0.008375265465994541
1488.0,0.008463824699968647
1487.0,0.008330992620051436
1486.0,0.008242460465651913
1485.0,0.008375265465994541
1484.0,0.008685301823389224
1483.0,0.009039900317800775
1482.0,0.009616741093766423
1481.0,0.010594681998483901
1480.0,0.012021084124518078
1479.0,0.014124642691606404
1478.0,0.01845319495476394
1477.0,0.02691835039863255
1476.0,0.04014804520039483
1475.0,0.057198533682059516
1474.0,0.07665234350217442
1473.0,0.09312646527792956
1472.0,0.0975619438013351
1471.0,0.0916222275676053
1470.0,0.08354605145007499
1469.0,0.07685964397479927
1468.0,0.0720140529005715
1467.0,0.06981534770138009
1466.0,0.07247565912497134
1465.0,0.08118360963962057
1464.0,0.0917295005042762
1463.0,0.0975619438013351
1462.0,0.0964759355287379
1461.0,0.08953568400438638
1460.0,0.0788860261633193
1459.0,0.06681652082538614
1458.0,0.055764156206519866
1457.0,0.047934409814949674
1456.0,0.04344740808260106
1455.0,0.040529297924893015
1454.0,0.038151940981675736
1453.0,0.03583468937826462
1452.0,0.03352973627071565
1451.0,0.03161045815293173
1450.0,0.030164906924202484
1449.0,0.028956208163971375
1448.0,0.02798240132598462
1447.0,0.027334407733889066
1446.0,0.02677975314776626
1445.0,0.02617967564731627
1444.0,0.02558042614771394
1443.0,0.025074013910237447
1442.0,0.024706084643793647
1441.0,0.024292536462819925
1440.0,0.023833499868024743
1439.0,0.02342078135989012
1438.0,0.023054249440757957
1437.0,0.022642270454698687
1436.0,0.0221849739168134
1435.0,0.021773818325474092
1434.0,0.021363051615525652
1433.0,0.02081596632558158
1432.0,0.02022406727031445
1431.0,0.019678413991243593
1430.0,0.019133445417920836
1429.0,0.018498511851753108
1428.0,0.017864505196230507
1427.0,0.017321806616515723
1426.0,0.016824927962187042
1425.0,0.016418813294209356
1424.0,0.016058141016111804
1423.0,0.01578783323856614
1422.0,0.015517693597737248
1421.0,0.015157768594724175
1420.0,0.014843078722943437
1419.0,0.014753209197138295
1418.0,0.014798141635428141
1417.0,0.014573525916998342
1416.0,0.014304140310157809
1415.0,0.013990068146738865
1414.0,0.01372104409400876
1413.0,0.013452186585275916
1412.0,0.01318349541446362
1411.0,0.013049212141483357
1410.0,0.012870232340102872
1409.0,0.012691326268817527
1408.0,0.012467797270160563
1407.0,0.012333735073725371
1406.0,0.012289056869694281
1405.0,0.012244383261476699
1404.0,0.012110390002254778
1403.0,0.012021084124518078
1402.0,0.0119764380713403
1401.0,0.011931796607364653
1400.0,0.011887159731648111
1399.0,0.011931796607364653
1398.0,0.011887159731648111
1397.0,0.011619434777991433
1396.0,0.011307297450183107
1395.0,0.011084479487313281
1394.0,0.010950843561779777
1393.0,0.010950843561779777
1392.0,0.010995384301463185
1391.0,0.01117359295472431
1390.0,0.011351874764248926
1389.0,0.011441043121384498
1388.0,0.011485634166333858
1387.0,0.011530229790124524
1386.0,0.011619434777991433
1385.0,0.011619434777991433
1384.0,0.011753276624621556
1383.0,0.0119764380713403
1382.0,0.012289056869694281
1381.0,0.01264661126420652
1380.0,0.012959713020733288
1379.0,0.013273040668781544
1378.0,0.013496984613259544
1377.0,0.013541787262693505
1376.0,0.013631406429727155
1375.0,0.01385553528947936
1374.0,0.014214382227394795
1373.0,0.01452861671041239
1372.0,0.014798141635428141
1371.0,0.015067833932588037
1370.0,0.015337693809893471
1369.0,0.015517693597737248
1368.0,0.015652742414136167
1367.0,0.015607721475734415
1366.0,0.015517693597737248
1365.0,0.015337693809893471
1364.0,0.015157768594724175
1363.0,0.015022873584506602
1362.0,0.014932966849499074
1361.0,0.014708281407112
1360.0,0.014438812226654996
1359.0,0.014259258949925524
1358.0,0.014169510141607944
1357.0,0.014169510141607944
1356.0,0.014169510141607944
1355.0,0.014214382227394795
1354.0,0.014259258949925524
1353.0,0.014259258949925524
1352.0,0.014214382227394795
1351.0,0.014169510141607944
1350.0,0.014169510141607944
1349.0,0.01403492169512921
1348.0,0.013765869865004277
1347.0,0.013541787262693505
1346.0,0.013362604389846044
1345.0,0.01322826573375524
1344.0,0.013093968619278806
1343.0,0.013004460275618523
1342.0,0.012870232340102872
1341.0,0.012691326268817527
1340.0,0.012557195064198723
1339.0,0.012378417874516323
1338.0,0.012244383261476699
1337.0,0.012065734767841452
1336.0,0.011887159731648111
1335.0,0.011753276624621556
1334.0,0.011708658092512314
1333.0,0.011619434777991433
1332.0,0.011574829993696856
1331.0,0.011530229790124524
1330.0,0.011574829993696856
1329.0,0.011574829993696856
1328.0,0.011574829993696856
1327.0,0.011619434777991433
1326.0,0.011664044143949504
1325.0,0.011708658092512314
1324.0,0.011708658092512314
1323.0,0.011753276624621556
1322.0,0.011887159731648111
1321.0,0.012021084124518078
1320.0,0.01215504982870197
1319.0,0.012333735073725371
1318.0,0.012467797270160563
1317.0,0.012557195064198723
1316.0,0.01264661126420652
1315.0,0.012780770091995297
1314.0,0.012959713020733288
1313.0,0.013093968619278806
1312.0,0.01318349541446362
1311.0,0.01322826573375524
1310.0,0.013273040668781544
1309.0,0.013317820220494436
1308.0,0.013362604389846044
1307.0,0.013452186585275916
1306.0,0.013496984613259544
1305.0,0.013496984613259544
1304.0,0.013496984613259544
1303.0,0.013452186585275916
1302.0,0.013407393177789162
1301.0,0.013317820220494436
1300.0,0.01322826573375524
1299.0,0.01322826573375524
1298.0,0.01318349541446362
1297.0,0.013138729709955221
1296.0,0.013004460275618523
1295.0,0.012870232340102872
1294.0,0.012736045877764557
1293.0,0.01264661126420652
1292.0,0.012557195064198723
1291.0,0.012512493866907004
1290.0,0.012467797270160563
1289.0,0.012423105273012602
1288.0,0.012289056869694281
1287.0,0.012110390002254778
1286.0,0.0119764380713403
1285.0,0.011797899741219142
1284.0,0.011708658092512314
1283.0,0.011664044143949504
1282.0,0.011664044143949504
1281.0,0.011664044143949504
1280.0,0.011619434777991433
1279.0,0.011619434777991433
1278.0,0.011530229790124524
1277.0,0.011441043121384498
1276.0,0.011351874764248926
1275.0,0.011351874764248926
1274.0,0.011307297450183107
1273.0,0.011307297450183107
1272.0,0.011262724711199823
1271.0,0.011218156546359825
1270.0,0.011129033935354915
1269.0,0.011039929609661936
1268.0,0.010995384301463185
1267.0,0.010995384301463185
1266.0,0.010995384301463185
1265.0,0.010950843561779777
1264.0,0.010906307389674463
1263.0,0.010906307389674463
1262.0,0.010906307389674463
1261.0,0.010950843561779777
1260.0,0.010950843561779777
1259.0,0.010950843561779777
1258.0,0.010950843561779777
1257.0,0.010950843561779777
1256.0,0.010906307389674463
1255.0,0.010906307389674463
1254.0,0.010906307389674463
1253.0,0.01086177578421088
1252.0,0.010817248744452446
1251.0,0.010728208358306901
1250.0,0.010683695010048622
1249.0,0.010683695010048622
1248.0,0.010728208358306901
1247.0,0.010817248744452446
1246.0,0.010950843561779777
1245.0,0.010950843561779777
1244.0,0.01086177578421088
1243.0,0.010728208358306901
1242.0,0.010639186223752484
1241.0,0.010683695010048622
1240.0,0.010817248744452446
1239.0,0.010950843561779777
1238.0,0.010950843561779777
1237.0,0.01086177578421088
1236.0,0.010728208358306901
1235.0,0.010639186223752484
1234.0,0.010594681998483901
1233.0,0.010505687227290839
1232.0,0.01037222925484893
1231.0,0.010327752376126709
1230.0,0.010283280051895272
1229.0,0.010283280051895272
1228.0,0.01023881228122181
1227.0,0.010283280051895272
1226.0,0.010283280051895272
1225.0,0.010327752376126709
1224.0,0.01037222925484893
1223.0,0.010416710688994968
1222.0,0.01046119667949763
1221.0,0.01046119667949763
1220.0,0.01046119667949763
1219.0,0.010505687227290839
1218.0,0.010594681998483901
1217.0,0.010683695010048622
1216.0,0.01077272626946324
1215.0,0.01086177578421088
1214.0,0.010906307389674463
1213.0,0.010906307389674463
1212.0,0.010950843561779777
1211.0,0.011039929609661936
1210.0,0.01117359295472431
1209.0,0.011307297450183107
1208.0,0.011441043121384498
1207.0,0.011574829993696856
1206.0,0.011664044143949504
1205.0,0.011753276624621556
1204.0,0.011753276624621556
1203.0,0.011753276624621556
1202.0,0.011708658092512314
1201.0,0.011619434777991433
1200.0,0.011530229790124524
1199.0,0.011441043121384498
1198.0,0.011396456654336085
1197.0,0.011307297450183107
1196.0,0.011307297450183107
1195.0,0.011307297450183107
1194.0,0.011307297450183107
1193.0,0.011351874764248926
1192.0,0.011351874764248926
1191.0,0.011351874764248926
1190.0,0.011396456654336085
1189.0,0.011396456654336085
1188.0,0.011396456654336085
1187.0,0.011396456654336085
1186.0,0.011485634166333858
1185.0,0.011574829993696856
1184.0,0.011619434777991433
1183.0,0.011708658092512314
1182.0,0.011797899741219142
1181.0,0.011887159731648111
1180.0,0.0119764380713403
1179.0,0.012110390002254778
1178.0,0.012244383261476699
1177.0,0.012378417874516323
1176.0,0.012557195064198723
1175.0,0.012780770091995297
1174.0,0.012959713020733288
1173.0,0.013049212141483357
1172.0,0.013049212141483357
1171.0,0.013049212141483357
1170.0,0.013049212141483357
1169.0,0.013004460275618523
1168.0,0.012914970375878188
1167.0,0.012825498912458322
1166.0,0.012780770091995297
1165.0,0.012736045877764557
1164.0,0.012736045877764557
1163.0,0.012691326268817527
1162.0,0.012736045877764557
1161.0,0.012780770091995297
1160.0,0.012780770091995297
1159.0,0.012780770091995297
1158.0,0.012780770091995297
1157.0,0.012780770091995297
1156.0,0.012780770091995297
1155.0,0.012780770091995297
1154.0,0.012780770091995297
1153.0,0.012780770091995297
1152.0,0.012780770091995297
1151.0,0.012870232340102872
1150.0,0.012870232340102872
1149.0,0.012870232340102872
1148.0,0.012825498912458322
1147.0,0.012780770091995297
1146.0,0.012736045877764557
1145.0,0.012691326268817527
1144.0,0.012557195064198723
1143.0,0.012467797270160563
1142.0,0.012378417874516323
1141.0,0.012333735073725371
1140.0,0.012333735073725371
1139.0,0.012333735073725371
1138.0,0.012378417874516323
1137.0,0.012378417874516323
1136.0,0.012423105273012602
1135.0,0.012467797270160563
1134.0,0.012557195064198723
1133.0,0.01260190086298274
1132.0,0.01264661126420652
1131.0,0.012691326268817527
1130.0,0.012736045877764557
1129.0,0.012736045877764557
1128.0,0.012691326268817527
1127.0,0.012691326268817527
1126.0,0.01264661126420652
1125.0,0.01264661126420652
1124.0,0.01260190086298274
1123.0,0.01260190086298274
1122.0,0.01264661126420652
1121.0,0.012780770091995297
1120.0,0.012914970375878188
1119.0,0.013004460275618523
1118.0,0.013093968619278806
1117.0,0.013049212141483357
1116.0,0.013004460275618523
1115.0,0.013004460275618523
1114.0,0.013004460275618523
1113.0,0.013049212141483357
1112.0,0.013093968619278806
1111.0,0.013138729709955221
1110.0,0.013138729709955221
1109.0,0.013093968619278806
1108.0,0.013049212141483357
1107.0,0.013004460275618523
1106.0,0.013004460275618523
1105.0,0.013004460275618523
1104.0,0.012959713020733288
1103.0,0.012959713020733288
1102.0,0.013004460275618523
1101.0,0.013004460275618523
1100.0,0.013049212141483357
1099.0,0.013138729709955221
1098.0,0.013317820220494436
1097.0,0.013407393177789162
1096.0,0.013452186585275916
1095.0,0.013541787262693505
1094.0,0.013631406429727155
1093.0,0.013631406429727155
1092.0,0.013541787262693505
1091.0,0.013407393177789162
1090.0,0.013317820220494436
1089.0,0.013273040668781544
1088.0,0.01322826573375524
1087.0,0.01322826573375524
1086.0,0.013273040668781544
1085.0,0.013273040668781544
1084.0,0.013273040668781544
1083.0,0.01318349541446362
1082.0,0.013049212141483357
1081.0,0.012870232340102872
1080.0,0.01264661126420652
1079.0,0.012423105273012602
1078.0,0.012289056869694281
1077.0,0.012199714248127602
1076.0,0.01215504982870197
1075.0,0.012199714248127602
1074.0,0.012289056869694281
1073.0,0.012333735073725371
1072.0,0.012333735073725371
1071.0,0.012333735073725371
1070.0,0.012244383261476699
1069.0,0.012065734767841452
1068.0,0.011797899741219142
1067.0,0.011619434777991433
1066.0,0.011664044143949504
1065.0,0.011887159731648111
1064.0,0.012199714248127602
1063.0,0.012467797270160563
1062.0,0.01260190086298274
1061.0,0.01260190086298274
1060.0,0.012423105273012602
1059.0,0.012199714248127602
1058.0,0.012065734767841452
1057.0,0.012021084124518078
1056.0,0.012110390002254778
1055.0,0.012289056869694281
1054.0,0.012423105273012602
1053.0,0.012512493866907004
1052.0,0.01260190086298274
1051.0,0.012736045877764557
1050.0,0.012825498912458322
1049.0,0.012825498912458322
1048.0,0.012825498912458322
1047.0,0.012780770091995297
1046.0,0.012780770091995297
1045.0,0.012825498912458322
1044.0,0.012959713020733288
1043.0,0.01322826573375524
1042.0,0.013541787262693505
1041.0,0.01381070026317599
1040.0,0.013990068146738865
1039.0,0.014124642691606404
1038.0,0.014214382227394795
1037.0,0.014304140310157809
1036.0,0.0144837121472845
1035.0,0.014663358264387139
1034.0,0.014843078722943437
1033.0,0.015067833932588037
1032.0,0.015337693809893471
1031.0,0.01547268665620738
1030.0,0.015427684378367834
1029.0,0.015202742910707112
1028.0,0.015022873584506602
1027.0,0.015022873584506602
1026.0,0.015202742910707112
1025.0,0.01538268676325183
1024.0,0.01547268665620738
1023.0,0.015517693597737248
1022.0,0.015562705203923999
1021.0,0.015517693597737248
1020.0,0.015517693597737248
1019.0,0.015517693597737248
1018.0,0.01547268665620738
1017.0,0.01547268665620738
1016.0,0.015427684378367834
1015.0,0.015337693809893471
1014.0,0.015247721884586563
1013.0,0.015157768594724175
1012.0,0.015067833932588037
1011.0,0.014932966849499074
1010.0,0.014843078722943437
1009.0,0.014753209197138295
1008.0,0.014663358264387139
1007.0,0.01452861671041239
1006.0,0.014438812226654996
1005.0,0.014349026309051105
1004.0,0.014304140310157809
1003.0,0.014304140310157809
1002.0,0.014349026309051105
1001.0,0.014393916947563534
1000.0,0.014349026309051105
999.0,0.014214382227394795
998.0,0.014124642691606404
997.0,0.01403492169512921
996.0,0.013990068146738865
995.0,0.013945219230304673
994.0,0.013945219230304673
993.0,0.013945219230304673
992.0,0.013945219230304673
991.0,0.013945219230304673
990.0,0.013945219230304673
989.0,0.013900374944870508
988.0,0.01381070026317599
987.0,0.01372104409400876
986.0,0.01372104409400876
985.0,0.01372104409400876
984.0,0.013631406429727155
983.0,0.013496984613259544
982.0,0.013407393177789162
981.0,0.013317820220494436
980.0,0.013273040668781544
979.0,0.013362604389846044
978.0,0.013452186585275916
977.0,0.013496984613259544
976.0,0.013541787262693505
975.0,0.013541787262693505
974.0,0.013452186585275916
973.0,0.013362604389846044
972.0,0.01318349541446362
971.0,0.013049212141483357
970.0,0.012959713020733288
969.0,0.012959713020733288
968.0,0.012870232340102872
967.0,0.012736045877764557
966.0,0.01260190086298274
965.0,0.012423105273012602
964.0,0.012289056869694281
963.0,0.012244383261476699
962.0,0.012289056869694281
961.0,0.012333735073725371
960.0,0.012289056869694281
959.0,0.01215504982870197
958.0,0.012021084124518078
957.0,0.011887159731648111
956.0,0.011753276624621556
955.0,0.011619434777991433
954.0,0.011574829993696856
953.0,0.011485634166333858
952.0,0.011307297450183107
951.0,0.011129033935354915
950.0,0.010950843561779777
949.0,0.01086177578421088
948.0,0.01077272626946324
947.0,0.01077272626946324
946.0,0.01077272626946324
945.0,0.01077272626946324
944.0,0.010817248744452446
943.0,0.01086177578421088
942.0,0.010906307389674463
941.0,0.010995384301463185
940.0,0.011084479487313281
939.0,0.011129033935354915
938.0,0.011218156546359825
937.0,0.011262724711199823
936.0,0.011262724711199823
935.0,0.011218156546359825
934.0,0.01117359295472431
933.0,0.011084479487313281
932.0,0.010995384301463185
931.0,0.010950843561779777
930.0,0.010995384301463185
929.0,0.011084479487313281
928.0,0.011084479487313281
927.0,0.011084479487313281
926.0,0.010995384301463185
925.0,0.010950843561779777
924.0,0.010950843561779777
923.0,0.010950843561779777
922.0,0.010995384301463185
921.0,0.011129033935354915
920.0,0.011351874764248926
919.0,0.011574829993696856
918.0,0.011708658092512314
917.0,0.011708658092512314
916.0,0.011619434777991433
915.0,0.011485634166333858
914.0,0.011441043121384498
913.0,0.011351874764248926
912.0,0.011307297450183107
911.0,0.011262724711199823
910.0,0.011218156546359825
909.0,0.01117359295472431
908.0,0.011039929609661936
907.0,0.01077272626946324
906.0,0.010505687227290839
905.0,0.01037222925484893
904.0,0.010327752376126709
903.0,0.010327752376126709
902.0,0.01037222925484893
901.0,0.010327752376126709
900.0,0.010194349063173958
899.0,0.010060986715464404
898.0,0.009927665307847056
897.0,0.009794384815193347
896.0,0.009705553871561357
895.0,0.00966114521239847
894.0,0.009572341514736404
893.0,0.009527946474380489
892.0,0.009527946474380489
891.0,0.009616741093766423
890.0,0.00974996707218323
889.0,0.009794384815193347
888.0,0.009705553871561357
887.0,0.009572341514736404
886.0,0.009483555971770974
885.0,0.009483555971770974
884.0,0.00939478857608056
883.0,0.009261671492462709
882.0,0.009128595198514056
881.0,0.009039900317800775
880.0,0.009039900317800775
879.0,0.009172949432521227
878.0,0.009306039320248427
877.0,0.00939478857608056
876.0,0.009483555971770974
875.0,0.009572341514736404
874.0,0.009616741093766423
873.0,0.009527946474380489
872.0,0.009350411681145587
871.0,0.009217308196862062
870.0,0.009217308196862062
869.0,0.009350411681145587
868.0,0.009527946474380489
867.0,0.00966114521239847
866.0,0.00974996707218323
865.0,0.009794384815193347
864.0,0.009838807101520963
863.0,0.009838807101520963
862.0,0.009883233932095559
861.0,0.01001654169860089
860.0,0.01023881228122181
859.0,0.010416710688994968
858.0,0.010550182333308289
857.0,0.010639186223752484
856.0,0.010728208358306901
855.0,0.010817248744452446
854.0,0.010817248744452446
853.0,0.01086177578421088
852.0,0.01086177578421088
851.0,0.01086177578421088
850.0,0.01086177578421088
849.0,0.010817248744452446
848.0,0.010728208358306901
847.0,0.010683695010048622
846.0,0.010639186223752484
845.0,0.010728208358306901
844.0,0.010817248744452446
843.0,0.010906307389674463
842.0,0.010995384301463185
841.0,0.011084479487313281
840.0,0.011039929609661936
839.0,0.010906307389674463
838.0,0.010639186223752484
837.0,0.01037222925484893
836.0,0.010149890396819572
835.0,0.009972101229705377
834.0,0.009838807101520963
833.0,0.009794384815193347
832.0,0.00974996707218323
831.0,0.00974996707218323
830.0,0.009705553871561357
829.0,0.009616741093766423
828.0,0.009616741093766423
827.0,0.009616741093766423
826.0,0.00966114521239847
825.0,0.009616741093766423
824.0,0.009572341514736404
823.0,0.009572341514736404
822.0,0.009616741093766423
821.0,0.009616741093766423
820.0,0.009572341514736404
819.0,0.009527946474380489
818.0,0.009527946474380489
817.0,0.009483555971770974
816.0,0.00939478857608056
815.0,0.009261671492462709
814.0,0.009128595198514056
813.0,0.008995559669244813
812.0,0.008906891951112605
811.0,0.008995559669244813
810.0,0.009172949432521227
809.0,0.009350411681145587
808.0,0.009527946474380489
807.0,0.009705553871561357
806.0,0.009883233932095559
805.0,0.01001654169860089
804.0,0.010060986715464404
803.0,0.01001654169860089
802.0,0.009927665307847056
801.0,0.009927665307847056
800.0,0.010105436281226954
799.0,0.01037222925484893
798.0,0.010594681998483901
797.0,0.010728208358306901
796.0,0.010817248744452446
795.0,0.010950843561779777
794.0,0.011039929609661936
793.0,0.011218156546359825
792.0,0.011262724711199823
791.0,0.011218156546359825
790.0,0.011039929609661936
789.0,0.01086177578421088
788.0,0.01077272626946324
787.0,0.01086177578421088
786.0,0.010995384301463185
785.0,0.011039929609661936
784.0,0.010950843561779777
783.0,0.01086177578421088
782.0,0.010817248744452446
781.0,0.010817248744452446
780.0,0.010728208358306901
779.0,0.010639186223752484
778.0,0.010505687227290839
777.0,0.010416710688994968
776.0,0.01037222925484893
775.0,0.01023881228122181
774.0,0.010105436281226954
773.0,0.009972101229705377
772.0,0.009883233932095559
771.0,0.009794384815193347
770.0,0.009794384815193347
769.0,0.009794384815193347
768.0,0.00966114521239847
767.0,0.009350411681145587
766.0,0.008951223547323472
765.0,0.0087296108049002
764.0,0.008685301823389224
763.0,0.0087296108049002
762.0,0.008818242332126802
761.0,0.008906891951112605
760.0,0.009039900317800775
759.0,0.009217308196862062
758.0,0.009261671492462709
757.0,0.009172949432521227
756.0,0.009039900317800775
755.0,0.008951223547323472
754.0,0.008951223547323472
753.0,0.009039900317800775
752.0,0.009217308196862062
751.0,0.00939478857608056
750.0,0.009483555971770974
749.0,0.009483555971770974
748.0,0.009350411681145587
747.0,0.009172949432521227
746.0,0.009039900317800775
745.0,0.009039900317800775
744.0,0.009217308196862062
743.0,0.009527946474380489
742.0,0.01001654169860089
741.0,0.010550182333308289
740.0,0.011129033935354915
739.0,0.011797899741219142
738.0,0.012870232340102872
737.0,0.014618439768003144
736.0,0.017728766960431575
735.0,0.02355831062115543
734.0,0.03367050483612166
733.0,0.04837110616336182
732.0,0.06489597884855036
731.0,0.07748213975538865
730.0,0.0812883346176787
729.0,0.07618627890881036
728.0,0.06671522765130522
727.0,0.058190526991161784
726.0,0.05340037498486727
725.0,0.05256627811294923
724.0,0.05546797900801881
723.0,0.06263258248271053
722.0,0.07504911108438939
721.0,0.0922125568893839
720.0,0.10952309103982927
719.0,0.11992991593593283
718.0,0.11992991593593283
717.0,0.11120293254331926
716.0,0.09761631556752848
715.0,0.08244197917456386
714.0,0.0681862960408608
713.0,0.056406567231630955
712.0,0.04749815213697639
711.0,0.04105406750606355
710.0,0.03630659476198117
709.0,0.03263926003405038
708.0,0.029653123769906697
707.0,0.02724191609646076
706.0,0.025258095499050004
705.0,0.02365002099672653
704.0,0.022413561996148967
703.0,0.021499930688540836
702.0,0.020907099361673565
701.0,0.02045162529590483
700.0,0.02013307743509718
699.0,0.019860222254245663
698.0,0.019632973815224997
697.0,0.019451260640229506
696.0,0.019269623464054586
695.0,0.0190880622231564
694.0,0.018634490921455527
693.0,0.017864505196230507
692.0,0.017005545341335804
691.0,0.016554142658660398
690.0,0.016554142658660398
689.0,0.016734647433454652
688.0,0.016554142658660398
687.0,0.015922966097169144
686.0,0.015112798935672522
685.0,0.014663358264387139
684.0,0.015067833932588037
683.0,0.016103208673694303
682.0,0.017005545341335804
681.0,0.017050711425501408
680.0,0.016058141016111804
679.0,0.014932966849499074
678.0,0.014438812226654996
677.0,0.014843078722943437
676.0,0.015652742414136167
675.0,0.016103208673694303
674.0,0.015832872853011715
673.0,0.015427684378367834
672.0,0.01538268676325183
671.0,0.015922966097169144
670.0,0.016689514205884493
669.0,0.016599261819461697
668.0,0.015202742910707112
667.0,0.013676222949234651
666.0,0.012914970375878188
665.0,0.012423105273012602
664.0,0.011842527443247208
663.0,0.011351874764248926
662.0,0.011218156546359825
661.0,0.011574829993696856
660.0,0.01215504982870197
659.0,0.012691326268817527
658.0,0.013049212141483357
657.0,0.013093968619278806
656.0,0.012825498912458322
655.0,0.012244383261476699
654.0,0.011574829993696856
653.0,0.011396456654336085
652.0,0.011931796607364653
651.0,0.012780770091995297
650.0,0.013452186585275916
649.0,0.013765869865004277
648.0,0.013765869865004277
647.0,0.013586594534531482
646.0,0.013004460275618523
645.0,0.012289056869694281
644.0,0.011574829993696856
643.0,0.01117359295472431
642.0,0.010950843561779777
641.0,0.010995384301463185
640.0,0.011351874764248926
639.0,0.012065734767841452
638.0,0.01322826573375524
637.0,0.014798141635428141
636.0,0.01646391839700767
635.0,0.017547848615010242
634.0,0.017321806616515723
633.0,0.016058141016111804
632.0,0.014663358264387139
631.0,0.01381070026317599
630.0,0.013273040668781544
629.0,0.012512493866907004
628.0,0.011441043121384498
627.0,0.01077272626946324
626.0,0.01117359295472431
625.0,0.01260190086298274
624.0,0.014169510141607944
623.0,0.015202742910707112
622.0,0.01596801972881945
621.0,0.016870075265299933
620.0,0.01768353030793479
619.0,0.017502630802287644
618.0,0.01596801972881945
617.0,0.014124642691606404
616.0,0.013317820220494436
615.0,0.01381070026317599
614.0,0.014888020460646079
613.0,0.016013078034810446
612.0,0.016644385668211692
611.0,0.01628352608625061
610.0,0.015292705517326866
609.0,0.015067833932588037
608.0,0.016418813294209356
607.0,0.018770512579999288
606.0,0.020770406977844713
605.0,0.021363051615525652
604.0,0.020497151212598652
603.0,0.018226681372252695
602.0,0.014932966849499074
601.0,0.011664044143949504
600.0,0.009128595198514056
