cm-1,A
4000.0,0.0007389288868995258
3999.0,0.0006954276616513155
3998.0,0.0006519307932786322
3997.0,0.0006084382809090627
3996.0,0.0006519307932786322
3995.0,0.0007389288868995258
3994.0,0.0008259444115150671
3993.0,0.000869458712629001
3992.0,0.0008259444115150671
3991.0,0.0007824344698965646
3990.0,0.0006954276616513155
3989.0,0.0006954276616513155
3988.0,0.0006954276616513155
3987.0,0.0007389288868995258
3986.0,0.0007389288868995258
3985.0,0.0007389288868995258
3984.0,0.0007389288868995258
3983.0,0.0007389288868995258
3982.0,0.0007389288868995258
3981.0,0.0007389288868995258
3980.0,0.0007389288868995258
3979.0,0.0008259444115150671
3978.0,0.000869458712629001
3977.0,0.0009129773741116676
3976.0,0.0009129773741116676
3975.0,0.000869458712629001
3974.0,0.0008259444115150671
3973.0,0.0008259444115150671
3972.0,0.0008259444115150671
3971.0,0.000869458712629001
3970.0,0.000869458712629001
3969.0,0.0009129773741116676
3968.0,0.000869458712629001
3967.0,0.000869458712629001
3966.0,0.0008259444115150671
3965.0,0.0008259444115150671
3964.0,0.0007824344698965646
3963.0,0.0007824344698965646
3962.0,0.0007389288868995258
3961.0,0.0007389288868995258
3960.0,0.0007389288868995258
3959.0,0.0008259444115150671
3958.0,0.000869458712629001
3957.0,0.0009129773741116676
3956.0,0.0009565003968372565
3955.0,0.0009565003968372565
3954.0,0.0009565003968372565
3953.0,0.0009129773741116676
3952.0,0.0009565003968372565
3951.0,0.0009565003968372565
3950.0,0.0009565003968372565
3949.0,0.0009565003968372565
3948.0,0.0009129773741116676
3947.0,0.0008259444115150671
3946.0,0.0007389288868995258
3945.0,0.0006519307932786322
3944.0,0.0006084382809090627
3943.0,0.0006084382809090627
3942.0,0.0006084382809090627
3941.0,0.0006519307932786322
3940.0,0.0006954276616513155
3939.0,0.0007389288868995258
3938.0,0.0007824344698965646
3937.0,0.0008259444115150671
3936.0,0.0008259444115150671
3935.0,0.000869458712629001
3934.0,0.0008259444115150671
3933.0,0.0007824344698965646
3932.0,0.0006954276616513155
3931.0,0.0006519307932786322
3930.0,0.0006084382809090627
3929.0,0.0006519307932786322
3928.0,0.0007389288868995258
3927.0,0.0008259444115150671
3926.0,0.000869458712629001
3925.0,0.0008259444115150671
3924.0,0.0007389288868995258
3923.0,0.0006954276616513155
3922.0,0.0006954276616513155
3921.0,0.0007389288868995258
3920.0,0.0007824344698965646
3919.0,0.000869458712629001
3918.0,0.0009565003968372565
3917.0,0.0010000277816797354
3916.0,0.0010000277816797354
3915.0,0.0009565003968372565
3914.0,0.000869458712629001
3913.0,0.0008259444115150671
3912.0,0.0007389288868995258
3911.0,0.0006519307932786322
3910.0,0.0006084382809090627
3909.0,0.0006084382809090627
3908.0,0.0005649501236701937
3907.0,0.0006084382809090627
3906.0,0.0007389288868995258
3905.0,0.000869458712629001
3904.0,0.0009129773741116676
3903.0,0.000869458712629001
3902.0,0.0007824344698965646
3901.0,0.0007389288868995258
3900.0,0.0007389288868995258
3899.0,0.0008259444115150671
3898.0,0.0008259444115150671
3897.0,0.0008259444115150671
3896.0,0.0007389288868995258
3895.0,0.0006519307932786322
3894.0,0.0006084382809090627
3893.0,0.0006519307932786322
3892.0,0.0006954276616513155
3891.0,0.0006954276616513155
3890.0,0.0006954276616513155
3889.0,0.0007389288868995258
3888.0,0.0008259444115150671
3887.0,0.0009565003968372565
3886.0,0.0010435595295137379
3885.0,0.0010870956412141197
3884.0,0.0010870956412141197
3883.0,0.0010870956412141197
3882.0,0.0010435595295137379
3881.0,0.000869458712629001
3880.0,0.0006954276616513155
3879.0,0.0005649501236701937
3878.0,0.0006084382809090627
3877.0,0.0006519307932786322
3876.0,0.0006519307932786322
3875.0,0.0006519307932786322
3874.0,0.0006519307932786322
3873.0,0.0007824344698965646
3872.0,0.0009565003968372565
3871.0,0.0010435595295137379
3870.0,0.0010000277816797354
3869.0,0.000869458712629001
3868.0,0.0008259444115150671
3867.0,0.000869458712629001
3866.0,0.000869458712629001
3865.0,0.0007824344698965646
3864.0,0.0006954276616513155
3863.0,0.0006519307932786322
3862.0,0.0006954276616513155
3861.0,0.0007389288868995258
3860.0,0.0007824344698965646
3859.0,0.0007824344698965646
3858.0,0.0007824344698965646
3857.0,0.0008259444115150671
3856.0,0.0010000277816797354
3855.0,0.0012612837441823288
3854.0,0.0014355417390583547
3853.0,0.0013919706849057079
3852.0,0.0012612837441823288
3851.0,0.0011741809597138886
3850.0,0.0011306361176557367
3849.0,0.0010000277816797354
3848.0,0.0009129773741116676
3847.0,0.000869458712629001
3846.0,0.0008259444115150671
3845.0,0.0007824344698965646
3844.0,0.0006519307932786322
3843.0,0.0005649501236701937
3842.0,0.000521466320689834
3841.0,0.0006519307932786322
3840.0,0.0007824344698965646
3839.0,0.0009565003968372565
3838.0,0.0010000277816797354
3837.0,0.0010435595295137379
3836.0,0.0010435595295137379
3835.0,0.0010870956412141197
3834.0,0.0010435595295137379
3833.0,0.0010000277816797354
3832.0,0.0009565003968372565
3831.0,0.0010000277816797354
3830.0,0.0010435595295137379
3829.0,0.0010870956412141197
3828.0,0.0010000277816797354
3827.0,0.000869458712629001
3826.0,0.0006519307932786322
3825.0,0.0005649501236701937
3824.0,0.0006084382809090627
3823.0,0.0007389288868995258
3822.0,0.0009129773741116676
3821.0,0.0010000277816797354
3820.0,0.0010000277816797354
3819.0,0.0010435595295137379
3818.0,0.0010435595295137379
3817.0,0.0010435595295137379
3816.0,0.0009565003968372565
3815.0,0.0008259444115150671
3814.0,0.0007824344698965646
3813.0,0.0007824344698965646
3812.0,0.0007389288868995258
3811.0,0.0006954276616513155
3810.0,0.0006954276616513155
3809.0,0.0007824344698965646
3808.0,0.000869458712629001
3807.0,0.0009565003968372565
3806.0,0.0010000277816797354
3805.0,0.0010870956412141197
3804.0,0.0012177301682640973
3803.0,0.001304841688344327
3802.0,0.0012177301682640973
3801.0,0.0010000277816797354
3800.0,0.0008259444115150671
3799.0,0.0008259444115150671
3798.0,0.0009129773741116676
3797.0,0.0010000277816797354
3796.0,0.0010000277816797354
3795.0,0.0009565003968372565
3794.0,0.0009565003968372565
3793.0,0.0009565003968372565
3792.0,0.0009129773741116676
3791.0,0.000869458712629001
3790.0,0.000869458712629001
3789.0,0.0009129773741116676
3788.0,0.0009565003968372565
3787.0,0.0009565003968372565
3786.0,0.0009129773741116676
3785.0,0.0007824344698965646
3784.0,0.0006954276616513155
3783.0,0.0006954276616513155
3782.0,0.0007389288868995258
3781.0,0.0008259444115150671
3780.0,0.000869458712629001
3779.0,0.000869458712629001
3778.0,0.0008259444115150671
3777.0,0.0008259444115150671
3776.0,0.000869458712629001
3775.0,0.000869458712629001
3774.0,0.0008259444115150671
3773.0,0.000869458712629001
3772.0,0.0009129773741116676
3771.0,0.0009565003968372565
3770.0,0.0009565003968372565
3769.0,0.0009565003968372565
3768.0,0.0009565003968372565
3767.0,0.0010000277816797354
3766.0,0.0010000277816797354
3765.0,0.0010000277816797354
3764.0,0.0009565003968372565
3763.0,0.0009565003968372565
3762.0,0.0009565003968372565
3761.0,0.000869458712629001
3760.0,0.0007389288868995258
3759.0,0.0006954276616513155
3758.0,0.0006954276616513155
3757.0,0.0008259444115150671
3756.0,0.0009565003968372565
3755.0,0.0010435595295137379
3754.0,0.0011306361176557367
3753.0,0.0011306361176557367
3752.0,0.0010870956412141197
3751.0,0.0010435595295137379
3750.0,0.0010870956412141197
3749.0,0.0011741809597138886
3748.0,0.0012177301682640973
3747.0,0.0011741809597138886
3746.0,0.0010870956412141197
3745.0,0.0009565003968372565
3744.0,0.0009565003968372565
3743.0,0.0010870956412141197
3742.0,0.001304841688344327
3741.0,0.0013919706849057079
3740.0,0.001304841688344327
3739.0,0.0011741809597138886
3738.0,0.0011741809597138886
3737.0,0.0012177301682640973
3736.0,0.0012612837441823288
3735.0,0.001304841688344327
3734.0,0.001304841688344327
3733.0,0.001348404001626502
3732.0,0.001348404001626502
3731.0,0.001348404001626502
3730.0,0.001348404001626502
3729.0,0.001304841688344327
3728.0,0.001304841688344327
3727.0,0.001304841688344327
3726.0,0.0012177301682640973
3725.0,0.0011306361176557367
3724.0,0.0010000277816797354
3723.0,0.0009129773741116676
3722.0,0.0008259444115150671
3721.0,0.000869458712629001
3720.0,0.0009129773741116676
3719.0,0.0009565003968372565
3718.0,0.0009565003968372565
3717.0,0.000869458712629001
3716.0,0.0007824344698965646
3715.0,0.0007824344698965646
3714.0,0.0007824344698965646
3713.0,0.0008259444115150671
3712.0,0.0008259444115150671
3711.0,0.000869458712629001
3710.0,0.0009129773741116676
3709.0,0.0010435595295137379
3708.0,0.0010870956412141197
3707.0,0.0011306361176557367
3706.0,0.0011741809597138886
3705.0,0.0012177301682640973
3704.0,0.0012612837441823288
3703.0,0.0012612837441823288
3702.0,0.0011741809597138886
3701.0,0.0010435595295137379
3700.0,0.0010000277816797354
3699.0,0.0009565003968372565
3698.0,0.0009565003968372565
3697.0,0.0009565003968372565
3696.0,0.0010000277816797354
3695.0,0.0010870956412141197
3694.0,0.0012177301682640973
3693.0,0.0012612837441823288
3692.0,0.001304841688344327
3691.0,0.0012612837441823288
3690.0,0.0012177301682640973
3689.0,0.0011741809597138886
3688.0,0.0011741809597138886
3687.0,0.0012177301682640973
3686.0,0.0012177301682640973
3685.0,0.0011306361176557367
3684.0,0.0010000277816797354
3683.0,0.000869458712629001
3682.0,0.0008259444115150671
3681.0,0.0008259444115150671
3680.0,0.0009129773741116676
3679.0,0.0009565003968372565
3678.0,0.0010000277816797354
3677.0,0.0009565003968372565
3676.0,0.0009129773741116676
3675.0,0.0007824344698965646
3674.0,0.0007389288868995258
3673.0,0.0008259444115150671
3672.0,0.000869458712629001
3671.0,0.0009129773741116676
3670.0,0.000869458712629001
3669.0,0.000869458712629001
3668.0,0.000869458712629001
3667.0,0.0009129773741116676
3666.0,0.000869458712629001
3665.0,0.0008259444115150671
3664.0,0.0007389288868995258
3663.0,0.0006519307932786322
3662.0,0.0005649501236701937
3661.0,0.000521466320689834
3660.0,0.0005649501236701937
3659.0,0.0006084382809090627
3658.0,0.0007824344698965646
3657.0,0.0009565003968372565
3656.0,0.0010870956412141197
3655.0,0.0011741809597138886
3654.0,0.0012177301682640973
3653.0,0.0012612837441823288
3652.0,0.0012177301682640973
3651.0,0.0011306361176557367
3650.0,0.0010435595295137379
3649.0,0.0009565003968372565
3648.0,0.0009129773741116676
3647.0,0.000869458712629001
3646.0,0.000869458712629001
3645.0,0.000869458712629001
3644.0,0.000869458712629001
3643.0,0.000869458712629001
3642.0,0.000869458712629001
3641.0,0.0009129773741116676
3640.0,0.000869458712629001
3639.0,0.000869458712629001
3638.0,0.0008259444115150671
3637.0,0.0007824344698965646
3636.0,0.0007824344698965646
3635.0,0.0007824344698965646
3634.0,0.000869458712629001
3633.0,0.0009565003968372565
3632.0,0.0010870956412141197
3631.0,0.0011306361176557367
3630.0,0.0010435595295137379
3629.0,0.0008259444115150671
3628.0,0.0007389288868995258
3627.0,0.0007824344698965646
3626.0,0.0009565003968372565
3625.0,0.0010435595295137379
3624.0,0.0010870956412141197
3623.0,0.0010435595295137379
3622.0,0.0010000277816797354
3621.0,0.0010000277816797354
3620.0,0.0010435595295137379
3619.0,0.0010435595295137379
3618.0,0.0010435595295137379
3617.0,0.0010870956412141197
3616.0,0.0011306361176557367
3615.0,0.0010870956412141197
3614.0,0.0010000277816797354
3613.0,0.000869458712629001
3612.0,0.0007824344698965646
3611.0,0.0007824344698965646
3610.0,0.0008259444115150671
3609.0,0.000869458712629001
3608.0,0.000869458712629001
3607.0,0.000869458712629001
3606.0,0.0009129773741116676
3605.0,0.0010000277816797354
3604.0,0.0010870956412141197
3603.0,0.0011741809597138886
3602.0,0.0012612837441823288
3601.0,0.0012612837441823288
3600.0,0.0012612837441823288
3599.0,0.0012177301682640973
3598.0,0.0011741809597138886
3597.0,0.0011741809597138886
3596.0,0.0011306361176557367
3595.0,0.0010870956412141197
3594.0,0.0010435595295137379
3593.0,0.0010870956412141197
3592.0,0.0011306361176557367
3591.0,0.0012177301682640973
3590.0,0.001304841688344327
3589.0,0.001304841688344327
3588.0,0.0011306361176557367
3587.0,0.0009129773741116676
3586.0,0.0006954276616513155
3585.0,0.0006084382809090627
3584.0,0.0005649501236701937
3583.0,0.0006084382809090627
3582.0,0.0006954276616513155
3581.0,0.0008259444115150671
3580.0,0.0009129773741116676
3579.0,0.0009565003968372565
3578.0,0.0009129773741116676
3577.0,0.0008259444115150671
3576.0,0.0007824344698965646
3575.0,0.0007389288868995258
3574.0,0.0007389288868995258
3573.0,0.0007389288868995258
3572.0,0.0007824344698965646
3571.0,0.0008259444115150671
3570.0,0.000869458712629001
3569.0,0.0009565003968372565
3568.0,0.0009565003968372565
3567.0,0.0009565003968372565
3566.0,0.0009129773741116676
3565.0,0.000869458712629001
3564.0,0.000869458712629001
3563.0,0.000869458712629001
3562.0,0.0008259444115150671
3561.0,0.0008259444115150671
3560.0,0.0007824344698965646
3559.0,0.0007389288868995258
3558.0,0.0006954276616513155
3557.0,0.0006519307932786322
3556.0,0.0006519307932786322
3555.0,0.0006084382809090627
3554.0,0.000521466320689834
3553.0,0.000521466320689834
3552.0,0.0005649501236701937
3551.0,0.0006954276616513155
3550.0,0.0008259444115150671
3549.0,0.0009129773741116676
3548.0,0.0009129773741116676
3547.0,0.0008259444115150671
3546.0,0.0007389288868995258
3545.0,0.0006519307932786322
3544.0,0.0006084382809090627
3543.0,0.0006519307932786322
3542.0,0.0006519307932786322
3541.0,0.0007389288868995258
3540.0,0.0007824344698965646
3539.0,0.000869458712629001
3538.0,0.0009129773741116676
3537.0,0.000869458712629001
3536.0,0.000869458712629001
3535.0,0.000869458712629001
3534.0,0.0009129773741116676
3533.0,0.0009565003968372565
3532.0,0.0010000277816797354
3531.0,0.0009565003968372565
3530.0,0.000869458712629001
3529.0,0.0008259444115150671
3528.0,0.0008259444115150671
3527.0,0.000869458712629001
3526.0,0.000869458712629001
3525.0,0.0008259444115150671
3524.0,0.0007389288868995258
3523.0,0.0006084382809090627
3522.0,0.0005649501236701937
3521.0,0.0005649501236701937
3520.0,0.0005649501236701937
3519.0,0.0006084382809090627
3518.0,0.0006954276616513155
3517.0,0.0007389288868995258
3516.0,0.0008259444115150671
3515.0,0.0009565003968372565
3514.0,0.0010435595295137379
3513.0,0.0011306361176557367
3512.0,0.0010870956412141197
3511.0,0.0010000277816797354
3510.0,0.000869458712629001
3509.0,0.0007824344698965646
3508.0,0.0007389288868995258
3507.0,0.0006954276616513155
3506.0,0.0006519307932786322
3505.0,0.0006519307932786322
3504.0,0.0006519307932786322
3503.0,0.0006954276616513155
3502.0,0.0007389288868995258
3501.0,0.0007389288868995258
3500.0,0.0007389288868995258
3499.0,0.0006954276616513155
3498.0,0.0007389288868995258
3497.0,0.0007824344698965646
3496.0,0.000869458712629001
3495.0,0.0009565003968372565
3494.0,0.0010000277816797354
3493.0,0.0009565003968372565
3492.0,0.0009565003968372565
3491.0,0.0009129773741116676
3490.0,0.000869458712629001
3489.0,0.0009129773741116676
3488.0,0.0009565003968372565
3487.0,0.0010000277816797354
3486.0,0.0010000277816797354
3485.0,0.0009565003968372565
3484.0,0.0009129773741116676
3483.0,0.000869458712629001
3482.0,0.0008259444115150671
3481.0,0.0008259444115150671
3480.0,0.0008259444115150671
3479.0,0.0007824344698965646
3478.0,0.0006954276616513155
3477.0,0.0006084382809090627
3476.0,0.0005649501236701937
3475.0,0.0006519307932786322
3474.0,0.0008259444115150671
3473.0,0.0010000277816797354
3472.0,0.0011306361176557367
3471.0,0.0012177301682640973
3470.0,0.0011741809597138886
3469.0,0.0010435595295137379
3468.0,0.0009565003968372565
3467.0,0.0009129773741116676
3466.0,0.0010000277816797354
3465.0,0.0010435595295137379
3464.0,0.0010870956412141197
3463.0,0.0010435595295137379
3462.0,0.0009565003968372565
3461.0,0.000869458712629001
3460.0,0.0008259444115150671
3459.0,0.0007824344698965646
3458.0,0.0007824344698965646
3457.0,0.0007824344698965646
3456.0,0.0009129773741116676
3455.0,0.0010435595295137379
3454.0,0.0011306361176557367
3453.0,0.0011741809597138886
3452.0,0.0011306361176557367
3451.0,0.0010870956412141197
3450.0,0.0010870956412141197
3449.0,0.0011306361176557367
3448.0,0.0011741809597138886
3447.0,0.0011741809597138886
3446.0,0.0011741809597138886
3445.0,0.0011741809597138886
3444.0,0.0011306361176557367
3443.0,0.0010870956412141197
3442.0,0.0010435595295137379
3441.0,0.0010000277816797354
3440.0,0.0010000277816797354
3439.0,0.0010435595295137379
3438.0,0.0011306361176557367
3437.0,0.0011306361176557367
3436.0,0.0011306361176557367
3435.0,0.0010435595295137379
3434.0,0.0009565003968372565
3433.0,0.000869458712629001
3432.0,0.0008259444115150671
3431.0,0.0008259444115150671
3430.0,0.000869458712629001
3429.0,0.0009565003968372565
3428.0,0.0010000277816797354
3427.0,0.0010000277816797354
3426.0,0.0009565003968372565
3425.0,0.0009129773741116676
3424.0,0.0009129773741116676
3423.0,0.0009565003968372565
3422.0,0.0010000277816797354
3421.0,0.0010435595295137379
3420.0,0.0011741809597138886
3419.0,0.0012612837441823288
3418.0,0.001348404001626502
3417.0,0.0013919706849057079
3416.0,0.001348404001626502
3415.0,0.0012612837441823288
3414.0,0.0011741809597138886
3413.0,0.0010435595295137379
3412.0,0.0009129773741116676
3411.0,0.0008259444115150671
3410.0,0.0007824344698965646
3409.0,0.0008259444115150671
3408.0,0.0009129773741116676
3407.0,0.0010000277816797354
3406.0,0.0010000277816797354
3405.0,0.0009565003968372565
3404.0,0.0009129773741116676
3403.0,0.0009129773741116676
3402.0,0.0009565003968372565
3401.0,0.0010000277816797354
3400.0,0.0010000277816797354
3399.0,0.0010000277816797354
3398.0,0.0009565003968372565
3397.0,0.0010000277816797354
3396.0,0.0010000277816797354
3395.0,0.0010000277816797354
3394.0,0.0010000277816797354
3393.0,0.0009129773741116676
3392.0,0.0007824344698965646
3391.0,0.0007389288868995258
3390.0,0.0006954276616513155
3389.0,0.0007389288868995258
3388.0,0.0007824344698965646
3387.0,0.0009129773741116676
3386.0,0.0010435595295137379
3385.0,0.0011306361176557367
3384.0,0.0011741809597138886
3383.0,0.0011306361176557367
3382.0,0.0010870956412141197
3381.0,0.0010435595295137379
3380.0,0.0009565003968372565
3379.0,0.000869458712629001
3378.0,0.0008259444115150671
3377.0,0.000869458712629001
3376.0,0.0009129773741116676
3375.0,0.0009565003968372565
3374.0,0.0010435595295137379
3373.0,0.0010435595295137379
3372.0,0.0010435595295137379
3371.0,0.0010000277816797354
3370.0,0.0009565003968372565
3369.0,0.000869458712629001
3368.0,0.0007824344698965646
3367.0,0.0007389288868995258
3366.0,0.0007824344698965646
3365.0,0.0008259444115150671
3364.0,0.000869458712629001
3363.0,0.0008259444115150671
3362.0,0.0007389288868995258
3361.0,0.0006084382809090627
3360.0,0.0005649501236701937
3359.0,0.0005649501236701937
3358.0,0.0006519307932786322
3357.0,0.0006954276616513155
3356.0,0.0006954276616513155
3355.0,0.0007389288868995258
3354.0,0.0008259444115150671
3353.0,0.0009565003968372565
3352.0,0.0010870956412141197
3351.0,0.0010870956412141197
3350.0,0.0010000277816797354
3349.0,0.000869458712629001
3348.0,0.0007389288868995258
3347.0,0.0006519307932786322
3346.0,0.0007389288868995258
3345.0,0.0009129773741116676
3344.0,0.0011306361176557367
3343.0,0.001304841688344327
3342.0,0.0014355417390583547
3341.0,0.0014355417390583547
3340.0,0.001304841688344327
3339.0,0.0011306361176557367
3338.0,0.0010000277816797354
3337.0,0.0009565003968372565
3336.0,0.0009565003968372565
3335.0,0.0010000277816797354
3334.0,0.0009565003968372565
3333.0,0.0009129773741116676
3332.0,0.0009129773741116676
3331.0,0.0009565003968372565
3330.0,0.0010435595295137379
3329.0,0.0010870956412141197
3328.0,0.0011306361176557367
3327.0,0.0010870956412141197
3326.0,0.0010435595295137379
3325.0,0.0009565003968372565
3324.0,0.0009129773741116676
3323.0,0.0009129773741116676
3322.0,0.0009129773741116676
3321.0,0.0009129773741116676
3320.0,0.0009565003968372565
3319.0,0.0009565003968372565
3318.0,0.0010000277816797354
3317.0,0.0010000277816797354
3316.0,0.0010000277816797354
3315.0,0.0009565003968372565
3314.0,0.0010000277816797354
3313.0,0.0010000277816797354
3312.0,0.0010435595295137379
3311.0,0.0010000277816797354
3310.0,0.0009565003968372565
3309.0,0.000869458712629001
3308.0,0.0008259444115150671
3307.0,0.0008259444115150671
3306.0,0.0009129773741116676
3305.0,0.0010435595295137379
3304.0,0.0011306361176557367
3303.0,0.0011306361176557367
3302.0,0.0010435595295137379
3301.0,0.0009565003968372565
3300.0,0.0009129773741116676
3299.0,0.0009129773741116676
3298.0,0.0009129773741116676
3297.0,0.000869458712629001
3296.0,0.000869458712629001
3295.0,0.0010000277816797354
3294.0,0.0011306361176557367
3293.0,0.0012177301682640973
3292.0,0.0012612837441823288
3291.0,0.0012177301682640973
3290.0,0.0011741809597138886
3289.0,0.0011741809597138886
3288.0,0.0011741809597138886
3287.0,0.0012177301682640973
3286.0,0.0011741809597138886
3285.0,0.0010870956412141197
3284.0,0.0009565003968372565
3283.0,0.000869458712629001
3282.0,0.0008259444115150671
3281.0,0.0008259444115150671
3280.0,0.000869458712629001
3279.0,0.0009129773741116676
3278.0,0.000869458712629001
3277.0,0.000869458712629001
3276.0,0.0008259444115150671
3275.0,0.0007824344698965646
3274.0,0.0007389288868995258
3273.0,0.0007389288868995258
3272.0,0.0008259444115150671
3271.0,0.000869458712629001
3270.0,0.0009565003968372565
3269.0,0.0009565003968372565
3268.0,0.0009129773741116676
3267.0,0.0009129773741116676
3266.0,0.0009129773741116676
3265.0,0.0009129773741116676
3264.0,0.0009565003968372565
3263.0,0.0009565003968372565
3262.0,0.0009565003968372565
3261.0,0.0010000277816797354
3260.0,0.0010000277816797354
3259.0,0.0010435595295137379
3258.0,0.0010870956412141197
3257.0,0.0010870956412141197
3256.0,0.0010435595295137379
3255.0,0.0009565003968372565
3254.0,0.000869458712629001
3253.0,0.0008259444115150671
3252.0,0.0008259444115150671
3251.0,0.000869458712629001
3250.0,0.0009129773741116676
3249.0,0.0010000277816797354
3248.0,0.0010435595295137379
3247.0,0.0011306361176557367
3246.0,0.0011306361176557367
3245.0,0.0010870956412141197
3244.0,0.0010435595295137379
3243.0,0.0009565003968372565
3242.0,0.000869458712629001
3241.0,0.000869458712629001
3240.0,0.000869458712629001
3239.0,0.0009565003968372565
3238.0,0.0010870956412141197
3237.0,0.0011741809597138886
3236.0,0.0012177301682640973
3235.0,0.0011741809597138886
3234.0,0.0011306361176557367
3233.0,0.0011306361176557367
3232.0,0.0011306361176557367
3231.0,0.0010870956412141197
3230.0,0.0010000277816797354
3229.0,0.0009129773741116676
3228.0,0.000869458712629001
3227.0,0.000869458712629001
3226.0,0.000869458712629001
3225.0,0.000869458712629001
3224.0,0.000869458712629001
3223.0,0.0007824344698965646
3222.0,0.0006954276616513155
3221.0,0.0007389288868995258
3220.0,0.0008259444115150671
3219.0,0.0009129773741116676
3218.0,0.0010435595295137379
3217.0,0.0011306361176557367
3216.0,0.0012177301682640973
3215.0,0.0012177301682640973
3214.0,0.0010870956412141197
3213.0,0.0009565003968372565
3212.0,0.0007824344698965646
3211.0,0.0007389288868995258
3210.0,0.0007824344698965646
3209.0,0.0008259444115150671
3208.0,0.000869458712629001
3207.0,0.000869458712629001
3206.0,0.000869458712629001
3205.0,0.000869458712629001
3204.0,0.0009129773741116676
3203.0,0.0010000277816797354
3202.0,0.0010435595295137379
3201.0,0.0010435595295137379
3200.0,0.0009565003968372565
3199.0,0.000869458712629001
3198.0,0.0008259444115150671
3197.0,0.0007824344698965646
3196.0,0.0007824344698965646
3195.0,0.0007824344698965646
3194.0,0.000869458712629001
3193.0,0.0009565003968372565
3192.0,0.0010870956412141197
3191.0,0.0011306361176557367
3190.0,0.0011306361176557367
3189.0,0.0010870956412141197
3188.0,0.0010000277816797354
3187.0,0.0009565003968372565
3186.0,0.0009129773741116676
3185.0,0.000869458712629001
3184.0,0.0008259444115150671
3183.0,0.0007824344698965646
3182.0,0.0007389288868995258
3181.0,0.0007389288868995258
3180.0,0.0007824344698965646
3179.0,0.000869458712629001
3178.0,0.0009565003968372565
3177.0,0.0009565003968372565
3176.0,0.0009129773741116676
3175.0,0.0009129773741116676
3174.0,0.0010000277816797354
3173.0,0.0011306361176557367
3172.0,0.0012612837441823288
3171.0,0.001304841688344327
3170.0,0.0012612837441823288
3169.0,0.0012177301682640973
3168.0,0.0012177301682640973
3167.0,0.0011741809597138886
3166.0,0.0011306361176557367
3165.0,0.0010870956412141197
3164.0,0.0009565003968372565
3163.0,0.0007824344698965646
3162.0,0.0006084382809090627
3161.0,0.0005649501236701937
3160.0,0.0006519307932786322
3159.0,0.0008259444115150671
3158.0,0.0010000277816797354
3157.0,0.0010435595295137379
3156.0,0.0010000277816797354
3155.0,0.0010435595295137379
3154.0,0.0011306361176557367
3153.0,0.001304841688344327
3152.0,0.0013919706849057079
3151.0,0.001348404001626502
3150.0,0.0011306361176557367
3149.0,0.0009129773741116676
3148.0,0.0007824344698965646
3147.0,0.0007824344698965646
3146.0,0.000869458712629001
3145.0,0.0009565003968372565
3144.0,0.0010435595295137379
3143.0,0.0010435595295137379
3142.0,0.0010000277816797354
3141.0,0.0010000277816797354
3140.0,0.0010435595295137379
3139.0,0.0010435595295137379
3138.0,0.0010000277816797354
3137.0,0.000869458712629001
3136.0,0.0007824344698965646
3135.0,0.0006954276616513155
3134.0,0.0007824344698965646
3133.0,0.0009129773741116676
3132.0,0.0010870956412141197
3131.0,0.0011306361176557367
3130.0,0.0011306361176557367
3129.0,0.0010870956412141197
3128.0,0.0010870956412141197
3127.0,0.0011306361176557367
3126.0,0.0011741809597138886
3125.0,0.0010870956412141197
3124.0,0.0009565003968372565
3123.0,0.0008259444115150671
3122.0,0.0007389288868995258
3121.0,0.0006954276616513155
3120.0,0.0006954276616513155
3119.0,0.0006954276616513155
3118.0,0.0006954276616513155
3117.0,0.0007824344698965646
3116.0,0.0008259444115150671
3115.0,0.0009129773741116676
3114.0,0.0009129773741116676
3113.0,0.000869458712629001
3112.0,0.000869458712629001
3111.0,0.000869458712629001
3110.0,0.0009129773741116676
3109.0,0.000869458712629001
3108.0,0.0008259444115150671
3107.0,0.0007389288868995258
3106.0,0.0006954276616513155
3105.0,0.0006519307932786322
3104.0,0.0006954276616513155
3103.0,0.0007824344698965646
3102.0,0.0008259444115150671
3101.0,0.0008259444115150671
3100.0,0.0007824344698965646
3099.0,0.0006954276616513155
3098.0,0.0006954276616513155
3097.0,0.0007824344698965646
3096.0,0.0008259444115150671
3095.0,0.000869458712629001
3094.0,0.0008259444115150671
3093.0,0.0008259444115150671
3092.0,0.0008259444115150671
3091.0,0.0008259444115150671
3090.0,0.0007824344698965646
3089.0,0.0006954276616513155
3088.0,0.0006084382809090627
3087.0,0.0005649501236701937
3086.0,0.0005649501236701937
3085.0,0.0006519307932786322
3084.0,0.0007389288868995258
3083.0,0.0008259444115150671
3082.0,0.000869458712629001
3081.0,0.000869458712629001
3080.0,0.000869458712629001
3079.0,0.0007824344698965646
3078.0,0.0006954276616513155
3077.0,0.0006519307932786322
3076.0,0.0006519307932786322
3075.0,0.0006954276616513155
3074.0,0.0007824344698965646
3073.0,0.0008259444115150671
3072.0,0.000869458712629001
3071.0,0.000869458712629001
3070.0,0.0008259444115150671
3069.0,0.0008259444115150671
3068.0,0.0007824344698965646
3067.0,0.0007824344698965646
3066.0,0.0007824344698965646
3065.0,0.0007824344698965646
3064.0,0.0007824344698965646
3063.0,0.0008259444115150671
3062.0,0.000869458712629001
3061.0,0.000869458712629001
3060.0,0.0009129773741116676
3059.0,0.0009565003968372565
3058.0,0.0010000277816797354
3057.0,0.0010435595295137379
3056.0,0.0010000277816797354
3055.0,0.0009129773741116676
3054.0,0.0007824344698965646
3053.0,0.0006519307932786322
3052.0,0.0006519307932786322
3051.0,0.0006954276616513155
3050.0,0.0007824344698965646
3049.0,0.0008259444115150671
3048.0,0.000869458712629001
3047.0,0.0009565003968372565
3046.0,0.0010000277816797354
3045.0,0.0010435595295137379
3044.0,0.0010000277816797354
3043.0,0.0010000277816797354
3042.0,0.0010000277816797354
3041.0,0.0010435595295137379
3040.0,0.0010435595295137379
3039.0,0.0009565003968372565
3038.0,0.0008259444115150671
3037.0,0.0007824344698965646
3036.0,0.0007824344698965646
3035.0,0.0008259444115150671
3034.0,0.0009129773741116676
3033.0,0.0009565003968372565
3032.0,0.0010000277816797354
3031.0,0.0010000277816797354
3030.0,0.0009565003968372565
3029.0,0.0009129773741116676
3028.0,0.0008259444115150671
3027.0,0.0007824344698965646
3026.0,0.0007389288868995258
3025.0,0.0006954276616513155
3024.0,0.0006519307932786322
3023.0,0.0006519307932786322
3022.0,0.0006519307932786322
3021.0,0.0006954276616513155
3020.0,0.0007824344698965646
3019.0,0.0008259444115150671
3018.0,0.0007824344698965646
3017.0,0.0007824344698965646
3016.0,0.0007389288868995258
3015.0,0.0007389288868995258
3014.0,0.0007389288868995258
3013.0,0.0007389288868995258
3012.0,0.0007824344698965646
3011.0,0.0007824344698965646
3010.0,0.0007824344698965646
3009.0,0.0007824344698965646
3008.0,0.0007389288868995258
3007.0,0.0006519307932786322
3006.0,0.0006084382809090627
3005.0,0.0006084382809090627
3004.0,0.0006519307932786322
3003.0,0.0006954276616513155
3002.0,0.0007389288868995258
3001.0,0.0008259444115150671
3000.0,0.000869458712629001
2999.0,0.0009129773741116676
2998.0,0.0009129773741116676
2997.0,0.000869458712629001
2996.0,0.0008259444115150671
2995.0,0.0007824344698965646
2994.0,0.0007389288868995258
2993.0,0.0007389288868995258
2992.0,0.0007389288868995258
2991.0,0.0007824344698965646
2990.0,0.0007824344698965646
2989.0,0.0007824344698965646
2988.0,0.0007824344698965646
2987.0,0.0007824344698965646
2986.0,0.0007824344698965646
2985.0,0.0007824344698965646
2984.0,0.0007824344698965646
2983.0,0.0007389288868995258
2982.0,0.0006519307932786322
2981.0,0.0005649501236701937
2980.0,0.0005649501236701937
2979.0,0.0005649501236701937
2978.0,0.0006519307932786322
2977.0,0.0006954276616513155
2976.0,0.0006954276616513155
2975.0,0.0006954276616513155
2974.0,0.0006954276616513155
2973.0,0.0006954276616513155
2972.0,0.0007389288868995258
2971.0,0.0007824344698965646
2970.0,0.000869458712629001
2969.0,0.0009129773741116676
2968.0,0.0009565003968372565
2967.0,0.0010000277816797354
2966.0,0.0009565003968372565
2965.0,0.0009129773741116676
2964.0,0.0007824344698965646
2963.0,0.0006084382809090627
2962.0,0.000521466320689834
2961.0,0.0004779868710962365
2960.0,0.0005649501236701937
2959.0,0.0006519307932786322
2958.0,0.0007389288868995258
2957.0,0.0007824344698965646
2956.0,0.0007824344698965646
2955.0,0.0007389288868995258
2954.0,0.0006954276616513155
2953.0,0.0006519307932786322
2952.0,0.0006519307932786322
2951.0,0.0006084382809090627
2950.0,0.0006084382809090627
2949.0,0.0006084382809090627
2948.0,0.0005649501236701937
2947.0,0.0006084382809090627
2946.0,0.0006084382809090627
2945.0,0.0006084382809090627
2944.0,0.0006084382809090627
2943.0,0.0006084382809090627
2942.0,0.0006519307932786322
2941.0,0.0007389288868995258
2940.0,0.0007824344698965646
2939.0,0.000869458712629001
2938.0,0.0008259444115150671
2937.0,0.0008259444115150671
2936.0,0.0007824344698965646
2935.0,0.0007824344698965646
2934.0,0.0007824344698965646
2933.0,0.0007824344698965646
2932.0,0.0007389288868995258
2931.0,0.0007389288868995258
2930.0,0.0007389288868995258
2929.0,0.0008259444115150671
2928.0,0.0009129773741116676
2927.0,0.0009129773741116676
2926.0,0.0008259444115150671
2925.0,0.0007389288868995258
2924.0,0.0006519307932786322
2923.0,0.0006954276616513155
2922.0,0.0007389288868995258
2921.0,0.0007824344698965646
2920.0,0.0008259444115150671
2919.0,0.0008259444115150671
2918.0,0.0007389288868995258
2917.0,0.0006519307932786322
2916.0,0.0005649501236701937
2915.0,0.0005649501236701937
2914.0,0.0005649501236701937
2913.0,0.0006084382809090627
2912.0,0.0006084382809090627
2911.0,0.0006084382809090627
2910.0,0.0006084382809090627
2909.0,0.0005649501236701937
2908.0,0.0005649501236701937
2907.0,0.0006084382809090627
2906.0,0.0006084382809090627
2905.0,0.0006519307932786322
2904.0,0.0006954276616513155
2903.0,0.0007389288868995258
2902.0,0.0008259444115150671
2901.0,0.0009129773741116676
2900.0,0.0009565003968372565
2899.0,0.000869458712629001
2898.0,0.0008259444115150671
2897.0,0.0007824344698965646
2896.0,0.0007389288868995258
2895.0,0.0007389288868995258
2894.0,0.0007389288868995258
2893.0,0.0006954276616513155
2892.0,0.0006954276616513155
2891.0,0.0007389288868995258
2890.0,0.0007389288868995258
2889.0,0.0006954276616513155
2888.0,0.0006954276616513155
2887.0,0.0006519307932786322
2886.0,0.0006519307932786322
2885.0,0.0006519307932786322
2884.0,0.0006519307932786322
2883.0,0.0006519307932786322
2882.0,0.0006519307932786322
2881.0,0.0006954276616513155
2880.0,0.0007824344698965646
2879.0,0.0008259444115150671
2878.0,0.000869458712629001
2877.0,0.0009129773741116676
2876.0,0.0009129773741116676
2875.0,0.0009565003968372565
2874.0,0.0009129773741116676
2873.0,0.000869458712629001
2872.0,0.000869458712629001
2871.0,0.0008259444115150671
2870.0,0.0008259444115150671
2869.0,0.0008259444115150671
2868.0,0.000869458712629001
2867.0,0.000869458712629001
2866.0,0.0009129773741116676
2865.0,0.0009129773741116676
2864.0,0.0009565003968372565
2863.0,0.0009565003968372565
2862.0,0.0009565003968372565
2861.0,0.0009565003968372565
2860.0,0.000869458712629001
2859.0,0.0008259444115150671
2858.0,0.0008259444115150671
2857.0,0.0007824344698965646
2856.0,0.0007824344698965646
2855.0,0.0007824344698965646
2854.0,0.0007389288868995258
2853.0,0.0006954276616513155
2852.0,0.0006519307932786322
2851.0,0.0006519307932786322
2850.0,0.0006519307932786322
2849.0,0.0006519307932786322
2848.0,0.0006519307932786322
2847.0,0.0006954276616513155
2846.0,0.0007389288868995258
2845.0,0.0007824344698965646
2844.0,0.0008259444115150671
2843.0,0.0008259444115150671
2842.0,0.000869458712629001
2841.0,0.000869458712629001
2840.0,0.000869458712629001
2839.0,0.0008259444115150671
2838.0,0.0007824344698965646
2837.0,0.0007824344698965646
2836.0,0.0007389288868995258
2835.0,0.0006954276616513155
2834.0,0.0006954276616513155
2833.0,0.0007389288868995258
2832.0,0.0007824344698965646
2831.0,0.000869458712629001
2830.0,0.0009129773741116676
2829.0,0.0009129773741116676
2828.0,0.0009129773741116676
2827.0,0.000869458712629001
2826.0,0.0008259444115150671
2825.0,0.0007389288868995258
2824.0,0.0006954276616513155
2823.0,0.0006954276616513155
2822.0,0.0007824344698965646
2821.0,0.000869458712629001
2820.0,0.0009129773741116676
2819.0,0.0009565003968372565
2818.0,0.0009565003968372565
2817.0,0.0009129773741116676
2816.0,0.0009129773741116676
2815.0,0.0009129773741116676
2814.0,0.000869458712629001
2813.0,0.000869458712629001
2812.0,0.000869458712629001
2811.0,0.0008259444115150671
2810.0,0.0007824344698965646
2809.0,0.0007389288868995258
2808.0,0.0006954276616513155
2807.0,0.0006519307932786322
2806.0,0.0006954276616513155
2805.0,0.0007389288868995258
2804.0,0.0007824344698965646
2803.0,0.0007824344698965646
2802.0,0.0007824344698965646
2801.0,0.0007389288868995258
2800.0,0.0007389288868995258
2799.0,0.0007824344698965646
2798.0,0.0008259444115150671
2797.0,0.000869458712629001
2796.0,0.0009129773741116676
2795.0,0.0009129773741116676
2794.0,0.0009129773741116676
2793.0,0.0009129773741116676
2792.0,0.0009129773741116676
2791.0,0.0009129773741116676
2790.0,0.0009129773741116676
2789.0,0.0009129773741116676
2788.0,0.0009129773741116676
2787.0,0.000869458712629001
2786.0,0.0008259444115150671
2785.0,0.0007389288868995258
2784.0,0.0006954276616513155
2783.0,0.0007389288868995258
2782.0,0.0007824344698965646
2781.0,0.000869458712629001
2780.0,0.0009129773741116676
2779.0,0.0009129773741116676
2778.0,0.000869458712629001
2777.0,0.0008259444115150671
2776.0,0.0008259444115150671
2775.0,0.0009129773741116676
2774.0,0.0010000277816797354
2773.0,0.0010870956412141197
2772.0,0.0010870956412141197
2771.0,0.0010435595295137379
2770.0,0.0009565003968372565
2769.0,0.000869458712629001
2768.0,0.0008259444115150671
2767.0,0.0008259444115150671
2766.0,0.0008259444115150671
2765.0,0.0008259444115150671
2764.0,0.0008259444115150671
2763.0,0.0007824344698965646
2762.0,0.0007824344698965646
2761.0,0.0008259444115150671
2760.0,0.0008259444115150671
2759.0,0.0008259444115150671
2758.0,0.000869458712629001
2757.0,0.0009129773741116676
2756.0,0.0009565003968372565
2755.0,0.0009129773741116676
2754.0,0.0009129773741116676
2753.0,0.000869458712629001
2752.0,0.0009129773741116676
2751.0,0.0009565003968372565
2750.0,0.0009129773741116676
2749.0,0.0009129773741116676
2748.0,0.000869458712629001
2747.0,0.000869458712629001
2746.0,0.000869458712629001
2745.0,0.000869458712629001
2744.0,0.000869458712629001
2743.0,0.000869458712629001
2742.0,0.000869458712629001
2741.0,0.0008259444115150671
2740.0,0.0008259444115150671
2739.0,0.0007824344698965646
2738.0,0.0007824344698965646
2737.0,0.0008259444115150671
2736.0,0.000869458712629001
2735.0,0.0009129773741116676
2734.0,0.000869458712629001
2733.0,0.0007824344698965646
2732.0,0.0007389288868995258
2731.0,0.0007389288868995258
2730.0,0.0007824344698965646
2729.0,0.000869458712629001
2728.0,0.0009565003968372565
2727.0,0.0010435595295137379
2726.0,0.0010870956412141197
2725.0,0.0010870956412141197
2724.0,0.0010000277816797354
2723.0,0.0009129773741116676
2722.0,0.0008259444115150671
2721.0,0.0007389288868995258
2720.0,0.0006954276616513155
2719.0,0.0007389288868995258
2718.0,0.0007824344698965646
2717.0,0.000869458712629001
2716.0,0.0009565003968372565
2715.0,0.0009129773741116676
2714.0,0.000869458712629001
2713.0,0.0008259444115150671
2712.0,0.0007824344698965646
2711.0,0.0007824344698965646
2710.0,0.0008259444115150671
2709.0,0.000869458712629001
2708.0,0.000869458712629001
2707.0,0.0009129773741116676
2706.0,0.0009129773741116676
2705.0,0.000869458712629001
2704.0,0.0008259444115150671
2703.0,0.0008259444115150671
2702.0,0.0007824344698965646
2701.0,0.0007824344698965646
2700.0,0.0007389288868995258
2699.0,0.0007389288868995258
2698.0,0.0006954276616513155
2697.0,0.0006954276616513155
2696.0,0.0007389288868995258
2695.0,0.0007824344698965646
2694.0,0.0008259444115150671
2693.0,0.000869458712629001
2692.0,0.0009129773741116676
2691.0,0.0009129773741116676
2690.0,0.0009129773741116676
2689.0,0.000869458712629001
2688.0,0.0008259444115150671
2687.0,0.0007824344698965646
2686.0,0.0007824344698965646
2685.0,0.0008259444115150671
2684.0,0.0008259444115150671
2683.0,0.000869458712629001
2682.0,0.0009129773741116676
2681.0,0.0009129773741116676
2680.0,0.0009129773741116676
2679.0,0.000869458712629001
2678.0,0.0008259444115150671
2677.0,0.0008259444115150671
2676.0,0.0008259444115150671
2675.0,0.0008259444115150671
2674.0,0.0008259444115150671
2673.0,0.0008259444115150671
2672.0,0.000869458712629001
2671.0,0.000869458712629001
2670.0,0.000869458712629001
2669.0,0.0008259444115150671
2668.0,0.0007824344698965646
2667.0,0.0007824344698965646
2666.0,0.0008259444115150671
2665.0,0.000869458712629001
2664.0,0.0009129773741116676
2663.0,0.0009565003968372565
2662.0,0.0009129773741116676
2661.0,0.000869458712629001
2660.0,0.0008259444115150671
2659.0,0.0007824344698965646
2658.0,0.0007389288868995258
2657.0,0.0006954276616513155
2656.0,0.0006954276616513155
2655.0,0.0007389288868995258
2654.0,0.0007824344698965646
2653.0,0.000869458712629001
2652.0,0.0009129773741116676
2651.0,0.0009129773741116676
2650.0,0.0009129773741116676
2649.0,0.000869458712629001
2648.0,0.000869458712629001
2647.0,0.000869458712629001
2646.0,0.0008259444115150671
2645.0,0.0008259444115150671
2644.0,0.000869458712629001
2643.0,0.000869458712629001
2642.0,0.000869458712629001
2641.0,0.0008259444115150671
2640.0,0.0008259444115150671
2639.0,0.0009129773741116676
2638.0,0.0010000277816797354
2637.0,0.0010435595295137379
2636.0,0.0010435595295137379
2635.0,0.0009565003968372565
2634.0,0.0008259444115150671
2633.0,0.0007389288868995258
2632.0,0.0006954276616513155
2631.0,0.0006954276616513155
2630.0,0.0007389288868995258
2629.0,0.0007389288868995258
2628.0,0.0007389288868995258
2627.0,0.0007389288868995258
2626.0,0.0007389288868995258
2625.0,0.0007389288868995258
2624.0,0.0007389288868995258
2623.0,0.0008259444115150671
2622.0,0.0009129773741116676
2621.0,0.0009565003968372565
2620.0,0.0009565003968372565
2619.0,0.0009129773741116676
2618.0,0.0008259444115150671
2617.0,0.0007824344698965646
2616.0,0.0007389288868995258
2615.0,0.0007389288868995258
2614.0,0.0007389288868995258
2613.0,0.0006954276616513155
2612.0,0.0006954276616513155
2611.0,0.0006954276616513155
2610.0,0.0007389288868995258
2609.0,0.0007824344698965646
2608.0,0.0008259444115150671
2607.0,0.0008259444115150671
2606.0,0.0008259444115150671
2605.0,0.0007824344698965646
2604.0,0.0007389288868995258
2603.0,0.0007389288868995258
2602.0,0.0007389288868995258
2601.0,0.0007824344698965646
2600.0,0.0007824344698965646
2599.0,0.0007389288868995258
2598.0,0.0006954276616513155
2597.0,0.0006954276616513155
2596.0,0.0006954276616513155
2595.0,0.0007389288868995258
2594.0,0.0007389288868995258
2593.0,0.0007824344698965646
2592.0,0.0007824344698965646
2591.0,0.0008259444115150671
2590.0,0.000869458712629001
2589.0,0.000869458712629001
2588.0,0.0009129773741116676
2587.0,0.0009129773741116676
2586.0,0.0009129773741116676
2585.0,0.0009129773741116676
2584.0,0.000869458712629001
2583.0,0.0009129773741116676
2582.0,0.0009129773741116676
2581.0,0.0009565003968372565
2580.0,0.0009565003968372565
2579.0,0.0009129773741116676
2578.0,0.000869458712629001
2577.0,0.0008259444115150671
2576.0,0.0008259444115150671
2575.0,0.0008259444115150671
2574.0,0.000869458712629001
2573.0,0.000869458712629001
2572.0,0.0008259444115150671
2571.0,0.0007824344698965646
2570.0,0.0007824344698965646
2569.0,0.0008259444115150671
2568.0,0.0008259444115150671
2567.0,0.0008259444115150671
2566.0,0.0008259444115150671
2565.0,0.0007824344698965646
2564.0,0.0007389288868995258
2563.0,0.0007389288868995258
2562.0,0.0007389288868995258
2561.0,0.0007824344698965646
2560.0,0.0008259444115150671
2559.0,0.0008259444115150671
2558.0,0.0009129773741116676
2557.0,0.0009565003968372565
2556.0,0.0010000277816797354
2555.0,0.0010000277816797354
2554.0,0.0010000277816797354
2553.0,0.0009565003968372565
2552.0,0.0009129773741116676
2551.0,0.000869458712629001
2550.0,0.000869458712629001
2549.0,0.0009129773741116676
2548.0,0.0009129773741116676
2547.0,0.0009129773741116676
2546.0,0.000869458712629001
2545.0,0.000869458712629001
2544.0,0.000869458712629001
2543.0,0.000869458712629001
2542.0,0.000869458712629001
2541.0,0.000869458712629001
2540.0,0.0008259444115150671
2539.0,0.0008259444115150671
2538.0,0.000869458712629001
2537.0,0.0009129773741116676
2536.0,0.0009565003968372565
2535.0,0.0009565003968372565
2534.0,0.0009129773741116676
2533.0,0.000869458712629001
2532.0,0.0008259444115150671
2531.0,0.0007824344698965646
2530.0,0.0006954276616513155
2529.0,0.0006954276616513155
2528.0,0.0006954276616513155
2527.0,0.0007824344698965646
2526.0,0.0008259444115150671
2525.0,0.0009129773741116676
2524.0,0.0009129773741116676
2523.0,0.0009129773741116676
2522.0,0.000869458712629001
2521.0,0.0007824344698965646
2520.0,0.0007824344698965646
2519.0,0.0008259444115150671
2518.0,0.0008259444115150671
2517.0,0.0008259444115150671
2516.0,0.0007389288868995258
2515.0,0.0006519307932786322
2514.0,0.0005649501236701937
2513.0,0.0005649501236701937
2512.0,0.0006519307932786322
2511.0,0.0006954276616513155
2510.0,0.0007389288868995258
2509.0,0.0007824344698965646
2508.0,0.0007824344698965646
2507.0,0.0007824344698965646
2506.0,0.0007824344698965646
2505.0,0.0007389288868995258
2504.0,0.0006954276616513155
2503.0,0.0006954276616513155
2502.0,0.0006954276616513155
2501.0,0.0006954276616513155
2500.0,0.0007389288868995258
2499.0,0.0008259444115150671
2498.0,0.0009129773741116676
2497.0,0.0010000277816797354
2496.0,0.0010000277816797354
2495.0,0.0009565003968372565
2494.0,0.000869458712629001
2493.0,0.0007824344698965646
2492.0,0.0007389288868995258
2491.0,0.0007389288868995258
2490.0,0.0007824344698965646
2489.0,0.000869458712629001
2488.0,0.000869458712629001
2487.0,0.000869458712629001
2486.0,0.0008259444115150671
2485.0,0.0008259444115150671
2484.0,0.0008259444115150671
2483.0,0.000869458712629001
2482.0,0.000869458712629001
2481.0,0.0009129773741116676
2480.0,0.000869458712629001
2479.0,0.0009129773741116676
2478.0,0.0009129773741116676
2477.0,0.0009129773741116676
2476.0,0.0008259444115150671
2475.0,0.0007824344698965646
2474.0,0.0007389288868995258
2473.0,0.0007389288868995258
2472.0,0.0007389288868995258
2471.0,0.0007824344698965646
2470.0,0.0008259444115150671
2469.0,0.0009129773741116676
2468.0,0.0009565003968372565
2467.0,0.0010000277816797354
2466.0,0.0010000277816797354
2465.0,0.0009565003968372565
2464.0,0.0009565003968372565
2463.0,0.0009129773741116676
2462.0,0.0008259444115150671
2461.0,0.0007824344698965646
2460.0,0.0007824344698965646
2459.0,0.0008259444115150671
2458.0,0.000869458712629001
2457.0,0.0008259444115150671
2456.0,0.0007389288868995258
2455.0,0.0006954276616513155
2454.0,0.0006519307932786322
2453.0,0.0006519307932786322
2452.0,0.0006954276616513155
2451.0,0.0007389288868995258
2450.0,0.0008259444115150671
2449.0,0.000869458712629001
2448.0,0.0009129773741116676
2447.0,0.0009565003968372565
2446.0,0.0009129773741116676
2445.0,0.0009129773741116676
2444.0,0.0009129773741116676
2443.0,0.0009129773741116676
2442.0,0.000869458712629001
2441.0,0.000869458712629001
2440.0,0.0008259444115150671
2439.0,0.0008259444115150671
2438.0,0.0008259444115150671
2437.0,0.0008259444115150671
2436.0,0.000869458712629001
2435.0,0.000869458712629001
2434.0,0.0008259444115150671
2433.0,0.0007389288868995258
2432.0,0.0007389288868995258
2431.0,0.0007824344698965646
2430.0,0.000869458712629001
2429.0,0.0009129773741116676
2428.0,0.0009565003968372565
2427.0,0.0009565003968372565
2426.0,0.0009129773741116676
2425.0,0.0009129773741116676
2424.0,0.000869458712629001
2423.0,0.0008259444115150671
2422.0,0.0008259444115150671
2421.0,0.0007824344698965646
2420.0,0.0007389288868995258
2419.0,0.0007389288868995258
2418.0,0.0007389288868995258
2417.0,0.0007389288868995258
2416.0,0.0007389288868995258
2415.0,0.0006954276616513155
2414.0,0.0006954276616513155
2413.0,0.0007389288868995258
2412.0,0.0007389288868995258
2411.0,0.0007389288868995258
2410.0,0.0006954276616513155
2409.0,0.0006954276616513155
2408.0,0.0006954276616513155
2407.0,0.0006954276616513155
2406.0,0.0007389288868995258
2405.0,0.0007389288868995258
2404.0,0.0006954276616513155
2403.0,0.0006954276616513155
2402.0,0.0006954276616513155
2401.0,0.0007389288868995258
2400.0,0.0008259444115150671
2399.0,0.0009129773741116676
2398.0,0.0009565003968372565
2397.0,0.0009565003968372565
2396.0,0.0009129773741116676
2395.0,0.000869458712629001
2394.0,0.000869458712629001
2393.0,0.0009129773741116676
2392.0,0.0009129773741116676
2391.0,0.000869458712629001
2390.0,0.0008259444115150671
2389.0,0.0007824344698965646
2388.0,0.0007824344698965646
2387.0,0.000869458712629001
2386.0,0.0009129773741116676
2385.0,0.0009565003968372565
2384.0,0.0009565003968372565
2383.0,0.0010435595295137379
2382.0,0.0011741809597138886
2381.0,0.0013919706849057079
2380.0,0.001609869681952425
2379.0,0.0017406615763013722
2378.0,0.0017842676290416026
2377.0,0.0017842676290416026
2376.0,0.0017842676290416026
2375.0,0.0018714928717336043
2374.0,0.0019587356365717845
2373.0,0.0019587356365717845
2372.0,0.0020023635919956817
2371.0,0.0022205691343961664
2370.0,0.0026573093983774942
2369.0,0.0031819781204844855
2368.0,0.0034007772998332353
2367.0,0.0031382315093266833
2366.0,0.0027447101798967477
2365.0,0.002482560585275184
2364.0,0.0024388843664115978
2363.0,0.002351545103793873
2362.0,0.0021769192542746563
2361.0,0.002351545103793873
2360.0,0.0030070181092942683
2359.0,0.003794893821675638
2358.0,0.00401400208620073
2357.0,0.003619686766589858
2356.0,0.003050751504618754
2355.0,0.0027447101798967477
2354.0,0.0027884171674950053
2353.0,0.0029195645282691363
2352.0,0.0030070181092942683
2351.0,0.0030070181092942683
2350.0,0.0029632891174733444
2349.0,0.003050751504618754
2348.0,0.0033570086445275926
2347.0,0.0038825238627120395
2346.0,0.004408675747646695
2345.0,0.004803708402820517
2344.0,0.00484762310854614
2343.0,0.004671990922590297
2342.0,0.004452550524862486
2341.0,0.004277078004534696
2340.0,0.004277078004534696
2339.0,0.004408675747646695
2338.0,0.0044964297349936455
2337.0,0.004452550524862486
2336.0,0.004233220950025984
2335.0,0.0038825238627120395
2334.0,0.0034445503666347133
2333.0,0.0029632891174733444
2332.0,0.0026573093983774942
2331.0,0.002482560585275184
2330.0,0.002482560585275184
2329.0,0.002569926202528716
2328.0,0.002569926202528716
2327.0,0.0024388843664115978
2326.0,0.0022205691343961664
2325.0,0.0020459959305969555
2324.0,0.0020023635919956817
2323.0,0.002089632653256679
2322.0,0.0022205691343961664
2321.0,0.0022205691343961664
2320.0,0.0021769192542746563
2319.0,0.002089632653256679
2318.0,0.0020459959305969555
2317.0,0.0020459959305969555
2316.0,0.0020459959305969555
2315.0,0.0020459959305969555
2314.0,0.0020459959305969555
2313.0,0.002089632653256679
2312.0,0.0021332737608552588
2311.0,0.0022642234021015284
2310.0,0.0023078820582733695
2309.0,0.0022642234021015284
2308.0,0.0021769192542746563
2307.0,0.0020459959305969555
2306.0,0.001915112063444413
2305.0,0.0018278780605593958
2304.0,0.0017406615763013722
2303.0,0.0016534626036355249
2302.0,0.0015226969634936083
2301.0,0.0014355417390583547
2300.0,0.0013919706849057079
2299.0,0.001348404001626502
2298.0,0.001348404001626502
2297.0,0.001348404001626502
2296.0,0.001348404001626502
2295.0,0.0012177301682640973
2294.0,0.0010870956412141197
2293.0,0.0009565003968372565
2292.0,0.0009129773741116676
2291.0,0.0009129773741116676
2290.0,0.0009565003968372565
2289.0,0.0010000277816797354
2288.0,0.0010435595295137379
2287.0,0.0010000277816797354
2286.0,0.0009565003968372565
2285.0,0.0009565003968372565
2284.0,0.0009565003968372565
2283.0,0.0009565003968372565
2282.0,0.0010000277816797354
2281.0,0.0010000277816797354
2280.0,0.0009565003968372565
2279.0,0.0009565003968372565
2278.0,0.0009565003968372565
2277.0,0.0009565003968372565
2276.0,0.0009565003968372565
2275.0,0.000869458712629001
2274.0,0.0008259444115150671
2273.0,0.0007824344698965646
2272.0,0.0008259444115150671
2271.0,0.0008259444115150671
2270.0,0.000869458712629001
2269.0,0.000869458712629001
2268.0,0.000869458712629001
2267.0,0.000869458712629001
2266.0,0.0009129773741116676
2265.0,0.000869458712629001
2264.0,0.000869458712629001
2263.0,0.0007824344698965646
2262.0,0.0007824344698965646
2261.0,0.0007824344698965646
2260.0,0.0008259444115150671
2259.0,0.0009129773741116676
2258.0,0.0009565003968372565
2257.0,0.0010000277816797354
2256.0,0.0010000277816797354
2255.0,0.0009129773741116676
2254.0,0.000869458712629001
2253.0,0.0008259444115150671
2252.0,0.0008259444115150671
2251.0,0.0008259444115150671
2250.0,0.0008259444115150671
2249.0,0.0007824344698965646
2248.0,0.0007389288868995258
2247.0,0.0006954276616513155
2246.0,0.0007389288868995258
2245.0,0.0007389288868995258
2244.0,0.0007389288868995258
2243.0,0.0007389288868995258
2242.0,0.0006954276616513155
2241.0,0.0006519307932786322
2240.0,0.0006519307932786322
2239.0,0.0006519307932786322
2238.0,0.0006954276616513155
2237.0,0.0006954276616513155
2236.0,0.0007389288868995258
2235.0,0.0007824344698965646
2234.0,0.0007824344698965646
2233.0,0.0007824344698965646
2232.0,0.0007389288868995258
2231.0,0.0007389288868995258
2230.0,0.0006954276616513155
2229.0,0.0006519307932786322
2228.0,0.0006519307932786322
2227.0,0.0006519307932786322
2226.0,0.0006519307932786322
2225.0,0.0006954276616513155
2224.0,0.0007389288868995258
2223.0,0.0007389288868995258
2222.0,0.0007824344698965646
2221.0,0.0008259444115150671
2220.0,0.0008259444115150671
2219.0,0.000869458712629001
2218.0,0.0009129773741116676
2217.0,0.0009129773741116676
2216.0,0.000869458712629001
2215.0,0.0007824344698965646
2214.0,0.0007824344698965646
2213.0,0.0007389288868995258
2212.0,0.0007389288868995258
2211.0,0.0007824344698965646
2210.0,0.0007824344698965646
2209.0,0.0007824344698965646
2208.0,0.0007824344698965646
2207.0,0.0007389288868995258
2206.0,0.0007389288868995258
2205.0,0.0007389288868995258
2204.0,0.0007389288868995258
2203.0,0.0007389288868995258
2202.0,0.0007824344698965646
2201.0,0.0007824344698965646
2200.0,0.0007824344698965646
2199.0,0.0007824344698965646
2198.0,0.0007824344698965646
2197.0,0.0007824344698965646
2196.0,0.0007824344698965646
2195.0,0.0007389288868995258
2194.0,0.0006954276616513155
2193.0,0.0006084382809090627
2192.0,0.0006084382809090627
2191.0,0.0006084382809090627
2190.0,0.0006084382809090627
2189.0,0.0005649501236701937
2188.0,0.0005649501236701937
2187.0,0.0005649501236701937
2186.0,0.0006084382809090627
2185.0,0.0006084382809090627
2184.0,0.0006519307932786322
2183.0,0.0006954276616513155
2182.0,0.0007389288868995258
2181.0,0.0007389288868995258
2180.0,0.0007389288868995258
2179.0,0.0007389288868995258
2178.0,0.0006954276616513155
2177.0,0.0006954276616513155
2176.0,0.0006519307932786322
2175.0,0.0006519307932786322
2174.0,0.0006519307932786322
2173.0,0.0006519307932786322
2172.0,0.0006954276616513155
2171.0,0.0007389288868995258
2170.0,0.0007824344698965646
2169.0,0.0007389288868995258
2168.0,0.0006954276616513155
2167.0,0.0006954276616513155
2166.0,0.0007389288868995258
2165.0,0.0007824344698965646
2164.0,0.0008259444115150671
2163.0,0.000869458712629001
2162.0,0.000869458712629001
2161.0,0.000869458712629001
2160.0,0.000869458712629001
2159.0,0.0008259444115150671
2158.0,0.0008259444115150671
2157.0,0.0008259444115150671
2156.0,0.0008259444115150671
2155.0,0.0007824344698965646
2154.0,0.0007389288868995258
2153.0,0.0006519307932786322
2152.0,0.0005649501236701937
2151.0,0.0005649501236701937
2150.0,0.0006084382809090627
2149.0,0.0006954276616513155
2148.0,0.0008259444115150671
2147.0,0.0009129773741116676
2146.0,0.0009129773741116676
2145.0,0.000869458712629001
2144.0,0.000869458712629001
2143.0,0.000869458712629001
2142.0,0.0008259444115150671
2141.0,0.0007824344698965646
2140.0,0.0007389288868995258
2139.0,0.0007389288868995258
2138.0,0.0007824344698965646
2137.0,0.0007824344698965646
2136.0,0.0007824344698965646
2135.0,0.0007389288868995258
2134.0,0.0006954276616513155
2133.0,0.0006519307932786322
2132.0,0.0006519307932786322
2131.0,0.0006519307932786322
2130.0,0.0006519307932786322
2129.0,0.0006519307932786322
2128.0,0.0006519307932786322
2127.0,0.0006519307932786322
2126.0,0.0006954276616513155
2125.0,0.0007389288868995258
2124.0,0.0007824344698965646
2123.0,0.0007824344698965646
2122.0,0.0007824344698965646
2121.0,0.0007824344698965646
2120.0,0.0008259444115150671
2119.0,0.000869458712629001
2118.0,0.000869458712629001
2117.0,0.000869458712629001
2116.0,0.000869458712629001
2115.0,0.0008259444115150671
2114.0,0.0008259444115150671
2113.0,0.0008259444115150671
2112.0,0.0008259444115150671
2111.0,0.0008259444115150671
2110.0,0.0008259444115150671
2109.0,0.0007824344698965646
2108.0,0.0007824344698965646
2107.0,0.0007824344698965646
2106.0,0.0008259444115150671
2105.0,0.000869458712629001
2104.0,0.0009129773741116676
2103.0,0.000869458712629001
2102.0,0.0008259444115150671
2101.0,0.0007824344698965646
2100.0,0.0007824344698965646
2099.0,0.0007389288868995258
2098.0,0.0006519307932786322
2097.0,0.0006084382809090627
2096.0,0.0006084382809090627
2095.0,0.0006519307932786322
2094.0,0.0006519307932786322
2093.0,0.0006519307932786322
2092.0,0.0006519307932786322
2091.0,0.0006954276616513155
2090.0,0.0007389288868995258
2089.0,0.0007824344698965646
2088.0,0.0008259444115150671
2087.0,0.0008259444115150671
2086.0,0.0007824344698965646
2085.0,0.0007389288868995258
2084.0,0.0006519307932786322
2083.0,0.0006084382809090627
2082.0,0.0005649501236701937
2081.0,0.0005649501236701937
2080.0,0.0006084382809090627
2079.0,0.0006084382809090627
2078.0,0.0006519307932786322
2077.0,0.0006954276616513155
2076.0,0.0007389288868995258
2075.0,0.0007389288868995258
2074.0,0.0006954276616513155
2073.0,0.0006519307932786322
2072.0,0.0006519307932786322
2071.0,0.0006519307932786322
2070.0,0.0006519307932786322
2069.0,0.0006954276616513155
2068.0,0.0007389288868995258
2067.0,0.0007824344698965646
2066.0,0.0008259444115150671
2065.0,0.0007824344698965646
2064.0,0.0007824344698965646
2063.0,0.0007389288868995258
2062.0,0.0006954276616513155
2061.0,0.0006519307932786322
2060.0,0.0006519307932786322
2059.0,0.0006519307932786322
2058.0,0.0006519307932786322
2057.0,0.0006084382809090627
2056.0,0.0006084382809090627
2055.0,0.0006084382809090627
2054.0,0.0006084382809090627
2053.0,0.0006519307932786322
2052.0,0.0006954276616513155
2051.0,0.0006954276616513155
2050.0,0.0006519307932786322
2049.0,0.0006084382809090627
2048.0,0.000521466320689834
2047.0,0.000521466320689834
2046.0,0.0005649501236701937
2045.0,0.0006084382809090627
2044.0,0.0006954276616513155
2043.0,0.0007389288868995258
2042.0,0.0007389288868995258
2041.0,0.0007824344698965646
2040.0,0.0007824344698965646
2039.0,0.0007824344698965646
2038.0,0.0007389288868995258
2037.0,0.0006954276616513155
2036.0,0.0006954276616513155
2035.0,0.0006954276616513155
2034.0,0.0007389288868995258
2033.0,0.0007824344698965646
2032.0,0.0007389288868995258
2031.0,0.0007389288868995258
2030.0,0.0006954276616513155
2029.0,0.0006954276616513155
2028.0,0.0006519307932786322
2027.0,0.0006519307932786322
2026.0,0.0006519307932786322
2025.0,0.0006954276616513155
2024.0,0.0006954276616513155
2023.0,0.0006954276616513155
2022.0,0.0006084382809090627
2021.0,0.0006084382809090627
2020.0,0.0006084382809090627
2019.0,0.0006519307932786322
2018.0,0.0006954276616513155
2017.0,0.0007389288868995258
2016.0,0.0007389288868995258
2015.0,0.0007824344698965646
2014.0,0.0007389288868995258
2013.0,0.0007389288868995258
2012.0,0.0006519307932786322
2011.0,0.0006084382809090627
2010.0,0.0005649501236701937
2009.0,0.0005649501236701937
2008.0,0.0005649501236701937
2007.0,0.0006084382809090627
2006.0,0.0006519307932786322
2005.0,0.0006954276616513155
2004.0,0.0007389288868995258
2003.0,0.0007389288868995258
2002.0,0.0006954276616513155
2001.0,0.0006519307932786322
2000.0,0.0006954276616513155
1999.0,0.0007389288868995258
1998.0,0.0007824344698965646
1997.0,0.0008259444115150671
1996.0,0.0008259444115150671
1995.0,0.0008259444115150671
1994.0,0.0007824344698965646
1993.0,0.0006954276616513155
1992.0,0.0006519307932786322
1991.0,0.0006954276616513155
1990.0,0.0007824344698965646
1989.0,0.0008259444115150671
1988.0,0.000869458712629001
1987.0,0.000869458712629001
1986.0,0.0008259444115150671
1985.0,0.0007824344698965646
1984.0,0.0007389288868995258
1983.0,0.0007389288868995258
1982.0,0.0007824344698965646
1981.0,0.0008259444115150671
1980.0,0.0008259444115150671
1979.0,0.0008259444115150671
1978.0,0.0007824344698965646
1977.0,0.0006954276616513155
1976.0,0.0006519307932786322
1975.0,0.0006084382809090627
1974.0,0.0006519307932786322
1973.0,0.0006519307932786322
1972.0,0.0006954276616513155
1971.0,0.0006954276616513155
1970.0,0.0006519307932786322
1969.0,0.0006519307932786322
1968.0,0.0006084382809090627
1967.0,0.0006084382809090627
1966.0,0.0006519307932786322
1965.0,0.0007389288868995258
1964.0,0.0007824344698965646
1963.0,0.0007824344698965646
1962.0,0.0007824344698965646
1961.0,0.0007824344698965646
1960.0,0.0007824344698965646
1959.0,0.0007824344698965646
1958.0,0.0007389288868995258
1957.0,0.0007389288868995258
1956.0,0.0007389288868995258
1955.0,0.0006954276616513155
1954.0,0.0006519307932786322
1953.0,0.0006084382809090627
1952.0,0.0005649501236701937
1951.0,0.0005649501236701937
1950.0,0.0006084382809090627
1949.0,0.0006519307932786322
1948.0,0.0006954276616513155
1947.0,0.0006954276616513155
1946.0,0.0006954276616513155
1945.0,0.0006954276616513155
1944.0,0.0007389288868995258
1943.0,0.0007824344698965646
1942.0,0.0007824344698965646
1941.0,0.0007824344698965646
1940.0,0.0007389288868995258
1939.0,0.0007824344698965646
1938.0,0.0007824344698965646
1937.0,0.0008259444115150671
1936.0,0.0008259444115150671
1935.0,0.0007824344698965646
1934.0,0.0007824344698965646
1933.0,0.0007824344698965646
1932.0,0.0007824344698965646
1931.0,0.0007824344698965646
1930.0,0.0007824344698965646
1929.0,0.0007389288868995258
1928.0,0.0006954276616513155
1927.0,0.0006084382809090627
1926.0,0.0005649501236701937
1925.0,0.0005649501236701937
1924.0,0.0005649501236701937
1923.0,0.0006519307932786322
1922.0,0.0006954276616513155
1921.0,0.0007389288868995258
1920.0,0.0007389288868995258
1919.0,0.0007824344698965646
1918.0,0.0007824344698965646
1917.0,0.0007824344698965646
1916.0,0.0007824344698965646
1915.0,0.0007824344698965646
1914.0,0.0007824344698965646
1913.0,0.0007389288868995258
1912.0,0.0007389288868995258
1911.0,0.0007389288868995258
1910.0,0.0007389288868995258
1909.0,0.0007389288868995258
1908.0,0.0007389288868995258
1907.0,0.0007389288868995258
1906.0,0.0007389288868995258
1905.0,0.0007389288868995258
1904.0,0.0007389288868995258
1903.0,0.0006954276616513155
1902.0,0.0006519307932786322
1901.0,0.0006519307932786322
1900.0,0.0006954276616513155
1899.0,0.0007389288868995258
1898.0,0.0008259444115150671
1897.0,0.0008259444115150671
1896.0,0.0008259444115150671
1895.0,0.0008259444115150671
1894.0,0.0008259444115150671
1893.0,0.0008259444115150671
1892.0,0.0008259444115150671
1891.0,0.0008259444115150671
1890.0,0.0008259444115150671
1889.0,0.0007824344698965646
1888.0,0.0007389288868995258
1887.0,0.0006954276616513155
1886.0,0.0006954276616513155
1885.0,0.0006519307932786322
1884.0,0.0006954276616513155
1883.0,0.0006954276616513155
1882.0,0.0007389288868995258
1881.0,0.0007389288868995258
1880.0,0.0007389288868995258
1879.0,0.0007389288868995258
1878.0,0.0006954276616513155
1877.0,0.0006084382809090627
1876.0,0.0006084382809090627
1875.0,0.0005649501236701937
1874.0,0.0006084382809090627
1873.0,0.0006084382809090627
1872.0,0.0006084382809090627
1871.0,0.0006084382809090627
1870.0,0.0005649501236701937
1869.0,0.0005649501236701937
1868.0,0.000521466320689834
1867.0,0.000521466320689834
1866.0,0.0005649501236701937
1865.0,0.0005649501236701937
1864.0,0.0006084382809090627
1863.0,0.0006519307932786322
1862.0,0.0006954276616513155
1861.0,0.0006954276616513155
1860.0,0.0006519307932786322
1859.0,0.0006519307932786322
1858.0,0.0006954276616513155
1857.0,0.0006954276616513155
1856.0,0.0007389288868995258
1855.0,0.0007389288868995258
1854.0,0.0006954276616513155
1853.0,0.0006954276616513155
1852.0,0.0006519307932786322
1851.0,0.0006084382809090627
1850.0,0.0006084382809090627
1849.0,0.0006084382809090627
1848.0,0.0006084382809090627
1847.0,0.0006519307932786322
1846.0,0.0006519307932786322
1845.0,0.0006519307932786322
1844.0,0.0006519307932786322
1843.0,0.0006519307932786322
1842.0,0.0006519307932786322
1841.0,0.0006084382809090627
1840.0,0.0005649501236701937
1839.0,0.0005649501236701937
1838.0,0.0006084382809090627
1837.0,0.0006084382809090627
1836.0,0.0006519307932786322
1835.0,0.0006519307932786322
1834.0,0.0006519307932786322
1833.0,0.0006954276616513155
1832.0,0.0007389288868995258
1831.0,0.0007824344698965646
1830.0,0.0007824344698965646
1829.0,0.0007824344698965646
1828.0,0.0007389288868995258
1827.0,0.0006954276616513155
1826.0,0.0006084382809090627
1825.0,0.0006084382809090627
1824.0,0.0006519307932786322
1823.0,0.0006954276616513155
1822.0,0.0007389288868995258
1821.0,0.0007824344698965646
1820.0,0.0007824344698965646
1819.0,0.0007389288868995258
1818.0,0.0006954276616513155
1817.0,0.0006954276616513155
1816.0,0.0006954276616513155
1815.0,0.0007389288868995258
1814.0,0.0007389288868995258
1813.0,0.0007824344698965646
1812.0,0.0007389288868995258
1811.0,0.0006954276616513155
1810.0,0.0006519307932786322
1809.0,0.0006084382809090627
1808.0,0.0006084382809090627
1807.0,0.0006519307932786322
1806.0,0.0006519307932786322
1805.0,0.0006954276616513155
1804.0,0.0007389288868995258
1803.0,0.0007824344698965646
1802.0,0.0007389288868995258
1801.0,0.0006954276616513155
1800.0,0.0006519307932786322
1799.0,0.0006084382809090627
1798.0,0.0006519307932786322
1797.0,0.0006954276616513155
1796.0,0.0007389288868995258
1795.0,0.0007389288868995258
1794.0,0.0006954276616513155
1793.0,0.0006519307932786322
1792.0,0.0006519307932786322
1791.0,0.0006519307932786322
1790.0,0.0006954276616513155
1789.0,0.0006954276616513155
1788.0,0.0007389288868995258
1787.0,0.0007389288868995258
1786.0,0.0007389288868995258
1785.0,0.0007389288868995258
1784.0,0.0007824344698965646
1783.0,0.0008259444115150671
1782.0,0.0008259444115150671
1781.0,0.0007824344698965646
1780.0,0.0006519307932786322
1779.0,0.0005649501236701937
1778.0,0.0004779868710962365
1777.0,0.000521466320689834
1776.0,0.0005649501236701937
1775.0,0.0006519307932786322
1774.0,0.0007389288868995258
1773.0,0.0007824344698965646
1772.0,0.0007389288868995258
1771.0,0.0007389288868995258
1770.0,0.0007389288868995258
1769.0,0.0007389288868995258
1768.0,0.0007389288868995258
1767.0,0.0006954276616513155
1766.0,0.0006954276616513155
1765.0,0.0006954276616513155
1764.0,0.0006954276616513155
1763.0,0.0006519307932786322
1762.0,0.0006084382809090627
1761.0,0.0006519307932786322
1760.0,0.0006519307932786322
1759.0,0.0006954276616513155
1758.0,0.0006954276616513155
1757.0,0.0006954276616513155
1756.0,0.0006954276616513155
1755.0,0.0006954276616513155
1754.0,0.0006954276616513155
1753.0,0.0007389288868995258
1752.0,0.0007824344698965646
1751.0,0.0008259444115150671
1750.0,0.0008259444115150671
1749.0,0.000869458712629001
1748.0,0.0008259444115150671
1747.0,0.0007824344698965646
1746.0,0.0007389288868995258
1745.0,0.0006954276616513155
1744.0,0.0006519307932786322
1743.0,0.0006084382809090627
1742.0,0.0006084382809090627
1741.0,0.0006519307932786322
1740.0,0.0006954276616513155
1739.0,0.0007824344698965646
1738.0,0.0007824344698965646
1737.0,0.0007824344698965646
1736.0,0.0007389288868995258
1735.0,0.0007389288868995258
1734.0,0.0006954276616513155
1733.0,0.0006954276616513155
1732.0,0.0006519307932786322
1731.0,0.0006954276616513155
1730.0,0.0006954276616513155
1729.0,0.0006954276616513155
1728.0,0.0006084382809090627
1727.0,0.0005649501236701937
1726.0,0.0005649501236701937
1725.0,0.0006084382809090627
1724.0,0.0006954276616513155
1723.0,0.0007389288868995258
1722.0,0.0007389288868995258
1721.0,0.0007389288868995258
1720.0,0.0007389288868995258
1719.0,0.0007824344698965646
1718.0,0.000869458712629001
1717.0,0.0009129773741116676
1716.0,0.0009565003968372565
1715.0,0.0009565003968372565
1714.0,0.0009129773741116676
1713.0,0.0008259444115150671
1712.0,0.0008259444115150671
1711.0,0.0008259444115150671
1710.0,0.0008259444115150671
1709.0,0.000869458712629001
1708.0,0.000869458712629001
1707.0,0.000869458712629001
1706.0,0.000869458712629001
1705.0,0.0008259444115150671
1704.0,0.0007389288868995258
1703.0,0.0007389288868995258
1702.0,0.0006954276616513155
1701.0,0.0006954276616513155
1700.0,0.0006954276616513155
1699.0,0.0007824344698965646
1698.0,0.0008259444115150671
1697.0,0.000869458712629001
1696.0,0.0008259444115150671
1695.0,0.0008259444115150671
1694.0,0.0008259444115150671
1693.0,0.0008259444115150671
1692.0,0.0007824344698965646
1691.0,0.0007824344698965646
1690.0,0.0007824344698965646
1689.0,0.0007824344698965646
1688.0,0.0007389288868995258
1687.0,0.0006519307932786322
1686.0,0.000521466320689834
1685.0,0.00043451177401765406
1684.0,0.0004779868710962365
1683.0,0.0006084382809090627
1682.0,0.0007389288868995258
1681.0,0.0007824344698965646
1680.0,0.0008259444115150671
1679.0,0.0008259444115150671
1678.0,0.0007824344698965646
1677.0,0.0007389288868995258
1676.0,0.0007824344698965646
1675.0,0.0008259444115150671
1674.0,0.000869458712629001
1673.0,0.0008259444115150671
1672.0,0.0008259444115150671
1671.0,0.0007824344698965646
1670.0,0.0007389288868995258
1669.0,0.0006954276616513155
1668.0,0.0006519307932786322
1667.0,0.0006519307932786322
1666.0,0.0006519307932786322
1665.0,0.0006519307932786322
1664.0,0.0006519307932786322
1663.0,0.0006954276616513155
1662.0,0.0006954276616513155
1661.0,0.0007389288868995258
1660.0,0.0007389288868995258
1659.0,0.0007389288868995258
1658.0,0.0007389288868995258
1657.0,0.0007824344698965646
1656.0,0.000869458712629001
1655.0,0.0010435595295137379
1654.0,0.0011306361176557367
1653.0,0.0009565003968372565
1652.0,0.0007389288868995258
1651.0,0.0006954276616513155
1650.0,0.0006519307932786322
1649.0,0.0006954276616513155
1648.0,0.0006519307932786322
1647.0,0.0006084382809090627
1646.0,0.0005649501236701937
1645.0,0.0005649501236701937
1644.0,0.0006084382809090627
1643.0,0.0006084382809090627
1642.0,0.0006084382809090627
1641.0,0.0006519307932786322
1640.0,0.0006954276616513155
1639.0,0.0007389288868995258
1638.0,0.0007824344698965646
1637.0,0.0008259444115150671
1636.0,0.000869458712629001
1635.0,0.0009129773741116676
1634.0,0.0009129773741116676
1633.0,0.000869458712629001
1632.0,0.000869458712629001
1631.0,0.0008259444115150671
1630.0,0.0007824344698965646
1629.0,0.0007824344698965646
1628.0,0.0008259444115150671
1627.0,0.0007824344698965646
1626.0,0.0007389288868995258
1625.0,0.0006519307932786322
1624.0,0.0006084382809090627
1623.0,0.0006084382809090627
1622.0,0.0006084382809090627
1621.0,0.0006519307932786322
1620.0,0.0006519307932786322
1619.0,0.0006954276616513155
1618.0,0.0006954276616513155
1617.0,0.0006954276616513155
1616.0,0.0006954276616513155
1615.0,0.0006519307932786322
1614.0,0.0006954276616513155
1613.0,0.0007389288868995258
1612.0,0.0007389288868995258
1611.0,0.0007824344698965646
1610.0,0.0007389288868995258
1609.0,0.0006954276616513155
1608.0,0.0006954276616513155
1607.0,0.0006954276616513155
1606.0,0.0007389288868995258
1605.0,0.0007824344698965646
1604.0,0.0007389288868995258
1603.0,0.0006954276616513155
1602.0,0.0006519307932786322
1601.0,0.0006519307932786322
1600.0,0.0006519307932786322
1599.0,0.0006954276616513155
1598.0,0.0007389288868995258
1597.0,0.0007389288868995258
1596.0,0.0007389288868995258
1595.0,0.0007389288868995258
1594.0,0.0006954276616513155
1593.0,0.0006519307932786322
1592.0,0.0006519307932786322
1591.0,0.0006519307932786322
1590.0,0.0006084382809090627
1589.0,0.0006084382809090627
1588.0,0.0006519307932786322
1587.0,0.0006519307932786322
1586.0,0.0006954276616513155
1585.0,0.0006954276616513155
1584.0,0.0006954276616513155
1583.0,0.0006954276616513155
1582.0,0.0006954276616513155
1581.0,0.0007389288868995258
1580.0,0.0007824344698965646
1579.0,0.0008259444115150671
1578.0,0.0009129773741116676
1577.0,0.0009129773741116676
1576.0,0.000869458712629001
1575.0,0.0007824344698965646
1574.0,0.0007389288868995258
1573.0,0.0006954276616513155
1572.0,0.0006519307932786322
1571.0,0.0006519307932786322
1570.0,0.0006954276616513155
1569.0,0.0007389288868995258
1568.0,0.0007389288868995258
1567.0,0.0007389288868995258
1566.0,0.0006954276616513155
1565.0,0.0007389288868995258
1564.0,0.0007389288868995258
1563.0,0.0007389288868995258
1562.0,0.0007389288868995258
1561.0,0.0007389288868995258
1560.0,0.0007824344698965646
1559.0,0.0008259444115150671
1558.0,0.0007824344698965646
1557.0,0.0007824344698965646
1556.0,0.0007824344698965646
1555.0,0.0008259444115150671
1554.0,0.0008259444115150671
1553.0,0.0007824344698965646
1552.0,0.0007389288868995258
1551.0,0.0007389288868995258
1550.0,0.0007389288868995258
1549.0,0.0006954276616513155
1548.0,0.0006519307932786322
1547.0,0.0006084382809090627
1546.0,0.0005649501236701937
1545.0,0.0006519307932786322
1544.0,0.0007824344698965646
1543.0,0.0010000277816797354
1542.0,0.0011741809597138886
1541.0,0.0012177301682640973
1540.0,0.0010435595295137379
1539.0,0.0007824344698965646
1538.0,0.0006519307932786322
1537.0,0.0006519307932786322
1536.0,0.0006954276616513155
1535.0,0.0007824344698965646
1534.0,0.000869458712629001
1533.0,0.0009129773741116676
1532.0,0.000869458712629001
1531.0,0.000869458712629001
1530.0,0.0008259444115150671
1529.0,0.0007824344698965646
1528.0,0.0007824344698965646
1527.0,0.0007824344698965646
1526.0,0.0007389288868995258
1525.0,0.0006954276616513155
1524.0,0.0005649501236701937
1523.0,0.00043451177401765406
1522.0,0.00043451177401765406
1521.0,0.0004779868710962365
1520.0,0.0005649501236701937
1519.0,0.0006084382809090627
1518.0,0.0006084382809090627
1517.0,0.0006084382809090627
1516.0,0.0006084382809090627
1515.0,0.0006519307932786322
1514.0,0.0007389288868995258
1513.0,0.0007824344698965646
1512.0,0.0008259444115150671
1511.0,0.0008259444115150671
1510.0,0.0007824344698965646
1509.0,0.0006519307932786322
1508.0,0.0005649501236701937
1507.0,0.0005649501236701937
1506.0,0.0005649501236701937
1505.0,0.0005649501236701937
1504.0,0.0005649501236701937
1503.0,0.0005649501236701937
1502.0,0.0005649501236701937
1501.0,0.0005649501236701937
1500.0,0.0005649501236701937
1499.0,0.0005649501236701937
1498.0,0.000521466320689834
1497.0,0.0005649501236701937
1496.0,0.0005649501236701937
1495.0,0.0006084382809090627
1494.0,0.0006519307932786322
1493.0,0.0006519307932786322
1492.0,0.0006519307932786322
1491.0,0.0006519307932786322
1490.0,0.0006519307932786322
1489.0,0.0006519307932786322
1488.0,0.0006084382809090627
1487.0,0.0005649501236701937
1486.0,0.0005649501236701937
1485.0,0.0005649501236701937
1484.0,0.0005649501236701937
1483.0,0.0006084382809090627
1482.0,0.0006519307932786322
1481.0,0.0006519307932786322
1480.0,0.0006954276616513155
1479.0,0.0006954276616513155
1478.0,0.0007389288868995258
1477.0,0.0007389288868995258
1476.0,0.0006519307932786322
1475.0,0.0006084382809090627
1474.0,0.0006084382809090627
1473.0,0.0006519307932786322
1472.0,0.0007389288868995258
1471.0,0.0007389288868995258
1470.0,0.0007389288868995258
1469.0,0.0006954276616513155
1468.0,0.0006084382809090627
1467.0,0.0006084382809090627
1466.0,0.0005649501236701937
1465.0,0.0005649501236701937
1464.0,0.0006084382809090627
1463.0,0.0006519307932786322
1462.0,0.0006519307932786322
1461.0,0.0006519307932786322
1460.0,0.0005649501236701937
1459.0,0.0004779868710962365
1458.0,0.0003910410285830057
1457.0,0.00043451177401765406
1456.0,0.0005649501236701937
1455.0,0.0006084382809090627
1454.0,0.0006084382809090627
1453.0,0.0006084382809090627
1452.0,0.0006084382809090627
1451.0,0.0006084382809090627
1450.0,0.0006519307932786322
1449.0,0.0006954276616513155
1448.0,0.0007389288868995258
1447.0,0.0007389288868995258
1446.0,0.0006954276616513155
1445.0,0.0006519307932786322
1444.0,0.0006084382809090627
1443.0,0.000521466320689834
1442.0,0.000521466320689834
1441.0,0.000521466320689834
1440.0,0.0004779868710962365
1439.0,0.0004779868710962365
1438.0,0.0004779868710962365
1437.0,0.000521466320689834
1436.0,0.0006519307932786322
1435.0,0.0006954276616513155
1434.0,0.0006519307932786322
1433.0,0.0005649501236701937
1432.0,0.000521466320689834
1431.0,0.0004779868710962365
1430.0,0.0004779868710962365
1429.0,0.0005649501236701937
1428.0,0.0006084382809090627
1427.0,0.0006084382809090627
1426.0,0.0006519307932786322
1425.0,0.0006519307932786322
1424.0,0.0006954276616513155
1423.0,0.0006954276616513155
1422.0,0.0006954276616513155
1421.0,0.0006519307932786322
1420.0,0.0005649501236701937
1419.0,0.0004779868710962365
1418.0,0.0004779868710962365
1417.0,0.000521466320689834
1416.0,0.0005649501236701937
1415.0,0.0005649501236701937
1414.0,0.0005649501236701937
1413.0,0.000521466320689834
1412.0,0.000521466320689834
1411.0,0.0005649501236701937
1410.0,0.0005649501236701937
1409.0,0.0006084382809090627
1408.0,0.0005649501236701937
1407.0,0.000521466320689834
1406.0,0.0004779868710962365
1405.0,0.00043451177401765406
1404.0,0.0004779868710962365
1403.0,0.0005649501236701937
1402.0,0.0006084382809090627
1401.0,0.0006519307932786322
1400.0,0.0006084382809090627
1399.0,0.0006084382809090627
1398.0,0.0005649501236701937
1397.0,0.0005649501236701937
1396.0,0.0006084382809090627
1395.0,0.0006519307932786322
1394.0,0.0006519307932786322
1393.0,0.0006084382809090627
1392.0,0.0005649501236701937
1391.0,0.0006084382809090627
1390.0,0.0006084382809090627
1389.0,0.0006519307932786322
1388.0,0.0006519307932786322
1387.0,0.0006519307932786322
1386.0,0.0006084382809090627
1385.0,0.0006084382809090627
1384.0,0.0005649501236701937
1383.0,0.0005649501236701937
1382.0,0.0006084382809090627
1381.0,0.0006084382809090627
1380.0,0.0006084382809090627
1379.0,0.0005649501236701937
1378.0,0.000521466320689834
1377.0,0.000521466320689834
1376.0,0.000521466320689834
1375.0,0.0006084382809090627
1374.0,0.0006519307932786322
1373.0,0.0006954276616513155
1372.0,0.0006954276616513155
1371.0,0.0006519307932786322
1370.0,0.0005649501236701937
1369.0,0.0005649501236701937
1368.0,0.0005649501236701937
1367.0,0.0006084382809090627
1366.0,0.0006084382809090627
1365.0,0.0006084382809090627
1364.0,0.0005649501236701937
1363.0,0.000521466320689834
1362.0,0.0004779868710962365
1361.0,0.0004779868710962365
1360.0,0.000521466320689834
1359.0,0.000521466320689834
1358.0,0.000521466320689834
1357.0,0.000521466320689834
1356.0,0.000521466320689834
1355.0,0.000521466320689834
1354.0,0.000521466320689834
1353.0,0.000521466320689834
1352.0,0.000521466320689834
1351.0,0.000521466320689834
1350.0,0.0005649501236701937
1349.0,0.0005649501236701937
1348.0,0.0005649501236701937
1347.0,0.0005649501236701937
1346.0,0.0006084382809090627
1345.0,0.0006084382809090627
1344.0,0.0006084382809090627
1343.0,0.0006084382809090627
1342.0,0.0005649501236701937
1341.0,0.0005649501236701937
1340.0,0.0005649501236701937
1339.0,0.0005649501236701937
1338.0,0.0005649501236701937
1337.0,0.0005649501236701937
1336.0,0.0005649501236701937
1335.0,0.0005649501236701937
1334.0,0.0005649501236701937
1333.0,0.000521466320689834
1332.0,0.000521466320689834
1331.0,0.000521466320689834
1330.0,0.0005649501236701937
1329.0,0.0005649501236701937
1328.0,0.0005649501236701937
1327.0,0.0006084382809090627
1326.0,0.0006519307932786322
1325.0,0.0006954276616513155
1324.0,0.0006954276616513155
1323.0,0.0006519307932786322
1322.0,0.0006519307932786322
1321.0,0.0006519307932786322
1320.0,0.0006519307932786322
1319.0,0.0006084382809090627
1318.0,0.0006084382809090627
1317.0,0.0006084382809090627
1316.0,0.0006519307932786322
1315.0,0.0006519307932786322
1314.0,0.0006084382809090627
1313.0,0.0006084382809090627
1312.0,0.0005649501236701937
1311.0,0.0005649501236701937
1310.0,0.0005649501236701937
1309.0,0.0005649501236701937
1308.0,0.0005649501236701937
1307.0,0.0005649501236701937
1306.0,0.0005649501236701937
1305.0,0.0005649501236701937
1304.0,0.0005649501236701937
1303.0,0.0005649501236701937
1302.0,0.0006084382809090627
1301.0,0.0006084382809090627
1300.0,0.0006519307932786322
1299.0,0.0006519307932786322
1298.0,0.0006519307932786322
1297.0,0.0006084382809090627
1296.0,0.0006084382809090627
1295.0,0.0006084382809090627
1294.0,0.0006084382809090627
1293.0,0.0006084382809090627
1292.0,0.0005649501236701937
1291.0,0.000521466320689834
1290.0,0.000521466320689834
1289.0,0.0005649501236701937
1288.0,0.0006084382809090627
1287.0,0.0006084382809090627
1286.0,0.0006084382809090627
1285.0,0.0006084382809090627
1284.0,0.0006519307932786322
1283.0,0.0006519307932786322
1282.0,0.0006519307932786322
1281.0,0.0006519307932786322
1280.0,0.0006084382809090627
1279.0,0.0006084382809090627
1278.0,0.0006084382809090627
1277.0,0.0005649501236701937
1276.0,0.0005649501236701937
1275.0,0.000521466320689834
1274.0,0.000521466320689834
1273.0,0.000521466320689834
1272.0,0.0005649501236701937
1271.0,0.0005649501236701937
1270.0,0.0005649501236701937
1269.0,0.0005649501236701937
1268.0,0.000521466320689834
1267.0,0.000521466320689834
1266.0,0.000521466320689834
1265.0,0.000521466320689834
1264.0,0.000521466320689834
1263.0,0.000521466320689834
1262.0,0.000521466320689834
1261.0,0.0004779868710962365
1260.0,0.00043451177401765406
1259.0,0.00043451177401765406
1258.0,0.00043451177401765406
1257.0,0.00043451177401765406
1256.0,0.00043451177401765406
1255.0,0.00043451177401765406
1254.0,0.00043451177401765406
1253.0,0.00043451177401765406
1252.0,0.00043451177401765406
1251.0,0.00043451177401765406
1250.0,0.0004779868710962365
1249.0,0.0004779868710962365
1248.0,0.0004779868710962365
1247.0,0.0004779868710962365
1246.0,0.000521466320689834
1245.0,0.000521466320689834
1244.0,0.000521466320689834
1243.0,0.0004779868710962365
1242.0,0.00043451177401765406
1241.0,0.0003910410285830057
1240.0,0.0003910410285830057
1239.0,0.0003910410285830057
1238.0,0.00043451177401765406
1237.0,0.0004779868710962365
1236.0,0.0004779868710962365
1235.0,0.000521466320689834
1234.0,0.000521466320689834
1233.0,0.000521466320689834
1232.0,0.0004779868710962365
1231.0,0.00043451177401765406
1230.0,0.00043451177401765406
1229.0,0.00043451177401765406
1228.0,0.0004779868710962365
1227.0,0.000521466320689834
1226.0,0.000521466320689834
1225.0,0.0004779868710962365
1224.0,0.0004779868710962365
1223.0,0.000521466320689834
1222.0,0.0005649501236701937
1221.0,0.0005649501236701937
1220.0,0.000521466320689834
1219.0,0.0004779868710962365
1218.0,0.0004779868710962365
1217.0,0.0004779868710962365
1216.0,0.000521466320689834
1215.0,0.000521466320689834
1214.0,0.000521466320689834
1213.0,0.000521466320689834
1212.0,0.0004779868710962365
1211.0,0.00043451177401765406
1210.0,0.00043451177401765406
1209.0,0.0003910410285830057
1208.0,0.0003910410285830057
1207.0,0.0003475746339209884
1206.0,0.0003475746339209884
1205.0,0.0003475746339209884
1204.0,0.0003475746339209884
1203.0,0.0003910410285830057
1202.0,0.00043451177401765406
1201.0,0.00043451177401765406
1200.0,0.0003910410285830057
1199.0,0.0003910410285830057
1198.0,0.0003910410285830057
1197.0,0.0003910410285830057
1196.0,0.00043451177401765406
1195.0,0.000521466320689834
1194.0,0.0005649501236701937
1193.0,0.0006084382809090627
1192.0,0.0006084382809090627
1191.0,0.0006084382809090627
1190.0,0.0005649501236701937
1189.0,0.0005649501236701937
1188.0,0.0005649501236701937
1187.0,0.000521466320689834
1186.0,0.0004779868710962365
1185.0,0.0003910410285830057
1184.0,0.0003475746339209884
1183.0,0.0003475746339209884
1182.0,0.0003910410285830057
1181.0,0.00043451177401765406
1180.0,0.0004779868710962365
1179.0,0.0004779868710962365
1178.0,0.000521466320689834
1177.0,0.0005649501236701937
1176.0,0.0006084382809090627
1175.0,0.0005649501236701937
1174.0,0.0004779868710962365
1173.0,0.00043451177401765406
1172.0,0.0004779868710962365
1171.0,0.0005649501236701937
1170.0,0.0006084382809090627
1169.0,0.0006519307932786322
1168.0,0.0006084382809090627
1167.0,0.000521466320689834
1166.0,0.0004779868710962365
1165.0,0.0004779868710962365
1164.0,0.000521466320689834
1163.0,0.000521466320689834
1162.0,0.0005649501236701937
1161.0,0.0005649501236701937
1160.0,0.0005649501236701937
1159.0,0.000521466320689834
1158.0,0.000521466320689834
1157.0,0.000521466320689834
1156.0,0.0005649501236701937
1155.0,0.0006084382809090627
1154.0,0.0006519307932786322
1153.0,0.0006519307932786322
1152.0,0.0006519307932786322
1151.0,0.0006084382809090627
1150.0,0.0005649501236701937
1149.0,0.000521466320689834
1148.0,0.0004779868710962365
1147.0,0.0004779868710962365
1146.0,0.000521466320689834
1145.0,0.000521466320689834
1144.0,0.000521466320689834
1143.0,0.0004779868710962365
1142.0,0.0004779868710962365
1141.0,0.000521466320689834
1140.0,0.0005649501236701937
1139.0,0.0006519307932786322
1138.0,0.0006519307932786322
1137.0,0.0006519307932786322
1136.0,0.0006084382809090627
1135.0,0.0005649501236701937
1134.0,0.000521466320689834
1133.0,0.0004779868710962365
1132.0,0.00043451177401765406
1131.0,0.0003910410285830057
1130.0,0.0003910410285830057
1129.0,0.00043451177401765406
1128.0,0.0004779868710962365
1127.0,0.000521466320689834
1126.0,0.000521466320689834
1125.0,0.000521466320689834
1124.0,0.0005649501236701937
1123.0,0.0006084382809090627
1122.0,0.0006519307932786322
1121.0,0.0006519307932786322
1120.0,0.0005649501236701937
1119.0,0.000521466320689834
1118.0,0.000521466320689834
1117.0,0.0005649501236701937
1116.0,0.0006084382809090627
1115.0,0.0006084382809090627
1114.0,0.0005649501236701937
1113.0,0.0005649501236701937
1112.0,0.0006084382809090627
1111.0,0.0006519307932786322
1110.0,0.0006954276616513155
1109.0,0.0006519307932786322
1108.0,0.0005649501236701937
1107.0,0.0004779868710962365
1106.0,0.00043451177401765406
1105.0,0.0004779868710962365
1104.0,0.0005649501236701937
1103.0,0.0006084382809090627
1102.0,0.0006084382809090627
1101.0,0.000521466320689834
1100.0,0.0004779868710962365
1099.0,0.0004779868710962365
1098.0,0.0004779868710962365
1097.0,0.00043451177401765406
1096.0,0.00043451177401765406
1095.0,0.00043451177401765406
1094.0,0.000521466320689834
1093.0,0.0006084382809090627
1092.0,0.0006954276616513155
1091.0,0.0007824344698965646
1090.0,0.0008259444115150671
1089.0,0.000869458712629001
1088.0,0.000869458712629001
1087.0,0.0008259444115150671
1086.0,0.0006954276616513155
1085.0,0.000521466320689834
1084.0,0.0003910410285830057
1083.0,0.00030411258916074324
1082.0,0.00030411258916074324
1081.0,0.0003475746339209884
1080.0,0.00043451177401765406
1079.0,0.000521466320689834
1078.0,0.000521466320689834
1077.0,0.0004779868710962365
1076.0,0.00043451177401765406
1075.0,0.00043451177401765406
1074.0,0.0004779868710962365
1073.0,0.000521466320689834
1072.0,0.0005649501236701937
1071.0,0.0005649501236701937
1070.0,0.0005649501236701937
1069.0,0.0005649501236701937
1068.0,0.0006084382809090627
1067.0,0.0005649501236701937
1066.0,0.0004779868710962365
1065.0,0.0003910410285830057
1064.0,0.00043451177401765406
1063.0,0.0005649501236701937
1062.0,0.0006519307932786322
1061.0,0.0006954276616513155
1060.0,0.0006519307932786322
1059.0,0.0006084382809090627
1058.0,0.0006084382809090627
1057.0,0.0005649501236701937
1056.0,0.0005649501236701937
1055.0,0.0005649501236701937
1054.0,0.0005649501236701937
1053.0,0.0006084382809090627
1052.0,0.0006084382809090627
1051.0,0.0006519307932786322
1050.0,0.0006519307932786322
1049.0,0.0006084382809090627
1048.0,0.0005649501236701937
1047.0,0.000521466320689834
1046.0,0.000521466320689834
1045.0,0.0004779868710962365
1044.0,0.0004779868710962365
1043.0,0.0005649501236701937
1042.0,0.0006084382809090627
1041.0,0.0006519307932786322
1040.0,0.0006954276616513155
1039.0,0.0007824344698965646
1038.0,0.000869458712629001
1037.0,0.0009129773741116676
1036.0,0.0009129773741116676
1035.0,0.0008259444115150671
1034.0,0.0007389288868995258
1033.0,0.0006954276616513155
1032.0,0.0006519307932786322
1031.0,0.0006084382809090627
1030.0,0.0005649501236701937
1029.0,0.000521466320689834
1028.0,0.0005649501236701937
1027.0,0.0006519307932786322
1026.0,0.0007389288868995258
1025.0,0.0007389288868995258
1024.0,0.0006954276616513155
1023.0,0.0006519307932786322
1022.0,0.0006519307932786322
1021.0,0.0006954276616513155
1020.0,0.0006954276616513155
1019.0,0.0006954276616513155
1018.0,0.0006954276616513155
1017.0,0.0006954276616513155
1016.0,0.0006954276616513155
1015.0,0.0006519307932786322
1014.0,0.0006519307932786322
1013.0,0.0006519307932786322
1012.0,0.0006519307932786322
1011.0,0.0006519307932786322
1010.0,0.0006519307932786322
1009.0,0.0006084382809090627
1008.0,0.0006084382809090627
1007.0,0.0006519307932786322
1006.0,0.0006954276616513155
1005.0,0.0007824344698965646
1004.0,0.0007824344698965646
1003.0,0.0007389288868995258
1002.0,0.0007389288868995258
1001.0,0.0006954276616513155
1000.0,0.0006084382809090627
999.0,0.000521466320689834
998.0,0.0004779868710962365
997.0,0.0004779868710962365
996.0,0.00043451177401765406
995.0,0.0004779868710962365
994.0,0.000521466320689834
993.0,0.0006084382809090627
992.0,0.0006519307932786322
991.0,0.0006519307932786322
990.0,0.0006519307932786322
989.0,0.0006519307932786322
988.0,0.0006084382809090627
987.0,0.000521466320689834
986.0,0.0004779868710962365
985.0,0.0004779868710962365
984.0,0.000521466320689834
983.0,0.0005649501236701937
982.0,0.0006519307932786322
981.0,0.0006519307932786322
980.0,0.0006519307932786322
979.0,0.0006519307932786322
978.0,0.0006519307932786322
977.0,0.0006519307932786322
976.0,0.0006084382809090627
975.0,0.0006084382809090627
974.0,0.0006084382809090627
973.0,0.0006084382809090627
972.0,0.0006519307932786322
971.0,0.0006954276616513155
970.0,0.0006519307932786322
969.0,0.0005649501236701937
968.0,0.0004779868710962365
967.0,0.00043451177401765406
966.0,0.0004779868710962365
965.0,0.0005649501236701937
964.0,0.0006084382809090627
963.0,0.0006084382809090627
962.0,0.0006084382809090627
961.0,0.0005649501236701937
960.0,0.000521466320689834
959.0,0.000521466320689834
958.0,0.0004779868710962365
957.0,0.000521466320689834
956.0,0.0005649501236701937
955.0,0.0006084382809090627
954.0,0.0005649501236701937
953.0,0.00043451177401765406
952.0,0.0003475746339209884
951.0,0.0003475746339209884
950.0,0.0003910410285830057
949.0,0.00043451177401765406
948.0,0.0004779868710962365
947.0,0.0004779868710962365
946.0,0.00043451177401765406
945.0,0.00043451177401765406
944.0,0.0004779868710962365
943.0,0.0005649501236701937
942.0,0.0006954276616513155
941.0,0.0007824344698965646
940.0,0.000869458712629001
939.0,0.0009129773741116676
938.0,0.0009129773741116676
937.0,0.000869458712629001
936.0,0.0007824344698965646
935.0,0.0006519307932786322
934.0,0.0005649501236701937
933.0,0.0005649501236701937
932.0,0.0006519307932786322
931.0,0.0006954276616513155
930.0,0.0007389288868995258
929.0,0.0006954276616513155
928.0,0.0006519307932786322
927.0,0.0006084382809090627
926.0,0.0005649501236701937
925.0,0.000521466320689834
924.0,0.00043451177401765406
923.0,0.0003475746339209884
922.0,0.00030411258916074324
921.0,0.00030411258916074324
920.0,0.0003475746339209884
919.0,0.00043451177401765406
918.0,0.00043451177401765406
917.0,0.0004779868710962365
916.0,0.000521466320689834
915.0,0.0006084382809090627
914.0,0.0006519307932786322
913.0,0.0006519307932786322
912.0,0.0006519307932786322
911.0,0.0006084382809090627
910.0,0.000521466320689834
909.0,0.0003910410285830057
908.0,0.00030411258916074324
907.0,0.00026065489343207737
906.0,0.00026065489343207737
905.0,0.0003910410285830057
904.0,0.000521466320689834
903.0,0.0006954276616513155
902.0,0.0007824344698965646
901.0,0.0008259444115150671
900.0,0.0007824344698965646
899.0,0.0007389288868995258
898.0,0.0007389288868995258
897.0,0.0007824344698965646
896.0,0.0007389288868995258
895.0,0.0006954276616513155
894.0,0.0005649501236701937
893.0,0.0003910410285830057
892.0,0.00030411258916074324
891.0,0.00030411258916074324
890.0,0.0003910410285830057
889.0,0.000521466320689834
888.0,0.0005649501236701937
887.0,0.0004779868710962365
886.0,0.0003475746339209884
885.0,0.0003475746339209884
884.0,0.0004779868710962365
883.0,0.0006954276616513155
882.0,0.0007389288868995258
881.0,0.0006519307932786322
880.0,0.0005649501236701937
879.0,0.000521466320689834
878.0,0.0005649501236701937
877.0,0.000521466320689834
876.0,0.0004779868710962365
875.0,0.0003910410285830057
874.0,0.0004779868710962365
873.0,0.0006519307932786322
872.0,0.0007824344698965646
871.0,0.0007824344698965646
870.0,0.0006954276616513155
869.0,0.0006084382809090627
868.0,0.000521466320689834
867.0,0.0004779868710962365
866.0,0.00043451177401765406
865.0,0.0004779868710962365
864.0,0.0005649501236701937
863.0,0.0006954276616513155
862.0,0.0006954276616513155
861.0,0.0006519307932786322
860.0,0.0005649501236701937
859.0,0.0005649501236701937
858.0,0.0005649501236701937
857.0,0.000521466320689834
856.0,0.000521466320689834
855.0,0.000521466320689834
854.0,0.0006084382809090627
853.0,0.0006954276616513155
852.0,0.0007389288868995258
851.0,0.0007389288868995258
850.0,0.0006519307932786322
849.0,0.00043451177401765406
848.0,0.00026065489343207737
847.0,8.686758342868472e-05
846.0,8.686758342868472e-05
845.0,0.00017375254558760211
844.0,0.0003475746339209884
843.0,0.0005649501236701937
842.0,0.0007389288868995258
841.0,0.000869458712629001
840.0,0.0009129773741116676
839.0,0.0009129773741116676
838.0,0.000869458712629001
837.0,0.0007824344698965646
836.0,0.0007389288868995258
835.0,0.0006954276616513155
834.0,0.0006954276616513155
833.0,0.0006954276616513155
832.0,0.0006084382809090627
831.0,0.0005649501236701937
830.0,0.0005649501236701937
829.0,0.0006954276616513155
828.0,0.0009129773741116676
827.0,0.0010435595295137379
826.0,0.0010000277816797354
825.0,0.0007389288868995258
824.0,0.0003910410285830057
823.0,0.00017375254558760211
822.0,8.686758342868472e-05
821.0,0.0001303078917322953
820.0,0.00017375254558760211
819.0,0.00026065489343207737
818.0,0.0003475746339209884
817.0,0.00043451177401765406
816.0,0.0004779868710962365
815.0,0.000521466320689834
814.0,0.0006084382809090627
813.0,0.0006954276616513155
812.0,0.0007824344698965646
811.0,0.0008259444115150671
810.0,0.0007389288868995258
809.0,0.0006519307932786322
808.0,0.0005649501236701937
807.0,0.0004779868710962365
806.0,0.00043451177401765406
805.0,0.00043451177401765406
804.0,0.000521466320689834
803.0,0.0006084382809090627
802.0,0.0006954276616513155
801.0,0.0007389288868995258
800.0,0.0007389288868995258
799.0,0.0008259444115150671
798.0,0.000869458712629001
797.0,0.0008259444115150671
796.0,0.0006519307932786322
795.0,0.0004779868710962365
794.0,0.00043451177401765406
793.0,0.0004779868710962365
792.0,0.00043451177401765406
791.0,0.0003475746339209884
790.0,0.00021720154586435392
789.0,0.0
788.0,-0.00013026880522692963
787.0,-0.00021709297223004853
786.0,-8.685021164911433e-05
785.0,0.0001303078917322953
784.0,0.0003910410285830057
783.0,0.000521466320689834
782.0,0.0004779868710962365
781.0,0.00030411258916074324
780.0,8.686758342868472e-05
779.0,0.0
778.0,4.343161980746579e-05
777.0,0.00021720154586435392
776.0,0.0003910410285830057
775.0,0.0004779868710962365
774.0,0.000521466320689834
773.0,0.00043451177401765406
772.0,0.00030411258916074324
771.0,0.00021720154586435392
770.0,0.00017375254558760211
769.0,0.00026065489343207737
768.0,0.00043451177401765406
767.0,0.0006084382809090627
766.0,0.0006084382809090627
765.0,0.000521466320689834
764.0,0.000521466320689834
763.0,0.0006954276616513155
762.0,0.0009565003968372565
761.0,0.0010000277816797354
760.0,0.0008259444115150671
759.0,0.0005649501236701937
758.0,0.00030411258916074324
757.0,0.00021720154586435392
756.0,0.0003475746339209884
755.0,0.000521466320689834
754.0,0.0006084382809090627
753.0,0.000521466320689834
752.0,0.00030411258916074324
751.0,0.0001303078917322953
750.0,0.0001303078917322953
749.0,0.00030411258916074324
748.0,0.0005649501236701937
747.0,0.0007824344698965646
746.0,0.000869458712629001
745.0,0.0007824344698965646
744.0,0.000521466320689834
743.0,0.00026065489343207737
742.0,0.00017375254558760211
741.0,0.00026065489343207737
740.0,0.0003475746339209884
739.0,0.00026065489343207737
738.0,8.686758342868472e-05
737.0,-4.3427276862573194e-05
736.0,-4.3427276862573194e-05
735.0,4.343161980746579e-05
734.0,0.00017375254558760211
733.0,0.00026065489343207737
732.0,0.0003910410285830057
731.0,0.000521466320689834
730.0,0.000521466320689834
729.0,0.0003475746339209884
728.0,0.0001303078917322953
727.0,0.0001303078917322953
726.0,0.00030411258916074324
725.0,0.0005649501236701937
724.0,0.0006954276616513155
723.0,0.0006954276616513155
722.0,0.0006519307932786322
721.0,0.0006084382809090627
720.0,0.0005649501236701937
719.0,0.000521466320689834
718.0,0.00043451177401765406
717.0,0.00026065489343207737
716.0,0.0001303078917322953
715.0,8.686758342868472e-05
714.0,0.00026065489343207737
713.0,0.000521466320689834
712.0,0.0007824344698965646
711.0,0.0010435595295137379
710.0,0.0012612837441823288
709.0,0.001348404001626502
708.0,0.0012177301682640973
707.0,0.0007824344698965646
706.0,0.00030411258916074324
705.0,0.0001303078917322953
704.0,0.0003475746339209884
703.0,0.0006954276616513155
702.0,0.000869458712629001
701.0,0.0007824344698965646
700.0,0.0006519307932786322
699.0,0.0006519307932786322
698.0,0.0006519307932786322
697.0,0.0005649501236701937
696.0,0.0003910410285830057
695.0,0.00043451177401765406
694.0,0.0007824344698965646
693.0,0.001304841688344327
692.0,0.0016970599014589638
691.0,0.0016534626036355249
690.0,0.0011741809597138886
689.0,0.0006084382809090627
688.0,0.00030411258916074324
687.0,0.00030411258916074324
686.0,0.0003910410285830057
685.0,0.00043451177401765406
684.0,0.00043451177401765406
683.0,0.0006519307932786322
682.0,0.0010000277816797354
681.0,0.001348404001626502
680.0,0.0015226969634936083
679.0,0.0014355417390583547
678.0,0.0012177301682640973
677.0,0.0009565003968372565
676.0,0.0007389288868995258
675.0,0.0006519307932786322
674.0,0.0006954276616513155
673.0,0.0009565003968372565
672.0,0.0015662811355310335
671.0,0.002482560585275184
670.0,0.003488327845821315
669.0,0.003970171588923321
668.0,0.0029195645282691363
667.0,0.0012177301682640973
666.0,0.0005649501236701937
665.0,0.0006519307932786322
664.0,0.0006519307932786322
663.0,0.0004779868710962365
662.0,0.0004779868710962365
661.0,0.0009129773741116676
660.0,0.0015662811355310335
659.0,0.0020023635919956817
658.0,0.0019587356365717845
657.0,0.0016970599014589638
656.0,0.0014791171649619628
655.0,0.0014355417390583547
654.0,0.0014355417390583547
653.0,0.0012177301682640973
652.0,0.0008259444115150671
651.0,0.0004779868710962365
650.0,0.0003910410285830057
649.0,0.00043451177401765406
648.0,0.0005649501236701937
647.0,0.0006519307932786322
646.0,0.0008259444115150671
645.0,0.0010435595295137379
644.0,0.001304841688344327
643.0,0.001348404001626502
642.0,0.0010000277816797354
641.0,0.00017375254558760211
640.0,-0.0008243766056055257
639.0,-0.001474096691732818
638.0,-0.001344230411601366
637.0,-0.0005642161653756084
636.0,0.000521466320689834
635.0,0.0014791171649619628
634.0,0.0020023635919956817
633.0,0.0019587356365717845
632.0,0.0015226969634936083
631.0,0.0009129773741116676
630.0,0.0003475746339209884
629.0,-4.3427276862573194e-05
628.0,-0.00013026880522692963
627.0,8.686758342868472e-05
626.0,0.0004779868710962365
625.0,0.0009129773741116676
624.0,0.0011306361176557367
623.0,0.001304841688344327
622.0,0.001609869681952425
621.0,0.0021332737608552588
620.0,0.0026573093983774942
619.0,0.0029195645282691363
618.0,0.0028321285541661467
617.0,0.0028321285541661467
616.0,0.0030070181092942683
615.0,0.0028321285541661467
614.0,0.0017406615763013722
613.0,-8.685021164911433e-05
612.0,-0.0016904542321527494
611.0,-0.0019931738235303698
610.0,-0.0009110621312231615
609.0,0.000869458712629001
608.0,0.002482560585275184
607.0,0.0034007772998332353
606.0,0.0035758960449088217
605.0,0.0035758960449088217
604.0,0.003794893821675638
603.0,0.004189368323957332
602.0,0.0043648054024501
601.0,0.004320939488377862
600.0,0.0044964297349936455
