cm-1,A
4000.0,0.09593394808549704
3999.0,0.09582563171583658
3998.0,0.09571734235437201
3997.0,0.09560907998763835
3996.0,0.09550084460218011
3995.0,0.09550084460218011
3994.0,0.09560907998763835
3993.0,0.09566320779750503
3992.0,0.0957714836599215
3991.0,0.0957714836599215
3990.0,0.09571734235437201
3989.0,0.09566320779750503
3988.0,0.09566320779750503
3987.0,0.09587978652380036
3986.0,0.09620485725896466
3985.0,0.0964759355287379
3984.0,0.09658441423091357
3983.0,0.0964759355287379
3982.0,0.09625905937846135
3981.0,0.09598811640261173
3980.0,0.09582563171583658
3979.0,0.09582563171583658
3978.0,0.09587978652380036
3977.0,0.09598811640261173
3976.0,0.09598811640261173
3975.0,0.09587978652380036
3974.0,0.09582563171583658
3973.0,0.09582563171583658
3972.0,0.09587978652380036
3971.0,0.09593394808549704
3970.0,0.09598811640261173
3969.0,0.09604229147682952
3968.0,0.0960964733098364
3967.0,0.09620485725896466
3966.0,0.09631326826349751
3965.0,0.09636748391576244
3964.0,0.09631326826349751
3963.0,0.09625905937846135
3962.0,0.096150661903319
3961.0,0.096150661903319
3960.0,0.09625905937846135
3959.0,0.09636748391576244
3958.0,0.0964759355287379
3957.0,0.09642170633694569
3956.0,0.096150661903319
3955.0,0.09582563171583658
3954.0,0.09560907998763835
3953.0,0.09550084460218011
3952.0,0.09544673702322726
3951.0,0.09533854208447545
3950.0,0.09523037409340485
3949.0,0.09512223303659528
3948.0,0.09517630019905599
3947.0,0.09523037409340485
3946.0,0.09528445472131919
3945.0,0.09528445472131919
3944.0,0.09539263618455207
3943.0,0.0955549589230904
3942.0,0.0955549589230904
3941.0,0.09550084460218011
3940.0,0.09550084460218011
3939.0,0.0957714836599215
3938.0,0.09620485725896466
3937.0,0.0964759355287379
3936.0,0.09653017149282994
3935.0,0.09642170633694569
3934.0,0.09625905937846135
3933.0,0.096150661903319
3932.0,0.0960964733098364
3931.0,0.09604229147682952
3930.0,0.09598811640261173
3929.0,0.09582563171583658
3928.0,0.0955549589230904
3927.0,0.09539263618455207
3926.0,0.09539263618455207
3925.0,0.09544673702322726
3924.0,0.09533854208447545
3923.0,0.09506817260434741
3922.0,0.09490603167212863
3921.0,0.09490603167212863
3920.0,0.09490603167212863
3919.0,0.09485199814398393
3918.0,0.09496007192378841
3917.0,0.09544673702322726
3916.0,0.09604229147682952
3915.0,0.0964759355287379
3914.0,0.09674718310604158
3913.0,0.09707290398273716
3912.0,0.09734452478207412
3911.0,0.09739886933346864
3910.0,0.09734452478207412
3909.0,0.09712721455392082
3908.0,0.09674718310604158
3907.0,0.09620485725896466
3906.0,0.09550084460218011
3905.0,0.09474395125154866
3904.0,0.09398837472858723
3903.0,0.09334178232840018
3902.0,0.09307265269104414
3901.0,0.09344948089854999
3900.0,0.09436599867304518
3899.0,0.09517630019905599
3898.0,0.09544673702322726
3897.0,0.09544673702322726
3896.0,0.09550084460218011
3895.0,0.09566320779750503
3894.0,0.09566320779750503
3893.0,0.09566320779750503
3892.0,0.09582563171583658
3891.0,0.096150661903319
3890.0,0.09587978652380036
3889.0,0.09523037409340485
3888.0,0.09523037409340485
3887.0,0.09604229147682952
3886.0,0.09680145295702158
3885.0,0.09669292003582619
3884.0,0.0957714836599215
3883.0,0.09496007192378841
3882.0,0.09512223303659528
3881.0,0.09587978652380036
3880.0,0.09658441423091357
3879.0,0.09669292003582619
3878.0,0.09620485725896466
3877.0,0.09582563171583658
3876.0,0.09571734235437201
3875.0,0.09539263618455207
3874.0,0.09441997176475758
3873.0,0.09323411045927221
3872.0,0.09269615116603047
3871.0,0.0935033402006471
3870.0,0.0950141189006366
3869.0,0.09571734235437201
3868.0,0.09517630019905599
3867.0,0.09474395125154866
3866.0,0.09523037409340485
3865.0,0.0957714836599215
3864.0,0.09560907998763835
3863.0,0.09544673702322726
3862.0,0.09571734235437201
3861.0,0.096150661903319
3860.0,0.09625905937846135
3859.0,0.0960964733098364
3858.0,0.0957714836599215
3857.0,0.09539263618455207
3856.0,0.0950141189006366
3855.0,0.09496007192378841
3854.0,0.09550084460218011
3853.0,0.09663866374468144
3852.0,0.09691001300805646
3851.0,0.09582563171583658
3850.0,0.09582563171583658
3849.0,0.09701860020249709
3848.0,0.09767069414168117
3847.0,0.09750757884139638
3846.0,0.09712721455392082
3845.0,0.09674718310604158
3844.0,0.09631326826349751
3843.0,0.09566320779750503
3842.0,0.09479797133768142
3841.0,0.09404230090757282
3840.0,0.09361107884716913
3839.0,0.09371884422784693
3838.0,0.09409623378338305
3837.0,0.09452793807529569
3836.0,0.09463593123310776
3835.0,0.09474395125154866
3834.0,0.09512223303659528
3833.0,0.09587978652380036
3832.0,0.09658441423091357
3831.0,0.09685572959046151
3830.0,0.09669292003582619
3829.0,0.09642170633694569
3828.0,0.09653017149282994
3827.0,0.09685572959046151
3826.0,0.09696430321150284
3825.0,0.09653017149282994
3824.0,0.09598811640261173
3823.0,0.09582563171583658
3822.0,0.09604229147682952
3821.0,0.0960964733098364
3820.0,0.09566320779750503
3819.0,0.09474395125154866
3818.0,0.09485199814398393
3817.0,0.09642170633694569
3816.0,0.09794268919153337
3815.0,0.09837823590664274
3814.0,0.09805153492691598
3813.0,0.09821485469640057
3812.0,0.0990869322623309
3811.0,0.09963287134352972
3810.0,0.09930522554760213
3809.0,0.09892328427374508
3808.0,0.0989778267519208
3807.0,0.09930522554760213
3806.0,0.09886874864462802
3805.0,0.0975619438013351
3804.0,0.09663866374468144
3803.0,0.09685572959046151
3802.0,0.09745322068600859
3801.0,0.0975619438013351
3800.0,0.09674718310604158
3799.0,0.09571734235437201
3798.0,0.09593394808549704
3797.0,0.09707290398273716
3796.0,0.09794268919153337
3795.0,0.09826930827078129
3794.0,0.09848719087006019
3793.0,0.09892328427374508
3792.0,0.09946901754724413
3791.0,0.09968750301627338
3790.0,0.09974214156222239
3789.0,0.09968750301627338
3788.0,0.09957824654226233
3787.0,0.09930522554760213
3786.0,0.0990869322623309
3785.0,0.09892328427374508
3784.0,0.09870518283443275
3783.0,0.09837823590664274
3782.0,0.09810596802617932
3781.0,0.09821485469640057
3780.0,0.09865067458435761
3779.0,0.0990869322623309
3778.0,0.09935981601739963
3777.0,0.09952362861074304
3776.0,0.09990609845660159
3775.0,0.10028890542885538
3774.0,0.10028890542885538
3773.0,0.09979678698310646
3772.0,0.09925064193892053
3771.0,0.0990869322623309
3770.0,0.09903237608087578
3769.0,0.09881421986284966
3768.0,0.09843270997155007
3767.0,0.09837823590664274
3766.0,0.09875969792669093
3765.0,0.0990869322623309
3764.0,0.0989778267519208
3763.0,0.09870518283443275
3762.0,0.09870518283443275
3761.0,0.09892328427374508
3760.0,0.09875969792669093
3759.0,0.09837823590664274
3758.0,0.09832376867362447
3757.0,0.09832376867362447
3756.0,0.09805153492691598
3755.0,0.09750757884139638
3754.0,0.09701860020249709
3753.0,0.0964759355287379
3752.0,0.09582563171583658
3751.0,0.0957714836599215
3750.0,0.09674718310604158
3749.0,0.09729018703012282
3748.0,0.09658441423091357
3747.0,0.0960964733098364
3746.0,0.09701860020249709
3745.0,0.09886874864462802
3744.0,0.10034361969436434
3743.0,0.10001543745060903
3742.0,0.09854167860388774
3741.0,0.09816040794877057
3740.0,0.09854167860388774
3739.0,0.09810596802617932
3738.0,0.09712721455392082
3737.0,0.09636748391576244
3736.0,0.09598811640261173
3735.0,0.09582563171583658
3734.0,0.09604229147682952
3733.0,0.09685572959046151
3732.0,0.09799710864927058
3731.0,0.09870518283443275
3730.0,0.09881421986284966
3729.0,0.09892328427374508
3728.0,0.09935981601739963
3727.0,0.09974214156222239
3726.0,0.09974214156222239
3725.0,0.09941441335003853
3724.0,0.09919606518963042
3723.0,0.09914149529800831
3722.0,0.09914149529800831
3721.0,0.09914149529800831
3720.0,0.09925064193892053
3719.0,0.09963287134352972
3718.0,0.10012480397898926
3717.0,0.10034361969436434
3716.0,0.10012480397898926
3715.0,0.09963287134352972
3714.0,0.09903237608087578
3713.0,0.09832376867362447
3712.0,0.09772507952549825
3711.0,0.09777947172068524
3710.0,0.09854167860388774
3709.0,0.09935981601739963
3708.0,0.10007011727213588
3707.0,0.1005625457138224
3706.0,0.10083635852278117
3705.0,0.10083635852278117
3704.0,0.10078158214862709
3703.0,0.10072681268239614
3702.0,0.10067205012234592
3701.0,0.10067205012234592
3700.0,0.10067205012234592
3699.0,0.10078158214862709
3698.0,0.10127481841050656
3697.0,0.10182351650232357
3696.0,0.1017686154869033
3695.0,0.1012199867101744
3694.0,0.10039834085387778
3693.0,0.09968750301627338
3692.0,0.0989778267519208
3691.0,0.09848719087006019
3690.0,0.09865067458435761
3689.0,0.09974214156222239
3688.0,0.10083635852278117
3687.0,0.10111034407341357
3686.0,0.10116516193172598
3685.0,0.1017686154869033
3684.0,0.10248287059947447
3683.0,0.10264786565568684
3682.0,0.10226297465457268
3681.0,0.1017686154869033
3680.0,0.1012199867101744
3679.0,0.10028890542885538
3678.0,0.09914149529800831
3677.0,0.09854167860388774
3676.0,0.09870518283443275
3675.0,0.09919606518963042
3674.0,0.09886874864462802
3673.0,0.09805153492691598
3672.0,0.09848719087006019
3671.0,0.09968750301627338
3670.0,0.10034361969436434
3669.0,0.10061729446673495
3668.0,0.10078158214862709
3667.0,0.10116516193172598
3666.0,0.10198826120249849
3665.0,0.10270287794050348
3664.0,0.10303309806684524
3663.0,0.10308815917397474
3662.0,0.10319830233507843
3661.0,0.10325338439259446
3660.0,0.10314322726279568
3659.0,0.1028679566179056
3658.0,0.10270287794050348
3657.0,0.1028679566179056
3656.0,0.10297804393963661
3655.0,0.10259286033841963
3654.0,0.10171372141087698
3653.0,0.10094593200182911
3652.0,0.10034361969436434
3651.0,0.09930522554760213
3650.0,0.09821485469640057
3649.0,0.09821485469640057
3648.0,0.09914149529800831
3647.0,0.09985143928065598
3646.0,0.10017949757290379
3645.0,0.10078158214862709
3644.0,0.10171372141087698
3643.0,0.10275789719463457
3642.0,0.10347378251044459
3641.0,0.10397008760377302
3640.0,0.10435649517592083
3639.0,0.10479852522110678
3638.0,0.10501970907203151
3637.0,0.10485381062400778
3636.0,0.10463271122663809
3635.0,0.10446696051592963
3634.0,0.10435649517592083
3633.0,0.10385974855798041
3632.0,0.10314322726279568
3631.0,0.10264786565568684
3630.0,0.10264786565568684
3629.0,0.10319830233507843
3628.0,0.10397008760377302
3627.0,0.10413564875270076
3626.0,0.10413564875270076
3625.0,0.10479852522110678
3624.0,0.10546241500425357
3623.0,0.10546241500425357
3622.0,0.10513034325474746
3621.0,0.10479852522110678
3620.0,0.10452220372428545
3619.0,0.10424605792627206
3618.0,0.10374943753836186
3617.0,0.10308815917397474
3616.0,0.10264786565568684
3615.0,0.10275789719463457
3614.0,0.10314322726279568
3613.0,0.10347378251044459
3612.0,0.10358402352687701
3611.0,0.10352889952072264
3610.0,0.10352889952072264
3609.0,0.10369429253391926
3608.0,0.10397008760377302
3607.0,0.10435649517592083
3606.0,0.1047432468551055
3605.0,0.10518567091669917
3604.0,0.10557316203581202
3603.0,0.10579474085791629
3602.0,0.10573933555301185
3601.0,0.10540705207704448
3600.0,0.10496440254767725
3599.0,0.10452220372428545
3598.0,0.10413564875270076
3597.0,0.10397008760377302
3596.0,0.10385974855798041
3595.0,0.1038045895457893
3594.0,0.10385974855798041
3593.0,0.10413564875270076
3592.0,0.10441172433373724
3591.0,0.10463271122663809
3590.0,0.10463271122663809
3589.0,0.10446696051592963
3588.0,0.10435649517592083
3587.0,0.10452220372428545
3586.0,0.10485381062400778
3585.0,0.10518567091669917
3584.0,0.10568393731556158
3583.0,0.1062937069352865
3582.0,0.10668218838388821
3581.0,0.10679324694015202
3580.0,0.10679324694015202
3579.0,0.10679324694015202
3578.0,0.10684878687013422
3577.0,0.10690433390377163
3576.0,0.10690433390377163
3575.0,0.10679324694015202
3574.0,0.10679324694015202
3573.0,0.10679324694015202
3572.0,0.10679324694015202
3571.0,0.10662666975397506
3570.0,0.1062937069352865
3569.0,0.10573933555301185
3568.0,0.10507502264045665
3567.0,0.10463271122663809
3566.0,0.10457745396059215
3565.0,0.1047432468551055
3564.0,0.10513034325474746
3563.0,0.10579474085791629
3562.0,0.10646015643533868
3561.0,0.10701544928928342
3560.0,0.10740457717110186
3559.0,0.10773839308446487
3558.0,0.10801676914803293
3557.0,0.10823959854332843
3556.0,0.10835105612944096
3555.0,0.10835105612944096
3554.0,0.10823959854332843
3553.0,0.10823959854332843
3552.0,0.1082953237608173
3551.0,0.10846254232743546
3550.0,0.10851829616048003
3549.0,0.10851829616048003
3548.0,0.10840679565103484
3547.0,0.10835105612944096
3546.0,0.10846254232743546
3545.0,0.10874138309586101
3544.0,0.10913206118855912
3543.0,0.10946720807225518
3542.0,0.10974669484546551
3541.0,0.10991447328367476
3540.0,0.10991447328367476
3539.0,0.10974669484546551
3538.0,0.10952309103982927
3537.0,0.10941133229451272
3536.0,0.10941133229451272
3535.0,0.10946720807225518
3534.0,0.10941133229451272
3533.0,0.10929960230112479
3532.0,0.10913206118855912
3531.0,0.10896458468468917
3530.0,0.10868560061785693
3529.0,0.10840679565103484
3528.0,0.1081838804751396
3527.0,0.10812816955441629
3526.0,0.10812816955441629
3525.0,0.1082953237608173
3524.0,0.10846254232743546
3523.0,0.10857405715200596
3522.0,0.10857405715200596
3521.0,0.10846254232743546
3520.0,0.10840679565103484
3519.0,0.10851829616048003
3518.0,0.10879717273970457
3517.0,0.10918790104487552
3516.0,0.10963487855187593
3515.0,0.11013827874181148
3514.0,0.11053021603049262
3513.0,0.11081038795292675
3512.0,0.11081038795292675
3511.0,0.11053021603049262
3510.0,0.11002636159600376
3509.0,0.10941133229451272
3508.0,0.10902040301031102
3507.0,0.10885296955122903
3506.0,0.10896458468468917
3505.0,0.10918790104487552
3504.0,0.10935546370475246
3503.0,0.10952309103982927
3502.0,0.10969078310005154
3501.0,0.1098585399354226
3500.0,0.11002636159600376
3499.0,0.11008231656379408
3498.0,0.11002636159600376
3497.0,0.1098585399354226
3496.0,0.10974669484546551
3495.0,0.10974669484546551
3494.0,0.10980261378997125
3493.0,0.10991447328367476
3492.0,0.10997041383658313
3491.0,0.11008231656379408
3490.0,0.11025022473596224
3489.0,0.11030620855581463
3488.0,0.11036219959333216
3487.0,0.11036219959333216
3486.0,0.11030620855581463
3485.0,0.11019424813191447
3484.0,0.11008231656379408
3483.0,0.11008231656379408
3482.0,0.11019424813191447
3481.0,0.11047420332880886
3480.0,0.11092250734993603
3479.0,0.11137127461477392
3478.0,0.11165198982195101
3477.0,0.11176432672943282
3476.0,0.1117081546434846
3475.0,0.11153968196461372
3474.0,0.11142740314240007
3473.0,0.11153968196461372
3472.0,0.1117081546434846
3471.0,0.11182050608167504
3470.0,0.11187669270209155
3469.0,0.11187669270209155
3468.0,0.11198908775497118
3467.0,0.11215773489264302
3466.0,0.11238269966426384
3465.0,0.11260778102815316
3464.0,0.11277666863747693
3463.0,0.112945621949043
3462.0,0.1130019543289007
3461.0,0.112945621949043
3460.0,0.1128329791052256
3459.0,0.11277666863747693
3458.0,0.112945621949043
3457.0,0.11317099532301778
3456.0,0.11339648571328764
3455.0,0.11345287660889425
3454.0,0.11350927482751816
3453.0,0.11356568037106163
3452.0,0.1137349409702435
3451.0,0.11396072443355765
3450.0,0.1141301390960936
3449.0,0.1141301390960936
3448.0,0.11401718864502697
3447.0,0.11401718864502697
3446.0,0.11418662533951118
3445.0,0.1145256971708426
3444.0,0.11503480179926728
3443.0,0.11548784080960606
3442.0,0.11582793047608719
3441.0,0.11599807523121286
3440.0,0.11616828667054757
3439.0,0.11633856484638239
3438.0,0.1165089098110701
3437.0,0.11662251025166115
3436.0,0.11667932161702477
3435.0,0.116736140415026
3434.0,0.11684980031672243
3433.0,0.1169634899723202
3432.0,0.11702034596270106
3431.0,0.1169634899723202
3430.0,0.11690664142431006
3429.0,0.1169634899723202
3428.0,0.11713408027837091
3427.0,0.11741854644554883
3426.0,0.11776015198117662
3425.0,0.11810202642698875
3424.0,0.1183871275216517
3423.0,0.11850122038501709
3422.0,0.1183871275216517
3421.0,0.11804502866039956
3420.0,0.11770319906234805
3419.0,0.11741854644554883
3418.0,0.11730473761840288
3417.0,0.11724784438692004
3416.0,0.11719095860756013
3415.0,0.11719095860756013
3414.0,0.11719095860756013
3413.0,0.11713408027837091
3412.0,0.11684980031672243
3411.0,0.11645212073195621
3410.0,0.11611154211151953
3409.0,0.11588463798833115
3408.0,0.11577123036739612
3407.0,0.11577123036739612
3406.0,0.1157145376603248
3405.0,0.11560117444331386
3404.0,0.11543118508166672
3403.0,0.11531789579397489
3402.0,0.11509140583739286
3401.0,0.114865033936566
3400.0,0.11458223488906394
3399.0,0.11435612816423602
3398.0,0.11424311893073247
3397.0,0.11424311893073247
3396.0,0.11429961987167014
3395.0,0.11429961987167014
3394.0,0.11429961987167014
3393.0,0.11429961987167014
3392.0,0.11435612816423602
3391.0,0.11435612816423602
3390.0,0.11424311893073247
3389.0,0.1141301390960936
3388.0,0.11396072443355765
3387.0,0.1138478180292033
3386.0,0.11390426756225258
3385.0,0.1141301390960936
3384.0,0.11429961987167014
3383.0,0.11441264381034388
3382.0,0.11435612816423602
3381.0,0.11429961987167014
3380.0,0.11429961987167014
3379.0,0.11441264381034388
3378.0,0.1145256971708426
3377.0,0.11469533241103202
3376.0,0.1148084593931522
3375.0,0.11469533241103202
3374.0,0.1145256971708426
3373.0,0.11435612816423602
3372.0,0.11424311893073247
3371.0,0.11424311893073247
3370.0,0.11424311893073247
3369.0,0.11418662533951118
3368.0,0.11401718864502697
3367.0,0.11396072443355765
3366.0,0.11390426756225258
3365.0,0.11396072443355765
3364.0,0.11396072443355765
3363.0,0.11396072443355765
3362.0,0.11390426756225258
3361.0,0.11390426756225258
3360.0,0.11396072443355765
3359.0,0.11396072443355765
3358.0,0.11401718864502697
3357.0,0.11396072443355765
3356.0,0.11396072443355765
3355.0,0.11396072443355765
3354.0,0.11407366019856902
3353.0,0.11418662533951118
3352.0,0.11429961987167014
3351.0,0.11446916681190777
3350.0,0.11458223488906394
3349.0,0.11463877996848804
3348.0,0.1145256971708426
3347.0,0.11429961987167014
3346.0,0.11396072443355765
3345.0,0.11367851344052027
3344.0,0.11356568037106163
3343.0,0.1136220932414278
3342.0,0.1138478180292033
3341.0,0.11407366019856902
3340.0,0.11424311893073247
3339.0,0.11435612816423602
3338.0,0.1145256971708426
3337.0,0.11469533241103202
3336.0,0.114865033936566
3335.0,0.11492161585077598
3334.0,0.11492161585077598
3333.0,0.114865033936566
3332.0,0.11469533241103202
3331.0,0.11441264381034388
3330.0,0.1141301390960936
3329.0,0.11396072443355765
3328.0,0.11390426756225258
3327.0,0.11396072443355765
3326.0,0.11407366019856902
3325.0,0.11418662533951118
3324.0,0.11429961987167014
3323.0,0.11441264381034388
3322.0,0.1145256971708426
3321.0,0.11469533241103202
3320.0,0.114865033936566
3319.0,0.11492161585077598
3318.0,0.11492161585077598
3317.0,0.11469533241103202
3316.0,0.11446916681190777
3315.0,0.11429961987167014
3314.0,0.11441264381034388
3313.0,0.11458223488906394
3312.0,0.11475189221861393
3311.0,0.11475189221861393
3310.0,0.11458223488906394
3309.0,0.11429961987167014
3308.0,0.11407366019856902
3307.0,0.11396072443355765
3306.0,0.1141301390960936
3305.0,0.11446916681190777
3304.0,0.11492161585077598
3303.0,0.11520463605101905
3302.0,0.11526126223036814
3301.0,0.11503480179926728
3300.0,0.11475189221861393
3299.0,0.1145256971708426
3298.0,0.1145256971708426
3297.0,0.11463877996848804
3296.0,0.1148084593931522
3295.0,0.114865033936566
3294.0,0.114865033936566
3293.0,0.1148084593931522
3292.0,0.11475189221861393
3291.0,0.11475189221861393
3290.0,0.1148084593931522
3289.0,0.11475189221861393
3288.0,0.11458223488906394
3287.0,0.11446916681190777
3286.0,0.11446916681190777
3285.0,0.11469533241103202
3284.0,0.11492161585077598
3283.0,0.11492161585077598
3282.0,0.11475189221861393
3281.0,0.11446916681190777
3280.0,0.11424311893073247
3279.0,0.11418662533951118
3278.0,0.11424311893073247
3277.0,0.11435612816423602
3276.0,0.11458223488906394
3275.0,0.11469533241103202
3274.0,0.11469533241103202
3273.0,0.11458223488906394
3272.0,0.11441264381034388
3271.0,0.11424311893073247
3270.0,0.11407366019856902
3269.0,0.11401718864502697
3268.0,0.11401718864502697
3267.0,0.11407366019856902
3266.0,0.1141301390960936
3265.0,0.11424311893073247
3264.0,0.11429961987167014
3263.0,0.11424311893073247
3262.0,0.11418662533951118
3261.0,0.11407366019856902
3260.0,0.1141301390960936
3259.0,0.11424311893073247
3258.0,0.11435612816423602
3257.0,0.11441264381034388
3256.0,0.11435612816423602
3255.0,0.11424311893073247
3254.0,0.1141301390960936
3253.0,0.11401718864502697
3252.0,0.11396072443355765
3251.0,0.11401718864502697
3250.0,0.11424311893073247
3249.0,0.11446916681190777
3248.0,0.11463877996848804
3247.0,0.1148084593931522
3246.0,0.11492161585077598
3245.0,0.1149782051377024
3244.0,0.1149782051377024
3243.0,0.11492161585077598
3242.0,0.1148084593931522
3241.0,0.11463877996848804
3240.0,0.11446916681190777
3239.0,0.11435612816423602
3238.0,0.11435612816423602
3237.0,0.11446916681190777
3236.0,0.11469533241103202
3235.0,0.114865033936566
3234.0,0.11492161585077598
3233.0,0.1149782051377024
3232.0,0.11492161585077598
3231.0,0.114865033936566
3230.0,0.1148084593931522
3229.0,0.1148084593931522
3228.0,0.114865033936566
3227.0,0.1149782051377024
3226.0,0.11509140583739286
3225.0,0.11520463605101905
3224.0,0.11537453674376552
3223.0,0.11543118508166672
3222.0,0.11543118508166672
3221.0,0.11537453674376552
3220.0,0.11526126223036814
3219.0,0.11520463605101905
3218.0,0.11509140583739286
3217.0,0.1149782051377024
3216.0,0.114865033936566
3215.0,0.11475189221861393
3214.0,0.114865033936566
3213.0,0.1149782051377024
3212.0,0.1149782051377024
3211.0,0.114865033936566
3210.0,0.11469533241103202
3209.0,0.1145256971708426
3208.0,0.1145256971708426
3207.0,0.11463877996848804
3206.0,0.11469533241103202
3205.0,0.11475189221861393
3204.0,0.1148084593931522
3203.0,0.114865033936566
3202.0,0.11492161585077598
3201.0,0.11492161585077598
3200.0,0.1148084593931522
3199.0,0.11458223488906394
3198.0,0.11435612816423602
3197.0,0.11418662533951118
3196.0,0.11418662533951118
3195.0,0.11435612816423602
3194.0,0.1145256971708426
3193.0,0.11469533241103202
3192.0,0.1148084593931522
3191.0,0.1149782051377024
3190.0,0.11526126223036814
3189.0,0.11543118508166672
3188.0,0.11537453674376552
3187.0,0.11514801725400226
3186.0,0.11492161585077598
3185.0,0.114865033936566
3184.0,0.114865033936566
3183.0,0.114865033936566
3182.0,0.1148084593931522
3181.0,0.11458223488906394
3180.0,0.11446916681190777
3179.0,0.11441264381034388
3178.0,0.11446916681190777
3177.0,0.11458223488906394
3176.0,0.11475189221861393
3175.0,0.1148084593931522
3174.0,0.11492161585077598
3173.0,0.1149782051377024
3172.0,0.11503480179926728
3171.0,0.11514801725400226
3170.0,0.11526126223036814
3169.0,0.11537453674376552
3168.0,0.11543118508166672
3167.0,0.11537453674376552
3166.0,0.11531789579397489
3165.0,0.11526126223036814
3164.0,0.11520463605101905
3163.0,0.11514801725400226
3162.0,0.1149782051377024
3161.0,0.11475189221861393
3160.0,0.1145256971708426
3159.0,0.11446916681190777
3158.0,0.11463877996848804
3157.0,0.11492161585077598
3156.0,0.11520463605101905
3155.0,0.11537453674376552
3154.0,0.11554450392951199
3153.0,0.11577123036739612
3152.0,0.11594135290606156
3151.0,0.11599807523121286
3150.0,0.11594135290606156
3149.0,0.11565785235294102
3148.0,0.11531789579397489
3147.0,0.11503480179926728
3146.0,0.114865033936566
3145.0,0.11492161585077598
3144.0,0.11514801725400226
3143.0,0.11537453674376552
3142.0,0.11554450392951199
3141.0,0.11554450392951199
3140.0,0.11543118508166672
3139.0,0.11543118508166672
3138.0,0.11543118508166672
3137.0,0.11560117444331386
3136.0,0.11582793047608719
3135.0,0.11611154211151953
3134.0,0.11633856484638239
3133.0,0.11645212073195621
3132.0,0.1165089098110701
3131.0,0.1165089098110701
3130.0,0.1165089098110701
3129.0,0.1165089098110701
3128.0,0.1165657063169907
3127.0,0.1165657063169907
3126.0,0.11645212073195621
3125.0,0.11622503864474187
3124.0,0.11605480496572018
3123.0,0.11599807523121286
3122.0,0.11611154211151953
3121.0,0.11622503864474187
3120.0,0.11633856484638239
3119.0,0.1163953390777075
3118.0,0.1165657063169907
3117.0,0.11684980031672243
3116.0,0.11713408027837091
3115.0,0.11724784438692004
3114.0,0.1170772093974013
3113.0,0.11679296664760996
3112.0,0.1165089098110701
3111.0,0.11645212073195621
3110.0,0.11667932161702477
3109.0,0.1170772093974013
3108.0,0.1175323851046286
3107.0,0.11781711236973003
3106.0,0.11798803837334138
3105.0,0.11804502866039956
3104.0,0.11810202642698875
3103.0,0.11815903167507247
3102.0,0.11810202642698875
3101.0,0.11810202642698875
3100.0,0.11798803837334138
3099.0,0.11787408022996826
3098.0,0.11776015198117662
3097.0,0.11764625361128611
3096.0,0.1175323851046286
3095.0,0.11741854644554883
3094.0,0.11736163830396129
3093.0,0.11736163830396129
3092.0,0.11741854644554883
3091.0,0.11758931562603192
3090.0,0.11776015198117662
3089.0,0.11793105556385153
3088.0,0.11798803837334138
3087.0,0.11810202642698875
3086.0,0.11821604440661537
3085.0,0.11833009232793867
3084.0,0.11855827805860697
3083.0,0.11872949607064243
3082.0,0.11890078161098283
3081.0,0.11907213473291511
3080.0,0.11930071078129845
3079.0,0.11941504393502012
3078.0,0.11952940719622163
3077.0,0.11952940719622163
3076.0,0.11941504393502012
3075.0,0.11918640771920863
3074.0,0.11890078161098283
3073.0,0.11878658374498086
3072.0,0.11878658374498086
3071.0,0.11895789180659433
3070.0,0.11918640771920863
3069.0,0.11947222180119477
3068.0,0.11970100857424737
3067.0,0.11987267778337518
3066.0,0.11987267778337518
3065.0,0.11981544717356662
3064.0,0.11970100857424737
3063.0,0.11970100857424737
3062.0,0.11975822410451964
3061.0,0.11975822410451964
3060.0,0.11970100857424737
3059.0,0.11952940719622163
3058.0,0.11947222180119477
3057.0,0.11952940719622163
3056.0,0.11970100857424737
3055.0,0.11992991593593283
3054.0,0.12015894401343741
3053.0,0.12033079436794658
3052.0,0.12044539906102569
3051.0,0.12044539906102569
3050.0,0.12027350336042275
3049.0,0.1199871616332282
3048.0,0.11970100857424737
3047.0,0.11947222180119477
3046.0,0.11930071078129845
3045.0,0.11907213473291511
3044.0,0.11884367892443626
3043.0,0.11850122038501709
3042.0,0.11827306462358211
3041.0,0.11804502866039956
3040.0,0.11776015198117662
3039.0,0.11741854644554883
3038.0,0.1170772093974013
3037.0,0.11679296664760996
3036.0,0.11662251025166115
3035.0,0.1165089098110701
3034.0,0.11645212073195621
3033.0,0.11645212073195621
3032.0,0.11645212073195621
3031.0,0.11645212073195621
3030.0,0.11645212073195621
3029.0,0.11645212073195621
3028.0,0.11662251025166115
3027.0,0.11679296664760996
3026.0,0.11684980031672243
3025.0,0.11679296664760996
3024.0,0.11662251025166115
3023.0,0.11645212073195621
3022.0,0.1163953390777075
3021.0,0.11645212073195621
3020.0,0.116736140415026
3019.0,0.11702034596270106
3018.0,0.11730473761840288
3017.0,0.1175323851046286
3016.0,0.11770319906234805
3015.0,0.11798803837334138
3014.0,0.11833009232793867
3013.0,0.11872949607064243
3012.0,0.11895789180659433
3011.0,0.1190150095132465
3010.0,0.1190150095132465
3009.0,0.11907213473291511
3008.0,0.11930071078129845
3007.0,0.11964380058076385
3006.0,0.12004441487725082
3005.0,0.12050271275057156
3004.0,0.12096149476276286
3003.0,0.12136332697348307
3002.0,0.12159311241900439
3001.0,0.12176553132495593
3000.0,0.12193801870998744
2999.0,0.12222565000860186
2998.0,0.12268625668776156
2997.0,0.12320502379929943
2996.0,0.12372441132212098
2995.0,0.12412880927263426
2994.0,0.12436006299583169
2993.0,0.12441789567211425
2992.0,0.12436006299583169
2991.0,0.12441789567211425
2990.0,0.1244757360506914
2989.0,0.12464930342071079
2988.0,0.1248808345374317
2987.0,0.1252863112422209
2986.0,0.12569216687196105
2985.0,0.12621453918179926
2984.0,0.12679569072295926
2983.0,0.12749410065407507
2982.0,0.1281352979118051
2981.0,0.12877744324029283
2980.0,0.12942053944731513
2979.0,0.13000599987825812
2978.0,0.1305922506177981
2977.0,0.1312967977214634
2976.0,0.13200248965504868
2975.0,0.13276828548110586
2974.0,0.13347637446715632
2973.0,0.13424477592854833
2972.0,0.1349552783069008
2971.0,0.13560759484941132
2970.0,0.136142038116027
2969.0,0.13655817138629134
2968.0,0.13697470377052956
2967.0,0.13751083309410284
2966.0,0.1380476250785483
2965.0,0.13846558914096208
2964.0,0.1387643813659596
2963.0,0.1388241644869712
2962.0,0.1388839558386048
2961.0,0.13894375542312654
2960.0,0.13894375542312654
2959.0,0.1388839558386048
2958.0,0.13870460647330418
2957.0,0.1384058553561347
2956.0,0.13798794874978348
2955.0,0.1375704438939911
2954.0,0.13727247168202528
2953.0,0.13709378643700187
2952.0,0.13685565374733244
2951.0,0.13655817138629134
2950.0,0.136142038116027
2949.0,0.13572630319562085
2948.0,0.13531096586314884
2947.0,0.13483678049391368
2946.0,0.13418561983203192
2945.0,0.13341732293645103
2944.0,0.13276828548110586
2943.0,0.132179091954427
2942.0,0.13159069668503998
2941.0,0.13106182166708868
2940.0,0.1305922506177981
2939.0,0.13024040521758962
2938.0,0.12994741830645506
2937.0,0.12971317100740865
2936.0,0.12936203678919433
2935.0,0.12889429901441463
2934.0,0.12842706445412122
2933.0,0.1280769681176266
2932.0,0.1277271537757949
2931.0,0.1275523522109867
2930.0,0.12749410065407507
2929.0,0.12749410065407507
2928.0,0.1275523522109867
2927.0,0.1275523522109867
2926.0,0.12749410065407507
2925.0,0.12737762097471172
2924.0,0.12726117252733116
2923.0,0.1270865583796048
2922.0,0.12679569072295926
2921.0,0.126621263590859
2920.0,0.126621263590859
2919.0,0.12679569072295926
2918.0,0.12697018793895576
2917.0,0.12714475529518965
2916.0,0.12731939284807026
2915.0,0.12749410065407507
2914.0,0.1277271537757949
2913.0,0.1281352979118051
2912.0,0.12866061890013913
2911.0,0.12918657608440243
2910.0,0.12971317100740865
2909.0,0.13018179202067182
2908.0,0.13053358991913355
2907.0,0.13076828026902376
2906.0,0.1308856730206247
2905.0,0.13100309751286465
2904.0,0.13094438129809216
2903.0,0.13070959579060148
2902.0,0.13035765534840538
2901.0,0.12988884463559924
2900.0,0.12942053944731513
2899.0,0.1290696416513042
2898.0,0.12883586719705065
2897.0,0.12866061890013913
2896.0,0.1286022185125162
2895.0,0.1286022185125162
2894.0,0.12866061890013913
2893.0,0.1287190271420271
2892.0,0.12866061890013913
2891.0,0.1286022185125162
2890.0,0.12854382597704617
2889.0,0.12836869546244634
2888.0,0.12819363554127072
2887.0,0.1280186461566306
2886.0,0.12796033202671375
2885.0,0.1280186461566306
2884.0,0.1280769681176266
2883.0,0.1280186461566306
2882.0,0.12790202572577325
2881.0,0.1277271537757949
2880.0,0.12761061158217912
2879.0,0.12749410065407507
2878.0,0.12749410065407507
2877.0,0.12749410065407507
2876.0,0.1275523522109867
2875.0,0.1276688787697493
2874.0,0.1277271537757949
2873.0,0.1277271537757949
2872.0,0.12761061158217912
2871.0,0.12743585690934855
2870.0,0.12720296001040166
2869.0,0.12702836926155658
2868.0,0.12691201440971422
2867.0,0.12679569072295926
2866.0,0.1267375405612734
2865.0,0.1267375405612734
2864.0,0.1267375405612734
2863.0,0.12685384867174432
2862.0,0.12697018793895576
2861.0,0.12726117252733116
2860.0,0.12749410065407507
2859.0,0.1277271537757949
2858.0,0.12790202572577325
2857.0,0.12790202572577325
2856.0,0.1276688787697493
2855.0,0.12737762097471172
2854.0,0.12702836926155658
2853.0,0.12679569072295926
2852.0,0.12667939818460128
2851.0,0.126621263590859
2850.0,0.12656313677796316
2849.0,0.12656313677796316
2848.0,0.12656313677796316
2847.0,0.12644690648638135
2846.0,0.1263307072932056
2845.0,0.12604034525664676
2844.0,0.12575017722159698
2843.0,0.12551818230053358
2842.0,0.12534426740189897
2841.0,0.12517042212027807
2840.0,0.125054563914468
2839.0,0.124996646399959
2838.0,0.124996646399959
2837.0,0.1249387366082999
2836.0,0.12482294018529605
2835.0,0.12470717462899183
2834.0,0.12453358413361437
2833.0,0.12453358413361437
2832.0,0.12453358413361437
2831.0,0.12453358413361437
2830.0,0.1244757360506914
2829.0,0.12441789567211425
2828.0,0.12436006299583169
2827.0,0.12441789567211425
2826.0,0.12441789567211425
2825.0,0.12441789567211425
2824.0,0.12436006299583169
2823.0,0.12424442074194553
2822.0,0.12418661116024232
2821.0,0.12418661116024232
2820.0,0.12418661116024232
2819.0,0.12418661116024232
2818.0,0.12418661116024232
2817.0,0.12424442074194553
2816.0,0.12430223801979201
2815.0,0.12441789567211425
2814.0,0.12441789567211425
2813.0,0.12436006299583169
2812.0,0.12418661116024232
2811.0,0.12401322857151209
2810.0,0.12383991517437187
2809.0,0.12389767862220635
2808.0,0.12412880927263426
2807.0,0.12436006299583169
2806.0,0.1244757360506914
2805.0,0.12453358413361437
2804.0,0.1244757360506914
2803.0,0.12441789567211425
2802.0,0.12436006299583169
2801.0,0.12430223801979201
2800.0,0.12424442074194553
2799.0,0.12424442074194553
2798.0,0.12424442074194553
2797.0,0.12430223801979201
2796.0,0.12441789567211425
2795.0,0.12441789567211425
2794.0,0.12436006299583169
2793.0,0.12418661116024232
2792.0,0.12395544975390482
2791.0,0.12372441132212098
2790.0,0.12360893818081231
2789.0,0.12349349573411894
2788.0,0.12349349573411894
2787.0,0.12349349573411894
2786.0,0.12355121312165873
2785.0,0.12360893818081231
2784.0,0.1236666709136196
2783.0,0.12360893818081231
2782.0,0.12349349573411894
2781.0,0.1233203895807995
2780.0,0.12320502379929943
2779.0,0.12308968865537295
2778.0,0.12314735239865637
2777.0,0.12326270285933538
2776.0,0.12343578601615435
2775.0,0.12355121312165873
2774.0,0.12360893818081231
2773.0,0.12355121312165873
2772.0,0.12343578601615435
2771.0,0.12326270285933538
2770.0,0.12314735239865637
2769.0,0.12308968865537295
2768.0,0.12314735239865637
2767.0,0.12326270285933538
2766.0,0.12337808396572703
2765.0,0.12343578601615435
2764.0,0.12337808396572703
2763.0,0.1233203895807995
2762.0,0.1233203895807995
2761.0,0.12337808396572703
2760.0,0.12355121312165873
2759.0,0.1236666709136196
2758.0,0.12378215940835768
2757.0,0.12378215940835768
2756.0,0.12360893818081231
2755.0,0.12337808396572703
2754.0,0.12308968865537295
2753.0,0.12291674334934943
2752.0,0.12291674334934943
2751.0,0.12308968865537295
2750.0,0.1233203895807995
2749.0,0.12349349573411894
2748.0,0.12355121312165873
2747.0,0.12355121312165873
2746.0,0.12355121312165873
2745.0,0.1236666709136196
2744.0,0.12378215940835768
2743.0,0.12383991517437187
2742.0,0.12378215940835768
2741.0,0.12355121312165873
2740.0,0.12337808396572703
2739.0,0.1233203895807995
2738.0,0.12343578601615435
2737.0,0.12360893818081231
2736.0,0.12360893818081231
2735.0,0.12349349573411894
2734.0,0.1233203895807995
2733.0,0.12320502379929943
2732.0,0.12320502379929943
2731.0,0.12337808396572703
2730.0,0.12355121312165873
2729.0,0.12360893818081231
2728.0,0.12355121312165873
2727.0,0.12355121312165873
2726.0,0.12349349573411894
2725.0,0.12343578601615435
2724.0,0.12326270285933538
2723.0,0.12303203256741524
2722.0,0.12297438413275108
2721.0,0.12308968865537295
2720.0,0.12326270285933538
2719.0,0.12349349573411894
2718.0,0.12355121312165873
2717.0,0.12349349573411894
2716.0,0.12337808396572703
2715.0,0.1233203895807995
2714.0,0.1233203895807995
2713.0,0.12326270285933538
2712.0,0.12320502379929943
2711.0,0.12308968865537295
2710.0,0.12303203256741524
2709.0,0.12297438413275108
2708.0,0.12297438413275108
2707.0,0.12291674334934943
2706.0,0.12285911021517903
2705.0,0.12280148472821018
2704.0,0.12274386688641381
2703.0,0.12274386688641381
2702.0,0.12274386688641381
2701.0,0.12274386688641381
2700.0,0.12280148472821018
2699.0,0.12285911021517903
2698.0,0.12291674334934943
2697.0,0.12297438413275108
2696.0,0.12303203256741524
2695.0,0.12297438413275108
2694.0,0.12291674334934943
2693.0,0.12285911021517903
2692.0,0.12280148472821018
2691.0,0.12291674334934943
2690.0,0.12303203256741524
2689.0,0.12314735239865637
2688.0,0.12308968865537295
2687.0,0.12303203256741524
2686.0,0.12297438413275108
2685.0,0.12303203256741524
2684.0,0.12314735239865637
2683.0,0.12320502379929943
2682.0,0.12314735239865637
2681.0,0.12303203256741524
2680.0,0.12285911021517903
2679.0,0.12280148472821018
2678.0,0.12297438413275108
2677.0,0.12326270285933538
2676.0,0.12360893818081231
2675.0,0.12378215940835768
2674.0,0.12378215940835768
2673.0,0.12360893818081231
2672.0,0.12337808396572703
2671.0,0.12320502379929943
2670.0,0.12314735239865637
2669.0,0.12308968865537295
2668.0,0.12303203256741524
2667.0,0.12297438413275108
2666.0,0.12303203256741524
2665.0,0.12308968865537295
2664.0,0.12320502379929943
2663.0,0.12326270285933538
2662.0,0.12326270285933538
2661.0,0.12314735239865637
2660.0,0.12303203256741524
2659.0,0.12291674334934943
2658.0,0.12285911021517903
2657.0,0.12274386688641381
2656.0,0.12262865413022594
2655.0,0.12268625668776156
2654.0,0.12280148472821018
2653.0,0.12291674334934943
2652.0,0.12297438413275108
2651.0,0.12291674334934943
2650.0,0.12280148472821018
2649.0,0.12274386688641381
2648.0,0.12274386688641381
2647.0,0.12268625668776156
2646.0,0.12257105921178035
2645.0,0.12245589228405596
2644.0,0.12234075588839133
2643.0,0.12245589228405596
2642.0,0.12268625668776156
2641.0,0.12291674334934943
2640.0,0.12308968865537295
2639.0,0.12320502379929943
2638.0,0.12320502379929943
2637.0,0.12326270285933538
2636.0,0.1233203895807995
2635.0,0.12343578601615435
2634.0,0.12355121312165873
2633.0,0.12372441132212098
2632.0,0.12383991517437187
2631.0,0.12389767862220635
2630.0,0.12383991517437187
2629.0,0.12372441132212098
2628.0,0.12349349573411894
2627.0,0.12326270285933538
2626.0,0.12320502379929943
2625.0,0.12320502379929943
2624.0,0.12320502379929943
2623.0,0.12326270285933538
2622.0,0.1233203895807995
2621.0,0.12343578601615435
2620.0,0.12355121312165873
2619.0,0.12360893818081231
2618.0,0.1236666709136196
2617.0,0.12360893818081231
2616.0,0.1236666709136196
2615.0,0.1236666709136196
2614.0,0.1236666709136196
2613.0,0.12372441132212098
2612.0,0.12378215940835768
2611.0,0.12378215940835768
2610.0,0.12372441132212098
2609.0,0.12360893818081231
2608.0,0.12355121312165873
2607.0,0.12360893818081231
2606.0,0.12372441132212098
2605.0,0.12389767862220635
2604.0,0.12401322857151209
2603.0,0.12407101507707297
2602.0,0.12412880927263426
2601.0,0.12412880927263426
2600.0,0.12412880927263426
2599.0,0.12401322857151209
2598.0,0.12389767862220635
2597.0,0.12372441132212098
2596.0,0.12378215940835768
2595.0,0.12389767862220635
2594.0,0.12412880927263426
2593.0,0.12436006299583169
2592.0,0.1244757360506914
2591.0,0.1244757360506914
2590.0,0.12441789567211425
2589.0,0.12430223801979201
2588.0,0.12430223801979201
2587.0,0.12441789567211425
2586.0,0.12459143992293642
2585.0,0.12482294018529605
2584.0,0.124996646399959
2583.0,0.125054563914468
2582.0,0.1249387366082999
2581.0,0.12482294018529605
2580.0,0.12482294018529605
2579.0,0.1248808345374317
2578.0,0.125054563914468
2577.0,0.12522836281570182
2576.0,0.12534426740189897
2575.0,0.12534426740189897
2574.0,0.12522836281570182
2573.0,0.1251124891538875
2572.0,0.125054563914468
2571.0,0.12517042212027807
2570.0,0.12522836281570182
2569.0,0.12534426740189897
2568.0,0.1252863112422209
2567.0,0.12522836281570182
2566.0,0.125054563914468
2565.0,0.1249387366082999
2564.0,0.1248808345374317
2563.0,0.12482294018529605
2562.0,0.12482294018529605
2561.0,0.1249387366082999
2560.0,0.125054563914468
2559.0,0.1251124891538875
2558.0,0.1251124891538875
2557.0,0.1249387366082999
2556.0,0.12476505354983503
2555.0,0.12464930342071079
2554.0,0.12464930342071079
2553.0,0.12476505354983503
2552.0,0.1248808345374317
2551.0,0.124996646399959
2550.0,0.125054563914468
2549.0,0.12522836281570182
2548.0,0.12540223129680017
2547.0,0.12557616941349803
2546.0,0.12569216687196105
2545.0,0.12575017722159698
2544.0,0.12569216687196105
2543.0,0.12563416426995122
2542.0,0.12557616941349803
2541.0,0.12557616941349803
2540.0,0.12557616941349803
2539.0,0.12557616941349803
2538.0,0.12563416426995122
2537.0,0.12563416426995122
2536.0,0.12569216687196105
2535.0,0.12575017722159698
2534.0,0.1258081953209289
2533.0,0.1258081953209289
2532.0,0.1258081953209289
2531.0,0.12598229613781387
2530.0,0.126156466776564
2529.0,0.1263307072932056
2528.0,0.12627261935332057
2527.0,0.126156466776564
2526.0,0.12598229613781387
2525.0,0.12592425477696523
2524.0,0.12604034525664676
2523.0,0.12627261935332057
2522.0,0.12638880300353272
2521.0,0.12638880300353272
2520.0,0.12627261935332057
2519.0,0.1260984021355387
2518.0,0.12598229613781387
2517.0,0.12598229613781387
2516.0,0.12598229613781387
2515.0,0.12598229613781387
2514.0,0.12598229613781387
2513.0,0.12598229613781387
2512.0,0.12598229613781387
2511.0,0.12598229613781387
2510.0,0.12598229613781387
2509.0,0.12586622117202761
2508.0,0.12575017722159698
2507.0,0.12563416426995122
2506.0,0.12569216687196105
2505.0,0.1258081953209289
2504.0,0.12604034525664676
2503.0,0.126156466776564
2502.0,0.12621453918179926
2501.0,0.12621453918179926
2500.0,0.12621453918179926
2499.0,0.126156466776564
2498.0,0.1260984021355387
2497.0,0.12604034525664676
2496.0,0.1260984021355387
2495.0,0.126156466776564
2494.0,0.126156466776564
2493.0,0.1260984021355387
2492.0,0.12604034525664676
2491.0,0.12592425477696523
2490.0,0.1258081953209289
2489.0,0.12563416426995122
2488.0,0.12551818230053358
2487.0,0.12563416426995122
2486.0,0.12598229613781387
2485.0,0.1263307072932056
2484.0,0.12656313677796316
2483.0,0.12644690648638135
2482.0,0.126156466776564
2481.0,0.1258081953209289
2480.0,0.12557616941349803
2479.0,0.12540223129680017
2478.0,0.12540223129680017
2477.0,0.12534426740189897
2476.0,0.1252863112422209
2475.0,0.12522836281570182
2474.0,0.1252863112422209
2473.0,0.12540223129680017
2472.0,0.12563416426995122
2471.0,0.1258081953209289
2470.0,0.12586622117202761
2469.0,0.12586622117202761
2468.0,0.12569216687196105
2467.0,0.12546020292898974
2466.0,0.12522836281570182
2465.0,0.12517042212027807
2464.0,0.12517042212027807
2463.0,0.1252863112422209
2462.0,0.12534426740189897
2461.0,0.12534426740189897
2460.0,0.12534426740189897
2459.0,0.12546020292898974
2458.0,0.12557616941349803
2457.0,0.12557616941349803
2456.0,0.12546020292898974
2455.0,0.1252863112422209
2454.0,0.1251124891538875
2453.0,0.125054563914468
2452.0,0.125054563914468
2451.0,0.125054563914468
2450.0,0.125054563914468
2449.0,0.1251124891538875
2448.0,0.12517042212027807
2447.0,0.1252863112422209
2446.0,0.12540223129680017
2445.0,0.12546020292898974
2444.0,0.12557616941349803
2443.0,0.12563416426995122
2442.0,0.12569216687196105
2441.0,0.12563416426995122
2440.0,0.12551818230053358
2439.0,0.12534426740189897
2438.0,0.12522836281570182
2437.0,0.125054563914468
2436.0,0.124996646399959
2435.0,0.124996646399959
2434.0,0.125054563914468
2433.0,0.12517042212027807
2432.0,0.1252863112422209
2431.0,0.1252863112422209
2430.0,0.1252863112422209
2429.0,0.12534426740189897
2428.0,0.12540223129680017
2427.0,0.12546020292898974
2426.0,0.12551818230053358
2425.0,0.12551818230053358
2424.0,0.12551818230053358
2423.0,0.12557616941349803
2422.0,0.12563416426995122
2421.0,0.12575017722159698
2420.0,0.12575017722159698
2419.0,0.12575017722159698
2418.0,0.12563416426995122
2417.0,0.12546020292898974
2416.0,0.12534426740189897
2415.0,0.12540223129680017
2414.0,0.12557616941349803
2413.0,0.1258081953209289
2412.0,0.12598229613781387
2411.0,0.12604034525664676
2410.0,0.12598229613781387
2409.0,0.12592425477696523
2408.0,0.12586622117202761
2407.0,0.12586622117202761
2406.0,0.12598229613781387
2405.0,0.1260984021355387
2404.0,0.126156466776564
2403.0,0.1260984021355387
2402.0,0.12598229613781387
2401.0,0.12586622117202761
2400.0,0.12586622117202761
2399.0,0.12598229613781387
2398.0,0.12627261935332057
2397.0,0.12656313677796316
2396.0,0.1267375405612734
2395.0,0.12679569072295926
2394.0,0.12679569072295926
2393.0,0.1267375405612734
2392.0,0.1267375405612734
2391.0,0.12679569072295926
2390.0,0.12685384867174432
2389.0,0.12691201440971422
2388.0,0.12691201440971422
2387.0,0.12685384867174432
2386.0,0.12667939818460128
2385.0,0.12644690648638135
2384.0,0.1263307072932056
2383.0,0.12627261935332057
2382.0,0.12621453918179926
2381.0,0.12627261935332057
2380.0,0.12638880300353272
2379.0,0.12650501774383094
2378.0,0.12656313677796316
2377.0,0.12638880300353272
2376.0,0.126156466776564
2375.0,0.12604034525664676
2374.0,0.1263307072932056
2373.0,0.12685384867174432
2372.0,0.12743585690934855
2371.0,0.12790202572577325
2370.0,0.12836869546244634
2369.0,0.12877744324029283
2368.0,0.1287190271420271
2367.0,0.12796033202671375
2366.0,0.12627261935332057
2365.0,0.12378215940835768
2364.0,0.12136332697348307
2363.0,0.1203880929341492
2362.0,0.12176553132495593
2361.0,0.124996646399959
2360.0,0.12836869546244634
2359.0,0.13024040521758962
2358.0,0.13000599987825812
2357.0,0.12854382597704617
2356.0,0.12731939284807026
2355.0,0.12702836926155658
2354.0,0.12737762097471172
2353.0,0.1276688787697493
2352.0,0.12743585690934855
2351.0,0.126621263590859
2350.0,0.1258081953209289
2349.0,0.12557616941349803
2348.0,0.12592425477696523
2347.0,0.126156466776564
2346.0,0.126156466776564
2345.0,0.126156466776564
2344.0,0.12621453918179926
2343.0,0.12604034525664676
2342.0,0.12604034525664676
2341.0,0.12621453918179926
2340.0,0.1260984021355387
2339.0,0.12540223129680017
2338.0,0.12441789567211425
2337.0,0.12378215940835768
2336.0,0.12395544975390482
2335.0,0.12482294018529605
2334.0,0.12586622117202761
2333.0,0.12667939818460128
2332.0,0.12697018793895576
2331.0,0.1267375405612734
2330.0,0.12627261935332057
2329.0,0.1260984021355387
2328.0,0.12644690648638135
2327.0,0.12720296001040166
2326.0,0.12790202572577325
2325.0,0.1281352979118051
2324.0,0.12796033202671375
2323.0,0.12743585690934855
2322.0,0.1267375405612734
2321.0,0.12604034525664676
2320.0,0.12569216687196105
2319.0,0.1258081953209289
2318.0,0.126156466776564
2317.0,0.12650501774383094
2316.0,0.12667939818460128
2315.0,0.12685384867174432
2314.0,0.12697018793895576
2313.0,0.12685384867174432
2312.0,0.126621263590859
2311.0,0.12656313677796316
2310.0,0.1267375405612734
2309.0,0.12702836926155658
2308.0,0.12714475529518965
2307.0,0.1270865583796048
2306.0,0.12691201440971422
2305.0,0.1267375405612734
2304.0,0.12667939818460128
2303.0,0.12667939818460128
2302.0,0.12679569072295926
2301.0,0.12685384867174432
2300.0,0.12691201440971422
2299.0,0.12702836926155658
2298.0,0.12720296001040166
2297.0,0.12731939284807026
2296.0,0.12731939284807026
2295.0,0.12720296001040166
2294.0,0.1270865583796048
2293.0,0.12702836926155658
2292.0,0.12702836926155658
2291.0,0.12697018793895576
2290.0,0.12685384867174432
2289.0,0.12679569072295926
2288.0,0.12685384867174432
2287.0,0.12697018793895576
2286.0,0.12714475529518965
2285.0,0.12726117252733116
2284.0,0.12720296001040166
2283.0,0.12702836926155658
2282.0,0.12691201440971422
2281.0,0.12685384867174432
2280.0,0.12685384867174432
2279.0,0.12691201440971422
2278.0,0.12697018793895576
2277.0,0.1270865583796048
2276.0,0.12714475529518965
2275.0,0.12714475529518965
2274.0,0.1270865583796048
2273.0,0.12685384867174432
2272.0,0.1267375405612734
2271.0,0.12667939818460128
2270.0,0.1267375405612734
2269.0,0.12679569072295926
2268.0,0.12679569072295926
2267.0,0.12679569072295926
2266.0,0.12685384867174432
2265.0,0.12691201440971422
2264.0,0.12697018793895576
2263.0,0.1270865583796048
2262.0,0.12714475529518965
2261.0,0.12714475529518965
2260.0,0.12702836926155658
2259.0,0.12685384867174432
2258.0,0.1267375405612734
2257.0,0.1267375405612734
2256.0,0.1267375405612734
2255.0,0.12679569072295926
2254.0,0.12691201440971422
2253.0,0.12702836926155658
2252.0,0.1270865583796048
2251.0,0.12714475529518965
2250.0,0.12714475529518965
2249.0,0.1270865583796048
2248.0,0.12697018793895576
2247.0,0.12685384867174432
2246.0,0.1267375405612734
2245.0,0.12656313677796316
2244.0,0.12650501774383094
2243.0,0.12644690648638135
2242.0,0.12644690648638135
2241.0,0.12656313677796316
2240.0,0.12667939818460128
2239.0,0.12667939818460128
2238.0,0.12667939818460128
2237.0,0.12656313677796316
2236.0,0.12638880300353272
2235.0,0.12621453918179926
2234.0,0.12604034525664676
2233.0,0.12598229613781387
2232.0,0.12592425477696523
2231.0,0.12598229613781387
2230.0,0.12604034525664676
2229.0,0.1260984021355387
2228.0,0.1260984021355387
2227.0,0.1260984021355387
2226.0,0.1260984021355387
2225.0,0.126156466776564
2224.0,0.12621453918179926
2223.0,0.12621453918179926
2222.0,0.12621453918179926
2221.0,0.126156466776564
2220.0,0.126156466776564
2219.0,0.1260984021355387
2218.0,0.12604034525664676
2217.0,0.12592425477696523
2216.0,0.1258081953209289
2215.0,0.12575017722159698
2214.0,0.12569216687196105
2213.0,0.12563416426995122
2212.0,0.12563416426995122
2211.0,0.12563416426995122
2210.0,0.12563416426995122
2209.0,0.12557616941349803
2208.0,0.12551818230053358
2207.0,0.12551818230053358
2206.0,0.12551818230053358
2205.0,0.12551818230053358
2204.0,0.12540223129680017
2203.0,0.12517042212027807
2202.0,0.1249387366082999
2201.0,0.1248808345374317
2200.0,0.124996646399959
2199.0,0.1251124891538875
2198.0,0.12522836281570182
2197.0,0.12534426740189897
2196.0,0.12540223129680017
2195.0,0.12546020292898974
2194.0,0.12540223129680017
2193.0,0.1252863112422209
2192.0,0.1251124891538875
2191.0,0.1249387366082999
2190.0,0.1249387366082999
2189.0,0.124996646399959
2188.0,0.125054563914468
2187.0,0.125054563914468
2186.0,0.124996646399959
2185.0,0.12482294018529605
2184.0,0.12470717462899183
2183.0,0.12459143992293642
2182.0,0.12459143992293642
2181.0,0.12470717462899183
2180.0,0.12470717462899183
2179.0,0.12459143992293642
2178.0,0.12441789567211425
2177.0,0.12436006299583169
2176.0,0.12430223801979201
2175.0,0.12424442074194553
2174.0,0.12412880927263426
2173.0,0.12401322857151209
2172.0,0.12401322857151209
2171.0,0.12412880927263426
2170.0,0.12436006299583169
2169.0,0.1244757360506914
2168.0,0.1244757360506914
2167.0,0.12430223801979201
2166.0,0.12418661116024232
2165.0,0.12407101507707297
2164.0,0.12407101507707297
2163.0,0.12412880927263426
2162.0,0.12418661116024232
2161.0,0.12424442074194553
2160.0,0.12436006299583169
2159.0,0.12441789567211425
2158.0,0.12453358413361437
2157.0,0.12464930342071079
2156.0,0.12470717462899183
2155.0,0.12464930342071079
2154.0,0.1244757360506914
2153.0,0.12441789567211425
2152.0,0.1244757360506914
2151.0,0.12459143992293642
2150.0,0.12470717462899183
2149.0,0.12482294018529605
2148.0,0.12482294018529605
2147.0,0.12482294018529605
2146.0,0.12482294018529605
2145.0,0.1249387366082999
2144.0,0.124996646399959
2143.0,0.124996646399959
2142.0,0.124996646399959
2141.0,0.124996646399959
2140.0,0.124996646399959
2139.0,0.124996646399959
2138.0,0.124996646399959
2137.0,0.124996646399959
2136.0,0.1249387366082999
2135.0,0.124996646399959
2134.0,0.124996646399959
2133.0,0.1249387366082999
2132.0,0.1248808345374317
2131.0,0.12482294018529605
2130.0,0.12476505354983503
2129.0,0.12482294018529605
2128.0,0.1248808345374317
2127.0,0.1248808345374317
2126.0,0.12476505354983503
2125.0,0.12459143992293642
2124.0,0.1244757360506914
2123.0,0.1244757360506914
2122.0,0.12459143992293642
2121.0,0.12470717462899183
2120.0,0.1248808345374317
2119.0,0.124996646399959
2118.0,0.1251124891538875
2117.0,0.1251124891538875
2116.0,0.125054563914468
2115.0,0.125054563914468
2114.0,0.1251124891538875
2113.0,0.12517042212027807
2112.0,0.12522836281570182
2111.0,0.1252863112422209
2110.0,0.12534426740189897
2109.0,0.12534426740189897
2108.0,0.12534426740189897
2107.0,0.12534426740189897
2106.0,0.12540223129680017
2105.0,0.12546020292898974
2104.0,0.12546020292898974
2103.0,0.12546020292898974
2102.0,0.12534426740189897
2101.0,0.12522836281570182
2100.0,0.12522836281570182
2099.0,0.1252863112422209
2098.0,0.1252863112422209
2097.0,0.12522836281570182
2096.0,0.12522836281570182
2095.0,0.12534426740189897
2094.0,0.12540223129680017
2093.0,0.1252863112422209
2092.0,0.124996646399959
2091.0,0.12464930342071079
2090.0,0.12441789567211425
2089.0,0.12436006299583169
2088.0,0.12441789567211425
2087.0,0.1244757360506914
2086.0,0.12453358413361437
2085.0,0.12453358413361437
2084.0,0.12453358413361437
2083.0,0.12464930342071079
2082.0,0.12470717462899183
2081.0,0.12476505354983503
2080.0,0.12470717462899183
2079.0,0.12459143992293642
2078.0,0.12436006299583169
2077.0,0.12412880927263426
2076.0,0.12395544975390482
2075.0,0.12389767862220635
2074.0,0.12395544975390482
2073.0,0.12401322857151209
2072.0,0.12401322857151209
2071.0,0.12389767862220635
2070.0,0.12372441132212098
2069.0,0.12349349573411894
2068.0,0.12326270285933538
2067.0,0.12314735239865637
2066.0,0.12320502379929943
2065.0,0.12326270285933538
2064.0,0.12320502379929943
2063.0,0.12303203256741524
2062.0,0.12285911021517903
2061.0,0.12274386688641381
2060.0,0.12268625668776156
2059.0,0.12262865413022594
2058.0,0.12257105921178035
2057.0,0.12251347193039863
2056.0,0.12234075588839133
2055.0,0.12211057462851604
2054.0,0.12205304837081177
2053.0,0.12205304837081177
2052.0,0.12205304837081177
2051.0,0.12193801870998744
2050.0,0.12176553132495593
2049.0,0.12170805075020397
2048.0,0.12165057778222454
2047.0,0.12159311241900439
2046.0,0.12159311241900439
2045.0,0.12153565465853111
2044.0,0.12142076193778073
2043.0,0.12119106764079435
2042.0,0.12096149476276286
2041.0,0.1207893947082408
2040.0,0.1207893947082408
2039.0,0.12084675381575383
2038.0,0.12090412049992727
2037.0,0.12084675381575383
2036.0,0.12067469921519258
2035.0,0.12044539906102569
2034.0,0.12027350336042275
2033.0,0.1202162199095842
2032.0,0.1202162199095842
2031.0,0.12015894401343741
2030.0,0.1201016756699902
2029.0,0.12004441487725082
2028.0,0.11992991593593283
2027.0,0.11975822410451964
2026.0,0.11964380058076385
2025.0,0.11952940719622163
2024.0,0.11947222180119477
2023.0,0.11935787359571504
2022.0,0.11930071078129845
2021.0,0.11918640771920863
2020.0,0.1190150095132465
2019.0,0.11890078161098283
2018.0,0.11878658374498086
2017.0,0.11872949607064243
2016.0,0.11872949607064243
2015.0,0.11878658374498086
2014.0,0.11872949607064243
2013.0,0.11861534322942724
2012.0,0.11844417020668851
2011.0,0.11833009232793867
2010.0,0.11827306462358211
2009.0,0.11827306462358211
2008.0,0.11833009232793867
2007.0,0.11844417020668851
2006.0,0.11844417020668851
2005.0,0.11844417020668851
2004.0,0.1183871275216517
2003.0,0.11827306462358211
2002.0,0.11827306462358211
2001.0,0.11827306462358211
2000.0,0.1183871275216517
1999.0,0.11855827805860697
1998.0,0.11872949607064243
1997.0,0.11872949607064243
1996.0,0.11861534322942724
1995.0,0.11844417020668851
1994.0,0.11833009232793867
1993.0,0.11833009232793867
1992.0,0.11833009232793867
1991.0,0.11833009232793867
1990.0,0.11833009232793867
1989.0,0.1183871275216517
1988.0,0.1183871275216517
1987.0,0.1183871275216517
1986.0,0.11833009232793867
1985.0,0.11815903167507247
1984.0,0.11810202642698875
1983.0,0.11804502866039956
1982.0,0.11815903167507247
1981.0,0.11821604440661537
1980.0,0.11815903167507247
1979.0,0.11810202642698875
1978.0,0.11798803837334138
1977.0,0.11793105556385153
1976.0,0.11798803837334138
1975.0,0.11804502866039956
1974.0,0.11815903167507247
1973.0,0.11827306462358211
1972.0,0.1183871275216517
1971.0,0.1183871275216517
1970.0,0.1183871275216517
1969.0,0.11827306462358211
1968.0,0.11821604440661537
1967.0,0.11821604440661537
1966.0,0.11844417020668851
1965.0,0.11872949607064243
1964.0,0.11895789180659433
1963.0,0.11912926746757657
1962.0,0.11924355548978971
1961.0,0.11924355548978971
1960.0,0.11935787359571504
1959.0,0.11964380058076385
1958.0,0.1199871616332282
1957.0,0.12027350336042275
1956.0,0.12033079436794658
1955.0,0.12033079436794658
1954.0,0.12033079436794658
1953.0,0.1202162199095842
1952.0,0.1201016756699902
1951.0,0.1199871616332282
1950.0,0.12004441487725082
1949.0,0.1201016756699902
1948.0,0.12004441487725082
1947.0,0.11992991593593283
1946.0,0.11975822410451964
1945.0,0.11952940719622163
1944.0,0.11924355548978971
1943.0,0.11895789180659433
1942.0,0.11878658374498086
1941.0,0.11872949607064243
1940.0,0.11861534322942724
1939.0,0.11850122038501709
1938.0,0.11833009232793867
1937.0,0.11798803837334138
1936.0,0.1175323851046286
1935.0,0.11713408027837091
1934.0,0.11679296664760996
1933.0,0.1165089098110701
1932.0,0.11628179803604044
1931.0,0.11605480496572018
1930.0,0.11582793047608719
1929.0,0.11565785235294102
1928.0,0.11543118508166672
1927.0,0.11520463605101905
1926.0,0.11492161585077598
1925.0,0.11458223488906394
1924.0,0.11418662533951118
1923.0,0.1137349409702435
1922.0,0.11339648571328764
1921.0,0.11322735694556196
1920.0,0.11317099532301778
1919.0,0.1130019543289007
1918.0,0.11277666863747693
1917.0,0.11249522576462212
1916.0,0.11227020271196975
1915.0,0.11198908775497118
1914.0,0.11187669270209155
1913.0,0.1117081546434846
1912.0,0.11153968196461372
1911.0,0.11125903931710734
1910.0,0.11097857790477517
1909.0,0.11075433910702048
1908.0,0.11053021603049262
1907.0,0.11036219959333216
1906.0,0.11019424813191447
1905.0,0.10997041383658313
1904.0,0.10963487855187593
1903.0,0.10924374808178183
1902.0,0.10896458468468917
1901.0,0.10874138309586101
1900.0,0.10851829616048003
1899.0,0.1082953237608173
1898.0,0.10807246577932506
1897.0,0.10796107965870849
1896.0,0.10779405402422748
1895.0,0.10757145305477
1894.0,0.10734896612269962
1893.0,0.1071265931112344
1892.0,0.10690433390377163
1891.0,0.10673771411200872
1890.0,0.10651565378151395
1889.0,0.10623823794205656
1888.0,0.10590557267730127
1887.0,0.10551778498990938
1886.0,0.1052410056281079
1885.0,0.10501970907203151
1884.0,0.1047432468551055
1883.0,0.10446696051592963
1882.0,0.10419084983086901
1881.0,0.10397008760377302
1880.0,0.10374943753836186
1879.0,0.10358402352687701
1878.0,0.10341867249426717
1877.0,0.10319830233507843
1876.0,0.10297804393963661
1875.0,0.10264786565568684
1874.0,0.10226297465457268
1873.0,0.10193333935836524
1872.0,0.10165883427249067
1871.0,0.10138450258381404
1870.0,0.10105553313349058
1869.0,0.10083635852278117
1868.0,0.10061729446673495
1867.0,0.10034361969436434
1866.0,0.10001543745060903
1865.0,0.09974214156222239
1864.0,0.09952362861074304
1863.0,0.09930522554760213
1862.0,0.09903237608087578
1861.0,0.09881421986284966
1860.0,0.09854167860388774
1859.0,0.09837823590664274
1858.0,0.09832376867362447
1857.0,0.09826930827078129
1856.0,0.09805153492691598
1855.0,0.09772507952549825
1854.0,0.09739886933346864
1853.0,0.09712721455392082
1852.0,0.09691001300805646
1851.0,0.09669292003582619
1850.0,0.09658441423091357
1849.0,0.09642170633694569
1848.0,0.09631326826349751
1847.0,0.09631326826349751
1846.0,0.09636748391576244
1845.0,0.09625905937846135
1844.0,0.09582563171583658
1843.0,0.09523037409340485
1842.0,0.09485199814398393
1841.0,0.09479797133768142
1840.0,0.09496007192378841
1839.0,0.0950141189006366
1838.0,0.09490603167212863
1837.0,0.09479797133768142
1836.0,0.09468993788391455
1835.0,0.09452793807529569
1834.0,0.09431203228814788
1833.0,0.09409623378338305
1832.0,0.09393445524476318
1831.0,0.0937727369476411
1830.0,0.09361107884716913
1829.0,0.0935033402006471
1828.0,0.09334178232840018
1827.0,0.09318028453345462
1826.0,0.09301884677114591
1825.0,0.09274991711867164
1824.0,0.09237369515673355
1823.0,0.0919977988274463
1822.0,0.0916222275676053
1821.0,0.09135416109288674
1820.0,0.09108625997902897
1819.0,0.09087205801073917
1818.0,0.0905509530187334
1817.0,0.09023008526723086
1816.0,0.08980263003399913
1815.0,0.08937559511079884
1814.0,0.08884239126002336
1813.0,0.08825662214406838
1812.0,0.08767164203958999
1811.0,0.0870343792958963
1810.0,0.08655704514060414
1809.0,0.08618614761628329
1808.0,0.08581556657675371
1807.0,0.08533956941077814
1806.0,0.08481129482684358
1805.0,0.08423093401631587
1804.0,0.08365134772453975
1803.0,0.08312512146131668
1802.0,0.08254700807033655
1801.0,0.08196966321511989
1800.0,0.0812359689720008
1799.0,0.08039897621588898
1798.0,0.07951143534170213
1797.0,0.07872981449018734
1796.0,0.0781575185941421
1795.0,0.0777417765670334
1794.0,0.07737832847680104
1793.0,0.07665234350217442
1792.0,0.07541061433058172
1791.0,0.07396640332115534
1790.0,0.07283502570063005
1789.0,0.07221915065262552
1788.0,0.07175781684269089
1787.0,0.0713481533463054
1786.0,0.07068327324650436
1785.0,0.06976434723371505
1784.0,0.06864384953207203
1783.0,0.0675769736232612
1782.0,0.0666645899223488
1781.0,0.0655520510510299
1780.0,0.06419054619006714
1779.0,0.06288348923294618
1778.0,0.061880730805688344
1777.0,0.06098022355133348
1776.0,0.060131455540490375
1775.0,0.05938391766259232
1774.0,0.058538260652670315
1773.0,0.056950888991593285
1772.0,0.05462990550969615
1771.0,0.0525172634430815
1770.0,0.05139145012356372
1769.0,0.050805225762017736
1768.0,0.04978123335813667
1767.0,0.048225491918274965
1766.0,0.04682039893436585
1765.0,0.046047116768076934
1764.0,0.045564513671517703
1763.0,0.044793462458058375
1762.0,0.043303435105349175
1761.0,0.04129280891271536
1760.0,0.03967194946985697
1759.0,0.039006291057664066
1758.0,0.038816290187564384
1757.0,0.03829421599749461
1756.0,0.03739392707587297
1755.0,0.0371100126082089
1754.0,0.03786753070176463
1753.0,0.039006291057664066
1752.0,0.040005161671583744
1751.0,0.04105406750606355
1750.0,0.04272802000705722
1749.0,0.045516282844447975
1748.0,0.04944043838819989
1747.0,0.05477768336465916
1746.0,0.06123017721688262
1745.0,0.06859298644342648
1744.0,0.07717078033335123
1743.0,0.08719360733870762
1742.0,0.09821485469640057
1741.0,0.10997041383658313
1740.0,0.12308968865537295
1739.0,0.13780896894840278
1738.0,0.1524890347967518
1737.0,0.16532502553725603
1736.0,0.17698247655395072
1735.0,0.19010375339756092
1734.0,0.2083093509798819
1733.0,0.2296635589048508
1732.0,0.24818221226312076
1731.0,0.2648004515776867
1730.0,0.2826624172761363
1729.0,0.30242196634888674
1728.0,0.3230321857052414
1727.0,0.3435184842095014
1726.0,0.36421476446634826
1725.0,0.3859468940127808
1724.0,0.4099387691962575
1723.0,0.43628166003432245
1722.0,0.4630629772953265
1721.0,0.48798303050387326
1720.0,0.5104633705179045
1719.0,0.5329841815615644
1718.0,0.5603515704365263
1717.0,0.59328954139021
1716.0,0.6228759576535439
1715.0,0.6435916729610187
1714.0,0.6575773191777938
1713.0,0.6647427435654683
1712.0,0.664141088680182
1711.0,0.6563944918958282
1710.0,0.6437828657802647
1709.0,0.627824713884936
1708.0,0.6092414712612828
1707.0,0.58838029403677
1706.0,0.5644741485013451
1705.0,0.5397036732425247
1704.0,0.5187007266671442
1703.0,0.5036239459875991
1702.0,0.49079747766889725
1701.0,0.4746959900417611
1700.0,0.45333397492981575
1699.0,0.4337982811450871
1698.0,0.42124621557356545
1697.0,0.4117282931576709
1696.0,0.40077213722620364
1695.0,0.38859536228840663
1694.0,0.3785121354193697
1693.0,0.37140674414874075
1692.0,0.365724305374056
1691.0,0.3595185630295781
1690.0,0.3528127021040104
1689.0,0.34649805303706716
1688.0,0.34122567915564317
1687.0,0.33677036546713235
1686.0,0.33170728955177897
1685.0,0.32569011105852286
1684.0,0.32020882901964565
1683.0,0.31677279395856517
1682.0,0.3143478158844757
1681.0,0.31158017799728954
1680.0,0.30829979170983846
1679.0,0.30495634117870596
1678.0,0.3018124301338776
1677.0,0.29869111477192467
1676.0,0.295249095709329
1675.0,0.2915790998652872
1674.0,0.28793985753892537
1673.0,0.2844980547067162
1672.0,0.28133226468378925
1671.0,0.27827180142721186
1670.0,0.2751509123706144
1669.0,0.272296116314646
1668.0,0.26945996352288093
1667.0,0.26664221207441474
1666.0,0.2640021159082062
1665.0,0.2612194415156308
1664.0,0.2582183038568333
1663.0,0.2553159367231137
1662.0,0.25266589038409504
1661.0,0.25018641470706227
1660.0,0.24772101453988138
1659.0,0.24519314464557662
1658.0,0.24275584897802993
1657.0,0.24033215531036944
1656.0,0.23822246249182188
1655.0,0.23574912456122687
1654.0,0.23299263605019593
1653.0,0.23099212905622624
1652.0,0.22900079483605928
1651.0,0.22643295107394135
1650.0,0.2251911696892941
1649.0,0.224608028303388
1648.0,0.22366209037982476
1647.0,0.2225731776106885
1646.0,0.22170400891116615
1645.0,0.22033137279285198
1644.0,0.21853185715820178
1643.0,0.21688286250953293
1642.0,0.21552535623748348
1641.0,0.21424320003735708
1640.0,0.21296481797377664
1639.0,0.21161948468043668
1638.0,0.21027830601907826
1637.0,0.2088007535011247
1636.0,0.20781850385032108
1635.0,0.2074682380986923
1634.0,0.20683847075444928
1633.0,0.20572113427860006
1632.0,0.2046066650687106
1631.0,0.20349504844670374
1630.0,0.20238626984692432
1629.0,0.20141840527145227
1628.0,0.200521601162019
1627.0,0.19969542244380145
1626.0,0.19887081242029603
1625.0,0.19797924822802404
1624.0,0.19708951058096025
1623.0,0.19633807676377568
1622.0,0.19558794086228604
1621.0,0.19470308384201496
1620.0,0.19375217280420953
1619.0,0.1928710444075783
1618.0,0.1921268679966679
1617.0,0.1920592787845008
1616.0,0.19273564472389304
1615.0,0.19361649817583237
1614.0,0.19429529556613567
1613.0,0.19477108579657387
1612.0,0.19477108579657387
1611.0,0.19436323369406505
1610.0,0.19375217280420953
1609.0,0.1930742231162681
1608.0,0.19219446772937543
1607.0,0.1911815749078758
1606.0,0.19003647828598602
1605.0,0.18869315991866387
1604.0,0.18722029299103604
1603.0,0.18588564387087447
1602.0,0.1847544080834369
1601.0,0.18362611124763806
1600.0,0.18236853280948462
1599.0,0.18111458540599013
1598.0,0.17992996568767428
1597.0,0.1788141173911546
1596.0,0.17770112873763355
1595.0,0.17665620917935154
1594.0,0.17580905934741686
1593.0,0.17509352869788763
1592.0,0.17431429197824166
1591.0,0.17360121781238225
1590.0,0.1730186630880064
1589.0,0.17256610459922084
1588.0,0.1721785723171978
1587.0,0.17198493577602325
1586.0,0.17198493577602325
1585.0,0.1721140172101443
1584.0,0.17256610459922084
1583.0,0.17353645090719882
1582.0,0.17509352869788763
1581.0,0.17711305216584927
1580.0,0.17920761891179637
1579.0,0.18104868835982724
1578.0,0.18223636771963214
1577.0,0.18263298371240588
1576.0,0.18243463044021913
1575.0,0.18177410638604452
1574.0,0.1809828013109407
1573.0,0.180127178049454
1572.0,0.17907641211868253
1571.0,0.17750501472124913
1570.0,0.17561379768122598
1569.0,0.17386038206408516
1568.0,0.17230771132555445
1567.0,0.17108243838331405
1566.0,0.16998906406388214
1565.0,0.16877030613293664
1564.0,0.167618839752959
1563.0,0.1667891197173912
1562.0,0.16621562534352097
1561.0,0.16538857927731287
1560.0,0.16405589990615188
1559.0,0.16361258067358908
1558.0,0.16399254087446846
1557.0,0.16285365609093994
1556.0,0.16178077809237412
1555.0,0.16127680996862814
1554.0,0.16077342598656452
1553.0,0.159956669396506
1552.0,0.1590787998012282
1551.0,0.15826522102525642
1550.0,0.15757799664235028
1549.0,0.15707887924001773
1548.0,0.1567049172634929
1547.0,0.1562690348879079
1546.0,0.15564710368910672
1545.0,0.15496400648658493
1544.0,0.15415809257824264
1543.0,0.15335367142288248
1542.0,0.1523039792658345
1541.0,0.15113378850522063
1540.0,0.15033494452126717
1539.0,0.1497214474819628
1538.0,0.14880282382583943
1537.0,0.14837479684669086
1536.0,0.14855818532794496
1535.0,0.14874165128092476
1534.0,0.14868048735125483
1533.0,0.14874165128092476
1532.0,0.14874165128092476
1531.0,0.14855818532794496
1530.0,0.14831368455757254
1529.0,0.14819148577176255
1528.0,0.14813039927023364
1527.0,0.1478861391502384
1526.0,0.14752000636314366
1525.0,0.14703230897118158
1524.0,0.14642345638035836
1523.0,0.1455724942121388
1522.0,0.14442027749828212
1521.0,0.14345235514325205
1520.0,0.1427278264359586
1519.0,0.14218522202899342
1518.0,0.14170347546611461
1517.0,0.14116214857141451
1516.0,0.1404414273739465
1515.0,0.1396619934290062
1514.0,0.13894375542312654
1513.0,0.13846558914096208
1512.0,0.13834612978608907
1511.0,0.13870460647330418
1510.0,0.1397219002477652
1509.0,0.1414628024303608
1508.0,0.14526898278605782
1507.0,0.15508812608785938
1506.0,0.16986061257465734
1505.0,0.17874856845405884
1504.0,0.18045606445813123
1503.0,0.17887967622317635
1502.0,0.1754836719927908
1501.0,0.17076057185861093
1500.0,0.16538857927731287
1499.0,0.159956669396506
1498.0,0.15465386258859137
1497.0,0.14984407757790774
1496.0,0.14575470293388149
1495.0,0.14260718907909875
1494.0,0.1405014418122239
1493.0,0.13924287691845794
1492.0,0.13834612978608907
1491.0,0.13721290176465573
1490.0,0.13584504399797437
1489.0,0.13501453934020602
1488.0,0.13483678049391368
1487.0,0.1349552783069008
1486.0,0.13519237097385295
1485.0,0.13566694496660703
1484.0,0.13649869935854997
1483.0,0.13763006287711765
1482.0,0.1390633792999063
1481.0,0.14068153490288382
1480.0,0.14242629585250421
1479.0,0.143996546002779
1478.0,0.14539036190420496
1477.0,0.14691047014813452
1476.0,0.14849704722945534
1475.0,0.14984407757790774
1474.0,0.15076490868527737
1473.0,0.1515645446685292
1472.0,0.15224231160766877
1471.0,0.15236565568174498
1470.0,0.15205736115477642
1469.0,0.15168769637271562
1468.0,0.1515029819096334
1467.0,0.15131834597604965
1466.0,0.15119529894819617
1465.0,0.15125681810431635
1464.0,0.15181088300860135
1463.0,0.15255073750082726
1462.0,0.15347733158371324
1461.0,0.15452986701832638
1460.0,0.15570925674565683
1459.0,0.15676722190199066
1458.0,0.15782777061438424
1457.0,0.15926676538819318
1456.0,0.16058480731610647
1455.0,0.16102504504453208
1454.0,0.1614027471833437
1453.0,0.1619068615544017
1452.0,0.16209605540705763
1451.0,0.1619068615544017
1450.0,0.16133977401105848
1449.0,0.1605219526258017
1448.0,0.15939212099070987
1447.0,0.15814019022493886
1446.0,0.15701652987778258
1445.0,0.1560823619936076
1444.0,0.15527437202677397
1443.0,0.15446788250642451
1442.0,0.15372475758778692
1441.0,0.15310645668337486
1440.0,0.15255073750082726
1439.0,0.15205736115477642
1438.0,0.15119529894819617
1437.0,0.14953756723848333
1436.0,0.1471541819850033
1435.0,0.14435971910985468
1434.0,0.1419442819496357
1433.0,0.1397219002477652
1432.0,0.13721290176465573
1431.0,0.13430394008392943
1430.0,0.13106182166708868
1429.0,0.12790202572577325
1428.0,0.124996646399959
1427.0,0.12251347193039863
1426.0,0.12033079436794658
1425.0,0.11798803837334138
1424.0,0.11565785235294102
1423.0,0.11390426756225258
1422.0,0.1130019543289007
1421.0,0.11249522576462212
1420.0,0.11227020271196975
1419.0,0.11305829401658474
1418.0,0.11565785235294102
1417.0,0.12033079436794658
1416.0,0.12726117252733116
1415.0,0.13661765155921235
1414.0,0.14868048735125483
1413.0,0.1637391971415132
1412.0,0.18177410638604452
1411.0,0.20169471797802352
1410.0,0.22069217241641415
1409.0,0.23627259623430175
1408.0,0.24703013497091586
1407.0,0.2519671058698565
1406.0,0.2508049577803275
1405.0,0.2445062715848807
1404.0,0.23530093620163206
1403.0,0.22555603107503486
1402.0,0.21652521241775347
1401.0,0.2081690523251638
1400.0,0.20003947259401644
1399.0,0.19178902707577805
1398.0,0.18435585086803474
1397.0,0.17829000270162365
1396.0,0.173212761183708
1395.0,0.1683221508085333
1394.0,0.16348600110932865
1393.0,0.15932943866659088
1392.0,0.1562068016740874
1391.0,0.15372475758778692
1390.0,0.15162611615539823
1389.0,0.1495988520028415
1388.0,0.1477030341730745
1387.0,0.14599776687301103
1386.0,0.1446020033459312
1385.0,0.14357322752975565
1384.0,0.14290884532648618
1383.0,0.14248658522331015
1382.0,0.14206473528057106
1381.0,0.14176366457048695
1380.0,0.1415831222765116
1379.0,0.1415229581866595
1378.0,0.14164329470222659
1377.0,0.141884067809934
1376.0,0.14224547794055775
1375.0,0.1427881576831076
1374.0,0.14345235514325205
1373.0,0.14417809459397013
1372.0,0.1447838052666366
1371.0,0.1450869776921444
1370.0,0.14490504884137811
1369.0,0.1441175699639643
1368.0,0.14266750356873148
1367.0,0.14062149557439896
1366.0,0.1380476250785483
1365.0,0.13501453934020602
1364.0,0.1314731132317961
1363.0,0.12743585690934855
1362.0,0.12337808396572703
1361.0,0.11987267778337518
1360.0,0.11713408027837091
1359.0,0.11492161585077598
1358.0,0.11305829401658474
1357.0,0.11153968196461372
1356.0,0.11036219959333216
1355.0,0.10957898119908571
1354.0,0.10929960230112479
1353.0,0.10957898119908571
1352.0,0.11058623595729111
1351.0,0.11232644754555254
1350.0,0.11503480179926728
1349.0,0.11884367892443626
1348.0,0.12407101507707297
1347.0,0.13094438129809216
1346.0,0.1397219002477652
1345.0,0.15064201833870117
1344.0,0.16367588429324842
1343.0,0.17822453281653639
1342.0,0.19368433019188647
1341.0,0.20957408260888943
1340.0,0.2252641174482466
1339.0,0.23882418684426865
1338.0,0.24764419584649922
1337.0,0.2503409679051003
1336.0,0.24726030606467186
1335.0,0.23927602785804836
1334.0,0.22723835285596783
1333.0,0.2121146490590755
1332.0,0.19538358301274483
1331.0,0.1785519809824696
1330.0,0.16291684917681404
1329.0,0.1493537648169334
1328.0,0.1380476250785483
1327.0,0.12889429901441463
1326.0,0.12170805075020397
1325.0,0.11611154211151953
1324.0,0.11182050608167504
1323.0,0.10868560061785693
1322.0,0.10651565378151395
1321.0,0.10496440254767725
1320.0,0.10385974855798041
1319.0,0.10314322726279568
1318.0,0.1028679566179056
1317.0,0.10292299679057959
1316.0,0.10314322726279568
1315.0,0.10347378251044459
1314.0,0.10397008760377302
1313.0,0.10479852522110678
1312.0,0.10601643278815298
1311.0,0.10779405402422748
1310.0,0.10997041383658313
1309.0,0.11227020271196975
1308.0,0.11458223488906394
1307.0,0.11684980031672243
1306.0,0.1190150095132465
1305.0,0.12101887660626365
1304.0,0.12297438413275108
1303.0,0.1251124891538875
1302.0,0.1276688787697493
1301.0,0.13094438129809216
1300.0,0.13501453934020602
1299.0,0.13990167030148193
1298.0,0.14539036190420496
1297.0,0.1513798825658661
1296.0,0.15782777061438424
1295.0,0.16462654752999129
1294.0,0.1714689933548985
1293.0,0.17829000270162365
1292.0,0.1848873418101875
1291.0,0.19131649087103075
1290.0,0.1976368256904526
1289.0,0.2037726859705613
1288.0,0.20985563495709947
1287.0,0.2158107946190393
1286.0,0.22155931642876725
1285.0,0.22687207596666514
1284.0,0.23180603836692848
1283.0,0.23657200643706267
1282.0,0.24116377525304178
1281.0,0.24565166428898122
1280.0,0.2501091587285782
1279.0,0.2547690154718594
1278.0,0.2596373105057561
1277.0,0.264880365918128
1276.0,0.27083521030723
1275.0,0.27753061411596924
1274.0,0.2850000325879576
1273.0,0.29370904274123655
1272.0,0.30381841283147626
1271.0,0.31578320486111955
1270.0,0.329197715739056
1269.0,0.34390179798716813
1268.0,0.3601152580836957
1267.0,0.3774751375964318
1266.0,0.3953420279521289
1265.0,0.4133001983759508
1264.0,0.43121178768465307
1263.0,0.4485500020271247
1262.0,0.46483251488505584
1261.0,0.47951646725920805
1260.0,0.4926839599235864
1259.0,0.5039010078674286
1258.0,0.5132862240175144
1257.0,0.5215778122599195
1256.0,0.5297365530349216
1255.0,0.5385014732169813
1254.0,0.5479067509822686
1253.0,0.5584619612978392
1252.0,0.5710557099644256
1251.0,0.5856953118716683
1250.0,0.6020599913279623
1249.0,0.62015082123717
1248.0,0.6401645176601121
1247.0,0.6613443344212997
1246.0,0.6821455106685308
1245.0,0.7015836199387055
1244.0,0.7198771036976925
1243.0,0.7358908436941916
1242.0,0.7476324855401011
1241.0,0.7544873321858501
1240.0,0.7569619513137056
1239.0,0.7552282385047051
1238.0,0.7486051499598958
1237.0,0.7380238086021873
1236.0,0.7251496799833352
1235.0,0.7108571640676669
1234.0,0.6948636810563606
1233.0,0.6784015695346561
1232.0,0.6625407387093438
1231.0,0.6470460882899123
1230.0,0.631713115097869
1229.0,0.6169030700509057
1228.0,0.6031035508574762
1227.0,0.5902358957336538
1226.0,0.5777385491863973
1225.0,0.5659103615821093
1224.0,0.5550188879120554
1223.0,0.5450027826905399
1222.0,0.5355104525660286
1221.0,0.5262211653532751
1220.0,0.5176982327765574
1219.0,0.5094796906366512
1218.0,0.5011383110071159
1217.0,0.4928190227397591
1216.0,0.4846561069116191
1215.0,0.4767739580342989
1214.0,0.46852108295774486
1213.0,0.46029676105217443
1212.0,0.45247142354021785
1211.0,0.44502654166676026
1210.0,0.43770713554352536
1209.0,0.4303920324531756
1208.0,0.4234283159347092
1207.0,0.41668784801692227
1206.0,0.41005039867429227
1205.0,0.4036228560024009
1204.0,0.3976144098948948
1203.0,0.3917949922956738
1202.0,0.3859468940127808
1201.0,0.3801764995427219
1200.0,0.37448177102836233
1199.0,0.36896230346325964
1198.0,0.3634118162701576
1197.0,0.3580304022979406
1196.0,0.3528127021040104
1195.0,0.3476569449372853
1194.0,0.34227504579489176
1193.0,0.33677036546713235
1192.0,0.3315208970674144
1191.0,0.3262420634504233
1190.0,0.3212085656337562
1189.0,0.31623273857468837
1188.0,0.31149119234347866
1187.0,0.30697693207630605
1186.0,0.3025962767995123
1185.0,0.2984320149440727
1184.0,0.29473513768259596
1183.0,0.2915790998652872
1182.0,0.2888679276931583
1181.0,0.28667749501297246
1180.0,0.2850837520064151
1179.0,0.2841637248350062
1178.0,0.283495836226783
1177.0,0.282995592959453
1176.0,0.28249592523579814
1175.0,0.2819968317329824
1174.0,0.28108331398513897
1173.0,0.2795099315499485
1172.0,0.27703719105751046
1171.0,0.2735988378970775
1170.0,0.2692984557181548
1169.0,0.264480941184829
1168.0,0.259321574772545
1167.0,0.2541448048262711
1166.0,0.2490290155626811
1165.0,0.24412514432750854
1164.0,0.23965292147009354
1163.0,0.23552497256559102
1162.0,0.2316579413554667
1161.0,0.2280452510360509
1160.0,0.2246808781705225
1159.0,0.22155931642876725
1158.0,0.21853185715820178
1157.0,0.21566805197785177
1156.0,0.2130357405642671
1155.0,0.2107013888405589
1154.0,0.20866029603486047
1153.0,0.20676855294347907
1152.0,0.20530287310800133
1151.0,0.20418947533259169
1150.0,0.20349504844670374
1149.0,0.20314825095011302
1148.0,0.20314825095011302
1147.0,0.2036338450224786
1146.0,0.2046066650687106
1145.0,0.20613979865733034
1144.0,0.20823919598709506
1143.0,0.21091308491197136
1142.0,0.21417208000413446
1141.0,0.21802932608744796
1140.0,0.2225731776106885
1139.0,0.22767829327708022
1138.0,0.23321548450214102
1137.0,0.2391253619478111
1136.0,0.2454987706130829
1135.0,0.25258819211357686
1134.0,0.26058589730130466
1133.0,0.26970233790285025
1132.0,0.27992342723185937
1131.0,0.2912392763096834
1130.0,0.30355623686100075
1129.0,0.31659270086790503
1128.0,0.3304042189756866
1127.0,0.34457341225408133
1126.0,0.35912122129838164
1125.0,0.3739677521709812
1124.0,0.38944629468290537
1123.0,0.4054969561799109
1122.0,0.4213607900319276
1121.0,0.43663759051339257
1120.0,0.45099673797421214
1119.0,0.4634415574284698
1118.0,0.47340229089654784
1117.0,0.48030323284014687
1116.0,0.4838614232829257
1115.0,0.48425858333063476
1114.0,0.4817493486915001
1113.0,0.47794719913117745
1112.0,0.4746959900417611
1111.0,0.4736607226101559
1110.0,0.4754740633736243
1109.0,0.4809599613516553
1108.0,0.49052864789745154
1107.0,0.5034854813022549
1106.0,0.5191310763128321
1105.0,0.5362562787529408
1104.0,0.5545514857339502
1103.0,0.5730010412434627
1102.0,0.5905741313285566
1101.0,0.6064247967304124
1100.0,0.620694482249418
1099.0,0.6328305114653192
1098.0,0.6426369693848573
1097.0,0.6505282007856144
1096.0,0.6567884098202526
1095.0,0.6609462642908608
1094.0,0.6625407387093438
1093.0,0.6617427697537444
1092.0,0.6595558851598817
1091.0,0.6560009309428387
1090.0,0.6509168312204097
1089.0,0.6445484798734826
1088.0,0.6382721639824072
1087.0,0.6326440789739811
1086.0,0.6267201067225039
1085.0,0.6199697520321694
1084.0,0.612966298717637
1083.0,0.6057234732321786
1082.0,0.5982549177629373
1081.0,0.5904049806031844
1080.0,0.582030357785263
1079.0,0.5730010412434627
1078.0,0.5630426693305504
1077.0,0.5523769022397138
1076.0,0.5418155644297373
1075.0,0.5318004139273875
1074.0,0.5221555236612416
1073.0,0.512720183556931
1072.0,0.5037624548332649
1071.0,0.4949857599158929
1070.0,0.4863829262121251
1069.0,0.47807775511649964
1068.0,0.4704413269788368
1067.0,0.4634415574284698
1066.0,0.456677099353088
1065.0,0.45050628678498694
1064.0,0.44478459487392685
1063.0,0.4393761254500701
1062.0,0.43403418255333337
1061.0,0.42875714943977616
1060.0,0.4238891058791603
1059.0,0.41930306028756337
1058.0,0.4149907200975389
1057.0,0.410944468947656
1056.0,0.4072682336060378
1055.0,0.4041732229267767
1054.0,0.40142833651785903
1053.0,0.3992448503603818
1052.0,0.39750593119271893
1051.0,0.39599006758776967
1050.0,0.39458720184694873
1049.0,0.3936186348893951
1048.0,0.39297412156521405
1047.0,0.3924377568164117
1046.0,0.3917949922956738
1045.0,0.39104630072413715
1044.0,0.3904055907747799
1043.0,0.38976582466561127
1042.0,0.38880793913156575
1041.0,0.38732208168349813
1040.0,0.38541913300251385
1039.0,0.3832095136702842
1038.0,0.3805935891132226
1037.0,0.3776823391661557
1036.0,0.3743789185750923
1035.0,0.37069235992625105
1034.0,0.36653154442041336
1033.0,0.36201021921531473
1032.0,0.3574365628956122
1031.0,0.3527148549746333
1030.0,0.3476569449372853
1029.0,0.34256167729703746
1028.0,0.33837659077076987
1027.0,0.33611070137733856
1026.0,0.3369590251060257
1025.0,0.3419886033428876
1024.0,0.35193287055106537
1023.0,0.36703683183273883
1022.0,0.38721614328026455
1021.0,0.4117282931576709
1020.0,0.4393761254500701
1019.0,0.46788288375119613
1018.0,0.4933596944334975
1017.0,0.5117313845045401
1016.0,0.5199930570428495
1015.0,0.5176982327765574
1014.0,0.5069604116823485
1013.0,0.4916049668669469
1012.0,0.4750848524601332
1011.0,0.4596705252091262
1010.0,0.445995678988097
1009.0,0.4345063701311376
1008.0,0.4250432242354931
1007.0,0.41714153777550056
1006.0,0.4102737437457631
1005.0,0.40439356513439706
1004.0,0.3992448503603818
1003.0,0.3949105381184195
1002.0,0.39093945006991304
1001.0,0.38721614328026455
1000.0,0.38394480502341377
999.0,0.38090666937325723
998.0,0.3779933269931952
997.0,0.3749963989851366
996.0,0.37222462477069707
995.0,0.3697755892475678
994.0,0.36764395376092684
993.0,0.365724305374056
992.0,0.36421476446634826
991.0,0.36271045232182564
990.0,0.36121133284260165
989.0,0.3596179552904315
988.0,0.3581294545236873
987.0,0.3567447749752284
986.0,0.3557584141562713
985.0,0.3549709352788575
984.0,0.35447948509412597
983.0,0.35418488170335816
982.0,0.35418488170335816
981.0,0.35457773065090814
980.0,0.3554629422215927
979.0,0.3567447749752284
978.0,0.3584267468218245
977.0,0.3604139133265736
976.0,0.3625102704874894
975.0,0.3646167959525015
974.0,0.36653154442041336
973.0,0.36804917374078294
972.0,0.36926710718280353
971.0,0.3702846673528677
970.0,0.3707943428976963
969.0,0.3707943428976963
968.0,0.37048846579954686
967.0,0.3698773571406879
966.0,0.36886074974318883
965.0,0.36764395376092684
964.0,0.36612773734166737
963.0,0.3644157336887699
962.0,0.362610349870788
961.0,0.3607127740897633
960.0,0.3589226866746258
959.0,0.3570411205902093
958.0,0.3549709352788575
957.0,0.35291057128344505
956.0,0.35095736591382365
955.0,0.3493040202393891
954.0,0.34756025241057986
953.0,0.3457271729022895
952.0,0.3439976793170427
951.0,0.34227504579489176
950.0,0.3405592181296824
949.0,0.3388501427552135
948.0,0.3374310330667398
947.0,0.33611070137733856
946.0,0.33488826292494855
945.0,0.3336692556980314
944.0,0.33245366048848357
943.0,0.33096219911484415
942.0,0.32938311359967454
941.0,0.3279021420642825
940.0,0.32679471822095474
939.0,0.3258740172572918
938.0,0.32495526404410735
937.0,0.3239468753481285
936.0,0.3230321857052414
935.0,0.32221060893113895
934.0,0.32111758532926427
933.0,0.3199365725180514
932.0,0.3188492500675786
931.0,0.31803554100531684
930.0,0.31713320433767533
929.0,0.31605286924848786
928.0,0.3147958655289853
927.0,0.3133637307377066
926.0,0.31202537996544444
925.0,0.3109576609718283
924.0,0.3099812192113047
923.0,0.30909544594503346
922.0,0.30794663496591923
921.0,0.3066248489748147
920.0,0.30521936398793836
919.0,0.3039058400047767
918.0,0.3025962767995123
917.0,0.3015514619846711
916.0,0.30076949711659084
915.0,0.3001622741327543
914.0,0.2994693430214084
913.0,0.29869111477192467
912.0,0.29800052511036323
911.0,0.2974833025618495
910.0,0.29688065376392214
909.0,0.2963647624161041
908.0,0.2960211749916142
907.0,0.29593532059143257
906.0,0.29593532059143257
905.0,0.29584948316020077
904.0,0.29584948316020077
903.0,0.29610704636745555
902.0,0.29662263148765056
901.0,0.2971388294270707
900.0,0.2974833025618495
899.0,0.2974833025618495
898.0,0.297224922098956
897.0,0.2967086218813386
896.0,0.29610704636745555
895.0,0.295249095709329
894.0,0.2940508050897044
893.0,0.2922595457262287
892.0,0.2902213981517747
891.0,0.288192770958809
890.0,0.2860896458710447
889.0,0.2839966563652008
888.0,0.2819137052169085
887.0,0.2801717137456652
886.0,0.2788491562503159
885.0,0.2781893847874535
884.0,0.2784366816425192
883.0,0.2800061736323962
882.0,0.2833290244398645
881.0,0.2886146209015483
880.0,0.29576366269121235
879.0,0.3042557248026767
878.0,0.3137213219327988
877.0,0.32413004468104334
876.0,0.3358282946380693
875.0,0.3493040202393891
874.0,0.36391348489692743
873.0,0.37830453767072125
872.0,0.38965928854784315
871.0,0.39599006758776967
870.0,0.3964226318485333
869.0,0.3924377568164117
868.0,0.38605252321965033
867.0,0.3789276288563741
866.0,0.3719177390093207
865.0,0.365724305374056
864.0,0.36061313098231595
863.0,0.3565473235138126
862.0,0.3531063758322548
861.0,0.3502758140704776
860.0,0.3481407307530511
859.0,0.3464016181567102
858.0,0.344861565188618
857.0,0.3435184842095014
856.0,0.3423705686110481
855.0,0.341606973720876
854.0,0.3411304077980377
853.0,0.341035157335565
852.0,0.341606973720876
851.0,0.34275287011628364
850.0,0.3441895055047477
849.0,0.34591976469342933
848.0,0.34775365899667676
847.0,0.3494011018273431
846.0,0.35047043405218115
845.0,0.35047043405218115
844.0,0.3494011018273431
843.0,0.3476569449372853
842.0,0.3455346664798542
841.0,0.34380593782081426
840.0,0.34275287011628364
839.0,0.3420840631700448
838.0,0.34132097141755136
837.0,0.3402739047622083
836.0,0.3388501427552135
835.0,0.33686468504224587
834.0,0.33451281921718934
833.0,0.33208031468263854
832.0,0.33031129194379183
831.0,0.32910504647979
830.0,0.3279945549770482
829.0,0.326610421811695
828.0,0.32449661527204343
827.0,0.32184596198956283
826.0,0.31930197030236496
825.0,0.31740370853944677
824.0,0.3164126824272331
823.0,0.31578320486111955
822.0,0.3148855309534606
821.0,0.31381076575597633
820.0,0.3128278954052004
819.0,0.31202537996544444
818.0,0.3109576609718283
817.0,0.3097152974873705
816.0,0.30829979170983846
815.0,0.3068888845378588
814.0,0.30565808963581875
813.0,0.3046934775681973
812.0,0.3040807471686
811.0,0.30355623686100075
810.0,0.3028578737245404
809.0,0.3018124301338776
808.0,0.30042240860109093
807.0,0.2987775157434429
806.0,0.29696669526631414
805.0,0.29542055030370085
804.0,0.2943073034622965
803.0,0.29328221766324125
802.0,0.29191918953176854
801.0,0.2899673009342465
800.0,0.28785558578511417
799.0,0.2860896458710447
798.0,0.28541879116046887
797.0,0.28625752159091755
796.0,0.28878347567891005
795.0,0.2923446764688131
794.0,0.29593532059143257
793.0,0.2987775157434429
792.0,0.30033567979762665
791.0,0.3000755972575233
790.0,0.2981730696028606
789.0,0.29516339378859624
788.0,0.29166409731773646
787.0,0.288192770958809
786.0,0.28483264215154214
785.0,0.2818305946086932
784.0,0.27926202298157476
783.0,0.27687284120430844
782.0,0.2742516670044517
781.0,0.2714838952402334
780.0,0.2687336509245084
779.0,0.2662411644127973
778.0,0.26376290109527134
777.0,0.2610609687965204
776.0,0.2582183038568333
775.0,0.2553159367231137
774.0,0.2523551806717519
773.0,0.24933735386594424
772.0,0.24626377782498987
771.0,0.24298376526869947
770.0,0.2395021247734732
769.0,0.23582386760966934
768.0,0.23173198354845193
767.0,0.2274582673590566
766.0,0.22300841514359493
765.0,0.2186036948032093
764.0,0.21424320003735708
763.0,0.20971483596675822
762.0,0.20474581741911724
761.0,0.19948912310563194
760.0,0.19388788983090888
759.0,0.18822397839709626
758.0,0.18269912160667867
757.0,0.17743966305730785
756.0,0.1726953589102651
755.0,0.16819419132560887
754.0,0.16361258067358908
753.0,0.15857795559764076
752.0,0.15298290206464582
751.0,0.14697138528701026
750.0,0.14128238513970826
749.0,0.13655817138629134
748.0,0.13259144347720886
747.0,0.12883586719705065
746.0,0.124996646399959
745.0,0.12142076193778073
744.0,0.11867241589944855
743.0,0.1170772093974013
742.0,0.11702034596270106
741.0,0.11935787359571504
740.0,0.12482294018529605
739.0,0.1340081998737246
738.0,0.14739803066176504
737.0,0.16500739626697003
736.0,0.18628560811885508
735.0,0.20999647960951062
734.0,0.23485320989197467
733.0,0.26026947143528245
732.0,0.28667749501297246
731.0,0.3144373888417702
730.0,0.34371009880864034
729.0,0.374790474618119
728.0,0.4082677610481644
727.0,0.44345629151648547
726.0,0.4778166823813137
725.0,0.5066813917678985
724.0,0.5262211653532751
723.0,0.5355104525660286
722.0,0.5362562787529408
721.0,0.5322439487559671
720.0,0.5265130299354315
719.0,0.5208567520213869
718.0,0.5155577923575929
717.0,0.5110264752734919
716.0,0.5073792779568083
715.0,0.5043169323830847
714.0,0.5004503740948509
713.0,0.4959371173213081
712.0,0.4913356369470574
711.0,0.48731560378283634
710.0,0.484126156288321
709.0,0.4812229310732252
708.0,0.4784696587212891
707.0,0.4757337312330212
706.0,0.47275688361191137
705.0,0.47005659834133073
704.0,0.4677553563734178
703.0,0.46571999479491843
702.0,0.4630629772953265
701.0,0.4600461583436033
700.0,0.45705015118582115
699.0,0.4540746706441572
698.0,0.45099673797421214
697.0,0.44781866116066427
696.0,0.4446636720047332
695.0,0.44153143747620516
694.0,0.4375881670502726
693.0,0.43273830764612553
692.0,0.4279420100736955
691.0,0.42435038524478075
690.0,0.4220488722702449
689.0,0.4206737962447449
688.0,0.4199878874705756
687.0,0.4190750243243806
686.0,0.4169146336523124
685.0,0.41318773055662406
684.0,0.4091581652183973
683.0,0.4054969561799109
682.0,0.4023048140744876
681.0,0.3992448503603818
680.0,0.3963144503853002
679.0,0.3941564609419108
678.0,0.3925449767853315
677.0,0.39083262569798016
676.0,0.38912699961994823
675.0,0.38753403604685777
674.0,0.38658105496542694
673.0,0.3859468940127808
672.0,0.38541913300251385
671.0,0.3851027839668655
670.0,0.3844707763628672
669.0,0.3818472666214805
668.0,0.37468754903832613
667.0,0.368556230986828
666.0,0.3687592197644909
665.0,0.37110043557939343
664.0,0.37232696823338407
663.0,0.3716110699496884
662.0,0.36886074974318883
661.0,0.36491856398912703
660.0,0.3607127740897633
659.0,0.3571399474155086
658.0,0.3550692920864127
657.0,0.35487260074160876
656.0,0.35595550718525115
655.0,0.35634996178267087
654.0,0.35457773065090814
653.0,0.35144484433732925
652.0,0.348721986001856
651.0,0.34756025241057986
650.0,0.3471736974389954
649.0,0.3466909870615211
648.0,0.34543844525825684
647.0,0.3436142809413123
646.0,0.34217954398430295
645.0,0.34179774661298534
644.0,0.3428484980990334
643.0,0.344861565188618
642.0,0.3468840068344332
641.0,0.3481407307530511
640.0,0.348721986001856
639.0,0.3491099221436875
638.0,0.3502758140704776
637.0,0.3527148549746333
636.0,0.3557584141562713
635.0,0.35793137265849584
634.0,0.3580304022979406
633.0,0.3565473235138126
632.0,0.3546759984377066
631.0,0.3527148549746333
630.0,0.35047043405218115
629.0,0.3482375526198891
628.0,0.34591976469342933
627.0,0.3433269541151498
626.0,0.341035157335565
625.0,0.3397038397292702
624.0,0.339608901597533
623.0,0.3390397082239165
622.0,0.33677036546713235
621.0,0.33310778893346393
620.0,0.32929040477620286
619.0,0.3262420634504233
618.0,0.32440494361325367
617.0,0.32413004468104334
616.0,0.32513885926218844
615.0,0.32633412375429804
614.0,0.32771737521107935
613.0,0.32993978252686573
612.0,0.33282732752113153
611.0,0.33432521900610657
610.0,0.332640453816913
609.0,0.32956859063939437
608.0,0.32808698755841315
607.0,0.328179439816751
606.0,0.32753268693191795
605.0,0.3255981871547182
604.0,0.32403845035783063
603.0,0.3234892897174464
602.0,0.32175484807295796
601.0,0.3177646430974359
600.0,0.3139002280040841
