cm-1,A
4000.0,0.09334178232840018
3999.0,0.09328794305703592
3998.0,0.09328794305703592
3997.0,0.09328794305703592
3996.0,0.09334178232840018
3995.0,0.0935033402006471
3994.0,0.09361107884716913
3993.0,0.09371884422784693
3992.0,0.09388054245443844
3991.0,0.09398837472858723
3990.0,0.09409623378338305
3989.0,0.09415017335768128
3988.0,0.09420411963213149
3987.0,0.09431203228814788
3986.0,0.09436599867304518
3985.0,0.09436599867304518
3984.0,0.09441997176475758
3983.0,0.09452793807529569
3982.0,0.09463593123310776
3981.0,0.09468993788391455
3980.0,0.09463593123310776
3979.0,0.09447395156495153
3978.0,0.09425807260839858
3977.0,0.09415017335768128
3976.0,0.09420411963213149
3975.0,0.09441997176475758
3974.0,0.09468993788391455
3973.0,0.09485199814398393
3972.0,0.09474395125154866
3971.0,0.09463593123310776
3970.0,0.09452793807529569
3969.0,0.09447395156495153
3968.0,0.09441997176475758
3967.0,0.09441997176475758
3966.0,0.09441997176475758
3965.0,0.09447395156495153
3964.0,0.09463593123310776
3963.0,0.09485199814398393
3962.0,0.09506817260434741
3961.0,0.09517630019905599
3960.0,0.09512223303659528
3959.0,0.09506817260434741
3958.0,0.09496007192378841
3957.0,0.09490603167212863
3956.0,0.09496007192378841
3955.0,0.09506817260434741
3954.0,0.09528445472131919
3953.0,0.09544673702322726
3952.0,0.0955549589230904
3951.0,0.09560907998763835
3950.0,0.09566320779750503
3949.0,0.0957714836599215
3948.0,0.09593394808549704
3947.0,0.09604229147682952
3946.0,0.096150661903319
3945.0,0.09636748391576244
3944.0,0.09674718310604158
3943.0,0.09691001300805646
3942.0,0.09691001300805646
3941.0,0.09669292003582619
3940.0,0.09653017149282994
3939.0,0.09636748391576244
3938.0,0.0960964733098364
3937.0,0.09560907998763835
3936.0,0.09533854208447545
3935.0,0.09550084460218011
3934.0,0.0960964733098364
3933.0,0.09674718310604158
3932.0,0.09712721455392082
3931.0,0.0972358560759139
3930.0,0.09718153191774648
3929.0,0.09685572959046151
3928.0,0.09658441423091357
3927.0,0.09658441423091357
3926.0,0.09680145295702158
3925.0,0.09685572959046151
3924.0,0.09663866374468144
3923.0,0.09653017149282994
3922.0,0.09685572959046151
3921.0,0.09739886933346864
3920.0,0.09761631556752848
3919.0,0.09750757884139638
3918.0,0.09745322068600859
3917.0,0.09745322068600859
3916.0,0.09739886933346864
3915.0,0.09718153191774648
3914.0,0.09707290398273716
3913.0,0.09701860020249709
3912.0,0.09685572959046151
3911.0,0.09658441423091357
3910.0,0.09631326826349751
3909.0,0.096150661903319
3908.0,0.09631326826349751
3907.0,0.09674718310604158
3906.0,0.09739886933346864
3905.0,0.09794268919153337
3904.0,0.09805153492691598
3903.0,0.09794268919153337
3902.0,0.09810596802617932
3901.0,0.09875969792669093
3900.0,0.09935981601739963
3899.0,0.09935981601739963
3898.0,0.09881421986284966
3897.0,0.09816040794877057
3896.0,0.09777947172068524
3895.0,0.09767069414168117
3894.0,0.09783387072894878
3893.0,0.09826930827078129
3892.0,0.09892328427374508
3891.0,0.09903237608087578
3890.0,0.09837823590664274
3889.0,0.09745322068600859
3888.0,0.09750757884139638
3887.0,0.09832376867362447
3886.0,0.09848719087006019
3885.0,0.09739886933346864
3884.0,0.09669292003582619
3883.0,0.09745322068600859
3882.0,0.09919606518963042
3881.0,0.1005078038618683
3880.0,0.10039834085387778
3879.0,0.09946901754724413
3878.0,0.09865067458435761
3877.0,0.09854167860388774
3876.0,0.0990869322623309
3875.0,0.09935981601739963
3874.0,0.09870518283443275
3873.0,0.09799710864927058
3872.0,0.09854167860388774
3871.0,0.10007011727213588
3870.0,0.10061729446673495
3869.0,0.09941441335003853
3868.0,0.09810596802617932
3867.0,0.09832376867362447
3866.0,0.09957824654226233
3865.0,0.10007011727213588
3864.0,0.09946901754724413
3863.0,0.09914149529800831
3862.0,0.09968750301627338
3861.0,0.10001543745060903
3860.0,0.09952362861074304
3859.0,0.09859617317474823
3858.0,0.09777947172068524
3857.0,0.09734452478207412
3856.0,0.09761631556752848
3855.0,0.09832376867362447
3854.0,0.0978882765519955
3853.0,0.09625905937846135
3852.0,0.0960964733098364
3851.0,0.09750757884139638
3850.0,0.09914149529800831
3849.0,0.10017949757290379
3848.0,0.10028890542885538
3847.0,0.09985143928065598
3846.0,0.09946901754724413
3845.0,0.09941441335003853
3844.0,0.09935981601739963
3843.0,0.09914149529800831
3842.0,0.09881421986284966
3841.0,0.09870518283443275
3840.0,0.0989778267519208
3839.0,0.09914149529800831
3838.0,0.09903237608087578
3837.0,0.09886874864462802
3836.0,0.09881421986284966
3835.0,0.0989778267519208
3834.0,0.09952362861074304
3833.0,0.10023419805561384
3832.0,0.1005078038618683
3831.0,0.10007011727213588
3830.0,0.09941441335003853
3829.0,0.09914149529800831
3828.0,0.09946901754724413
3827.0,0.09985143928065598
3826.0,0.09957824654226233
3825.0,0.0990869322623309
3824.0,0.09930522554760213
3823.0,0.10061729446673495
3822.0,0.1017686154869033
3821.0,0.10132965703447017
3820.0,0.10023419805561384
3819.0,0.10001543745060903
3818.0,0.10089114180660053
3817.0,0.10198826120249849
3816.0,0.10160395406999112
3815.0,0.09985143928065598
3814.0,0.09881421986284966
3813.0,0.0990869322623309
3812.0,0.09963287134352972
3811.0,0.09941441335003853
3810.0,0.09870518283443275
3809.0,0.09865067458435761
3808.0,0.09925064193892053
3807.0,0.09930522554760213
3806.0,0.09832376867362447
3805.0,0.09750757884139638
3804.0,0.09816040794877057
3803.0,0.09996076451267522
3802.0,0.10105553313349058
3801.0,0.10045306890913297
3800.0,0.09974214156222239
3799.0,0.10001543745060903
3798.0,0.10100072911021085
3797.0,0.10182351650232357
3796.0,0.10171372141087698
3795.0,0.10116516193172598
3794.0,0.10083635852278117
3793.0,0.10078158214862709
3792.0,0.1005625457138224
3791.0,0.10017949757290379
3790.0,0.09990609845660159
3789.0,0.09990609845660159
3788.0,0.10001543745060903
3787.0,0.10017949757290379
3786.0,0.10034361969436434
3785.0,0.1005625457138224
3784.0,0.1005625457138224
3783.0,0.10045306890913297
3782.0,0.1005625457138224
3781.0,0.10100072911021085
3780.0,0.10127481841050656
3779.0,0.1012199867101744
3778.0,0.10100072911021085
3777.0,0.10105553313349058
3776.0,0.10127481841050656
3775.0,0.10127481841050656
3774.0,0.10089114180660053
3773.0,0.1005078038618683
3772.0,0.10072681268239614
3771.0,0.1012199867101744
3770.0,0.1012199867101744
3769.0,0.10083635852278117
3768.0,0.10083635852278117
3767.0,0.1014393550602879
3766.0,0.10209812573177213
3765.0,0.10209812573177213
3764.0,0.10149421446564144
3763.0,0.1012199867101744
3762.0,0.10165883427249067
3761.0,0.10215306842042837
3760.0,0.10204318999304807
3759.0,0.10165883427249067
3758.0,0.10193333935836524
3757.0,0.10242788617426934
3756.0,0.10226297465457268
3755.0,0.1017686154869033
3754.0,0.10132965703447017
3753.0,0.10072681268239614
3752.0,0.09963287134352972
3751.0,0.09892328427374508
3750.0,0.09979678698310646
3749.0,0.10078158214862709
3748.0,0.10045306890913297
3747.0,0.10028890542885538
3746.0,0.10193333935836524
3745.0,0.10347378251044459
3744.0,0.10264786565568684
3743.0,0.10089114180660053
3742.0,0.1005625457138224
3741.0,0.10149421446564144
3740.0,0.10237290870955862
3739.0,0.10259286033841963
3738.0,0.1028679566179056
3737.0,0.10352889952072264
3736.0,0.10385974855798041
3735.0,0.10391491457671487
3734.0,0.10452220372428545
3733.0,0.10557316203581202
3732.0,0.10557316203581202
3731.0,0.10435649517592083
3730.0,0.10297804393963661
3729.0,0.10270287794050348
3728.0,0.1033635694704158
3727.0,0.10397008760377302
3726.0,0.10391491457671487
3725.0,0.10397008760377302
3724.0,0.10463271122663809
3723.0,0.1052410056281079
3722.0,0.1052410056281079
3721.0,0.1047432468551055
3720.0,0.10424605792627206
3719.0,0.10402526764093545
3718.0,0.10385974855798041
3717.0,0.10347378251044459
3716.0,0.10292299679057959
3715.0,0.10281292341984649
3714.0,0.10314322726279568
3713.0,0.1033635694704158
3712.0,0.10314322726279568
3711.0,0.10314322726279568
3710.0,0.10385974855798041
3709.0,0.10452220372428545
3708.0,0.10435649517592083
3707.0,0.10369429253391926
3706.0,0.10297804393963661
3705.0,0.10264786565568684
3704.0,0.10281292341984649
3703.0,0.10325338439259446
3702.0,0.10341867249426717
3701.0,0.10330847343711591
3700.0,0.10303309806684524
3699.0,0.1028679566179056
3698.0,0.10303309806684524
3697.0,0.10319830233507843
3696.0,0.10297804393963661
3695.0,0.10270287794050348
3694.0,0.10281292341984649
3693.0,0.10308815917397474
3692.0,0.10325338439259446
3691.0,0.1033635694704158
3690.0,0.10369429253391926
3689.0,0.10435649517592083
3688.0,0.10463271122663809
3687.0,0.10402526764093545
3686.0,0.10341867249426717
3685.0,0.10330847343711591
3684.0,0.1033635694704158
3683.0,0.10303309806684524
3682.0,0.10253786198693682
3681.0,0.10231793820358015
3680.0,0.1022080180607754
3679.0,0.10204318999304807
3678.0,0.10237290870955862
3677.0,0.10363915453068362
3676.0,0.10452220372428545
3675.0,0.10402526764093545
3674.0,0.10330847343711591
3673.0,0.10297804393963661
3672.0,0.10352889952072264
3671.0,0.10413564875270076
3670.0,0.10374943753836186
3669.0,0.1033635694704158
3668.0,0.10408045468998406
3667.0,0.10479852522110678
3666.0,0.10485381062400778
3665.0,0.10441172433373724
3664.0,0.10391491457671487
3663.0,0.10363915453068362
3662.0,0.10358402352687701
3661.0,0.10358402352687701
3660.0,0.10352889952072264
3659.0,0.10374943753836186
3658.0,0.10435649517592083
3657.0,0.10496440254767725
3656.0,0.10485381062400778
3655.0,0.10430127304069425
3654.0,0.10402526764093545
3653.0,0.10468797552421272
3652.0,0.10590557267730127
3651.0,0.10657115822045493
3650.0,0.1063491830140364
3649.0,0.10690433390377163
3648.0,0.10902040301031102
3647.0,0.11036219959333216
3646.0,0.10980261378997125
3645.0,0.10835105612944096
3644.0,0.10723776538418317
3643.0,0.10662666975397506
3642.0,0.1062937069352865
3641.0,0.1061827760325369
3640.0,0.1063491830140364
3639.0,0.10662666975397506
3638.0,0.10662666975397506
3637.0,0.10651565378151395
3636.0,0.10668218838388821
3635.0,0.10695988804288215
3634.0,0.10690433390377163
3633.0,0.1063491830140364
3632.0,0.1061827760325369
3631.0,0.1071265931112344
3630.0,0.10835105612944096
3629.0,0.10835105612944096
3628.0,0.10784972209863586
3627.0,0.1082953237608173
3626.0,0.10890877353227624
3625.0,0.10929960230112479
3624.0,0.10918790104487552
3623.0,0.10874138309586101
3622.0,0.10840679565103484
3621.0,0.10846254232743546
3620.0,0.10846254232743546
3619.0,0.1082953237608173
3618.0,0.10840679565103484
3617.0,0.10896458468468917
3616.0,0.10969078310005154
3615.0,0.11041819785037621
3614.0,0.11086644403327606
3613.0,0.11069829749368965
3612.0,0.11030620855581463
3611.0,0.11008231656379408
3610.0,0.11002636159600376
3609.0,0.10997041383658313
3608.0,0.10974669484546551
3607.0,0.10980261378997125
3606.0,0.11019424813191447
3605.0,0.11036219959333216
3604.0,0.11013827874181148
3603.0,0.10957898119908571
3602.0,0.10902040301031102
3601.0,0.10879717273970457
3600.0,0.10896458468468917
3599.0,0.10946720807225518
3598.0,0.10991447328367476
3597.0,0.11008231656379408
3596.0,0.11002636159600376
3595.0,0.10997041383658313
3594.0,0.11002636159600376
3593.0,0.11019424813191447
3592.0,0.11030620855581463
3591.0,0.11030620855581463
3590.0,0.11041819785037621
3589.0,0.11053021603049262
3588.0,0.11041819785037621
3587.0,0.11053021603049262
3586.0,0.11109074073646874
3585.0,0.1114835389250548
3584.0,0.11131515334030118
3583.0,0.11086644403327606
3582.0,0.11036219959333216
3581.0,0.10997041383658313
3580.0,0.10969078310005154
3579.0,0.10957898119908571
3578.0,0.10957898119908571
3577.0,0.10969078310005154
3576.0,0.1098585399354226
3575.0,0.11008231656379408
3574.0,0.11008231656379408
3573.0,0.10991447328367476
3572.0,0.10963487855187593
3571.0,0.10957898119908571
3570.0,0.10991447328367476
3569.0,0.11058623595729111
3568.0,0.11114683301706374
3567.0,0.11165198982195101
3566.0,0.11238269966426384
3565.0,0.11311464101399138
3564.0,0.11322735694556196
3563.0,0.11272036546997688
3562.0,0.11210151190312767
3561.0,0.11165198982195101
3560.0,0.11153968196461372
3559.0,0.1117081546434846
3558.0,0.11182050608167504
3557.0,0.11165198982195101
3556.0,0.11142740314240007
3555.0,0.11131515334030118
3554.0,0.11142740314240007
3553.0,0.11176432672943282
3552.0,0.11210151190312767
3551.0,0.11227020271196975
3550.0,0.11232644754555254
3549.0,0.11249522576462212
3548.0,0.11277666863747693
3547.0,0.11311464101399138
3546.0,0.11350927482751816
3545.0,0.11396072443355765
3544.0,0.1141301390960936
3543.0,0.11401718864502697
3542.0,0.11356568037106163
3541.0,0.11305829401658474
3540.0,0.11266406960083297
3539.0,0.11243895906999102
3538.0,0.11243895906999102
3537.0,0.1125514997500463
3536.0,0.11272036546997688
3535.0,0.1128329791052256
3534.0,0.11288929687511629
3533.0,0.1128329791052256
3532.0,0.1125514997500463
3531.0,0.11227020271196975
3530.0,0.11210151190312767
3529.0,0.11221396516162851
3528.0,0.11266406960083297
3527.0,0.11328372588352176
3526.0,0.1138478180292033
3525.0,0.11418662533951118
3524.0,0.11424311893073247
3523.0,0.1141301390960936
3522.0,0.11396072443355765
3521.0,0.11379137583250243
3520.0,0.1136220932414278
3519.0,0.11339648571328764
3518.0,0.11311464101399138
3517.0,0.11272036546997688
3516.0,0.11238269966426384
3515.0,0.11215773489264302
3514.0,0.11210151190312767
3513.0,0.11221396516162851
3512.0,0.11249522576462212
3511.0,0.11288929687511629
3510.0,0.11322735694556196
3509.0,0.11345287660889425
3508.0,0.11356568037106163
3507.0,0.11350927482751816
3506.0,0.11339648571328764
3505.0,0.11345287660889425
3504.0,0.11367851344052027
3503.0,0.1141301390960936
3502.0,0.11463877996848804
3501.0,0.11492161585077598
3500.0,0.114865033936566
3499.0,0.11463877996848804
3498.0,0.11429961987167014
3497.0,0.11407366019856902
3496.0,0.11379137583250243
3495.0,0.11339648571328764
3494.0,0.11305829401658474
3493.0,0.112945621949043
3492.0,0.112945621949043
3491.0,0.11311464101399138
3490.0,0.1133401021387972
3489.0,0.11350927482751816
3488.0,0.1136220932414278
3487.0,0.1136220932414278
3486.0,0.11356568037106163
3485.0,0.11356568037106163
3484.0,0.11367851344052027
3483.0,0.11390426756225258
3482.0,0.11429961987167014
3481.0,0.11475189221861393
3480.0,0.11509140583739286
3479.0,0.11520463605101905
3478.0,0.11503480179926728
3477.0,0.11469533241103202
3476.0,0.11446916681190777
3475.0,0.11441264381034388
3474.0,0.11463877996848804
3473.0,0.1148084593931522
3472.0,0.11492161585077598
3471.0,0.11492161585077598
3470.0,0.11492161585077598
3469.0,0.11503480179926728
3468.0,0.11526126223036814
3467.0,0.11560117444331386
3466.0,0.11594135290606156
3465.0,0.11611154211151953
3464.0,0.11622503864474187
3463.0,0.11628179803604044
3462.0,0.1163953390777075
3461.0,0.11662251025166115
3460.0,0.11679296664760996
3459.0,0.11679296664760996
3458.0,0.1165657063169907
3457.0,0.11628179803604044
3456.0,0.11616828667054757
3455.0,0.11622503864474187
3454.0,0.11645212073195621
3453.0,0.11679296664760996
3452.0,0.1170772093974013
3451.0,0.11741854644554883
3450.0,0.11781711236973003
3449.0,0.11821604440661537
3448.0,0.11855827805860697
3447.0,0.11878658374498086
3446.0,0.11895789180659433
3445.0,0.1190150095132465
3444.0,0.11907213473291511
3443.0,0.11907213473291511
3442.0,0.1190150095132465
3441.0,0.11895789180659433
3440.0,0.11890078161098283
3439.0,0.11895789180659433
3438.0,0.11895789180659433
3437.0,0.11895789180659433
3436.0,0.1190150095132465
3435.0,0.11912926746757657
3434.0,0.11930071078129845
3433.0,0.11964380058076385
3432.0,0.1201016756699902
3431.0,0.12056003400478299
3430.0,0.12084675381575383
3429.0,0.12101887660626365
3428.0,0.12119106764079435
3427.0,0.12136332697348307
3426.0,0.1213058996038916
3425.0,0.12107626603243293
3424.0,0.1207893947082408
3423.0,0.12061736282565727
3422.0,0.1207893947082408
3421.0,0.12124847982699793
3420.0,0.12165057778222454
3419.0,0.12182301950849372
3418.0,0.12170805075020397
3417.0,0.12136332697348307
3416.0,0.12084675381575383
3415.0,0.12044539906102569
3414.0,0.12027350336042275
3413.0,0.12027350336042275
3412.0,0.12044539906102569
3411.0,0.12061736282565727
3410.0,0.12061736282565727
3409.0,0.12050271275057156
3408.0,0.12033079436794658
3407.0,0.1201016756699902
3406.0,0.11992991593593283
3405.0,0.11981544717356662
3404.0,0.11975822410451964
3403.0,0.11970100857424737
3402.0,0.11970100857424737
3401.0,0.11964380058076385
3400.0,0.11964380058076385
3399.0,0.11958660012208333
3398.0,0.11952940719622163
3397.0,0.11935787359571504
3396.0,0.11924355548978971
3395.0,0.11930071078129845
3394.0,0.11941504393502012
3393.0,0.11958660012208333
3392.0,0.11970100857424737
3391.0,0.11975822410451964
3390.0,0.11975822410451964
3389.0,0.11964380058076385
3388.0,0.11935787359571504
3387.0,0.11912926746757657
3386.0,0.11907213473291511
3385.0,0.11918640771920863
3384.0,0.11947222180119477
3383.0,0.11987267778337518
3382.0,0.1202162199095842
3381.0,0.12027350336042275
3380.0,0.12004441487725082
3379.0,0.11964380058076385
3378.0,0.11924355548978971
3377.0,0.11912926746757657
3376.0,0.11912926746757657
3375.0,0.11924355548978971
3374.0,0.11935787359571504
3373.0,0.11947222180119477
3372.0,0.11952940719622163
3371.0,0.11958660012208333
3370.0,0.11964380058076385
3369.0,0.11970100857424737
3368.0,0.11964380058076385
3367.0,0.11964380058076385
3366.0,0.11981544717356662
3365.0,0.12004441487725082
3364.0,0.12033079436794658
3363.0,0.12050271275057156
3362.0,0.12044539906102569
3361.0,0.12033079436794658
3360.0,0.1201016756699902
3359.0,0.11992991593593283
3358.0,0.11970100857424737
3357.0,0.11941504393502012
3356.0,0.11924355548978971
3355.0,0.11924355548978971
3354.0,0.11941504393502012
3353.0,0.11958660012208333
3352.0,0.11981544717356662
3351.0,0.1199871616332282
3350.0,0.12015894401343741
3349.0,0.12027350336042275
3348.0,0.12027350336042275
3347.0,0.12027350336042275
3346.0,0.12027350336042275
3345.0,0.1203880929341492
3344.0,0.12056003400478299
3343.0,0.12067469921519258
3342.0,0.1207893947082408
3341.0,0.1207893947082408
3340.0,0.1207320431753871
3339.0,0.1207320431753871
3338.0,0.12084675381575383
3337.0,0.12096149476276286
3336.0,0.12101887660626365
3335.0,0.12090412049992727
3334.0,0.12061736282565727
3333.0,0.1203880929341492
3332.0,0.12033079436794658
3331.0,0.1203880929341492
3330.0,0.12056003400478299
3329.0,0.1207320431753871
3328.0,0.1207893947082408
3327.0,0.1207893947082408
3326.0,0.12090412049992727
3325.0,0.12096149476276286
3324.0,0.12096149476276286
3323.0,0.1207320431753871
3322.0,0.1203880929341492
3321.0,0.1201016756699902
3320.0,0.1201016756699902
3319.0,0.1203880929341492
3318.0,0.1207893947082408
3317.0,0.12101887660626365
3316.0,0.12101887660626365
3315.0,0.1207320431753871
3314.0,0.12033079436794658
3313.0,0.1201016756699902
3312.0,0.12004441487725082
3311.0,0.12033079436794658
3310.0,0.12090412049992727
3309.0,0.12153565465853111
3308.0,0.12188051530283239
3307.0,0.12182301950849372
3306.0,0.12147820449879343
3305.0,0.12101887660626365
3304.0,0.12067469921519258
3303.0,0.12044539906102569
3302.0,0.12044539906102569
3301.0,0.12061736282565727
3300.0,0.12090412049992727
3299.0,0.12124847982699793
3298.0,0.12159311241900439
3297.0,0.12188051530283239
3296.0,0.1219955297319748
3295.0,0.12188051530283239
3294.0,0.12170805075020397
3293.0,0.12159311241900439
3292.0,0.12159311241900439
3291.0,0.12159311241900439
3290.0,0.12147820449879343
3289.0,0.12124847982699793
3288.0,0.12101887660626365
3287.0,0.12084675381575383
3286.0,0.1207320431753871
3285.0,0.12067469921519258
3284.0,0.12067469921519258
3283.0,0.12084675381575383
3282.0,0.12113366304327466
3281.0,0.12142076193778073
3280.0,0.12153565465853111
3279.0,0.12147820449879343
3278.0,0.12136332697348307
3277.0,0.12136332697348307
3276.0,0.12142076193778073
3275.0,0.12153565465853111
3274.0,0.12153565465853111
3273.0,0.12153565465853111
3272.0,0.12153565465853111
3271.0,0.12147820449879343
3270.0,0.12142076193778073
3269.0,0.12124847982699793
3268.0,0.12113366304327466
3267.0,0.12107626603243293
3266.0,0.12107626603243293
3265.0,0.12113366304327466
3264.0,0.1213058996038916
3263.0,0.12142076193778073
3262.0,0.12147820449879343
3261.0,0.12142076193778073
3260.0,0.1213058996038916
3259.0,0.12113366304327466
3258.0,0.12107626603243293
3257.0,0.12113366304327466
3256.0,0.12113366304327466
3255.0,0.12107626603243293
3254.0,0.12096149476276286
3253.0,0.12084675381575383
3252.0,0.12090412049992727
3251.0,0.12107626603243293
3250.0,0.12136332697348307
3249.0,0.12159311241900439
3248.0,0.12170805075020397
3247.0,0.12176553132495593
3246.0,0.12182301950849372
3245.0,0.12182301950849372
3244.0,0.12176553132495593
3243.0,0.12165057778222454
3242.0,0.12136332697348307
3241.0,0.12107626603243293
3240.0,0.12090412049992727
3239.0,0.12096149476276286
3238.0,0.12113366304327466
3237.0,0.12147820449879343
3236.0,0.12176553132495593
3235.0,0.12205304837081177
3234.0,0.12222565000860186
3233.0,0.12234075588839133
3232.0,0.12234075588839133
3231.0,0.12222565000860186
3230.0,0.12205304837081177
3229.0,0.12188051530283239
3228.0,0.12182301950849372
3227.0,0.12176553132495593
3226.0,0.12182301950849372
3225.0,0.12188051530283239
3224.0,0.12188051530283239
3223.0,0.12182301950849372
3222.0,0.12170805075020397
3221.0,0.12165057778222454
3220.0,0.12159311241900439
3219.0,0.12159311241900439
3218.0,0.12165057778222454
3217.0,0.12159311241900439
3216.0,0.12142076193778073
3215.0,0.1213058996038916
3214.0,0.1213058996038916
3213.0,0.12159311241900439
3212.0,0.12182301950849372
3211.0,0.1219955297319748
3210.0,0.12193801870998744
3209.0,0.12170805075020397
3208.0,0.12142076193778073
3207.0,0.1213058996038916
3206.0,0.12136332697348307
3205.0,0.12153565465853111
3204.0,0.12176553132495593
3203.0,0.1219955297319748
3202.0,0.12205304837081177
3201.0,0.12188051530283239
3200.0,0.12147820449879343
3199.0,0.12101887660626365
3198.0,0.1207320431753871
3197.0,0.1207893947082408
3196.0,0.12124847982699793
3195.0,0.12170805075020397
3194.0,0.1219955297319748
3193.0,0.1219955297319748
3192.0,0.12193801870998744
3191.0,0.12193801870998744
3190.0,0.12211057462851604
3189.0,0.12222565000860186
3188.0,0.12228319913502328
3187.0,0.12216810850710624
3186.0,0.1219955297319748
3185.0,0.12188051530283239
3184.0,0.12182301950849372
3183.0,0.12188051530283239
3182.0,0.12205304837081177
3181.0,0.12211057462851604
3180.0,0.12211057462851604
3179.0,0.12193801870998744
3178.0,0.12182301950849372
3177.0,0.12170805075020397
3176.0,0.12176553132495593
3175.0,0.12188051530283239
3174.0,0.1219955297319748
3173.0,0.1219955297319748
3172.0,0.1219955297319748
3171.0,0.12188051530283239
3170.0,0.12176553132495593
3169.0,0.12165057778222454
3168.0,0.12165057778222454
3167.0,0.12165057778222454
3166.0,0.12159311241900439
3165.0,0.12153565465853111
3164.0,0.12153565465853111
3163.0,0.12159311241900439
3162.0,0.12176553132495593
3161.0,0.12188051530283239
3160.0,0.12188051530283239
3159.0,0.12188051530283239
3158.0,0.12188051530283239
3157.0,0.12188051530283239
3156.0,0.12188051530283239
3155.0,0.12193801870998744
3154.0,0.12205304837081177
3153.0,0.12216810850710624
3152.0,0.12228319913502328
3151.0,0.12239832027072817
3150.0,0.12239832027072817
3149.0,0.12222565000860186
3148.0,0.1219955297319748
3147.0,0.12182301950849372
3146.0,0.12176553132495593
3145.0,0.12182301950849372
3144.0,0.12193801870998744
3143.0,0.12205304837081177
3142.0,0.12205304837081177
3141.0,0.12211057462851604
3140.0,0.12216810850710624
3139.0,0.12234075588839133
3138.0,0.12251347193039863
3137.0,0.12262865413022594
3136.0,0.12257105921178035
3135.0,0.12239832027072817
3134.0,0.12222565000860186
3133.0,0.12211057462851604
3132.0,0.12216810850710624
3131.0,0.12234075588839133
3130.0,0.12257105921178035
3129.0,0.12268625668776156
3128.0,0.12274386688641381
3127.0,0.12268625668776156
3126.0,0.12280148472821018
3125.0,0.12291674334934943
3124.0,0.12308968865537295
3123.0,0.12314735239865637
3122.0,0.12303203256741524
3121.0,0.12291674334934943
3120.0,0.12280148472821018
3119.0,0.12285911021517903
3118.0,0.12297438413275108
3117.0,0.12314735239865637
3116.0,0.12337808396572703
3115.0,0.12355121312165873
3114.0,0.12360893818081231
3113.0,0.12360893818081231
3112.0,0.12355121312165873
3111.0,0.12355121312165873
3110.0,0.12355121312165873
3109.0,0.1236666709136196
3108.0,0.12378215940835768
3107.0,0.12383991517437187
3106.0,0.12378215940835768
3105.0,0.12360893818081231
3104.0,0.12355121312165873
3103.0,0.12360893818081231
3102.0,0.12383991517437187
3101.0,0.12401322857151209
3100.0,0.12418661116024232
3099.0,0.12430223801979201
3098.0,0.12436006299583169
3097.0,0.12441789567211425
3096.0,0.12436006299583169
3095.0,0.12430223801979201
3094.0,0.12424442074194553
3093.0,0.12418661116024232
3092.0,0.12401322857151209
3091.0,0.12372441132212098
3090.0,0.12349349573411894
3089.0,0.12337808396572703
3088.0,0.12343578601615435
3087.0,0.1236666709136196
3086.0,0.12401322857151209
3085.0,0.12436006299583169
3084.0,0.12464930342071079
3083.0,0.12482294018529605
3082.0,0.1248808345374317
3081.0,0.124996646399959
3080.0,0.1251124891538875
3079.0,0.1252863112422209
3078.0,0.12534426740189897
3077.0,0.12534426740189897
3076.0,0.12517042212027807
3075.0,0.1249387366082999
3074.0,0.12476505354983503
3073.0,0.12470717462899183
3072.0,0.12482294018529605
3071.0,0.125054563914468
3070.0,0.12540223129680017
3069.0,0.12569216687196105
3068.0,0.12598229613781387
3067.0,0.126156466776564
3066.0,0.12627261935332057
3065.0,0.12621453918179926
3064.0,0.12592425477696523
3063.0,0.12557616941349803
3062.0,0.1252863112422209
3061.0,0.12522836281570182
3060.0,0.1252863112422209
3059.0,0.12546020292898974
3058.0,0.12569216687196105
3057.0,0.12592425477696523
3056.0,0.12604034525664676
3055.0,0.126156466776564
3054.0,0.1263307072932056
3053.0,0.12650501774383094
3052.0,0.12667939818460128
3051.0,0.12679569072295926
3050.0,0.1267375405612734
3049.0,0.126621263590859
3048.0,0.12638880300353272
3047.0,0.12621453918179926
3046.0,0.1260984021355387
3045.0,0.12586622117202761
3044.0,0.12551818230053358
3043.0,0.125054563914468
3042.0,0.12476505354983503
3041.0,0.12464930342071079
3040.0,0.12453358413361437
3039.0,0.12436006299583169
3038.0,0.12407101507707297
3037.0,0.12372441132212098
3036.0,0.12349349573411894
3035.0,0.1233203895807995
3034.0,0.12337808396572703
3033.0,0.12349349573411894
3032.0,0.12355121312165873
3031.0,0.12343578601615435
3030.0,0.12326270285933538
3029.0,0.12303203256741524
3028.0,0.12274386688641381
3027.0,0.12245589228405596
3026.0,0.12228319913502328
3025.0,0.12228319913502328
3024.0,0.12257105921178035
3023.0,0.12285911021517903
3022.0,0.12308968865537295
3021.0,0.12326270285933538
3020.0,0.1233203895807995
3019.0,0.1233203895807995
3018.0,0.12337808396572703
3017.0,0.12349349573411894
3016.0,0.12360893818081231
3015.0,0.12372441132212098
3014.0,0.12378215940835768
3013.0,0.12389767862220635
3012.0,0.12401322857151209
3011.0,0.12418661116024232
3010.0,0.12424442074194553
3009.0,0.12418661116024232
3008.0,0.12407101507707297
3007.0,0.12395544975390482
3006.0,0.12395544975390482
3005.0,0.12407101507707297
3004.0,0.12424442074194553
3003.0,0.12453358413361437
3002.0,0.12464930342071079
3001.0,0.12476505354983503
3000.0,0.1248808345374317
2999.0,0.125054563914468
2998.0,0.12534426740189897
2997.0,0.12551818230053358
2996.0,0.12563416426995122
2995.0,0.12563416426995122
2994.0,0.12557616941349803
2993.0,0.12563416426995122
2992.0,0.12575017722159698
2991.0,0.12598229613781387
2990.0,0.126156466776564
2989.0,0.12621453918179926
2988.0,0.1263307072932056
2987.0,0.12644690648638135
2986.0,0.12656313677796316
2985.0,0.1267375405612734
2984.0,0.12702836926155658
2983.0,0.12731939284807026
2982.0,0.1276688787697493
2981.0,0.1280186461566306
2980.0,0.1282519810081284
2979.0,0.12836869546244634
2978.0,0.1284854412916181
2977.0,0.12854382597704617
2976.0,0.1287190271420271
2975.0,0.12901118623942476
2974.0,0.1294790499872358
2973.0,0.13000599987825812
2972.0,0.1304749371427727
2971.0,0.13094438129809216
2970.0,0.1314731132317961
2969.0,0.13200248965504868
2968.0,0.13259144347720886
2967.0,0.1331221856625011
2966.0,0.13365357725039817
2965.0,0.13430394008392943
2964.0,0.13489602535887202
2963.0,0.13537027545448765
2962.0,0.13578566953867033
2961.0,0.13620146131949973
2960.0,0.1366771398795441
2959.0,0.13727247168202528
2958.0,0.13786862068696282
2957.0,0.1384058553561347
2956.0,0.1388839558386048
2955.0,0.13930272594796111
2954.0,0.13960209487268727
2953.0,0.13978181533124334
2952.0,0.13984173868172167
2951.0,0.13978181533124334
2950.0,0.13948232253825377
2949.0,0.1390633792999063
2948.0,0.1385253311428314
2947.0,0.1380476250785483
2946.0,0.1375704438939911
2945.0,0.1370342410222376
2944.0,0.13632033212410222
2943.0,0.1354889189416082
2942.0,0.134659094375416
2941.0,0.13388996015562338
2940.0,0.13306318226836056
2939.0,0.132179091954427
2938.0,0.1311792938024825
2937.0,0.13012318673323353
2936.0,0.12901118623942476
2935.0,0.12796033202671375
2934.0,0.12697018793895576
2933.0,0.1260984021355387
2932.0,0.12534426740189897
2931.0,0.12476505354983503
2930.0,0.12418661116024232
2929.0,0.1236666709136196
2928.0,0.12308968865537295
2927.0,0.12257105921178035
2926.0,0.12222565000860186
2925.0,0.1219955297319748
2924.0,0.12176553132495593
2923.0,0.12147820449879343
2922.0,0.12124847982699793
2921.0,0.12101887660626365
2920.0,0.12101887660626365
2919.0,0.12119106764079435
2918.0,0.12165057778222454
2917.0,0.12222565000860186
2916.0,0.12280148472821018
2915.0,0.1233203895807995
2914.0,0.12378215940835768
2913.0,0.12424442074194553
2912.0,0.12470717462899183
2911.0,0.125054563914468
2910.0,0.12522836281570182
2909.0,0.12540223129680017
2908.0,0.12563416426995122
2907.0,0.12604034525664676
2906.0,0.12656313677796316
2905.0,0.12702836926155658
2904.0,0.12737762097471172
2903.0,0.12761061158217912
2902.0,0.1276688787697493
2901.0,0.1277271537757949
2900.0,0.12784372725170723
2899.0,0.1280186461566306
2898.0,0.1283103343144847
2897.0,0.12866061890013913
2896.0,0.12912810493225724
2895.0,0.1295960947209729
2894.0,0.13000599987825812
2893.0,0.13024040521758962
2892.0,0.13041629228657614
2891.0,0.1304749371427727
2890.0,0.1306509192409071
2889.0,0.1308269726783169
2888.0,0.13106182166708868
2887.0,0.1312967977214634
2886.0,0.13141433344123432
2885.0,0.1314731132317961
2884.0,0.13135556160517425
2883.0,0.13123804178794973
2882.0,0.1311792938024825
2881.0,0.1311205537629121
2880.0,0.13106182166708868
2879.0,0.1311205537629121
2878.0,0.13123804178794973
2877.0,0.13135556160517425
2876.0,0.13141433344123432
2875.0,0.13135556160517425
2874.0,0.1312967977214634
2873.0,0.13123804178794973
2872.0,0.13106182166708868
2871.0,0.13076828026902376
2870.0,0.13053358991913355
2869.0,0.1302990263261221
2868.0,0.13012318673323353
2867.0,0.12988884463559924
2866.0,0.12965462891904034
2865.0,0.1294790499872358
2864.0,0.12936203678919433
2863.0,0.12924505510985984
2862.0,0.1290696416513042
2861.0,0.12883586719705065
2860.0,0.1284854412916181
2859.0,0.1280186461566306
2858.0,0.1275523522109867
2857.0,0.12714475529518965
2856.0,0.12691201440971422
2855.0,0.12667939818460128
2854.0,0.12650501774383094
2853.0,0.1263307072932056
2852.0,0.12627261935332057
2851.0,0.12638880300353272
2850.0,0.12667939818460128
2849.0,0.12714475529518965
2848.0,0.1275523522109867
2847.0,0.12790202572577325
2846.0,0.1282519810081284
2845.0,0.12854382597704617
2844.0,0.12883586719705065
2843.0,0.1290696416513042
2842.0,0.12930354201075
2841.0,0.1295960947209729
2840.0,0.12988884463559924
2839.0,0.13012318673323353
2838.0,0.1302990263261221
2837.0,0.13035765534840538
2836.0,0.1302990263261221
2835.0,0.1302990263261221
2834.0,0.13024040521758962
2833.0,0.13018179202067182
2832.0,0.13000599987825812
2831.0,0.12977172098820566
2830.0,0.12953756841108
2829.0,0.12942053944731513
2828.0,0.12942053944731513
2827.0,0.12953756841108
2826.0,0.12971317100740865
2825.0,0.12994741830645506
2824.0,0.13018179202067182
2823.0,0.13035765534840538
2822.0,0.13041629228657614
2821.0,0.13041629228657614
2820.0,0.13035765534840538
2819.0,0.1302990263261221
2818.0,0.13035765534840538
2817.0,0.13041629228657614
2816.0,0.1304749371427727
2815.0,0.1304749371427727
2814.0,0.13041629228657614
2813.0,0.13035765534840538
2812.0,0.13035765534840538
2811.0,0.13041629228657614
2810.0,0.13053358991913355
2809.0,0.1306509192409071
2808.0,0.1305922506177981
2807.0,0.13041629228657614
2806.0,0.13018179202067182
2805.0,0.12994741830645506
2804.0,0.12983027886355947
2803.0,0.12977172098820566
2802.0,0.12994741830645506
2801.0,0.13012318673323353
2800.0,0.13024040521758962
2799.0,0.13018179202067182
2798.0,0.13006458935314003
2797.0,0.13000599987825812
2796.0,0.13000599987825812
2795.0,0.13024040521758962
2794.0,0.1304749371427727
2793.0,0.1305922506177981
2792.0,0.13053358991913355
2791.0,0.13041629228657614
2790.0,0.13024040521758962
2789.0,0.13006458935314003
2788.0,0.12994741830645506
2787.0,0.12988884463559924
2786.0,0.13006458935314003
2785.0,0.1302990263261221
2784.0,0.1305922506177981
2783.0,0.1306509192409071
2782.0,0.1305922506177981
2781.0,0.13041629228657614
2780.0,0.13024040521758962
2779.0,0.13012318673323353
2778.0,0.13006458935314003
2777.0,0.13012318673323353
2776.0,0.1302990263261221
2775.0,0.13041629228657614
2774.0,0.13041629228657614
2773.0,0.13024040521758962
2772.0,0.12994741830645506
2771.0,0.12965462891904034
2770.0,0.1295960947209729
2769.0,0.12971317100740865
2768.0,0.12983027886355947
2767.0,0.13006458935314003
2766.0,0.13024040521758962
2765.0,0.13053358991913355
2764.0,0.1308269726783169
2763.0,0.13094438129809216
2762.0,0.13094438129809216
2761.0,0.13070959579060148
2760.0,0.13041629228657614
2759.0,0.13024040521758962
2758.0,0.13018179202067182
2757.0,0.13024040521758962
2756.0,0.1302990263261221
2755.0,0.1302990263261221
2754.0,0.13024040521758962
2753.0,0.13018179202067182
2752.0,0.13018179202067182
2751.0,0.13035765534840538
2750.0,0.13053358991913355
2749.0,0.13076828026902376
2748.0,0.1308856730206247
2747.0,0.1308269726783169
2746.0,0.13070959579060148
2745.0,0.13053358991913355
2744.0,0.13035765534840538
2743.0,0.1302990263261221
2742.0,0.1302990263261221
2741.0,0.13035765534840538
2740.0,0.13035765534840538
2739.0,0.1302990263261221
2738.0,0.13024040521758962
2737.0,0.13024040521758962
2736.0,0.13024040521758962
2735.0,0.1302990263261221
2734.0,0.1304749371427727
2733.0,0.13053358991913355
2732.0,0.13053358991913355
2731.0,0.13035765534840538
2730.0,0.13018179202067182
2729.0,0.12994741830645506
2728.0,0.12983027886355947
2727.0,0.12977172098820566
2726.0,0.12983027886355947
2725.0,0.12994741830645506
2724.0,0.13012318673323353
2723.0,0.1302990263261221
2722.0,0.1304749371427727
2721.0,0.1305922506177981
2720.0,0.1306509192409071
2719.0,0.1305922506177981
2718.0,0.13053358991913355
2717.0,0.13041629228657614
2716.0,0.13041629228657614
2715.0,0.13041629228657614
2714.0,0.13041629228657614
2713.0,0.13041629228657614
2712.0,0.1302990263261221
2711.0,0.1302990263261221
2710.0,0.13035765534840538
2709.0,0.13041629228657614
2708.0,0.13035765534840538
2707.0,0.13018179202067182
2706.0,0.12994741830645506
2705.0,0.12983027886355947
2704.0,0.12988884463559924
2703.0,0.13000599987825812
2702.0,0.13024040521758962
2701.0,0.13041629228657614
2700.0,0.1304749371427727
2699.0,0.13035765534840538
2698.0,0.13018179202067182
2697.0,0.12994741830645506
2696.0,0.12977172098820566
2695.0,0.12977172098820566
2694.0,0.12988884463559924
2693.0,0.13000599987825812
2692.0,0.13000599987825812
2691.0,0.12983027886355947
2690.0,0.12965462891904034
2689.0,0.1295960947209729
2688.0,0.12971317100740865
2687.0,0.12983027886355947
2686.0,0.12988884463559924
2685.0,0.12983027886355947
2684.0,0.12977172098820566
2683.0,0.12988884463559924
2682.0,0.13006458935314003
2681.0,0.13024040521758962
2680.0,0.1302990263261221
2679.0,0.13035765534840538
2678.0,0.13041629228657614
2677.0,0.13041629228657614
2676.0,0.13041629228657614
2675.0,0.1304749371427727
2674.0,0.13053358991913355
2673.0,0.1305922506177981
2672.0,0.1305922506177981
2671.0,0.1304749371427727
2670.0,0.1302990263261221
2669.0,0.13006458935314003
2668.0,0.12988884463559924
2667.0,0.12977172098820566
2666.0,0.12983027886355947
2665.0,0.12994741830645506
2664.0,0.13012318673323353
2663.0,0.1302990263261221
2662.0,0.13035765534840538
2661.0,0.13035765534840538
2660.0,0.13035765534840538
2659.0,0.13041629228657614
2658.0,0.13041629228657614
2657.0,0.13041629228657614
2656.0,0.13035765534840538
2655.0,0.13024040521758962
2654.0,0.13024040521758962
2653.0,0.13024040521758962
2652.0,0.13024040521758962
2651.0,0.13024040521758962
2650.0,0.13018179202067182
2649.0,0.13006458935314003
2648.0,0.13000599987825812
2647.0,0.13000599987825812
2646.0,0.13006458935314003
2645.0,0.13012318673323353
2644.0,0.13018179202067182
2643.0,0.13035765534840538
2642.0,0.1305922506177981
2641.0,0.13076828026902376
2640.0,0.1308269726783169
2639.0,0.1308856730206247
2638.0,0.1308856730206247
2637.0,0.1308856730206247
2636.0,0.13076828026902376
2635.0,0.1306509192409071
2634.0,0.1305922506177981
2633.0,0.13070959579060148
2632.0,0.1308856730206247
2631.0,0.13100309751286465
2630.0,0.1311205537629121
2629.0,0.1311792938024825
2628.0,0.13123804178794973
2627.0,0.13123804178794973
2626.0,0.1312967977214634
2625.0,0.1312967977214634
2624.0,0.13135556160517425
2623.0,0.1312967977214634
2622.0,0.13123804178794973
2621.0,0.1312967977214634
2620.0,0.1314731132317961
2619.0,0.13159069668503998
2618.0,0.1316495003520317
2617.0,0.1314731132317961
2616.0,0.1311792938024825
2615.0,0.13094438129809216
2614.0,0.1308856730206247
2613.0,0.13094438129809216
2612.0,0.1311205537629121
2611.0,0.13123804178794973
2610.0,0.13141433344123432
2609.0,0.1314731132317961
2608.0,0.13159069668503998
2607.0,0.13159069668503998
2606.0,0.13153190097901324
2605.0,0.1314731132317961
2604.0,0.1312967977214634
2603.0,0.13123804178794973
2602.0,0.13123804178794973
2601.0,0.1312967977214634
2600.0,0.13135556160517425
2599.0,0.1312967977214634
2598.0,0.13135556160517425
2597.0,0.13141433344123432
2596.0,0.13159069668503998
2595.0,0.13176713157753506
2594.0,0.13194363817695853
2593.0,0.13200248965504868
2592.0,0.1320613491092153
2591.0,0.1320613491092153
2590.0,0.1320613491092153
2589.0,0.132179091954427
2588.0,0.1322379753497993
2587.0,0.13235576609690147
2586.0,0.13241467345296387
2585.0,0.1325325121409484
2584.0,0.13259144347720886
2583.0,0.13265038281120756
2582.0,0.13259144347720886
2581.0,0.13247358880025661
2580.0,0.13241467345296387
2579.0,0.13235576609690147
2578.0,0.13247358880025661
2577.0,0.13270933014511588
2576.0,0.13282724882135022
2575.0,0.13288622016802298
2574.0,0.13276828548110586
2573.0,0.13265038281120756
2572.0,0.1325325121409484
2571.0,0.13247358880025661
2570.0,0.13247358880025661
2569.0,0.1325325121409484
2568.0,0.13259144347720886
2567.0,0.1325325121409484
2566.0,0.1325325121409484
2565.0,0.1325325121409484
2564.0,0.13265038281120756
2563.0,0.13282724882135022
2562.0,0.13306318226836056
2561.0,0.13318119707395182
2560.0,0.13329924395750092
2559.0,0.13335827943396006
2558.0,0.13329924395750092
2557.0,0.13318119707395182
2556.0,0.13306318226836056
2555.0,0.13294519952329842
2554.0,0.13300418688935212
2553.0,0.13318119707395182
2552.0,0.13341732293645103
2551.0,0.13365357725039817
2550.0,0.13388996015562338
2549.0,0.1340081998737246
2548.0,0.1340081998737246
2547.0,0.13388996015562338
2546.0,0.13371266091580503
2545.0,0.13359450162194508
2544.0,0.13359450162194508
2543.0,0.13365357725039817
2542.0,0.13371266091580503
2541.0,0.1337717526203528
2540.0,0.1337717526203528
2539.0,0.13383085236622927
2538.0,0.13394907599072514
2537.0,0.13406733180681396
2536.0,0.13424477592854833
2535.0,0.13436311230037123
2534.0,0.13430394008392943
2533.0,0.1341264717921853
2532.0,0.1340081998737246
2531.0,0.13394907599072514
2530.0,0.13394907599072514
2529.0,0.13406733180681396
2528.0,0.13418561983203192
2527.0,0.13424477592854833
2526.0,0.13430394008392943
2525.0,0.13436311230037123
2524.0,0.13430394008392943
2523.0,0.13418561983203192
2522.0,0.1340081998737246
2521.0,0.13388996015562338
2520.0,0.13394907599072514
2519.0,0.1341264717921853
2518.0,0.13442229258007088
2517.0,0.13471831500438958
2516.0,0.13477754370982087
2515.0,0.13477754370982087
2514.0,0.13471831500438958
2513.0,0.13477754370982087
2512.0,0.13483678049391368
2511.0,0.13483678049391368
2510.0,0.13477754370982087
2509.0,0.1345998818206986
2508.0,0.13442229258007088
2507.0,0.13430394008392943
2506.0,0.13430394008392943
2505.0,0.13436311230037123
2504.0,0.13442229258007088
2503.0,0.13448148092522594
2502.0,0.13454067733803532
2501.0,0.13454067733803532
2500.0,0.13454067733803532
2499.0,0.1345998818206986
2498.0,0.134659094375416
2497.0,0.13471831500438958
2496.0,0.13471831500438958
2495.0,0.13471831500438958
2494.0,0.13477754370982087
2493.0,0.13489602535887202
2492.0,0.1349552783069008
2491.0,0.13501453934020602
2490.0,0.1350738084609946
2489.0,0.1350738084609946
2488.0,0.1349552783069008
2487.0,0.13477754370982087
2486.0,0.1345998818206986
2485.0,0.13442229258007088
2484.0,0.13430394008392943
2483.0,0.13424477592854833
2482.0,0.13424477592854833
2481.0,0.13436311230037123
2480.0,0.13448148092522594
2479.0,0.13454067733803532
2478.0,0.1345998818206986
2477.0,0.13454067733803532
2476.0,0.13448148092522594
2475.0,0.13448148092522594
2474.0,0.13448148092522594
2473.0,0.13448148092522594
2472.0,0.13436311230037123
2471.0,0.13424477592854833
2470.0,0.13406733180681396
2469.0,0.13406733180681396
2468.0,0.13418561983203192
2467.0,0.13430394008392943
2466.0,0.13448148092522594
2465.0,0.1345998818206986
2464.0,0.1345998818206986
2463.0,0.13454067733803532
2462.0,0.13436311230037123
2461.0,0.13424477592854833
2460.0,0.1341264717921853
2459.0,0.1341264717921853
2458.0,0.13406733180681396
2457.0,0.1341264717921853
2456.0,0.1341264717921853
2455.0,0.13424477592854833
2454.0,0.13430394008392943
2453.0,0.13424477592854833
2452.0,0.1341264717921853
2451.0,0.13406733180681396
2450.0,0.1340081998737246
2449.0,0.13406733180681396
2448.0,0.13418561983203192
2447.0,0.13424477592854833
2446.0,0.13424477592854833
2445.0,0.13418561983203192
2444.0,0.1340081998737246
2443.0,0.1337717526203528
2442.0,0.13353543402825974
2441.0,0.13341732293645103
2440.0,0.13347637446715632
2439.0,0.13359450162194508
2438.0,0.13371266091580503
2437.0,0.1337717526203528
2436.0,0.13383085236622927
2435.0,0.13394907599072514
2434.0,0.13418561983203192
2433.0,0.13442229258007088
2432.0,0.13471831500438958
2431.0,0.1349552783069008
2430.0,0.13501453934020602
2429.0,0.1349552783069008
2428.0,0.13489602535887202
2427.0,0.13483678049391368
2426.0,0.13483678049391368
2425.0,0.13489602535887202
2424.0,0.13489602535887202
2423.0,0.13483678049391368
2422.0,0.13477754370982087
2421.0,0.13471831500438958
2420.0,0.134659094375416
2419.0,0.1345998818206986
2418.0,0.1345998818206986
2417.0,0.134659094375416
2416.0,0.13477754370982087
2415.0,0.13489602535887202
2414.0,0.13501453934020602
2413.0,0.13513308567147386
2412.0,0.13519237097385295
2411.0,0.13519237097385295
2410.0,0.13519237097385295
2409.0,0.13513308567147386
2408.0,0.1350738084609946
2407.0,0.1349552783069008
2406.0,0.1349552783069008
2405.0,0.13501453934020602
2404.0,0.13513308567147386
2403.0,0.13519237097385295
2402.0,0.1352516643703412
2401.0,0.13531096586314884
2400.0,0.13542959314656988
2399.0,0.13542959314656988
2398.0,0.13554825284181704
2397.0,0.13566694496660703
2396.0,0.13578566953867033
2395.0,0.13578566953867033
2394.0,0.13566694496660703
2393.0,0.13554825284181704
2392.0,0.1354889189416082
2391.0,0.13566694496660703
2390.0,0.13584504399797437
2389.0,0.13596381727422502
2388.0,0.13596381727422502
2387.0,0.13584504399797437
2386.0,0.13572630319562085
2385.0,0.13554825284181704
2384.0,0.13537027545448765
2383.0,0.13513308567147386
2382.0,0.13483678049391368
2381.0,0.13448148092522594
2380.0,0.13418561983203192
2379.0,0.13383085236622927
2378.0,0.13347637446715632
2377.0,0.13300418688935212
2376.0,0.13247358880025661
2375.0,0.13212021654162043
2374.0,0.13212021654162043
2373.0,0.13247358880025661
2372.0,0.13288622016802298
2371.0,0.13324021650489182
2370.0,0.13353543402825974
2369.0,0.13383085236622927
2368.0,0.13418561983203192
2367.0,0.13442229258007088
2366.0,0.13454067733803532
2365.0,0.13406733180681396
2364.0,0.13276828548110586
2363.0,0.1311792938024825
2362.0,0.13053358991913355
2361.0,0.13141433344123432
2360.0,0.13383085236622927
2359.0,0.13697470377052956
2358.0,0.13912320359670227
2357.0,0.13930272594796111
2356.0,0.13763006287711765
2355.0,0.13572630319562085
2354.0,0.13501453934020602
2353.0,0.13596381727422502
2352.0,0.13792828062000573
2351.0,0.1402014525194344
2350.0,0.1430899396992138
2349.0,0.14575470293388149
2348.0,0.1461193498754576
2347.0,0.14296920172737604
2346.0,0.13715334001706125
2345.0,0.1320613491092153
2344.0,0.12977172098820566
2343.0,0.13035765534840538
2342.0,0.1318847946727828
2341.0,0.13265038281120756
2340.0,0.13259144347720886
2339.0,0.13200248965504868
2338.0,0.1318847946727828
2337.0,0.13241467345296387
2336.0,0.13347637446715632
2335.0,0.13406733180681396
2334.0,0.13388996015562338
2333.0,0.13294519952329842
2332.0,0.13194363817695853
2331.0,0.13106182166708868
2330.0,0.1308856730206247
2329.0,0.1311205537629121
2328.0,0.13200248965504868
2327.0,0.13341732293645103
2326.0,0.13454067733803532
2325.0,0.13501453934020602
2324.0,0.134659094375416
2323.0,0.13424477592854833
2322.0,0.13424477592854833
2321.0,0.13442229258007088
2320.0,0.1345998818206986
2319.0,0.134659094375416
2318.0,0.13501453934020602
2317.0,0.13554825284181704
2316.0,0.1360232160956132
2315.0,0.1360826230421397
2314.0,0.13578566953867033
2313.0,0.13531096586314884
2312.0,0.1350738084609946
2311.0,0.13531096586314884
2310.0,0.13572630319562085
2309.0,0.136142038116027
2308.0,0.13632033212410222
2307.0,0.13643923547375736
2306.0,0.13643923547375736
2305.0,0.13643923547375736
2304.0,0.13626089265478303
2303.0,0.1360826230421397
2302.0,0.13590442657575252
2301.0,0.13590442657575252
2300.0,0.1360232160956132
2299.0,0.13626089265478303
2298.0,0.13643923547375736
2297.0,0.13655817138629134
2296.0,0.13655817138629134
2295.0,0.13649869935854997
2294.0,0.13655817138629134
2293.0,0.1366771398795441
2292.0,0.13673663634951905
2291.0,0.13673663634951905
2290.0,0.13673663634951905
2289.0,0.1367961409713705
2288.0,0.13685565374733244
2287.0,0.13697470377052956
2286.0,0.13697470377052956
2285.0,0.13685565374733244
2284.0,0.1366771398795441
2283.0,0.13661765155921235
2282.0,0.13655817138629134
2281.0,0.13655817138629134
2280.0,0.13655817138629134
2279.0,0.13655817138629134
2278.0,0.13649869935854997
2277.0,0.13649869935854997
2276.0,0.13643923547375736
2275.0,0.13632033212410222
2274.0,0.13620146131949973
2273.0,0.1360232160956132
2272.0,0.13584504399797437
2271.0,0.13578566953867033
2270.0,0.13578566953867033
2269.0,0.13566694496660703
2268.0,0.13554825284181704
2267.0,0.1354889189416082
2266.0,0.13554825284181704
2265.0,0.13584504399797437
2264.0,0.1360826230421397
2263.0,0.13626089265478303
2262.0,0.13626089265478303
2261.0,0.136142038116027
2260.0,0.1360232160956132
2259.0,0.13596381727422502
2258.0,0.13596381727422502
2257.0,0.13596381727422502
2256.0,0.13584504399797437
2255.0,0.13572630319562085
2254.0,0.13560759484941132
2253.0,0.13554825284181704
2252.0,0.13554825284181704
2251.0,0.13554825284181704
2250.0,0.13560759484941132
2249.0,0.13560759484941132
2248.0,0.13566694496660703
2247.0,0.13578566953867033
2246.0,0.13584504399797437
2245.0,0.13590442657575252
2244.0,0.13584504399797437
2243.0,0.13566694496660703
2242.0,0.13554825284181704
2241.0,0.1354889189416082
2240.0,0.13554825284181704
2239.0,0.13560759484941132
2238.0,0.13578566953867033
2237.0,0.13590442657575252
2236.0,0.13590442657575252
2235.0,0.13578566953867033
2234.0,0.13554825284181704
2233.0,0.13537027545448765
2232.0,0.1352516643703412
2231.0,0.1352516643703412
2230.0,0.13537027545448765
2229.0,0.13542959314656988
2228.0,0.13542959314656988
2227.0,0.13542959314656988
2226.0,0.13542959314656988
2225.0,0.13554825284181704
2224.0,0.13560759484941132
2223.0,0.13560759484941132
2222.0,0.13554825284181704
2221.0,0.13542959314656988
2220.0,0.13531096586314884
2219.0,0.13519237097385295
2218.0,0.13501453934020602
2217.0,0.13489602535887202
2216.0,0.13477754370982087
2215.0,0.13477754370982087
2214.0,0.13477754370982087
2213.0,0.13477754370982087
2212.0,0.13483678049391368
2211.0,0.1349552783069008
2210.0,0.13501453934020602
2209.0,0.13501453934020602
2208.0,0.13501453934020602
2207.0,0.1350738084609946
2206.0,0.13501453934020602
2205.0,0.13489602535887202
2204.0,0.13477754370982087
2203.0,0.13477754370982087
2202.0,0.13489602535887202
2201.0,0.13501453934020602
2200.0,0.1350738084609946
2199.0,0.1349552783069008
2198.0,0.13471831500438958
2197.0,0.13448148092522594
2196.0,0.13436311230037123
2195.0,0.13436311230037123
2194.0,0.13448148092522594
2193.0,0.13454067733803532
2192.0,0.13448148092522594
2191.0,0.13436311230037123
2190.0,0.13430394008392943
2189.0,0.13430394008392943
2188.0,0.13436311230037123
2187.0,0.13436311230037123
2186.0,0.13442229258007088
2185.0,0.13448148092522594
2184.0,0.1345998818206986
2183.0,0.13471831500438958
2182.0,0.134659094375416
2181.0,0.13442229258007088
2180.0,0.1341264717921853
2179.0,0.13388996015562338
2178.0,0.1337717526203528
2177.0,0.13383085236622927
2176.0,0.13388996015562338
2175.0,0.1340081998737246
2174.0,0.13418561983203192
2173.0,0.13430394008392943
2172.0,0.13436311230037123
2171.0,0.13430394008392943
2170.0,0.13418561983203192
2169.0,0.1341264717921853
2168.0,0.1341264717921853
2167.0,0.13418561983203192
2166.0,0.13430394008392943
2165.0,0.13436311230037123
2164.0,0.13436311230037123
2163.0,0.13424477592854833
2162.0,0.1341264717921853
2161.0,0.13406733180681396
2160.0,0.13406733180681396
2159.0,0.13406733180681396
2158.0,0.1341264717921853
2157.0,0.13430394008392943
2156.0,0.13442229258007088
2155.0,0.13454067733803532
2154.0,0.1345998818206986
2153.0,0.13454067733803532
2152.0,0.13448148092522594
2151.0,0.13442229258007088
2150.0,0.13436311230037123
2149.0,0.13430394008392943
2148.0,0.13430394008392943
2147.0,0.13430394008392943
2146.0,0.13442229258007088
2145.0,0.134659094375416
2144.0,0.13477754370982087
2143.0,0.13489602535887202
2142.0,0.13483678049391368
2141.0,0.13471831500438958
2140.0,0.13454067733803532
2139.0,0.13430394008392943
2138.0,0.1341264717921853
2137.0,0.13406733180681396
2136.0,0.1341264717921853
2135.0,0.13424477592854833
2134.0,0.13436311230037123
2133.0,0.13448148092522594
2132.0,0.13448148092522594
2131.0,0.13442229258007088
2130.0,0.13430394008392943
2129.0,0.13424477592854833
2128.0,0.13424477592854833
2127.0,0.13418561983203192
2126.0,0.1341264717921853
2125.0,0.13418561983203192
2124.0,0.13418561983203192
2123.0,0.13430394008392943
2122.0,0.13436311230037123
2121.0,0.13442229258007088
2120.0,0.13442229258007088
2119.0,0.13430394008392943
2118.0,0.13418561983203192
2117.0,0.13406733180681396
2116.0,0.1340081998737246
2115.0,0.13394907599072514
2114.0,0.13406733180681396
2113.0,0.13418561983203192
2112.0,0.13430394008392943
2111.0,0.13424477592854833
2110.0,0.13418561983203192
2109.0,0.1341264717921853
2108.0,0.13406733180681396
2107.0,0.1340081998737246
2106.0,0.1340081998737246
2105.0,0.1340081998737246
2104.0,0.13394907599072514
2103.0,0.13394907599072514
2102.0,0.1340081998737246
2101.0,0.1341264717921853
2100.0,0.13424477592854833
2099.0,0.13430394008392943
2098.0,0.13424477592854833
2097.0,0.1341264717921853
2096.0,0.1340081998737246
2095.0,0.13388996015562338
2094.0,0.13383085236622927
2093.0,0.13383085236622927
2092.0,0.1337717526203528
2091.0,0.1337717526203528
2090.0,0.1337717526203528
2089.0,0.13371266091580503
2088.0,0.13371266091580503
2087.0,0.13365357725039817
2086.0,0.13359450162194508
2085.0,0.13347637446715632
2084.0,0.13341732293645103
2083.0,0.13329924395750092
2082.0,0.13324021650489182
2081.0,0.1331221856625011
2080.0,0.1331221856625011
2079.0,0.1331221856625011
2078.0,0.13306318226836056
2077.0,0.13306318226836056
2076.0,0.13300418688935212
2075.0,0.13294519952329842
2074.0,0.13294519952329842
2073.0,0.13294519952329842
2072.0,0.13282724882135022
2071.0,0.13265038281120756
2070.0,0.1325325121409484
2069.0,0.13247358880025661
2068.0,0.13241467345296387
2067.0,0.13241467345296387
2066.0,0.13235576609690147
2065.0,0.1322379753497993
2064.0,0.132179091954427
2063.0,0.1320613491092153
2062.0,0.13194363817695853
2061.0,0.13176713157753506
2060.0,0.13153190097901324
2059.0,0.13135556160517425
2058.0,0.1312967977214634
2057.0,0.13123804178794973
2056.0,0.1311205537629121
2055.0,0.13100309751286465
2054.0,0.1308856730206247
2053.0,0.13076828026902376
2052.0,0.1306509192409071
2051.0,0.13053358991913355
2050.0,0.1304749371427727
2049.0,0.13041629228657614
2048.0,0.13041629228657614
2047.0,0.1304749371427727
2046.0,0.13041629228657614
2045.0,0.1302990263261221
2044.0,0.13012318673323353
2043.0,0.12994741830645506
2042.0,0.12983027886355947
2041.0,0.12977172098820566
2040.0,0.12977172098820566
2039.0,0.12977172098820566
2038.0,0.12965462891904034
2037.0,0.12953756841108
2036.0,0.1294790499872358
2035.0,0.12953756841108
2034.0,0.12965462891904034
2033.0,0.12971317100740865
2032.0,0.1295960947209729
2031.0,0.12924505510985984
2030.0,0.12895273869450063
2029.0,0.12877744324029283
2028.0,0.12877744324029283
2027.0,0.12883586719705065
2026.0,0.12889429901441463
2025.0,0.12895273869450063
2024.0,0.12883586719705065
2023.0,0.1287190271420271
2022.0,0.1286022185125162
2021.0,0.12854382597704617
2020.0,0.1284854412916181
2019.0,0.12854382597704617
2018.0,0.1286022185125162
2017.0,0.12866061890013913
2016.0,0.1287190271420271
2015.0,0.1287190271420271
2014.0,0.12866061890013913
2013.0,0.12854382597704617
2012.0,0.1284854412916181
2011.0,0.1283103343144847
2010.0,0.1281352979118051
2009.0,0.12790202572577325
2008.0,0.12778543660241448
2007.0,0.12784372725170723
2006.0,0.12796033202671375
2005.0,0.1280769681176266
2004.0,0.1280769681176266
2003.0,0.1280186461566306
2002.0,0.12784372725170723
2001.0,0.12761061158217912
2000.0,0.12737762097471172
1999.0,0.12726117252733116
1998.0,0.12726117252733116
1997.0,0.12731939284807026
1996.0,0.12737762097471172
1995.0,0.1275523522109867
1994.0,0.12778543660241448
1993.0,0.12784372725170723
1992.0,0.1277271537757949
1991.0,0.12761061158217912
1990.0,0.12749410065407507
1989.0,0.12743585690934855
1988.0,0.12737762097471172
1987.0,0.12731939284807026
1986.0,0.12726117252733116
1985.0,0.12714475529518965
1984.0,0.12702836926155658
1983.0,0.12697018793895576
1982.0,0.12702836926155658
1981.0,0.1270865583796048
1980.0,0.1270865583796048
1979.0,0.12702836926155658
1978.0,0.12685384867174432
1977.0,0.12667939818460128
1976.0,0.12650501774383094
1975.0,0.12650501774383094
1974.0,0.12656313677796316
1973.0,0.12667939818460128
1972.0,0.12667939818460128
1971.0,0.126621263590859
1970.0,0.12656313677796316
1969.0,0.12650501774383094
1968.0,0.12650501774383094
1967.0,0.12656313677796316
1966.0,0.1267375405612734
1965.0,0.12679569072295926
1964.0,0.12667939818460128
1963.0,0.12656313677796316
1962.0,0.12656313677796316
1961.0,0.126621263590859
1960.0,0.12679569072295926
1959.0,0.1270865583796048
1958.0,0.12726117252733116
1957.0,0.12737762097471172
1956.0,0.12743585690934855
1955.0,0.12749410065407507
1954.0,0.1275523522109867
1953.0,0.12761061158217912
1952.0,0.12761061158217912
1951.0,0.12761061158217912
1950.0,0.1276688787697493
1949.0,0.1277271537757949
1948.0,0.1277271537757949
1947.0,0.1276688787697493
1946.0,0.1277271537757949
1945.0,0.1277271537757949
1944.0,0.1277271537757949
1943.0,0.1276688787697493
1942.0,0.12761061158217912
1941.0,0.12743585690934855
1940.0,0.12714475529518965
1939.0,0.12679569072295926
1938.0,0.12656313677796316
1937.0,0.12638880300353272
1936.0,0.12627261935332057
1935.0,0.1260984021355387
1934.0,0.12592425477696523
1933.0,0.12569216687196105
1932.0,0.12534426740189897
1931.0,0.124996646399959
1930.0,0.12464930342071079
1929.0,0.12436006299583169
1928.0,0.12401322857151209
1927.0,0.12372441132212098
1926.0,0.12343578601615435
1925.0,0.12314735239865637
1924.0,0.12285911021517903
1923.0,0.12268625668776156
1922.0,0.12268625668776156
1921.0,0.12274386688641381
1920.0,0.12257105921178035
1919.0,0.12216810850710624
1918.0,0.12170805075020397
1917.0,0.12142076193778073
1916.0,0.1213058996038916
1915.0,0.12124847982699793
1914.0,0.12107626603243293
1913.0,0.1207320431753871
1912.0,0.1203880929341492
1911.0,0.1201016756699902
1910.0,0.1199871616332282
1909.0,0.11992991593593283
1908.0,0.11981544717356662
1907.0,0.11952940719622163
1906.0,0.11924355548978971
1905.0,0.1190150095132465
1904.0,0.11872949607064243
1903.0,0.11844417020668851
1902.0,0.11821604440661537
1901.0,0.11810202642698875
1900.0,0.11787408022996826
1899.0,0.1175323851046286
1898.0,0.1170772093974013
1897.0,0.116736140415026
1896.0,0.11645212073195621
1895.0,0.11622503864474187
1894.0,0.11599807523121286
1893.0,0.11577123036739612
1892.0,0.11543118508166672
1891.0,0.1149782051377024
1890.0,0.11458223488906394
1889.0,0.11441264381034388
1888.0,0.11435612816423602
1887.0,0.11424311893073247
1886.0,0.11401718864502697
1885.0,0.11367851344052027
1884.0,0.11328372588352176
1883.0,0.1128329791052256
1882.0,0.11249522576462212
1881.0,0.11215773489264302
1880.0,0.11182050608167504
1879.0,0.1114835389250548
1878.0,0.11120293254331926
1877.0,0.11097857790477517
1876.0,0.11075433910702048
1875.0,0.11053021603049262
1874.0,0.11019424813191447
1873.0,0.10997041383658313
1872.0,0.10969078310005154
1871.0,0.10935546370475246
1870.0,0.10879717273970457
1869.0,0.1081838804751396
1868.0,0.10784972209863586
1867.0,0.10779405402422748
1866.0,0.10779405402422748
1865.0,0.10762709260156367
1864.0,0.10729336219433439
1863.0,0.10684878687013422
1862.0,0.1063491830140364
1861.0,0.10601643278815298
1860.0,0.10573933555301185
1859.0,0.10546241500425357
1858.0,0.10507502264045665
1857.0,0.1047432468551055
1856.0,0.10435649517592083
1855.0,0.10402526764093545
1854.0,0.10374943753836186
1853.0,0.10347378251044459
1852.0,0.10319830233507843
1851.0,0.10292299679057959
1850.0,0.10259286033841963
1849.0,0.1022080180607754
1848.0,0.10187842445889239
1847.0,0.10165883427249067
1846.0,0.10154908080162528
1845.0,0.10100072911021085
1844.0,0.10017949757290379
1843.0,0.09957824654226233
1842.0,0.09941441335003853
1841.0,0.09952362861074304
1840.0,0.09957824654226233
1839.0,0.09946901754724413
1838.0,0.09925064193892053
1837.0,0.0990869322623309
1836.0,0.09886874864462802
1835.0,0.09854167860388774
1834.0,0.09821485469640057
1833.0,0.09799710864927058
1832.0,0.09783387072894878
1831.0,0.09750757884139638
1830.0,0.09707290398273716
1829.0,0.09674718310604158
1828.0,0.09653017149282994
1827.0,0.09636748391576244
1826.0,0.09604229147682952
1825.0,0.0955549589230904
1824.0,0.09517630019905599
1823.0,0.09496007192378841
1822.0,0.09474395125154866
1821.0,0.09447395156495153
1820.0,0.09398837472858723
1819.0,0.09339562827501968
1818.0,0.09274991711867164
1817.0,0.09205147838772776
1816.0,0.09140776115243066
1815.0,0.0908185240221473
1814.0,0.09028354676565531
1813.0,0.08985603893548699
1812.0,0.08942895151874142
1811.0,0.08884239126002336
1810.0,0.0881502035005799
1809.0,0.08735289378168276
1808.0,0.08655704514060414
1807.0,0.08576265223225898
1806.0,0.08502252755566908
1805.0,0.08433639649422697
1804.0,0.08365134772453975
1803.0,0.08296737783760655
1802.0,0.08228448344050654
1801.0,0.08144546944972642
1800.0,0.08066036321258663
1799.0,0.07987667370927598
1798.0,0.07914650387874067
1797.0,0.07857365898473456
1796.0,0.07800156869172903
1795.0,0.07753405470158659
1794.0,0.07680780957933253
1793.0,0.0756173227980268
1792.0,0.07406940213152868
1791.0,0.07273231918911849
1790.0,0.0718090519612431
1789.0,0.07124579782334672
1788.0,0.07073438174693436
1787.0,0.07012147634321675
1786.0,0.06925467168888666
1785.0,0.0680846829187538
1784.0,0.06681652082538614
1783.0,0.0658551882075229
1782.0,0.06504729218214189
1781.0,0.06393888339001164
1780.0,0.06258241852286206
1779.0,0.06133019897732073
1778.0,0.06038092104330195
1777.0,0.05953332233647113
1776.0,0.05868737463933793
1775.0,0.05804158346918653
1774.0,0.05729763111133224
1773.0,0.05561604235915585
1772.0,0.05295859474477971
1771.0,0.05065879322950262
1770.0,0.049294465226138895
1769.0,0.04827402457540786
1768.0,0.04682039893436585
1767.0,0.04508244626504121
1766.0,0.04363944632667782
1765.0,0.042775942156833
1764.0,0.042057664554595586
1763.0,0.04076775094900409
1762.0,0.03857890593355173
1761.0,0.03616496929785207
1760.0,0.034516075754861264
1759.0,0.03399914237121604
1758.0,0.0338113190438627
1757.0,0.032920265855503006
1756.0,0.031563752288295444
1755.0,0.030863766403287585
1754.0,0.031236951802751545
1753.0,0.03207779326948268
1752.0,0.03249882527715853
1751.0,0.03273290844021437
1750.0,0.03357665405630694
1749.0,0.03541041251009669
1748.0,0.03810452633214956
1747.0,0.04181850243505214
1746.0,0.04653025674659861
1745.0,0.05207638016827354
1744.0,0.058836539841526925
1743.0,0.06712054217620067
1742.0,0.0763933569825408
1741.0,0.08634506491338012
1740.0,0.09772507952549825
1739.0,0.11120293254331926
1738.0,0.12517042212027807
1737.0,0.1373320497714121
1736.0,0.1482525808667361
1735.0,0.16039627052916305
1734.0,0.17815907279954568
1733.0,0.200246033588114
1732.0,0.21910689131292105
1731.0,0.23455498190985002
1730.0,0.25026368443093894
1729.0,0.26736503246080434
1728.0,0.28533500713746296
1727.0,0.30294510772742567
1726.0,0.32020882901964565
1725.0,0.3377144842778699
1724.0,0.3565473235138126
1723.0,0.37675070960209944
1722.0,0.39653084026616114
1721.0,0.41408828968056577
1720.0,0.42910696378160784
1719.0,0.4432152176929747
1718.0,0.45942028349554564
1717.0,0.478992747591396
1716.0,0.4968905633286307
1715.0,0.5094796906366512
1714.0,0.5181275896893365
1713.0,0.5236031732746698
1712.0,0.5256380239673693
1711.0,0.5249101966109935
1710.0,0.5218665718994824
1709.0,0.5169835798558677
1708.0,0.5104633705179045
1707.0,0.5021032570867798
1706.0,0.4914702810287135
1705.0,0.47951646725920805
1704.0,0.4692881620183431
1703.0,0.46167766676856004
1702.0,0.45432185020797444
1701.0,0.44273347113009587
1700.0,0.4266641599339325
1699.0,0.4134126953282451
1698.0,0.40604970473601254
1697.0,0.39968067024833887
1696.0,0.39083262569798016
1695.0,0.3805935891132226
1694.0,0.3725317275402904
1693.0,0.36693572730850077
1692.0,0.36211018341920953
1691.0,0.3565473235138126
1690.0,0.3503731131594705
1689.0,0.34438141645877796
1688.0,0.3397038397292702
1687.0,0.3360165453917334
1686.0,0.33208031468263854
1685.0,0.3264262035769485
1684.0,0.32011805788713765
1683.0,0.3163227011813081
1682.0,0.31425826139773627
1681.0,0.31202537996544444
1680.0,0.3093609882840327
1679.0,0.3064489144040865
1678.0,0.30355623686100075
1677.0,0.3005091547277956
1676.0,0.2967946293045136
1675.0,0.2929410593724038
1674.0,0.2898826348881838
1673.0,0.2874344721266917
1672.0,0.28516748756666743
1671.0,0.2824127031445396
1670.0,0.2793446434482756
1669.0,0.27646223846794316
1668.0,0.2740883677049517
1667.0,0.2719710455794817
1666.0,0.26978315943130604
1665.0,0.26736503246080434
1664.0,0.2645607967485186
1663.0,0.2613779720820575
1662.0,0.2586907911004306
1661.0,0.25649023527157033
1660.0,0.25430077339749424
1659.0,0.25219990913563106
1658.0,0.2500319164905971
1657.0,0.24787469270210183
1656.0,0.24595761321456378
1655.0,0.2439727870265589
1654.0,0.2404832405378119
1653.0,0.23732143627256375
1652.0,0.23627259623430175
1651.0,0.23522628308895954
1650.0,0.2344059446805551
1649.0,0.2336615247487126
1648.0,0.2321023839819094
1647.0,0.2302535328205466
1646.0,0.2290743853610009
1645.0,0.22811867980990108
1644.0,0.2267256516625462
1643.0,0.22533707746217768
1642.0,0.22417118553538762
1641.0,0.22300841514359493
1640.0,0.22177637323390353
1639.0,0.22054781659593825
1638.0,0.2192507688964478
1637.0,0.21759904750347014
1636.0,0.21602499658732888
1635.0,0.21545402594547736
1634.0,0.21502629004559926
1633.0,0.21424320003735708
1632.0,0.21339052735134012
1631.0,0.21232703531250707
1630.0,0.21119550695535172
1629.0,0.20999647960951062
1628.0,0.2089412564081745
1627.0,0.20809891999042884
1626.0,0.20732821085843267
1625.0,0.206349282292827
1624.0,0.20509389348319607
1623.0,0.2040505010971967
1622.0,0.20342566678957041
1621.0,0.2028710122034474
1620.0,0.20210951694165114
1619.0,0.20141840527145227
1618.0,0.20072839165012724
1617.0,0.200521601162019
1616.0,0.20141840527145227
1615.0,0.20259395032361804
1614.0,0.20328693671910347
1613.0,0.2036338450224786
1612.0,0.20349504844670374
1611.0,0.20307892466983124
1610.0,0.20266319922465015
1609.0,0.20210951694165114
1608.0,0.20121128604875071
1607.0,0.20003947259401644
1606.0,0.19887081242029603
1605.0,0.1976368256904526
1604.0,0.19633807676377568
1603.0,0.19517932127883775
1602.0,0.1940236492824372
1601.0,0.1928033392890527
1600.0,0.19145144875959463
1599.0,0.19010375339756092
1598.0,0.18889439298206967
1597.0,0.18775530319963063
1596.0,0.1866191932661443
1595.0,0.1854860476317619
1594.0,0.18455508375564977
1593.0,0.18362611124763806
1592.0,0.1827652695745019
1591.0,0.18190613085336405
1590.0,0.18111458540599013
1589.0,0.18045606445813123
1588.0,0.17973284283903546
1587.0,0.17901082358395048
1586.0,0.1785519809824696
1585.0,0.1784864715952268
1584.0,0.1789452449531117
1583.0,0.18025870272698952
1582.0,0.18256685588861554
1581.0,0.18541948398968144
1580.0,0.1885590563258419
1579.0,0.19151894343404896
1578.0,0.1940236492824372
1577.0,0.19551981089400727
1576.0,0.1962698290254561
1575.0,0.1962698290254561
1574.0,0.19551981089400727
1573.0,0.1941594511853273
1572.0,0.19266796070880954
1571.0,0.19064232978889417
1570.0,0.188357978546849
1569.0,0.1862189218259176
1568.0,0.18455508375564977
1567.0,0.1832285876666535
1566.0,0.1821703002543944
1565.0,0.18111458540599013
1564.0,0.17986424812957003
1563.0,0.17901082358395048
1562.0,0.17829000270162365
1561.0,0.17743966305730785
1560.0,0.17483362774345035
1559.0,0.1724368887452763
1558.0,0.173212761183708
1557.0,0.1730833528150797
1556.0,0.17192040944325404
1555.0,0.1713401034646802
1554.0,0.17069622716897515
1553.0,0.17018181256112253
1552.0,0.16960382351653092
1551.0,0.16902660267734948
1550.0,0.1683221508085333
1549.0,0.167618839752959
1548.0,0.16691666582165698
1547.0,0.1660882849286216
1546.0,0.16513442009996204
1545.0,0.16399254087446846
1544.0,0.16304326294044946
1543.0,0.16247469055039865
1542.0,0.16184381524785207
1541.0,0.16089921729284673
1540.0,0.16039627052916305
1539.0,0.16020781555467067
1538.0,0.15939212099070987
1537.0,0.15857795559764076
1536.0,0.15826522102525642
1535.0,0.15795271149036205
1534.0,0.15745316350498495
1533.0,0.15732836623921154
1532.0,0.1576404266693252
1531.0,0.1576404266693252
1530.0,0.15745316350498495
1529.0,0.15701652987778258
1528.0,0.15645578805436489
1527.0,0.15577141869837208
1526.0,0.15521228117215347
1525.0,0.15471587365200845
1524.0,0.1540961611012175
1523.0,0.15335367142288248
1522.0,0.1523039792658345
1521.0,0.1514414278762366
1520.0,0.15088783381542248
1519.0,0.15033494452126717
1518.0,0.14978275820161047
1517.0,0.1491088158640761
1516.0,0.1482525808667361
1515.0,0.14739803066176504
1514.0,0.1465451586319333
1513.0,0.14581545616639335
1512.0,0.1450869776921444
1511.0,0.14466259553045968
1510.0,0.14472319616990825
1509.0,0.14532966810466452
1508.0,0.14709324120304634
1507.0,0.15415809257824264
1506.0,0.16704424939540163
1505.0,0.17593928258134706
1504.0,0.17874856845405884
1503.0,0.1789452449531117
1502.0,0.17724366704860928
1501.0,0.17405485679615196
1500.0,0.16966800654803826
1499.0,0.16481693015095633
1498.0,0.1600822243213189
1497.0,0.15577141869837208
1496.0,0.1519957285027318
1495.0,0.1489251947711132
1494.0,0.1466060225493342
1493.0,0.14484442282300614
1492.0,0.14333151638846497
1491.0,0.14140265500530758
1490.0,0.13948232253825377
1489.0,0.13822670328130693
1488.0,0.13751083309410284
1487.0,0.1366771398795441
1486.0,0.13578566953867033
1485.0,0.1349552783069008
1484.0,0.13418561983203192
1483.0,0.13353543402825974
1482.0,0.13276828548110586
1481.0,0.1320613491092153
1480.0,0.13153190097901324
1479.0,0.1311205537629121
1478.0,0.1305922506177981
1477.0,0.13006458935314003
1476.0,0.12953756841108
1475.0,0.12901118623942476
1474.0,0.1283103343144847
1473.0,0.12749410065407507
1472.0,0.12691201440971422
1471.0,0.12644690648638135
1470.0,0.12598229613781387
1469.0,0.1258081953209289
1468.0,0.12592425477696523
1467.0,0.126156466776564
1466.0,0.12656313677796316
1465.0,0.12761061158217912
1464.0,0.1294790499872358
1463.0,0.13170831198214428
1462.0,0.1337717526203528
1461.0,0.13590442657575252
1460.0,0.13822670328130693
1459.0,0.14062149557439896
1458.0,0.1432711096171173
1457.0,0.1475810070629986
1456.0,0.15261244897260462
1455.0,0.15614457737683884
1454.0,0.1583902878315646
1453.0,0.1602706247936121
1452.0,0.16171775008531153
1451.0,0.16266413198498508
1450.0,0.16316971351112097
1449.0,0.16342272515935097
1448.0,0.16348600110932865
1447.0,0.16348600110932865
1446.0,0.16342272515935097
1445.0,0.16348600110932865
1444.0,0.16361258067358908
1443.0,0.1637391971415132
1442.0,0.1637391971415132
1441.0,0.16380251922107458
1440.0,0.16386585053462532
1439.0,0.16367588429324842
1438.0,0.16266413198498508
1437.0,0.1607105439938532
1436.0,0.15801519540988607
1435.0,0.15527437202677397
1434.0,0.15261244897260462
1433.0,0.1499667423102311
1432.0,0.14672777597931685
1431.0,0.14266750356873148
1430.0,0.1380476250785483
1429.0,0.13335827943396006
1428.0,0.1290696416513042
1427.0,0.12540223129680017
1426.0,0.12228319913502328
1425.0,0.1190150095132465
1424.0,0.11560117444331386
1423.0,0.11266406960083297
1422.0,0.11053021603049262
1421.0,0.10874138309586101
1420.0,0.10673771411200872
1419.0,0.10507502264045665
1418.0,0.10513034325474746
1417.0,0.1075158206353124
1416.0,0.11227020271196975
1415.0,0.11981544717356662
1414.0,0.1304749371427727
1413.0,0.14466259553045968
1412.0,0.16272729749769965
1411.0,0.1835598320438614
1410.0,0.20398103065285067
1409.0,0.22105327203138314
1408.0,0.23291837863667775
1407.0,0.23889946104185777
1406.0,0.23889946104185777
1405.0,0.23403357521428614
1404.0,0.2267988576436557
1403.0,0.2193227255666319
1402.0,0.21253952548158495
1401.0,0.20641913263184408
1400.0,0.20045269287438483
1399.0,0.19436323369406505
1398.0,0.18869315991866387
1397.0,0.18402399902801458
1396.0,0.17986424812957003
1395.0,0.1754836719927908
1394.0,0.17082492608291244
1393.0,0.1666616110606025
1392.0,0.16329620091026875
1391.0,0.1603334431175667
1390.0,0.15726598105173029
1389.0,0.1538485234711846
1388.0,0.1502121757623145
1387.0,0.1466060225493342
1386.0,0.14351278713136928
1385.0,0.14128238513970826
1384.0,0.1397219002477652
1383.0,0.13846558914096208
1382.0,0.1374512304752069
1381.0,0.13697470377052956
1380.0,0.13721290176465573
1379.0,0.1381073096085541
1378.0,0.1396619934290062
1377.0,0.14170347546611461
1376.0,0.1441175699639643
1375.0,0.1472151313194523
1374.0,0.15101079374883275
1373.0,0.15508812608785938
1372.0,0.15870311250971825
1371.0,0.16165473122400909
1370.0,0.16386585053462532
1369.0,0.165261481096159
1368.0,0.16545214231905137
1367.0,0.16411926818260536
1366.0,0.16133977401105848
1365.0,0.15732836623921154
1364.0,0.15193410459600853
1363.0,0.14514763758216587
1362.0,0.13780896894840278
1361.0,0.13106182166708868
1360.0,0.12551818230053358
1359.0,0.12084675381575383
1358.0,0.11662251025166115
1357.0,0.1128329791052256
1356.0,0.10935546370475246
1355.0,0.1061827760325369
1354.0,0.1033635694704158
1353.0,0.10100072911021085
1352.0,0.09892328427374508
1351.0,0.09718153191774648
1350.0,0.0957714836599215
1349.0,0.09479797133768142
1348.0,0.09447395156495153
1347.0,0.09474395125154866
1346.0,0.09571734235437201
1345.0,0.0972358560759139
1344.0,0.09919606518963042
1343.0,0.10132965703447017
1342.0,0.10341867249426717
1341.0,0.10513034325474746
1340.0,0.10623823794205656
1339.0,0.10623823794205656
1338.0,0.10490910306560064
1337.0,0.1022080180607754
1336.0,0.09826930827078129
1335.0,0.0935572061829677
1334.0,0.0885227828938977
1333.0,0.08349341288484435
1332.0,0.07878187880504961
1331.0,0.07468790850035045
1330.0,0.0713481533463054
1329.0,0.06879647454924775
1328.0,0.06701917807680191
1327.0,0.0658551882075229
1326.0,0.0653500770992892
1325.0,0.0653500770992892
1324.0,0.06575411897692884
1323.0,0.0665127121512945
1322.0,0.0676277178520861
1321.0,0.0690000580438479
1320.0,0.07037674848475972
1319.0,0.07170658776779781
1318.0,0.07288638806623937
1317.0,0.07406940213152868
1316.0,0.07530729697981409
1315.0,0.07670415934449615
1314.0,0.07841755960658348
1313.0,0.08039897621588898
1312.0,0.08265206237222844
1311.0,0.08507535179485148
1310.0,0.08772478950118767
1309.0,0.09065796163869155
1308.0,0.0937727369476411
1307.0,0.09685572959046151
1306.0,0.09985143928065598
1305.0,0.10264786565568684
1304.0,0.10546241500425357
1303.0,0.10851829616048003
1302.0,0.1120452961911984
1301.0,0.11633856484638239
1300.0,0.12176553132495593
1299.0,0.12842706445412122
1298.0,0.13620146131949973
1297.0,0.1447838052666366
1296.0,0.15391041964201602
1295.0,0.16329620091026875
1294.0,0.17276000049435458
1293.0,0.18223636771963214
1292.0,0.19165396425960513
1291.0,0.2009352806489919
1290.0,0.20992605157369537
1289.0,0.21853185715820178
1288.0,0.22687207596666514
1287.0,0.23485320989197467
1286.0,0.24222450898807435
1285.0,0.248951965179812
1284.0,0.255237762934422
1283.0,0.2609025538825249
1282.0,0.2657603955645449
1281.0,0.2698639960033222
1280.0,0.2732727909734278
1279.0,0.2761340355564963
1278.0,0.27827180142721186
1277.0,0.28008893580166117
1276.0,0.28207997416300645
1275.0,0.28441444810680383
1274.0,0.2874344721266917
1273.0,0.2915790998652872
1272.0,0.2974833025618495
1271.0,0.30521936398793836
1270.0,0.3145269802772408
1269.0,0.325414397697086
1268.0,0.33799812061008283
1267.0,0.3520305416370282
1266.0,0.36693572730850077
1265.0,0.38226596463598206
1264.0,0.3976144098948948
1263.0,0.41240127027875517
1262.0,0.4258529358492773
1261.0,0.43794517034362146
1260.0,0.44891613481421966
1259.0,0.45829597671571154
1258.0,0.465593100862123
1257.0,0.4708263967382771
1256.0,0.47482557216472854
1255.0,0.4782083503608765
1254.0,0.4814860601221125
1253.0,0.48531945587501846
1252.0,0.4901257149952807
1251.0,0.4958010814605551
1250.0,0.5019652763129732
1249.0,0.5087784237607171
1248.0,0.516698047641833
1247.0,0.5256380239673693
1246.0,0.5350635708782674
1245.0,0.5445460312213719
1244.0,0.5543957967264024
1243.0,0.5641556340155587
1242.0,0.5728385970740344
1241.0,0.5805399272139298
1240.0,0.5872035712834567
1239.0,0.5922692719736646
1238.0,0.5948244537820107
1237.0,0.5955083822413141
1236.0,0.5948244537820107
1235.0,0.5929491851957496
1234.0,0.5888855814490952
1233.0,0.5833594926617189
1232.0,0.5769180417027691
1231.0,0.5697636465884894
1230.0,0.5619325495465062
1229.0,0.5540845860488766
1228.0,0.5466816599529623
1227.0,0.5397036732425247
1226.0,0.5322439487559671
1225.0,0.524619406856639
1224.0,0.5169835798558677
1223.0,0.5097605147537128
1222.0,0.5025174626326296
1221.0,0.495257363728312
1220.0,0.4883839794308624
1219.0,0.481617684454656
1218.0,0.4746959900417611
1217.0,0.46788288375119613
1216.0,0.4613006204575931
1215.0,0.45481663178459386
1214.0,0.4481841776489843
1213.0,0.44153143747620516
1212.0,0.4352156154960132
1211.0,0.42934032997846594
1210.0,0.42377386255039506
1209.0,0.4182778400509013
1208.0,0.4128505017456563
1207.0,0.40749015209931994
1206.0,0.40197592766581036
1205.0,0.3964226318485333
1204.0,0.39115317767358837
1203.0,0.38626385873812863
1202.0,0.3813244611148603
1201.0,0.3765439519300662
1200.0,0.3719177390093207
1199.0,0.36744148546732824
1198.0,0.36271045232182564
1197.0,0.3578323655950548
1196.0,0.35291057128344505
1195.0,0.3478503945983471
1194.0,0.34275287011628364
1193.0,0.3378090091409929
1192.0,0.33310778893346393
1191.0,0.32854944578750533
1190.0,0.3238553196437939
1189.0,0.31903028153410284
1188.0,0.3145269802772408
1187.0,0.3103360349842297
1186.0,0.30627305107635316
1185.0,0.30233483735232536
1184.0,0.2987775157434429
1183.0,0.2955920726131591
1182.0,0.29268536641129206
1181.0,0.2902213981517747
1180.0,0.28853021812567214
1179.0,0.2875186621980814
1178.0,0.28692967414436055
1177.0,0.2865934678323092
1176.0,0.2865934678323092
1175.0,0.2865934678323092
1174.0,0.2863414837916436
1173.0,0.28550259135019407
1172.0,0.28408018256642054
1171.0,0.2818305946086932
1170.0,0.2786016244784948
1169.0,0.2743333396858214
1168.0,0.2692984557181548
1167.0,0.26376290109527134
1166.0,0.2578249567763229
1165.0,0.25181197299379954
1164.0,0.24603413413483977
1163.0,0.24040769135402518
1162.0,0.2347040703019434
1161.0,0.2290743853610009
1160.0,0.22358941119265774
1159.0,0.2183882175068499
1158.0,0.21339052735134012
1157.0,0.2087305190897315
1156.0,0.2043980201058202
1155.0,0.20045269287438483
1154.0,0.19681611146465805
1153.0,0.19375217280420953
1152.0,0.19145144875959463
1151.0,0.19010375339756092
1150.0,0.18970025895983111
1149.0,0.19017103893211385
1148.0,0.19145144875959463
1147.0,0.19361649817583237
1146.0,0.19661117501638659
1145.0,0.20045269287438483
1144.0,0.20509389348319607
1143.0,0.21041928783557462
1142.0,0.21616785661555893
1141.0,0.22206595116222072
1140.0,0.22797183467514515
1139.0,0.2336615247487126
1138.0,0.23882418684426865
1137.0,0.24336389175415185
1136.0,0.24741382125959088
1135.0,0.2511145599904834
1134.0,0.25445679800197585
1133.0,0.2575105354182248
1132.0,0.26034855629062315
1131.0,0.26328486639438897
1130.0,0.26648174856551243
1129.0,0.2701874928390644
1128.0,0.27482369858086275
1127.0,0.28058584029740663
1126.0,0.2876028685932852
1125.0,0.29593532059143257
1124.0,0.30539480106643135
1123.0,0.3156035215809796
1122.0,0.3261500226570506
1121.0,0.33686468504224587
1120.0,0.34736693191688994
1119.0,0.356942316248547
1118.0,0.3646167959525015
1117.0,0.36997914888659
1116.0,0.37283904762522413
1115.0,0.37283904762522413
1114.0,0.37048846579954686
1113.0,0.3662286539174444
1112.0,0.3614109167072832
1111.0,0.3568435343802938
1110.0,0.3532043112215306
1109.0,0.35163998901906846
1108.0,0.3534002482796268
1107.0,0.3585258894959005
1106.0,0.36643055744590813
1105.0,0.37664731846200805
1104.0,0.3889142665851273
1103.0,0.4031830640844094
1102.0,0.4189610512278328
1101.0,0.43568909003939726
1100.0,0.45308735681875745
1099.0,0.4703130462270835
1098.0,0.4863829262121251
1097.0,0.5012760292520952
1096.0,0.514988785421427
1095.0,0.5269511949114623
1094.0,0.5367043900379973
1093.0,0.5443938874181331
1092.0,0.5503673495299255
1091.0,0.5548630312866958
1090.0,0.5575202309355514
1089.0,0.558304864359283
1088.0,0.5581478242267082
1087.0,0.556893543262734
1086.0,0.5547072305740282
1085.0,0.5514482607984219
1084.0,0.5480601306348971
1083.0,0.544850478820172
1082.0,0.5415132362017931
1081.0,0.5379016188648442
1080.0,0.5341711846425636
1079.0,0.5297365530349216
1078.0,0.524619406856639
1077.0,0.5189875790434271
1076.0,0.5131446447230568
1075.0,0.5070999888912966
1074.0,0.5004503740948509
1073.0,0.49376564038787407
1072.0,0.4874490070957893
1071.0,0.481617684454656
1070.0,0.4753442876422229
1069.0,0.468904453129972
1068.0,0.4625587165920524
1067.0,0.45655281991829977
1066.0,0.45075144314594406
1065.0,0.44502654166676026
1064.0,0.43973460213728544
1063.0,0.43462449728592634
1062.0,0.42922363120525175
1061.0,0.4236586497942072
1060.0,0.41816407594235194
1059.0,0.4129628822565443
1058.0,0.4078232426041333
1057.0,0.4030731856570293
1056.0,0.3988094673846665
1055.0,0.39523411529611274
1054.0,0.3923305633117571
1053.0,0.39008558991400233
1052.0,0.38870163770357125
1051.0,0.388382889445664
1050.0,0.38880793913156575
1049.0,0.3898723869240046
1048.0,0.39147396642280596
1047.0,0.3934036908207148
1046.0,0.3954499674287386
1045.0,0.39750593119271893
1044.0,0.3998987443086093
1043.0,0.4025242101296225
1042.0,0.4049449102406961
1041.0,0.40671393297954284
1040.0,0.40771218404786924
1039.0,0.40815658877521566
1038.0,0.40771218404786924
1037.0,0.4069355683412825
1036.0,0.40593909872958167
1035.0,0.40461401919085827
1034.0,0.4029633350223465
1033.0,0.40088143494463724
1032.0,0.3987006898056624
1031.0,0.39653084026616114
1030.0,0.39404884243512717
1029.0,0.39104630072413715
1028.0,0.38753403604685777
1027.0,0.38373459471829174
1026.0,0.37965570024550677
1025.0,0.3757179041643317
1024.0,0.37232696823338407
1023.0,0.37048846579954686
1022.0,0.3715088950328771
1021.0,0.3772680348352808
1020.0,0.38880793913156575
1019.0,0.4061603389187287
1018.0,0.42736070295718664
1017.0,0.44891613481421966
1016.0,0.4675004139053376
1015.0,0.4799096718871576
1014.0,0.4843910507655198
1013.0,0.4817493486915001
1012.0,0.47482557216472854
1011.0,0.4663550212012373
1010.0,0.45804652554176384
1009.0,0.45062884766682276
1008.0,0.4441803169388088
1007.0,0.43830246734600653
1006.0,0.43273830764612553
1005.0,0.4274769021503624
1004.0,0.4226231080829854
1003.0,0.41839163396794254
1002.0,0.4145392704914994
1001.0,0.41116827440579273
1000.0,0.40804544495326445
999.0,0.4050552633049167
998.0,0.40208552879747184
997.0,0.3994627056355311
996.0,0.3969639437494783
995.0,0.394479476562531
994.0,0.3919020536747204
993.0,0.38955277855787873
992.0,0.3877460939035626
991.0,0.38605252321965033
990.0,0.384365531122584
989.0,0.3825802532628235
988.0,0.3810110796350663
987.0,0.37965570024550677
986.0,0.37840832414078207
985.0,0.3771645204784797
984.0,0.37613073164969757
983.0,0.3753054687279187
982.0,0.37458464784559187
981.0,0.3739677521709812
980.0,0.37335173152598977
979.0,0.37273658343177885
978.0,0.37202001017001995
977.0,0.3712025144332898
976.0,0.3705904008972811
975.0,0.3700809644964582
974.0,0.36957212497497616
973.0,0.36906388093580866
972.0,0.3687592197644909
971.0,0.368556230986828
970.0,0.3683533370415806
969.0,0.3679478332941901
968.0,0.3672391115205613
967.0,0.36632959394855624
966.0,0.3652205418540484
965.0,0.364013888199167
964.0,0.36281057785123805
963.0,0.3618103598091631
962.0,0.36061313098231595
961.0,0.3596179552904315
960.0,0.358724242768087
959.0,0.3576344191550267
958.0,0.3562513145404742
957.0,0.3546759984377066
956.0,0.3531063758322548
955.0,0.3517375942519556
954.0,0.3503731131594705
953.0,0.3491099221436875
952.0,0.34804393046692583
951.0,0.3471736974389954
950.0,0.34611244192902246
949.0,0.3447654929657058
948.0,0.3434227086038859
947.0,0.34217954398430295
946.0,0.3411304077980377
945.0,0.3402739047622083
944.0,0.339608901597533
943.0,0.3388501427552135
942.0,0.33790355458207655
941.0,0.3366760663717876
940.0,0.3353580244438745
939.0,0.3342314492806202
938.0,0.3334820194451191
937.0,0.3330142816703394
936.0,0.332640453816913
935.0,0.33208031468263854
934.0,0.3311483519174814
933.0,0.3301254975101975
932.0,0.329197715739056
931.0,0.32808698755841315
930.0,0.32679471822095474
929.0,0.3255062827036499
928.0,0.3243132913005988
927.0,0.3233063903751334
926.0,0.3223930472795069
925.0,0.3214816209598861
924.0,0.32048125630421054
923.0,0.31921138849331765
922.0,0.31767438133219295
921.0,0.3158730743869247
920.0,0.31425826139773627
919.0,0.31291715539562936
918.0,0.31158017799728954
917.0,0.3103360349842297
916.0,0.30909544594503346
915.0,0.3076819557407213
914.0,0.30618514611058334
913.0,0.3046934775681973
912.0,0.30373100325446734
911.0,0.3032942190660828
910.0,0.30303235925597694
909.0,0.30294510772742567
908.0,0.30294510772742567
907.0,0.3032069149182557
906.0,0.3039058400047767
905.0,0.30504399775018176
904.0,0.3066248489748147
903.0,0.3084764778318456
902.0,0.3103360349842297
901.0,0.3122927203751811
900.0,0.31425826139773627
899.0,0.31623273857468837
898.0,0.31803554100531684
897.0,0.3195738291418546
896.0,0.3208447587166461
895.0,0.32175484807295796
894.0,0.3221194184884095
893.0,0.3221194184884095
892.0,0.3221194184884095
891.0,0.32202824718926015
890.0,0.32184596198956283
889.0,0.32166375326781993
888.0,0.32166375326781993
887.0,0.32157267756613295
886.0,0.32139058344107396
885.0,0.3212995650016959
884.0,0.32184596198956283
883.0,0.3229408226078385
882.0,0.32449661527204343
881.0,0.32651830292665274
880.0,0.32956859063939437
879.0,0.3335756274812405
878.0,0.33837659077076987
877.0,0.34380593782081426
876.0,0.35017853677543487
875.0,0.3576344191550267
874.0,0.365421977146112
873.0,0.37273658343177885
872.0,0.3790315643557103
871.0,0.38373459471829174
870.0,0.38626385873812863
869.0,0.38647529714634765
868.0,0.3847866651986416
867.0,0.3817426551595986
866.0,0.3779933269931952
865.0,0.37448177102836233
864.0,0.37130461728597663
863.0,0.3682519256034307
862.0,0.3648179513437324
861.0,0.3610118406563181
860.0,0.3574365628956122
859.0,0.35457773065090814
858.0,0.35232368675912906
857.0,0.35056777675838346
856.0,0.3491099221436875
855.0,0.34794715175189506
854.0,0.34698054890038676
853.0,0.3458234581220394
852.0,0.3447654929657058
851.0,0.3439976793170427
850.0,0.3435184842095014
849.0,0.3434227086038859
848.0,0.3434227086038859
847.0,0.3432312207339834
846.0,0.34256167729703746
845.0,0.3418931644936072
844.0,0.341606973720876
843.0,0.3418931644936072
842.0,0.34227504579489176
841.0,0.34265726318537393
840.0,0.34303981725715094
839.0,0.34371009880864034
838.0,0.34457341225408133
837.0,0.3452460667470698
836.0,0.34534224535047553
835.0,0.344861565188618
834.0,0.34380593782081426
833.0,0.34265726318537393
832.0,0.3417023496918101
831.0,0.3409399277590617
830.0,0.34017884194429504
829.0,0.3395139842150323
828.0,0.3389449151466213
827.0,0.33837659077076987
826.0,0.3377144842778699
825.0,0.3366760663717876
824.0,0.33545203775345334
823.0,0.33395026151948404
822.0,0.332547047110046
821.0,0.3314277308154421
820.0,0.33068311943388773
819.0,0.3302183847914635
818.0,0.329754146925876
817.0,0.32929040477620286
816.0,0.32873456705284165
815.0,0.328179439816751
814.0,0.3278097488117475
813.0,0.3279021420642825
812.0,0.32845691473742633
811.0,0.32873456705284165
810.0,0.3283644033978703
809.0,0.3274403722367243
808.0,0.32651830292665274
807.0,0.3258740172572918
806.0,0.32513885926218844
805.0,0.32440494361325367
804.0,0.3234892897174464
803.0,0.32230181852548934
802.0,0.32111758532926427
801.0,0.32002730572258153
800.0,0.31930197030236496
799.0,0.3185778442789915
798.0,0.3178549236261683
797.0,0.31758413832264143
796.0,0.3185778442789915
795.0,0.32139058344107396
794.0,0.325414397697086
793.0,0.3296613588725579
792.0,0.3330142816703394
791.0,0.3347005005001029
790.0,0.3344190089820469
789.0,0.33292079453578327
788.0,0.33068311943388773
787.0,0.32808698755841315
786.0,0.32495526404410735
785.0,0.32139058344107396
784.0,0.3178549236261683
783.0,0.31461659019851274
782.0,0.31175820402228815
781.0,0.3093609882840327
780.0,0.30750559249691567
779.0,0.3059215379192406
778.0,0.3039932847814546
777.0,0.3016384339448903
776.0,0.29912329162309637
775.0,0.2967086218813386
774.0,0.29447838657733283
773.0,0.29242982390206373
772.0,0.2904756441236589
771.0,0.2882771081727653
770.0,0.2855864077128789
769.0,0.28282897316768985
768.0,0.28042014228627665
767.0,0.2786016244784948
766.0,0.2766264329810155
765.0,0.27417000967941973
764.0,0.2713216331490862
763.0,0.26825011647273667
762.0,0.26512019720737245
761.0,0.2622509261084429
760.0,0.2594794139463352
759.0,0.25656863485331627
758.0,0.25313237214957063
757.0,0.24926024876464936
756.0,0.24511677174783242
755.0,0.24070996697569602
754.0,0.23589862352377122
753.0,0.23084430928560118
752.0,0.22555603107503486
751.0,0.2199708726626617
750.0,0.21402987486799052
749.0,0.2076083105017461
748.0,0.20072839165012724
747.0,0.19300648631789286
746.0,0.18442225167573278
745.0,0.1752235375244544
744.0,0.16640670600154372
743.0,0.15882830550046778
742.0,0.15366288787019466
741.0,0.1523039792658345
740.0,0.15552282425431851
739.0,0.163359458427226
738.0,0.17528855653526554
737.0,0.19091186865365373
736.0,0.20978522975602076
735.0,0.23106605781321843
734.0,0.2534436385896308
733.0,0.27629810600873217
732.0,0.2999889376778877
731.0,0.32569011105852286
730.0,0.35447948509412597
729.0,0.3877460939035626
728.0,0.42596873227228116
727.0,0.4683933680672778
726.0,0.5115903110968019
725.0,0.5508302678347992
724.0,0.5802094138936373
723.0,0.5955083822413141
722.0,0.5955083822413141
721.0,0.5841922723644568
720.0,0.5681539543012746
719.0,0.5523769022397138
718.0,0.5382014424748907
717.0,0.5252011811993689
716.0,0.5128616245228135
715.0,0.5014137911824823
714.0,0.4910664739499673
713.0,0.4821445810699714
712.0,0.4752145506787777
711.0,0.46954415641532377
710.0,0.4645792819438266
709.0,0.45992091119582734
708.0,0.45605605751709355
707.0,0.4528408786725824
706.0,0.44989400065240726
705.0,0.44672395386290065
704.0,0.44369749923271273
703.0,0.44057220024051014
702.0,0.4371126187061207
701.0,0.4333268623938835
700.0,0.430041181903406
699.0,0.4272445348457803
698.0,0.42435038524478075
697.0,0.42124621557356545
696.0,0.41816407594235194
695.0,0.4152166210034922
694.0,0.41251353458903584
693.0,0.4099387691962575
692.0,0.4072682336060378
691.0,0.40439356513439706
690.0,0.40088143494463724
689.0,0.39772291569980744
688.0,0.3958819938079652
687.0,0.3951262294473643
686.0,0.3938336853923794
685.0,0.3919020536747204
684.0,0.390619055749293
683.0,0.3901922306712977
682.0,0.3898723869240046
681.0,0.38880793913156575
680.0,0.3871102307125154
679.0,0.38541913300251385
678.0,0.3833144791044878
677.0,0.3805935891132226
676.0,0.37788963963878053
675.0,0.37582107425197764
674.0,0.37427609047424415
673.0,0.3736596326249577
672.0,0.37458464784559187
671.0,0.3759242688543174
670.0,0.3753054687279187
669.0,0.369470428573176
668.0,0.35922052265514304
667.0,0.3527148549746333
666.0,0.35291057128344505
665.0,0.35428306063039616
664.0,0.3546759984377066
663.0,0.35447948509412597
662.0,0.35457773065090814
661.0,0.3540867249661557
660.0,0.35261702988538013
659.0,0.35056777675838346
658.0,0.3493040202393891
657.0,0.3491099221436875
656.0,0.35017853677543487
655.0,0.35212823469376753
654.0,0.35389047802115203
653.0,0.35389047802115203
652.0,0.3520305416370282
651.0,0.34901290561655496
650.0,0.3457271729022895
649.0,0.3429441471428962
648.0,0.34122567915564317
647.0,0.3404640928457836
646.0,0.3407495312273392
645.0,0.34179774661298534
644.0,0.3429441471428962
643.0,0.3435184842095014
642.0,0.3432312207339834
641.0,0.3423705686110481
640.0,0.341511618690983
639.0,0.3408447190593702
638.0,0.341035157335565
637.0,0.3429441471428962
636.0,0.34756025241057986
635.0,0.35398859040876096
634.0,0.35941919351034746
633.0,0.3614109167072832
632.0,0.35902194264166787
631.0,0.35291057128344505
630.0,0.34534224535047553
629.0,0.33932421166147586
628.0,0.3362990746103518
627.0,0.3352640314812949
626.0,0.3347005005001029
625.0,0.3342314492806202
624.0,0.3342314492806202
623.0,0.33451281921718934
622.0,0.3341376997968448
621.0,0.332547047110046
620.0,0.3301254975101975
619.0,0.3274403722367243
618.0,0.3246800166607078
617.0,0.3229408226078385
616.0,0.32321496958079465
615.0,0.3245883062851367
614.0,0.32495526404410735
613.0,0.3233063903751334
612.0,0.3208447587166461
611.0,0.31939257100821217
610.0,0.31984585826562695
609.0,0.32175484807295796
608.0,0.32440494361325367
607.0,0.32670256024036415
606.0,0.3270713095572775
605.0,0.32495526404410735
604.0,0.3212995650016959
603.0,0.31812587787135316
602.0,0.31713320433767533
601.0,0.31921138849331765
600.0,0.32248429520124255
