cm-1,A
4000.0,0.11987267778337518
3999.0,0.11952940719622163
3998.0,0.11918640771920863
3997.0,0.11884367892443626
3996.0,0.11872949607064243
3995.0,0.11890078161098283
3994.0,0.11930071078129845
3993.0,0.11964380058076385
3992.0,0.11907213473291511
3991.0,0.11930071078129845
3990.0,0.11947222180119477
3989.0,0.11947222180119477
3988.0,0.11935787359571504
3987.0,0.11924355548978971
3986.0,0.1190150095132465
3985.0,0.11878658374498086
3984.0,0.11872949607064243
3983.0,0.11878658374498086
3982.0,0.11895789180659433
3981.0,0.11895789180659433
3980.0,0.11890078161098283
3979.0,0.11890078161098283
3978.0,0.11895789180659433
3977.0,0.11890078161098283
3976.0,0.11884367892443626
3975.0,0.11872949607064243
3974.0,0.11867241589944855
3973.0,0.11861534322942724
3972.0,0.11867241589944855
3971.0,0.11878658374498086
3970.0,0.1190150095132465
3969.0,0.11918640771920863
3968.0,0.11924355548978971
3967.0,0.11918640771920863
3966.0,0.11907213473291511
3965.0,0.11890078161098283
3964.0,0.11884367892443626
3963.0,0.11884367892443626
3962.0,0.11890078161098283
3961.0,0.11890078161098283
3960.0,0.11895789180659433
3959.0,0.11907213473291511
3958.0,0.1190150095132465
3957.0,0.11872949607064243
3956.0,0.1183871275216517
3955.0,0.11810202642698875
3954.0,0.11793105556385153
3953.0,0.11781711236973003
3952.0,0.11764625361128611
3951.0,0.11741854644554883
3950.0,0.11719095860756013
3949.0,0.11690664142431006
3948.0,0.1165657063169907
3947.0,0.11628179803604044
3946.0,0.11616828667054757
3945.0,0.1163953390777075
3944.0,0.11679296664760996
3943.0,0.11690664142431006
3942.0,0.11684980031672243
3941.0,0.11702034596270106
3940.0,0.11770319906234805
3939.0,0.11861534322942724
3938.0,0.1190150095132465
3937.0,0.11867241589944855
3936.0,0.11804502866039956
3935.0,0.11764625361128611
3934.0,0.11736163830396129
3933.0,0.11690664142431006
3932.0,0.11633856484638239
3931.0,0.11594135290606156
3930.0,0.11577123036739612
3929.0,0.11543118508166672
3928.0,0.11509140583739286
3927.0,0.11514801725400226
3926.0,0.11548784080960606
3925.0,0.11554450392951199
3924.0,0.11514801725400226
3923.0,0.11492161585077598
3922.0,0.11520463605101905
3921.0,0.11560117444331386
3920.0,0.1157145376603248
3919.0,0.11577123036739612
3918.0,0.1163953390777075
3917.0,0.11724784438692004
3916.0,0.11770319906234805
3915.0,0.11793105556385153
3914.0,0.11844417020668851
3913.0,0.11918640771920863
3912.0,0.11970100857424737
3911.0,0.11975822410451964
3910.0,0.11935787359571504
3909.0,0.11861534322942724
3908.0,0.1175323851046286
3907.0,0.11628179803604044
3906.0,0.1149782051377024
3905.0,0.11350927482751816
3904.0,0.11187669270209155
3903.0,0.11069829749368965
3902.0,0.11092250734993603
3901.0,0.11266406960083297
3900.0,0.11475189221861393
3899.0,0.11577123036739612
3898.0,0.11577123036739612
3897.0,0.11565785235294102
3896.0,0.11588463798833115
3895.0,0.11616828667054757
3894.0,0.11645212073195621
3893.0,0.11713408027837091
3892.0,0.11787408022996826
3891.0,0.11758931562603192
3890.0,0.11565785235294102
3889.0,0.11435612816423602
3888.0,0.11548784080960606
3887.0,0.1174754620451195
3886.0,0.1174754620451195
3885.0,0.11526126223036814
3884.0,0.11317099532301778
3883.0,0.11311464101399138
3882.0,0.1145256971708426
3881.0,0.11526126223036814
3880.0,0.11458223488906394
3879.0,0.11350927482751816
3878.0,0.1133401021387972
3877.0,0.11463877996848804
3876.0,0.11582793047608719
3875.0,0.11503480179926728
3874.0,0.11238269966426384
3873.0,0.11008231656379408
3872.0,0.11047420332880886
3871.0,0.11266406960083297
3870.0,0.11345287660889425
3869.0,0.11159583226295333
3868.0,0.11002636159600376
3867.0,0.11153968196461372
3866.0,0.1141301390960936
3865.0,0.11441264381034388
3864.0,0.11322735694556196
3863.0,0.11339648571328764
3862.0,0.114865033936566
3861.0,0.1157145376603248
3860.0,0.11520463605101905
3859.0,0.11407366019856902
3858.0,0.1130019543289007
3857.0,0.11249522576462212
3856.0,0.11277666863747693
3855.0,0.1137349409702435
3854.0,0.1148084593931522
3853.0,0.11543118508166672
3852.0,0.1148084593931522
3851.0,0.11418662533951118
3850.0,0.11588463798833115
3849.0,0.1174754620451195
3848.0,0.1174754620451195
3847.0,0.11684980031672243
3846.0,0.11645212073195621
3845.0,0.11582793047608719
3844.0,0.11446916681190777
3843.0,0.11238269966426384
3842.0,0.11019424813191447
3841.0,0.10902040301031102
3840.0,0.10907622851098608
3839.0,0.10969078310005154
3838.0,0.11041819785037621
3837.0,0.11086644403327606
3836.0,0.11131515334030118
3835.0,0.11227020271196975
3834.0,0.1141301390960936
3833.0,0.11588463798833115
3832.0,0.1165657063169907
3831.0,0.11611154211151953
3830.0,0.11554450392951199
3829.0,0.11577123036739612
3828.0,0.1163953390777075
3827.0,0.11622503864474187
3826.0,0.11435612816423602
3825.0,0.11215773489264302
3824.0,0.1117081546434846
3823.0,0.112945621949043
3822.0,0.1137349409702435
3821.0,0.11232644754555254
3820.0,0.10963487855187593
3819.0,0.10885296955122903
3818.0,0.11198908775497118
3817.0,0.11616828667054757
3816.0,0.1175323851046286
3815.0,0.11645212073195621
3814.0,0.11599807523121286
3813.0,0.11770319906234805
3812.0,0.11930071078129845
3811.0,0.11890078161098283
3810.0,0.11770319906234805
3809.0,0.11764625361128611
3808.0,0.11821604440661537
3807.0,0.11719095860756013
3806.0,0.11396072443355765
3805.0,0.11103465569966264
3804.0,0.11131515334030118
3803.0,0.11345287660889425
3802.0,0.11424311893073247
3801.0,0.112945621949043
3800.0,0.11125903931710734
3799.0,0.11159583226295333
3798.0,0.11418662533951118
3797.0,0.11633856484638239
3796.0,0.116736140415026
3795.0,0.11679296664760996
3794.0,0.11776015198117662
3793.0,0.11930071078129845
3792.0,0.12027350336042275
3791.0,0.12033079436794658
3790.0,0.12004441487725082
3789.0,0.11964380058076385
3788.0,0.11912926746757657
3787.0,0.11867241589944855
3786.0,0.1183871275216517
3785.0,0.11815903167507247
3784.0,0.11741854644554883
3783.0,0.11662251025166115
3782.0,0.1165089098110701
3781.0,0.11702034596270106
3780.0,0.1174754620451195
3779.0,0.11741854644554883
3778.0,0.1174754620451195
3777.0,0.11815903167507247
3776.0,0.11918640771920863
3775.0,0.11947222180119477
3774.0,0.11867241589944855
3773.0,0.11770319906234805
3772.0,0.11758931562603192
3771.0,0.11787408022996826
3770.0,0.1174754620451195
3769.0,0.1165089098110701
3768.0,0.11622503864474187
3767.0,0.11724784438692004
3766.0,0.11844417020668851
3765.0,0.1183871275216517
3764.0,0.11736163830396129
3763.0,0.11684980031672243
3762.0,0.11719095860756013
3761.0,0.11702034596270106
3760.0,0.11582793047608719
3759.0,0.1148084593931522
3758.0,0.1145256971708426
3757.0,0.11390426756225258
3756.0,0.11260778102815316
3755.0,0.11176432672943282
3754.0,0.1114835389250548
3753.0,0.11069829749368965
3752.0,0.10952309103982927
3751.0,0.10952309103982927
3750.0,0.11069829749368965
3749.0,0.11008231656379408
3748.0,0.10851829616048003
3747.0,0.11019424813191447
3746.0,0.114865033936566
3745.0,0.11861534322942724
3744.0,0.11850122038501709
3743.0,0.11548784080960606
3742.0,0.11390426756225258
3741.0,0.114865033936566
3740.0,0.11458223488906394
3739.0,0.11227020271196975
3738.0,0.11008231656379408
3737.0,0.10885296955122903
3736.0,0.10779405402422748
3735.0,0.10723776538418317
3734.0,0.10851829616048003
3733.0,0.11131515334030118
3732.0,0.1137349409702435
3731.0,0.11458223488906394
3730.0,0.11503480179926728
3729.0,0.11622503864474187
3728.0,0.11719095860756013
3727.0,0.116736140415026
3726.0,0.11520463605101905
3725.0,0.11424311893073247
3724.0,0.11446916681190777
3723.0,0.11492161585077598
3722.0,0.11503480179926728
3721.0,0.11509140583739286
3720.0,0.11565785235294102
3719.0,0.11667932161702477
3718.0,0.11730473761840288
3717.0,0.1169634899723202
3716.0,0.11599807523121286
3715.0,0.11520463605101905
3714.0,0.11446916681190777
3713.0,0.11322735694556196
3712.0,0.11210151190312767
3711.0,0.11227020271196975
3710.0,0.11379137583250243
3709.0,0.11537453674376552
3708.0,0.11662251025166115
3707.0,0.11736163830396129
3706.0,0.1174754620451195
3705.0,0.11736163830396129
3704.0,0.11736163830396129
3703.0,0.11764625361128611
3702.0,0.11815903167507247
3701.0,0.11872949607064243
3700.0,0.1190150095132465
3699.0,0.11941504393502012
3698.0,0.1199871616332282
3697.0,0.11987267778337518
3696.0,0.11861534322942724
3695.0,0.1170772093974013
3694.0,0.11588463798833115
3693.0,0.11458223488906394
3692.0,0.11288929687511629
3691.0,0.11182050608167504
3690.0,0.11277666863747693
3689.0,0.11565785235294102
3688.0,0.11804502866039956
3687.0,0.11867241589944855
3686.0,0.11930071078129845
3685.0,0.12061736282565727
3684.0,0.12113366304327466
3683.0,0.1202162199095842
3682.0,0.11890078161098283
3681.0,0.11764625361128611
3680.0,0.1157145376603248
3679.0,0.1130019543289007
3678.0,0.11109074073646874
3677.0,0.11103465569966264
3676.0,0.11182050608167504
3675.0,0.1117081546434846
3674.0,0.11036219959333216
3673.0,0.11047420332880886
3672.0,0.1133401021387972
3671.0,0.11565785235294102
3670.0,0.11622503864474187
3669.0,0.1170772093974013
3668.0,0.11878658374498086
3667.0,0.1207320431753871
3666.0,0.12222565000860186
3665.0,0.12280148472821018
3664.0,0.12268625668776156
3663.0,0.12268625668776156
3662.0,0.12257105921178035
3661.0,0.12193801870998744
3660.0,0.1207320431753871
3659.0,0.11975822410451964
3658.0,0.11964380058076385
3657.0,0.11981544717356662
3656.0,0.11930071078129845
3655.0,0.11758931562603192
3654.0,0.11582793047608719
3653.0,0.1148084593931522
3652.0,0.1133401021387972
3651.0,0.11025022473596224
3650.0,0.1075158206353124
3649.0,0.10862982530385179
3648.0,0.11277666863747693
3647.0,0.11565785235294102
3646.0,0.1169634899723202
3645.0,0.11844417020668851
3644.0,0.12015894401343741
3643.0,0.12147820449879343
3642.0,0.12188051530283239
3641.0,0.12188051530283239
3640.0,0.12188051530283239
3639.0,0.12182301950849372
3638.0,0.12136332697348307
3637.0,0.1207893947082408
3636.0,0.12050271275057156
3635.0,0.1202162199095842
3634.0,0.1190150095132465
3633.0,0.1169634899723202
3632.0,0.1157145376603248
3631.0,0.11605480496572018
3630.0,0.11719095860756013
3629.0,0.1183871275216517
3628.0,0.11981544717356662
3627.0,0.12084675381575383
3626.0,0.12193801870998744
3625.0,0.12285911021517903
3624.0,0.12234075588839133
3623.0,0.1207320431753871
3622.0,0.11935787359571504
3621.0,0.11861534322942724
3620.0,0.11793105556385153
3619.0,0.11713408027837091
3618.0,0.11611154211151953
3617.0,0.11520463605101905
3616.0,0.11503480179926728
3615.0,0.11577123036739612
3614.0,0.11662251025166115
3613.0,0.11736163830396129
3612.0,0.11810202642698875
3611.0,0.11907213473291511
3610.0,0.12027350336042275
3609.0,0.12119106764079435
3608.0,0.12193801870998744
3607.0,0.12268625668776156
3606.0,0.12326270285933538
3605.0,0.12343578601615435
3604.0,0.12297438413275108
3603.0,0.12216810850710624
3602.0,0.12136332697348307
3601.0,0.12096149476276286
3600.0,0.12084675381575383
3599.0,0.12061736282565727
3598.0,0.1202162199095842
3597.0,0.11958660012208333
3596.0,0.11918640771920863
3595.0,0.11935787359571504
3594.0,0.1201016756699902
3593.0,0.12084675381575383
3592.0,0.12119106764079435
3591.0,0.12101887660626365
3590.0,0.12056003400478299
3589.0,0.11992991593593283
3588.0,0.11987267778337518
3587.0,0.12096149476276286
3586.0,0.12280148472821018
3585.0,0.12430223801979201
3584.0,0.1252863112422209
3583.0,0.12575017722159698
3582.0,0.12575017722159698
3581.0,0.12557616941349803
3580.0,0.12551818230053358
3579.0,0.12569216687196105
3578.0,0.12598229613781387
3577.0,0.126156466776564
3576.0,0.12621453918179926
3575.0,0.126156466776564
3574.0,0.12598229613781387
3573.0,0.12551818230053358
3572.0,0.12453358413361437
3571.0,0.12308968865537295
3570.0,0.12124847982699793
3569.0,0.11947222180119477
3568.0,0.11827306462358211
3567.0,0.11850122038501709
3566.0,0.1202162199095842
3565.0,0.12205304837081177
3564.0,0.12355121312165873
3563.0,0.12482294018529605
3562.0,0.12598229613781387
3561.0,0.12697018793895576
3560.0,0.12778543660241448
3559.0,0.12842706445412122
3558.0,0.12877744324029283
3557.0,0.12883586719705065
3556.0,0.12866061890013913
3555.0,0.1283103343144847
3554.0,0.1281352979118051
3553.0,0.12819363554127072
3552.0,0.1283103343144847
3551.0,0.1280186461566306
3550.0,0.12726117252733116
3549.0,0.12644690648638135
3548.0,0.12569216687196105
3547.0,0.12546020292898974
3546.0,0.12604034525664676
3545.0,0.12737762097471172
3544.0,0.12883586719705065
3543.0,0.12988884463559924
3542.0,0.13041629228657614
3541.0,0.13053358991913355
3540.0,0.13035765534840538
3539.0,0.13012318673323353
3538.0,0.13012318673323353
3537.0,0.13041629228657614
3536.0,0.1308856730206247
3535.0,0.1311205537629121
3534.0,0.13100309751286465
3533.0,0.13041629228657614
3532.0,0.12971317100740865
3531.0,0.12895273869450063
3530.0,0.12854382597704617
3529.0,0.12842706445412122
3528.0,0.12842706445412122
3527.0,0.12854382597704617
3526.0,0.1287190271420271
3525.0,0.12912810493225724
3524.0,0.12971317100740865
3523.0,0.1302990263261221
3522.0,0.13070959579060148
3521.0,0.1308856730206247
3520.0,0.13100309751286465
3519.0,0.13100309751286465
3518.0,0.1311205537629121
3517.0,0.13135556160517425
3516.0,0.1316495003520317
3515.0,0.13194363817695853
3514.0,0.13200248965504868
3513.0,0.13176713157753506
3512.0,0.1312967977214634
3511.0,0.1308269726783169
3510.0,0.1304749371427727
3509.0,0.13035765534840538
3508.0,0.1302990263261221
3507.0,0.13018179202067182
3506.0,0.13000599987825812
3505.0,0.12988884463559924
3504.0,0.13012318673323353
3503.0,0.13076828026902376
3502.0,0.13170831198214428
3501.0,0.13229686672990226
3500.0,0.13247358880025661
3499.0,0.13235576609690147
3498.0,0.13235576609690147
3497.0,0.1325325121409484
3496.0,0.13282724882135022
3495.0,0.13306318226836056
3494.0,0.13306318226836056
3493.0,0.13288622016802298
3492.0,0.13259144347720886
3491.0,0.13229686672990226
3490.0,0.1320613491092153
3489.0,0.13200248965504868
3488.0,0.1320613491092153
3487.0,0.13212021654162043
3486.0,0.1320613491092153
3485.0,0.13170831198214428
3484.0,0.13123804178794973
3483.0,0.13094438129809216
3482.0,0.13106182166708868
3481.0,0.13176713157753506
3480.0,0.13270933014511588
3479.0,0.13347637446715632
3478.0,0.1337717526203528
3477.0,0.13371266091580503
3476.0,0.13353543402825974
3475.0,0.13347637446715632
3474.0,0.13347637446715632
3473.0,0.13353543402825974
3472.0,0.1337717526203528
3471.0,0.13406733180681396
3470.0,0.13442229258007088
3469.0,0.134659094375416
3468.0,0.13454067733803532
3467.0,0.13418561983203192
3466.0,0.13365357725039817
3465.0,0.13324021650489182
3464.0,0.13300418688935212
3463.0,0.13294519952329842
3462.0,0.13300418688935212
3461.0,0.13324021650489182
3460.0,0.13359450162194508
3459.0,0.13394907599072514
3458.0,0.13424477592854833
3457.0,0.13430394008392943
3456.0,0.13430394008392943
3455.0,0.13430394008392943
3454.0,0.13442229258007088
3453.0,0.134659094375416
3452.0,0.13477754370982087
3451.0,0.1345998818206986
3450.0,0.13430394008392943
3449.0,0.13406733180681396
3448.0,0.13406733180681396
3447.0,0.13424477592854833
3446.0,0.13442229258007088
3445.0,0.134659094375416
3444.0,0.13489602535887202
3443.0,0.13519237097385295
3442.0,0.13542959314656988
3441.0,0.13572630319562085
3440.0,0.13596381727422502
3439.0,0.1360826230421397
3438.0,0.13626089265478303
3437.0,0.13661765155921235
3436.0,0.13709378643700187
3435.0,0.1374512304752069
3434.0,0.1375704438939911
3433.0,0.1374512304752069
3432.0,0.13727247168202528
3431.0,0.13721290176465573
3430.0,0.13727247168202528
3429.0,0.1374512304752069
3428.0,0.13751083309410284
3427.0,0.1373320497714121
3426.0,0.13697470377052956
3425.0,0.13673663634951905
3424.0,0.13655817138629134
3423.0,0.13655817138629134
3422.0,0.13661765155921235
3421.0,0.13673663634951905
3420.0,0.1369151746796402
3419.0,0.13715334001706125
3418.0,0.13739163603505822
3417.0,0.13751083309410284
3416.0,0.13751083309410284
3415.0,0.13727247168202528
3414.0,0.13709378643700187
3413.0,0.13715334001706125
3412.0,0.13739163603505822
3411.0,0.1374512304752069
3410.0,0.13727247168202528
3409.0,0.13697470377052956
3408.0,0.1366771398795441
3407.0,0.13649869935854997
3406.0,0.13632033212410222
3405.0,0.13632033212410222
3404.0,0.1363797797296844
3403.0,0.13649869935854997
3402.0,0.1366771398795441
3401.0,0.13673663634951905
3400.0,0.13661765155921235
3399.0,0.13626089265478303
3398.0,0.13584504399797437
3397.0,0.13531096586314884
3396.0,0.13483678049391368
3395.0,0.13448148092522594
3394.0,0.13442229258007088
3393.0,0.1345998818206986
3392.0,0.13519237097385295
3391.0,0.13590442657575252
3390.0,0.13655817138629134
3389.0,0.13685565374733244
3388.0,0.13661765155921235
3387.0,0.13596381727422502
3386.0,0.1352516643703412
3385.0,0.13489602535887202
3384.0,0.13501453934020602
3383.0,0.13537027545448765
3382.0,0.13578566953867033
3381.0,0.136142038116027
3380.0,0.13632033212410222
3379.0,0.1363797797296844
3378.0,0.13626089265478303
3377.0,0.1360232160956132
3376.0,0.13572630319562085
3375.0,0.13542959314656988
3374.0,0.13537027545448765
3373.0,0.13554825284181704
3372.0,0.13578566953867033
3371.0,0.13596381727422502
3370.0,0.1360826230421397
3369.0,0.136142038116027
3368.0,0.13620146131949973
3367.0,0.1360826230421397
3366.0,0.13578566953867033
3365.0,0.13537027545448765
3364.0,0.13489602535887202
3363.0,0.13454067733803532
3362.0,0.13448148092522594
3361.0,0.134659094375416
3360.0,0.1349552783069008
3359.0,0.13513308567147386
3358.0,0.13513308567147386
3357.0,0.13513308567147386
3356.0,0.13513308567147386
3355.0,0.13513308567147386
3354.0,0.13513308567147386
3353.0,0.13531096586314884
3352.0,0.13566694496660703
3351.0,0.1360826230421397
3350.0,0.1363797797296844
3349.0,0.13655817138629134
3348.0,0.13661765155921235
3347.0,0.13649869935854997
3346.0,0.1363797797296844
3345.0,0.13626089265478303
3344.0,0.1360826230421397
3343.0,0.13590442657575252
3342.0,0.13584504399797437
3341.0,0.13590442657575252
3340.0,0.1360826230421397
3339.0,0.13632033212410222
3338.0,0.13655817138629134
3337.0,0.13661765155921235
3336.0,0.13649869935854997
3335.0,0.136142038116027
3334.0,0.13584504399797437
3333.0,0.13572630319562085
3332.0,0.13584504399797437
3331.0,0.1360232160956132
3330.0,0.13626089265478303
3329.0,0.13655817138629134
3328.0,0.1366771398795441
3327.0,0.13655817138629134
3326.0,0.13626089265478303
3325.0,0.13596381727422502
3324.0,0.13584504399797437
3323.0,0.13590442657575252
3322.0,0.1360232160956132
3321.0,0.13620146131949973
3320.0,0.13649869935854997
3319.0,0.13673663634951905
3318.0,0.1367961409713705
3317.0,0.13673663634951905
3316.0,0.13655817138629134
3315.0,0.13620146131949973
3314.0,0.13590442657575252
3313.0,0.13566694496660703
3312.0,0.13560759484941132
3311.0,0.13572630319562085
3310.0,0.1360826230421397
3309.0,0.13655817138629134
3308.0,0.1370342410222376
3307.0,0.1373320497714121
3306.0,0.1375704438939911
3305.0,0.13774932540207496
3304.0,0.13780896894840278
3303.0,0.13751083309410284
3302.0,0.13697470377052956
3301.0,0.13655817138629134
3300.0,0.13632033212410222
3299.0,0.13626089265478303
3298.0,0.13632033212410222
3297.0,0.13649869935854997
3296.0,0.1366771398795441
3295.0,0.1367961409713705
3294.0,0.13673663634951905
3293.0,0.1366771398795441
3292.0,0.13661765155921235
3291.0,0.13655817138629134
3290.0,0.13649869935854997
3289.0,0.13649869935854997
3288.0,0.13649869935854997
3287.0,0.13655817138629134
3286.0,0.13661765155921235
3285.0,0.1366771398795441
3284.0,0.13673663634951905
3283.0,0.13661765155921235
3282.0,0.13643923547375736
3281.0,0.13626089265478303
3280.0,0.136142038116027
3279.0,0.1360826230421397
3278.0,0.13620146131949973
3277.0,0.13643923547375736
3276.0,0.1367961409713705
3275.0,0.13709378643700187
3274.0,0.13715334001706125
3273.0,0.13715334001706125
3272.0,0.13727247168202528
3271.0,0.13763006287711765
3270.0,0.13792828062000573
3269.0,0.13792828062000573
3268.0,0.1374512304752069
3267.0,0.13673663634951905
3266.0,0.13626089265478303
3265.0,0.13626089265478303
3264.0,0.13655817138629134
3263.0,0.13685565374733244
3262.0,0.13697470377052956
3261.0,0.13697470377052956
3260.0,0.13709378643700187
3259.0,0.13715334001706125
3258.0,0.13727247168202528
3257.0,0.13739163603505822
3256.0,0.13768969004572962
3255.0,0.13798794874978348
3254.0,0.13816700234205515
3253.0,0.1380476250785483
3252.0,0.1375704438939911
3251.0,0.13697470377052956
3250.0,0.13649869935854997
3249.0,0.13643923547375736
3248.0,0.13661765155921235
3247.0,0.1369151746796402
3246.0,0.13709378643700187
3245.0,0.13721290176465573
3244.0,0.1373320497714121
3243.0,0.1373320497714121
3242.0,0.13721290176465573
3241.0,0.13715334001706125
3240.0,0.13727247168202528
3239.0,0.1374512304752069
3238.0,0.1375704438939911
3237.0,0.13763006287711765
3236.0,0.13774932540207496
3235.0,0.13786862068696282
3234.0,0.13792828062000573
3233.0,0.13792828062000573
3232.0,0.13774932540207496
3231.0,0.1373320497714121
3230.0,0.1370342410222376
3229.0,0.1370342410222376
3228.0,0.1373320497714121
3227.0,0.13763006287711765
3226.0,0.13763006287711765
3225.0,0.13751083309410284
3224.0,0.13727247168202528
3223.0,0.13715334001706125
3222.0,0.13721290176465573
3221.0,0.13751083309410284
3220.0,0.1380476250785483
3219.0,0.13858508136400327
3218.0,0.13894375542312654
3217.0,0.13900356324280416
3216.0,0.13870460647330418
3215.0,0.13816700234205515
3214.0,0.1375704438939911
3213.0,0.13709378643700187
3212.0,0.1369151746796402
3211.0,0.13685565374733244
3210.0,0.1369151746796402
3209.0,0.13715334001706125
3208.0,0.13751083309410284
3207.0,0.13780896894840278
3206.0,0.13798794874978348
3205.0,0.13798794874978348
3204.0,0.13792828062000573
3203.0,0.13774932540207496
3202.0,0.1374512304752069
3201.0,0.13721290176465573
3200.0,0.1370342410222376
3199.0,0.1369151746796402
3198.0,0.13685565374733244
3197.0,0.1370342410222376
3196.0,0.13727247168202528
3195.0,0.1374512304752069
3194.0,0.13751083309410284
3193.0,0.13751083309410284
3192.0,0.13751083309410284
3191.0,0.1374512304752069
3190.0,0.13727247168202528
3189.0,0.13715334001706125
3188.0,0.13697470377052956
3187.0,0.13685565374733244
3186.0,0.13673663634951905
3185.0,0.1367961409713705
3184.0,0.13697470377052956
3183.0,0.13715334001706125
3182.0,0.13715334001706125
3181.0,0.13709378643700187
3180.0,0.1370342410222376
3179.0,0.1369151746796402
3178.0,0.1367961409713705
3177.0,0.1367961409713705
3176.0,0.1367961409713705
3175.0,0.1367961409713705
3174.0,0.13673663634951905
3173.0,0.13661765155921235
3172.0,0.13661765155921235
3171.0,0.1366771398795441
3170.0,0.13673663634951905
3169.0,0.1367961409713705
3168.0,0.13673663634951905
3167.0,0.13673663634951905
3166.0,0.1367961409713705
3165.0,0.1370342410222376
3164.0,0.13739163603505822
3163.0,0.13751083309410284
3162.0,0.13739163603505822
3161.0,0.13709378643700187
3160.0,0.13685565374733244
3159.0,0.1367961409713705
3158.0,0.13685565374733244
3157.0,0.13697470377052956
3156.0,0.13715334001706125
3155.0,0.1373320497714121
3154.0,0.13751083309410284
3153.0,0.13774932540207496
3152.0,0.13792828062000573
3151.0,0.13786862068696282
3150.0,0.1374512304752069
3149.0,0.13697470377052956
3148.0,0.13661765155921235
3147.0,0.1363797797296844
3146.0,0.1363797797296844
3145.0,0.13649869935854997
3144.0,0.1366771398795441
3143.0,0.1366771398795441
3142.0,0.13661765155921235
3141.0,0.13661765155921235
3140.0,0.13685565374733244
3139.0,0.13715334001706125
3138.0,0.1373320497714121
3137.0,0.13727247168202528
3136.0,0.13685565374733244
3135.0,0.13626089265478303
3134.0,0.13584504399797437
3133.0,0.13590442657575252
3132.0,0.1363797797296844
3131.0,0.1369151746796402
3130.0,0.13721290176465573
3129.0,0.13727247168202528
3128.0,0.13721290176465573
3127.0,0.13697470377052956
3126.0,0.13661765155921235
3125.0,0.13632033212410222
3124.0,0.13620146131949973
3123.0,0.136142038116027
3122.0,0.13626089265478303
3121.0,0.13643923547375736
3120.0,0.1366771398795441
3119.0,0.1367961409713705
3118.0,0.13673663634951905
3117.0,0.1366771398795441
3116.0,0.1367961409713705
3115.0,0.13685565374733244
3114.0,0.13685565374733244
3113.0,0.13661765155921235
3112.0,0.13632033212410222
3111.0,0.136142038116027
3110.0,0.13632033212410222
3109.0,0.13685565374733244
3108.0,0.1373320497714121
3107.0,0.13751083309410284
3106.0,0.13721290176465573
3105.0,0.1367961409713705
3104.0,0.13655817138629134
3103.0,0.13661765155921235
3102.0,0.13685565374733244
3101.0,0.13721290176465573
3100.0,0.13751083309410284
3099.0,0.1374512304752069
3098.0,0.1370342410222376
3097.0,0.13649869935854997
3096.0,0.1360826230421397
3095.0,0.13590442657575252
3094.0,0.13620146131949973
3093.0,0.1367961409713705
3092.0,0.1375704438939911
3091.0,0.13816700234205515
3090.0,0.13822670328130693
3089.0,0.13792828062000573
3088.0,0.1374512304752069
3087.0,0.1370342410222376
3086.0,0.1369151746796402
3085.0,0.13727247168202528
3084.0,0.13774932540207496
3083.0,0.13798794874978348
3082.0,0.13786862068696282
3081.0,0.13768969004572962
3080.0,0.13763006287711765
3079.0,0.13774932540207496
3078.0,0.13786862068696282
3077.0,0.13792828062000573
3076.0,0.13774932540207496
3075.0,0.1373320497714121
3074.0,0.13697470377052956
3073.0,0.1369151746796402
3072.0,0.1370342410222376
3071.0,0.13709378643700187
3070.0,0.13715334001706125
3069.0,0.1373320497714121
3068.0,0.13780896894840278
3067.0,0.13828641242856565
3066.0,0.1384058553561347
3065.0,0.1381073096085541
3064.0,0.13774932540207496
3063.0,0.13739163603505822
3062.0,0.13727247168202528
3061.0,0.13727247168202528
3060.0,0.1373320497714121
3059.0,0.13739163603505822
3058.0,0.13739163603505822
3057.0,0.1375704438939911
3056.0,0.13780896894840278
3055.0,0.1381073096085541
3054.0,0.13822670328130693
3053.0,0.13828641242856565
3052.0,0.13822670328130693
3051.0,0.13816700234205515
3050.0,0.1380476250785483
3049.0,0.13780896894840278
3048.0,0.1375704438939911
3047.0,0.1374512304752069
3046.0,0.1374512304752069
3045.0,0.1375704438939911
3044.0,0.13768969004572962
3043.0,0.13763006287711765
3042.0,0.13751083309410284
3041.0,0.13727247168202528
3040.0,0.1369151746796402
3039.0,0.13649869935854997
3038.0,0.1360826230421397
3037.0,0.13584504399797437
3036.0,0.13590442657575252
3035.0,0.13596381727422502
3034.0,0.1360826230421397
3033.0,0.1360826230421397
3032.0,0.1360232160956132
3031.0,0.1360232160956132
3030.0,0.13596381727422502
3029.0,0.13590442657575252
3028.0,0.13578566953867033
3027.0,0.13554825284181704
3026.0,0.13531096586314884
3025.0,0.1352516643703412
3024.0,0.1352516643703412
3023.0,0.1352516643703412
3022.0,0.13531096586314884
3021.0,0.13554825284181704
3020.0,0.13578566953867033
3019.0,0.1360826230421397
3018.0,0.1363797797296844
3017.0,0.1366771398795441
3016.0,0.13697470377052956
3015.0,0.13709378643700187
3014.0,0.1370342410222376
3013.0,0.13697470377052956
3012.0,0.13697470377052956
3011.0,0.1369151746796402
3010.0,0.13673663634951905
3009.0,0.13643923547375736
3008.0,0.1360826230421397
3007.0,0.13590442657575252
3006.0,0.13596381727422502
3005.0,0.13620146131949973
3004.0,0.13643923547375736
3003.0,0.13655817138629134
3002.0,0.13643923547375736
3001.0,0.1363797797296844
3000.0,0.1363797797296844
2999.0,0.13643923547375736
2998.0,0.13655817138629134
2997.0,0.1367961409713705
2996.0,0.1370342410222376
2995.0,0.13721290176465573
2994.0,0.1374512304752069
2993.0,0.13774932540207496
2992.0,0.13792828062000573
2991.0,0.13780896894840278
2990.0,0.13739163603505822
2989.0,0.13697470377052956
2988.0,0.13685565374733244
2987.0,0.13685565374733244
2986.0,0.13697470377052956
2985.0,0.13709378643700187
2984.0,0.13739163603505822
2983.0,0.13786862068696282
2982.0,0.13858508136400327
2981.0,0.13948232253825377
2980.0,0.1402014525194344
2979.0,0.14056146454494378
2978.0,0.14062149557439896
2977.0,0.14062149557439896
2976.0,0.1407415825326932
2975.0,0.1410419452819942
2974.0,0.1415229581866595
2973.0,0.1419442819496357
2972.0,0.14224547794055775
2971.0,0.14242629585250421
2970.0,0.1425468829647336
2969.0,0.14284849731250704
2968.0,0.1432711096171173
2967.0,0.14375459920994582
2966.0,0.14423862766005224
2965.0,0.14484442282300614
2964.0,0.14545106418704923
2963.0,0.14587621789883287
2962.0,0.1461193498754576
2961.0,0.1461193498754576
2960.0,0.1461193498754576
2959.0,0.14599776687301103
2958.0,0.14581545616639335
2957.0,0.14581545616639335
2956.0,0.1459369881335788
2955.0,0.14605855411951008
2954.0,0.14618015414323682
2953.0,0.14630178822382556
2952.0,0.1463626180414057
2951.0,0.14630178822382556
2950.0,0.1459369881335788
2949.0,0.1456332219591303
2948.0,0.14551177495556966
2947.0,0.1455724942121388
2946.0,0.14575470293388149
2945.0,0.14581545616639335
2944.0,0.1456939581989194
2943.0,0.14520830594601453
2942.0,0.14442027749828212
2941.0,0.14369413356670102
2940.0,0.1432711096171173
2939.0,0.14302956651750764
2938.0,0.14284849731250704
2937.0,0.1427278264359586
2936.0,0.1427278264359586
2935.0,0.1427278264359586
2934.0,0.1427881576831076
2933.0,0.14284849731250704
2932.0,0.14290884532648618
2931.0,0.1430899396992138
2930.0,0.14333151638846497
2929.0,0.14357322752975565
2928.0,0.14357322752975565
2927.0,0.14339193156306385
2926.0,0.1430899396992138
2925.0,0.14302956651750764
2924.0,0.1430899396992138
2923.0,0.1430899396992138
2922.0,0.14296920172737604
2921.0,0.14284849731250704
2920.0,0.14290884532648618
2919.0,0.1430899396992138
2918.0,0.14339193156306385
2917.0,0.14375459920994582
2916.0,0.14405705376768396
2915.0,0.14417809459397013
2914.0,0.1441175699639643
2913.0,0.14405705376768396
2912.0,0.14393604666690019
2911.0,0.14369413356670102
2910.0,0.14333151638846497
2909.0,0.14315032127482774
2908.0,0.14315032127482774
2907.0,0.14321071124668383
2906.0,0.1432711096171173
2905.0,0.1432711096171173
2904.0,0.1432711096171173
2903.0,0.1430899396992138
2902.0,0.1427278264359586
2901.0,0.1423660148499919
2900.0,0.14218522202899342
2899.0,0.14230574221345038
2898.0,0.14248658522331015
2897.0,0.1427881576831076
2896.0,0.14296920172737604
2895.0,0.14290884532648618
2894.0,0.1427278264359586
2893.0,0.14260718907909875
2892.0,0.14248658522331015
2891.0,0.14230574221345038
2890.0,0.14206473528057106
2889.0,0.1419442819496357
2888.0,0.1419442819496357
2887.0,0.1419442819496357
2886.0,0.141884067809934
2885.0,0.14182386201765573
2884.0,0.14176366457048695
2883.0,0.14164329470222659
2882.0,0.1415229581866595
2881.0,0.1415831222765116
2880.0,0.14176366457048695
2879.0,0.1419442819496357
2878.0,0.14206473528057106
2877.0,0.14230574221345038
2876.0,0.14266750356873148
2875.0,0.1430899396992138
2874.0,0.14345235514325205
2873.0,0.14357322752975565
2872.0,0.14333151638846497
2871.0,0.1427278264359586
2870.0,0.14200450443907608
2869.0,0.1415229581866595
2868.0,0.1413425159091921
2867.0,0.14140265500530758
2866.0,0.1414628024303608
2865.0,0.1415229581866595
2864.0,0.14170347546611461
2863.0,0.141884067809934
2862.0,0.14224547794055775
2861.0,0.1427881576831076
2860.0,0.14351278713136928
2859.0,0.1438755557576996
2858.0,0.14381507327283027
2857.0,0.14363367634075197
2856.0,0.14363367634075197
2855.0,0.14393604666690019
2854.0,0.14435971910985468
2853.0,0.14466259553045968
2852.0,0.14472319616990825
2851.0,0.14448084433219988
2850.0,0.1441175699639643
2849.0,0.14393604666690019
2848.0,0.143996546002779
2847.0,0.14393604666690019
2846.0,0.14369413356670102
2845.0,0.14321071124668383
2844.0,0.1427881576831076
2843.0,0.14260718907909875
2842.0,0.1427278264359586
2841.0,0.14315032127482774
2840.0,0.14363367634075197
2839.0,0.143996546002779
2838.0,0.14405705376768396
2837.0,0.14375459920994582
2836.0,0.1432711096171173
2835.0,0.1427881576831076
2834.0,0.1423660148499919
2833.0,0.14218522202899342
2832.0,0.14224547794055775
2831.0,0.14230574221345038
2830.0,0.14230574221345038
2829.0,0.14230574221345038
2828.0,0.14230574221345038
2827.0,0.14224547794055775
2826.0,0.14206473528057106
2825.0,0.1419442819496357
2824.0,0.14200450443907608
2823.0,0.14224547794055775
2822.0,0.1425468829647336
2821.0,0.1427881576831076
2820.0,0.1427881576831076
2819.0,0.1425468829647336
2818.0,0.14212497447643746
2817.0,0.1419442819496357
2816.0,0.141884067809934
2815.0,0.14182386201765573
2814.0,0.14176366457048695
2813.0,0.14176366457048695
2812.0,0.1419442819496357
2811.0,0.14218522202899342
2810.0,0.14248658522331015
2809.0,0.1427278264359586
2808.0,0.14284849731250704
2807.0,0.14284849731250704
2806.0,0.1427881576831076
2805.0,0.1427278264359586
2804.0,0.14266750356873148
2803.0,0.14266750356873148
2802.0,0.14260718907909875
2801.0,0.14260718907909875
2800.0,0.1427881576831076
2799.0,0.14296920172737604
2798.0,0.14302956651750764
2797.0,0.14302956651750764
2796.0,0.14290884532648618
2795.0,0.1427278264359586
2794.0,0.14260718907909875
2793.0,0.14266750356873148
2792.0,0.14284849731250704
2791.0,0.14290884532648618
2790.0,0.14284849731250704
2789.0,0.14260718907909875
2788.0,0.14224547794055775
2787.0,0.14182386201765573
2786.0,0.1415229581866595
2785.0,0.1414628024303608
2784.0,0.14170347546611461
2783.0,0.141884067809934
2782.0,0.1419442819496357
2781.0,0.141884067809934
2780.0,0.14176366457048695
2779.0,0.1415831222765116
2778.0,0.1414628024303608
2777.0,0.1415229581866595
2776.0,0.14170347546611461
2775.0,0.141884067809934
2774.0,0.141884067809934
2773.0,0.14182386201765573
2772.0,0.14170347546611461
2771.0,0.14170347546611461
2770.0,0.14170347546611461
2769.0,0.14182386201765573
2768.0,0.14200450443907608
2767.0,0.14212497447643746
2766.0,0.14218522202899342
2765.0,0.14230574221345038
2764.0,0.14230574221345038
2763.0,0.14212497447643746
2762.0,0.14182386201765573
2761.0,0.14170347546611461
2760.0,0.14182386201765573
2759.0,0.141884067809934
2758.0,0.141884067809934
2757.0,0.141884067809934
2756.0,0.1419442819496357
2755.0,0.1419442819496357
2754.0,0.14182386201765573
2753.0,0.14176366457048695
2752.0,0.14182386201765573
2751.0,0.14200450443907608
2750.0,0.14218522202899342
2749.0,0.14248658522331015
2748.0,0.1427278264359586
2747.0,0.14296920172737604
2746.0,0.14302956651750764
2745.0,0.14302956651750764
2744.0,0.14296920172737604
2743.0,0.1427881576831076
2742.0,0.1425468829647336
2741.0,0.14224547794055775
2740.0,0.14200450443907608
2739.0,0.1419442819496357
2738.0,0.14200450443907608
2737.0,0.14218522202899342
2736.0,0.14242629585250421
2735.0,0.1425468829647336
2734.0,0.1425468829647336
2733.0,0.1425468829647336
2732.0,0.14248658522331015
2731.0,0.14248658522331015
2730.0,0.14242629585250421
2729.0,0.14248658522331015
2728.0,0.1427881576831076
2727.0,0.14321071124668383
2726.0,0.14339193156306385
2725.0,0.1432711096171173
2724.0,0.14296920172737604
2723.0,0.1427278264359586
2722.0,0.1427278264359586
2721.0,0.14290884532648618
2720.0,0.1430899396992138
2719.0,0.14302956651750764
2718.0,0.14266750356873148
2717.0,0.14230574221345038
2716.0,0.14206473528057106
2715.0,0.14206473528057106
2714.0,0.14230574221345038
2713.0,0.1427278264359586
2712.0,0.14302956651750764
2711.0,0.14302956651750764
2710.0,0.1427881576831076
2709.0,0.14248658522331015
2708.0,0.14230574221345038
2707.0,0.14212497447643746
2706.0,0.14212497447643746
2705.0,0.14218522202899342
2704.0,0.14218522202899342
2703.0,0.14212497447643746
2702.0,0.14206473528057106
2701.0,0.14224547794055775
2700.0,0.14260718907909875
2699.0,0.1427881576831076
2698.0,0.1427881576831076
2697.0,0.14266750356873148
2696.0,0.1425468829647336
2695.0,0.14248658522331015
2694.0,0.14230574221345038
2693.0,0.14230574221345038
2692.0,0.14242629585250421
2691.0,0.14260718907909875
2690.0,0.1427881576831076
2689.0,0.14296920172737604
2688.0,0.14315032127482774
2687.0,0.14315032127482774
2686.0,0.1430899396992138
2685.0,0.1430899396992138
2684.0,0.14315032127482774
2683.0,0.1432711096171173
2682.0,0.14333151638846497
2681.0,0.14345235514325205
2680.0,0.14363367634075197
2679.0,0.14369413356670102
2678.0,0.14363367634075197
2677.0,0.14363367634075197
2676.0,0.14363367634075197
2675.0,0.14351278713136928
2674.0,0.14321071124668383
2673.0,0.14296920172737604
2672.0,0.14290884532648618
2671.0,0.14296920172737604
2670.0,0.14302956651750764
2669.0,0.1430899396992138
2668.0,0.14315032127482774
2667.0,0.14315032127482774
2666.0,0.14321071124668383
2665.0,0.14333151638846497
2664.0,0.14345235514325205
2663.0,0.14345235514325205
2662.0,0.14333151638846497
2661.0,0.14315032127482774
2660.0,0.14321071124668383
2659.0,0.1432711096171173
2658.0,0.14339193156306385
2657.0,0.14345235514325205
2656.0,0.14351278713136928
2655.0,0.14357322752975565
2654.0,0.14369413356670102
2653.0,0.1438755557576996
2652.0,0.14393604666690019
2651.0,0.14381507327283027
2650.0,0.14363367634075197
2649.0,0.14357322752975565
2648.0,0.14363367634075197
2647.0,0.14375459920994582
2646.0,0.14369413356670102
2645.0,0.14357322752975565
2644.0,0.14345235514325205
2643.0,0.14339193156306385
2642.0,0.14351278713136928
2641.0,0.14369413356670102
2640.0,0.1438755557576996
2639.0,0.14381507327283027
2638.0,0.14369413356670102
2637.0,0.14357322752975565
2636.0,0.14345235514325205
2635.0,0.14333151638846497
2634.0,0.1430899396992138
2633.0,0.14296920172737604
2632.0,0.14296920172737604
2631.0,0.14302956651750764
2630.0,0.14315032127482774
2629.0,0.14339193156306385
2628.0,0.14369413356670102
2627.0,0.1438755557576996
2626.0,0.1438755557576996
2625.0,0.14375459920994582
2624.0,0.14363367634075197
2623.0,0.14351278713136928
2622.0,0.14357322752975565
2621.0,0.14393604666690019
2620.0,0.14435971910985468
2619.0,0.14466259553045968
2618.0,0.14466259553045968
2617.0,0.14454141961396383
2616.0,0.14448084433219988
2615.0,0.14442027749828212
2614.0,0.14442027749828212
2613.0,0.14448084433219988
2612.0,0.14448084433219988
2611.0,0.14448084433219988
2610.0,0.14435971910985468
2609.0,0.14429916916456276
2608.0,0.14435971910985468
2607.0,0.14448084433219988
2606.0,0.14448084433219988
2605.0,0.14454141961396383
2604.0,0.14454141961396383
2603.0,0.14454141961396383
2602.0,0.14442027749828212
2601.0,0.14442027749828212
2600.0,0.14454141961396383
2599.0,0.14466259553045968
2598.0,0.14466259553045968
2597.0,0.14466259553045968
2596.0,0.14466259553045968
2595.0,0.14466259553045968
2594.0,0.14466259553045968
2593.0,0.1446020033459312
2592.0,0.14454141961396383
2591.0,0.14448084433219988
2590.0,0.14442027749828212
2589.0,0.14454141961396383
2588.0,0.1447838052666366
2587.0,0.14502632627358292
2586.0,0.14520830594601453
2585.0,0.14526898278605782
2584.0,0.14526898278605782
2583.0,0.14514763758216587
2582.0,0.1450869776921444
2581.0,0.1450869776921444
2580.0,0.14526898278605782
2579.0,0.14539036190420496
2578.0,0.14539036190420496
2577.0,0.14532966810466452
2576.0,0.14526898278605782
2575.0,0.14502632627358292
2574.0,0.1447838052666366
2573.0,0.14466259553045968
2572.0,0.14472319616990825
2571.0,0.14484442282300614
2570.0,0.14496568332411575
2569.0,0.14502632627358292
2568.0,0.14502632627358292
2567.0,0.14496568332411575
2566.0,0.14472319616990825
2565.0,0.1446020033459312
2564.0,0.14466259553045968
2563.0,0.1447838052666366
2562.0,0.14496568332411575
2561.0,0.14526898278605782
2560.0,0.1455724942121388
2559.0,0.1456939581989194
2558.0,0.14551177495556966
2557.0,0.14520830594601453
2556.0,0.14490504884137811
2555.0,0.1447838052666366
2554.0,0.1447838052666366
2553.0,0.14490504884137811
2552.0,0.14502632627358292
2551.0,0.1450869776921444
2550.0,0.1450869776921444
2549.0,0.14514763758216587
2548.0,0.14532966810466452
2547.0,0.14551177495556966
2546.0,0.14551177495556966
2545.0,0.14539036190420496
2544.0,0.14532966810466452
2543.0,0.14532966810466452
2542.0,0.14539036190420496
2541.0,0.14539036190420496
2540.0,0.14539036190420496
2539.0,0.14532966810466452
2538.0,0.14532966810466452
2537.0,0.14532966810466452
2536.0,0.14532966810466452
2535.0,0.14532966810466452
2534.0,0.14526898278605782
2533.0,0.14532966810466452
2532.0,0.14532966810466452
2531.0,0.14526898278605782
2530.0,0.14514763758216587
2529.0,0.14520830594601453
2528.0,0.14532966810466452
2527.0,0.14539036190420496
2526.0,0.14539036190420496
2525.0,0.14532966810466452
2524.0,0.14526898278605782
2523.0,0.14514763758216587
2522.0,0.14502632627358292
2521.0,0.14502632627358292
2520.0,0.1450869776921444
2519.0,0.14514763758216587
2518.0,0.14514763758216587
2517.0,0.14514763758216587
2516.0,0.14526898278605782
2515.0,0.14532966810466452
2514.0,0.14526898278605782
2513.0,0.14514763758216587
2512.0,0.14490504884137811
2511.0,0.14472319616990825
2510.0,0.14466259553045968
2509.0,0.14472319616990825
2508.0,0.14484442282300614
2507.0,0.14490504884137811
2506.0,0.14490504884137811
2505.0,0.14490504884137811
2504.0,0.14490504884137811
2503.0,0.14490504884137811
2502.0,0.14502632627358292
2501.0,0.14520830594601453
2500.0,0.14526898278605782
2499.0,0.14514763758216587
2498.0,0.1447838052666366
2497.0,0.14442027749828212
2496.0,0.14423862766005224
2495.0,0.14423862766005224
2494.0,0.14429916916456276
2493.0,0.14448084433219988
2492.0,0.1446020033459312
2491.0,0.14454141961396383
2490.0,0.14448084433219988
2489.0,0.14448084433219988
2488.0,0.1446020033459312
2487.0,0.1446020033459312
2486.0,0.14448084433219988
2485.0,0.14429916916456276
2484.0,0.14423862766005224
2483.0,0.14417809459397013
2482.0,0.14423862766005224
2481.0,0.14442027749828212
2480.0,0.14454141961396383
2479.0,0.14448084433219988
2478.0,0.14417809459397013
2477.0,0.1438755557576996
2476.0,0.14375459920994582
2475.0,0.14369413356670102
2474.0,0.14375459920994582
2473.0,0.14375459920994582
2472.0,0.14369413356670102
2471.0,0.14351278713136928
2470.0,0.14315032127482774
2469.0,0.14290884532648618
2468.0,0.14290884532648618
2467.0,0.14321071124668383
2466.0,0.14357322752975565
2465.0,0.1438755557576996
2464.0,0.14405705376768396
2463.0,0.143996546002779
2462.0,0.14375459920994582
2461.0,0.14357322752975565
2460.0,0.14351278713136928
2459.0,0.14357322752975565
2458.0,0.14363367634075197
2457.0,0.14369413356670102
2456.0,0.14369413356670102
2455.0,0.14357322752975565
2454.0,0.14339193156306385
2453.0,0.14333151638846497
2452.0,0.14333151638846497
2451.0,0.14339193156306385
2450.0,0.14339193156306385
2449.0,0.14339193156306385
2448.0,0.14333151638846497
2447.0,0.1432711096171173
2446.0,0.14333151638846497
2445.0,0.14345235514325205
2444.0,0.14357322752975565
2443.0,0.14351278713136928
2442.0,0.14333151638846497
2441.0,0.1430899396992138
2440.0,0.14296920172737604
2439.0,0.14290884532648618
2438.0,0.14290884532648618
2437.0,0.1430899396992138
2436.0,0.14333151638846497
2435.0,0.14339193156306385
2434.0,0.14333151638846497
2433.0,0.14321071124668383
2432.0,0.14321071124668383
2431.0,0.14333151638846497
2430.0,0.14339193156306385
2429.0,0.14345235514325205
2428.0,0.14345235514325205
2427.0,0.14333151638846497
2426.0,0.1432711096171173
2425.0,0.1432711096171173
2424.0,0.14339193156306385
2423.0,0.14345235514325205
2422.0,0.14345235514325205
2421.0,0.14333151638846497
2420.0,0.1432711096171173
2419.0,0.14315032127482774
2418.0,0.14315032127482774
2417.0,0.14315032127482774
2416.0,0.1432711096171173
2415.0,0.14339193156306385
2414.0,0.14351278713136928
2413.0,0.14369413356670102
2412.0,0.1438755557576996
2411.0,0.143996546002779
2410.0,0.14393604666690019
2409.0,0.1438755557576996
2408.0,0.1438755557576996
2407.0,0.1438755557576996
2406.0,0.1438755557576996
2405.0,0.143996546002779
2404.0,0.1441175699639643
2403.0,0.14417809459397013
2402.0,0.1441175699639643
2401.0,0.14405705376768396
2400.0,0.14405705376768396
2399.0,0.14393604666690019
2398.0,0.14369413356670102
2397.0,0.14351278713136928
2396.0,0.14357322752975565
2395.0,0.14375459920994582
2394.0,0.1438755557576996
2393.0,0.14381507327283027
2392.0,0.14363367634075197
2391.0,0.14351278713136928
2390.0,0.14339193156306385
2389.0,0.14345235514325205
2388.0,0.14357322752975565
2387.0,0.14363367634075197
2386.0,0.14351278713136928
2385.0,0.14333151638846497
2384.0,0.14321071124668383
2383.0,0.14315032127482774
2382.0,0.1430899396992138
2381.0,0.14302956651750764
2380.0,0.14296920172737604
2379.0,0.14284849731250704
2378.0,0.1427881576831076
2377.0,0.14290884532648618
2376.0,0.14315032127482774
2375.0,0.14321071124668383
2374.0,0.1430899396992138
2373.0,0.1432711096171173
2372.0,0.14381507327283027
2371.0,0.143996546002779
2370.0,0.14315032127482774
2369.0,0.1413425159091921
2368.0,0.1397219002477652
2367.0,0.13864483980673992
2366.0,0.13834612978608907
2365.0,0.13936258322624528
2364.0,0.14176366457048695
2363.0,0.14357322752975565
2362.0,0.14351278713136928
2361.0,0.14284849731250704
2360.0,0.1432711096171173
2359.0,0.14454141961396383
2358.0,0.1456332219591303
2357.0,0.146788665496683
2356.0,0.14782509557969692
2355.0,0.14776406058811253
2354.0,0.1466060225493342
2353.0,0.14605855411951008
2352.0,0.14697138528701026
2351.0,0.14782509557969692
2350.0,0.14776406058811253
2349.0,0.1465451586319333
2348.0,0.1438755557576996
2347.0,0.13990167030148193
2346.0,0.13584504399797437
2345.0,0.13406733180681396
2344.0,0.1350738084609946
2343.0,0.13763006287711765
2342.0,0.1408016384661226
2341.0,0.14448084433219988
2340.0,0.14739803066176504
2339.0,0.1479471913021495
2338.0,0.14648430324307138
2337.0,0.14490504884137811
2336.0,0.14423862766005224
2335.0,0.1441175699639643
2334.0,0.14435971910985468
2333.0,0.1450869776921444
2332.0,0.1463626180414057
2331.0,0.14733705565543076
2330.0,0.14764201633217278
2329.0,0.14752000636314366
2328.0,0.1472760892087941
2327.0,0.14691047014813452
2326.0,0.14642345638035836
2325.0,0.14618015414323682
2324.0,0.14605855411951008
2323.0,0.1459369881335788
2322.0,0.14599776687301103
2321.0,0.1466060225493342
2320.0,0.1475810070629986
2319.0,0.14831368455757254
2318.0,0.14843591773651155
2317.0,0.1480693213597324
2316.0,0.14752000636314366
2315.0,0.146788665496683
2314.0,0.14605855411951008
2313.0,0.1456332219591303
2312.0,0.14545106418704923
2311.0,0.14520830594601453
2310.0,0.14496568332411575
2309.0,0.14496568332411575
2308.0,0.14514763758216587
2307.0,0.14526898278605782
2306.0,0.14514763758216587
2305.0,0.14484442282300614
2304.0,0.14429916916456276
2303.0,0.14375459920994582
2302.0,0.1432711096171173
2301.0,0.1430899396992138
2300.0,0.1430899396992138
2299.0,0.1430899396992138
2298.0,0.1430899396992138
2297.0,0.14315032127482774
2296.0,0.14321071124668383
2295.0,0.1432711096171173
2294.0,0.1432711096171173
2293.0,0.1432711096171173
2292.0,0.14333151638846497
2291.0,0.14321071124668383
2290.0,0.1430899396992138
2289.0,0.14296920172737604
2288.0,0.14302956651750764
2287.0,0.14321071124668383
2286.0,0.1432711096171173
2285.0,0.1432711096171173
2284.0,0.1432711096171173
2283.0,0.14333151638846497
2282.0,0.14333151638846497
2281.0,0.1432711096171173
2280.0,0.14321071124668383
2279.0,0.14296920172737604
2278.0,0.14260718907909875
2277.0,0.14230574221345038
2276.0,0.14218522202899342
2275.0,0.14218522202899342
2274.0,0.14212497447643746
2273.0,0.14212497447643746
2272.0,0.14218522202899342
2271.0,0.14230574221345038
2270.0,0.1423660148499919
2269.0,0.14242629585250421
2268.0,0.1425468829647336
2267.0,0.14260718907909875
2266.0,0.1425468829647336
2265.0,0.14242629585250421
2264.0,0.14242629585250421
2263.0,0.14248658522331015
2262.0,0.1425468829647336
2261.0,0.14266750356873148
2260.0,0.1427881576831076
2259.0,0.14284849731250704
2258.0,0.1427278264359586
2257.0,0.1425468829647336
2256.0,0.14248658522331015
2255.0,0.14242629585250421
2254.0,0.14242629585250421
2253.0,0.14248658522331015
2252.0,0.1425468829647336
2251.0,0.14260718907909875
2250.0,0.1425468829647336
2249.0,0.14248658522331015
2248.0,0.14230574221345038
2247.0,0.14224547794055775
2246.0,0.14218522202899342
2245.0,0.14230574221345038
2244.0,0.14260718907909875
2243.0,0.1427881576831076
2242.0,0.1427881576831076
2241.0,0.14266750356873148
2240.0,0.1423660148499919
2239.0,0.14218522202899342
2238.0,0.14200450443907608
2237.0,0.14200450443907608
2236.0,0.14206473528057106
2235.0,0.14206473528057106
2234.0,0.14206473528057106
2233.0,0.14200450443907608
2232.0,0.141884067809934
2231.0,0.14170347546611461
2230.0,0.1415229581866595
2229.0,0.14140265500530758
2228.0,0.1415229581866595
2227.0,0.14164329470222659
2226.0,0.14164329470222659
2225.0,0.1415229581866595
2224.0,0.1413425159091921
2223.0,0.14122226269455074
2222.0,0.14116214857141451
2221.0,0.1413425159091921
2220.0,0.1415831222765116
2219.0,0.14182386201765573
2218.0,0.1419442819496357
2217.0,0.14182386201765573
2216.0,0.14170347546611461
2215.0,0.1415831222765116
2214.0,0.1415831222765116
2213.0,0.14170347546611461
2212.0,0.141884067809934
2211.0,0.14200450443907608
2210.0,0.1419442819496357
2209.0,0.14182386201765573
2208.0,0.14170347546611461
2207.0,0.1415831222765116
2206.0,0.1415229581866595
2205.0,0.14140265500530758
2204.0,0.14122226269455074
2203.0,0.1409217752530305
2202.0,0.14068153490288382
2201.0,0.14062149557439896
2200.0,0.1407415825326932
2199.0,0.14086170270546927
2198.0,0.14086170270546927
2197.0,0.1408016384661226
2196.0,0.14068153490288382
2195.0,0.14068153490288382
2194.0,0.1407415825326932
2193.0,0.1408016384661226
2192.0,0.1408016384661226
2191.0,0.1407415825326932
2190.0,0.14062149557439896
2189.0,0.1405014418122239
2188.0,0.1404414273739465
2187.0,0.14032142337155173
2186.0,0.14026143380285316
2185.0,0.14026143380285316
2184.0,0.14038142122781938
2183.0,0.1404414273739465
2182.0,0.1405014418122239
2181.0,0.14062149557439896
2180.0,0.14068153490288382
2179.0,0.1407415825326932
2178.0,0.14068153490288382
2177.0,0.14062149557439896
2176.0,0.14062149557439896
2175.0,0.14062149557439896
2174.0,0.1405014418122239
2173.0,0.14032142337155173
2172.0,0.14014147951900724
2171.0,0.1400815147992842
2170.0,0.14014147951900724
2169.0,0.14032142337155173
2168.0,0.1404414273739465
2167.0,0.1404414273739465
2166.0,0.14032142337155173
2165.0,0.1402014525194344
2164.0,0.14002155835797914
2163.0,0.13984173868172167
2162.0,0.1397219002477652
2161.0,0.1396619934290062
2160.0,0.1396619934290062
2159.0,0.1397219002477652
2158.0,0.1397219002477652
2157.0,0.13978181533124334
2156.0,0.13990167030148193
2155.0,0.13984173868172167
2154.0,0.13978181533124334
2153.0,0.13978181533124334
2152.0,0.13984173868172167
2151.0,0.13984173868172167
2150.0,0.13984173868172167
2149.0,0.13984173868172167
2148.0,0.13990167030148193
2147.0,0.14002155835797914
2146.0,0.14002155835797914
2145.0,0.14002155835797914
2144.0,0.1400815147992842
2143.0,0.14014147951900724
2142.0,0.1402014525194344
2141.0,0.1402014525194344
2140.0,0.14002155835797914
2139.0,0.13978181533124334
2138.0,0.13954220457652888
2137.0,0.13948232253825377
2136.0,0.13960209487268727
2135.0,0.13990167030148193
2134.0,0.14002155835797914
2133.0,0.14002155835797914
2132.0,0.13990167030148193
2131.0,0.1397219002477652
2130.0,0.13948232253825377
2129.0,0.13930272594796111
2128.0,0.13936258322624528
2127.0,0.13948232253825377
2126.0,0.13960209487268727
2125.0,0.1396619934290062
2124.0,0.1396619934290062
2123.0,0.1397219002477652
2122.0,0.13978181533124334
2121.0,0.13984173868172167
2120.0,0.13984173868172167
2119.0,0.13978181533124334
2118.0,0.1397219002477652
2117.0,0.1396619934290062
2116.0,0.1397219002477652
2115.0,0.13984173868172167
2114.0,0.13990167030148193
2113.0,0.1399616101928065
2112.0,0.13984173868172167
2111.0,0.1396619934290062
2110.0,0.13948232253825377
2109.0,0.1394224487555844
2108.0,0.1394224487555844
2107.0,0.13954220457652888
2106.0,0.13960209487268727
2105.0,0.13960209487268727
2104.0,0.13948232253825377
2103.0,0.13924287691845794
2102.0,0.1390633792999063
2101.0,0.1388839558386048
2100.0,0.1388241644869712
2099.0,0.1388241644869712
2098.0,0.1387643813659596
2097.0,0.1387643813659596
2096.0,0.13870460647330418
2095.0,0.13858508136400327
2094.0,0.1384058553561347
2093.0,0.1384058553561347
2092.0,0.13858508136400327
2091.0,0.1387643813659596
2090.0,0.13894375542312654
2089.0,0.13900356324280416
2088.0,0.13894375542312654
2087.0,0.1388241644869712
2086.0,0.13864483980673992
2085.0,0.1385253311428314
2084.0,0.1384058553561347
2083.0,0.13834612978608907
2082.0,0.13822670328130693
2081.0,0.1381073096085541
2080.0,0.13786862068696282
2079.0,0.13763006287711765
2078.0,0.1374512304752069
2077.0,0.13751083309410284
2076.0,0.13774932540207496
2075.0,0.13792828062000573
2074.0,0.13798794874978348
2073.0,0.13792828062000573
2072.0,0.13774932540207496
2071.0,0.13751083309410284
2070.0,0.1373320497714121
2069.0,0.13715334001706125
2068.0,0.13709378643700187
2067.0,0.13709378643700187
2066.0,0.13715334001706125
2065.0,0.13739163603505822
2064.0,0.1375704438939911
2063.0,0.1375704438939911
2062.0,0.1374512304752069
2061.0,0.13721290176465573
2060.0,0.1370342410222376
2059.0,0.13685565374733244
2058.0,0.1366771398795441
2057.0,0.13649869935854997
2056.0,0.13632033212410222
2055.0,0.136142038116027
2054.0,0.1360232160956132
2053.0,0.13596381727422502
2052.0,0.13584504399797437
2051.0,0.13572630319562085
2050.0,0.13554825284181704
2049.0,0.13542959314656988
2048.0,0.13542959314656988
2047.0,0.13554825284181704
2046.0,0.13554825284181704
2045.0,0.13537027545448765
2044.0,0.13519237097385295
2043.0,0.1349552783069008
2042.0,0.13477754370982087
2041.0,0.13477754370982087
2040.0,0.13489602535887202
2039.0,0.1349552783069008
2038.0,0.13489602535887202
2037.0,0.13477754370982087
2036.0,0.134659094375416
2035.0,0.13448148092522594
2034.0,0.13436311230037123
2033.0,0.13418561983203192
2032.0,0.13406733180681396
2031.0,0.13394907599072514
2030.0,0.13383085236622927
2029.0,0.13365357725039817
2028.0,0.13353543402825974
2027.0,0.13347637446715632
2026.0,0.13341732293645103
2025.0,0.13324021650489182
2024.0,0.1331221856625011
2023.0,0.1331221856625011
2022.0,0.13306318226836056
2021.0,0.13288622016802298
2020.0,0.13265038281120756
2019.0,0.13247358880025661
2018.0,0.1325325121409484
2017.0,0.13276828548110586
2016.0,0.13300418688935212
2015.0,0.13300418688935212
2014.0,0.13276828548110586
2013.0,0.13259144347720886
2012.0,0.13247358880025661
2011.0,0.13241467345296387
2010.0,0.13247358880025661
2009.0,0.13259144347720886
2008.0,0.13265038281120756
2007.0,0.13247358880025661
2006.0,0.132179091954427
2005.0,0.1318847946727828
2004.0,0.13176713157753506
2003.0,0.13176713157753506
2002.0,0.13194363817695853
2001.0,0.13212021654162043
2000.0,0.132179091954427
1999.0,0.13212021654162043
1998.0,0.13194363817695853
1997.0,0.1316495003520317
1996.0,0.13135556160517425
1995.0,0.13094438129809216
1994.0,0.1306509192409071
1993.0,0.1306509192409071
1992.0,0.13094438129809216
1991.0,0.1312967977214634
1990.0,0.13141433344123432
1989.0,0.1314731132317961
1988.0,0.13153190097901324
1987.0,0.13153190097901324
1986.0,0.13141433344123432
1985.0,0.1311792938024825
1984.0,0.13100309751286465
1983.0,0.1308269726783169
1982.0,0.1306509192409071
1981.0,0.13035765534840538
1980.0,0.13012318673323353
1979.0,0.13000599987825812
1978.0,0.12994741830645506
1977.0,0.12988884463559924
1976.0,0.12988884463559924
1975.0,0.12994741830645506
1974.0,0.13000599987825812
1973.0,0.12988884463559924
1972.0,0.12977172098820566
1971.0,0.12953756841108
1970.0,0.12924505510985984
1969.0,0.12895273869450063
1968.0,0.12901118623942476
1967.0,0.1294790499872358
1966.0,0.13012318673323353
1965.0,0.1304749371427727
1964.0,0.13053358991913355
1963.0,0.1304749371427727
1962.0,0.13035765534840538
1961.0,0.13024040521758962
1960.0,0.13024040521758962
1959.0,0.1302990263261221
1958.0,0.13035765534840538
1957.0,0.13024040521758962
1956.0,0.13018179202067182
1955.0,0.13024040521758962
1954.0,0.1302990263261221
1953.0,0.1302990263261221
1952.0,0.13024040521758962
1951.0,0.1302990263261221
1950.0,0.1302990263261221
1949.0,0.1302990263261221
1948.0,0.13024040521758962
1947.0,0.13012318673323353
1946.0,0.12994741830645506
1945.0,0.1295960947209729
1944.0,0.12936203678919433
1943.0,0.12930354201075
1942.0,0.1295960947209729
1941.0,0.12983027886355947
1940.0,0.12977172098820566
1939.0,0.12965462891904034
1938.0,0.1294790499872358
1937.0,0.12918657608440243
1936.0,0.12889429901441463
1935.0,0.1286022185125162
1934.0,0.1283103343144847
1933.0,0.12796033202671375
1932.0,0.1276688787697493
1931.0,0.12737762097471172
1930.0,0.12720296001040166
1929.0,0.12702836926155658
1928.0,0.126621263590859
1927.0,0.126156466776564
1926.0,0.12569216687196105
1925.0,0.12546020292898974
1924.0,0.12540223129680017
1923.0,0.12551818230053358
1922.0,0.12557616941349803
1921.0,0.12534426740189897
1920.0,0.1251124891538875
1919.0,0.125054563914468
1918.0,0.12517042212027807
1917.0,0.12517042212027807
1916.0,0.12482294018529605
1915.0,0.12424442074194553
1914.0,0.12383991517437187
1913.0,0.12337808396572703
1912.0,0.12285911021517903
1911.0,0.12239832027072817
1910.0,0.12228319913502328
1909.0,0.12251347193039863
1908.0,0.12262865413022594
1907.0,0.12262865413022594
1906.0,0.12239832027072817
1905.0,0.12211057462851604
1904.0,0.12182301950849372
1903.0,0.12147820449879343
1902.0,0.12136332697348307
1901.0,0.12124847982699793
1900.0,0.12096149476276286
1899.0,0.12044539906102569
1898.0,0.1199871616332282
1897.0,0.11975822410451964
1896.0,0.11970100857424737
1895.0,0.11964380058076385
1894.0,0.11947222180119477
1893.0,0.11918640771920863
1892.0,0.11890078161098283
1891.0,0.11861534322942724
1890.0,0.11861534322942724
1889.0,0.11872949607064243
1888.0,0.11855827805860697
1887.0,0.11804502866039956
1886.0,0.11758931562603192
1885.0,0.11724784438692004
1884.0,0.11690664142431006
1883.0,0.1165089098110701
1882.0,0.11622503864474187
1881.0,0.11611154211151953
1880.0,0.11594135290606156
1879.0,0.11577123036739612
1878.0,0.11554450392951199
1877.0,0.11537453674376552
1876.0,0.11520463605101905
1875.0,0.114865033936566
1874.0,0.11435612816423602
1873.0,0.11390426756225258
1872.0,0.11345287660889425
1871.0,0.1130019543289007
1870.0,0.1125514997500463
1869.0,0.11232644754555254
1868.0,0.11238269966426384
1867.0,0.11238269966426384
1866.0,0.11227020271196975
1865.0,0.11221396516162851
1864.0,0.1120452961911984
1863.0,0.1117081546434846
1862.0,0.11131515334030118
1861.0,0.11109074073646874
1860.0,0.11086644403327606
1859.0,0.11053021603049262
1858.0,0.11030620855581463
1857.0,0.11025022473596224
1856.0,0.11008231656379408
1855.0,0.10974669484546551
1854.0,0.10941133229451272
1853.0,0.10902040301031102
1852.0,0.10851829616048003
1851.0,0.10807246577932506
1850.0,0.10757145305477
1849.0,0.1071265931112344
1848.0,0.10679324694015202
1847.0,0.10679324694015202
1846.0,0.10723776538418317
1845.0,0.10762709260156367
1844.0,0.10757145305477
1843.0,0.10707101764479421
1842.0,0.10646015643533868
1841.0,0.1062937069352865
1840.0,0.1061827760325369
1839.0,0.10590557267730127
1838.0,0.10546241500425357
1837.0,0.1052410056281079
1836.0,0.10507502264045665
1835.0,0.1047432468551055
1834.0,0.10435649517592083
1833.0,0.10397008760377302
1832.0,0.10352889952072264
1831.0,0.10308815917397474
1830.0,0.10259286033841963
1829.0,0.10226297465457268
1828.0,0.10209812573177213
1827.0,0.10237290870955862
1826.0,0.10275789719463457
1825.0,0.10281292341984649
1824.0,0.10242788617426934
1823.0,0.1017686154869033
1822.0,0.10127481841050656
1821.0,0.10094593200182911
1820.0,0.10061729446673495
1819.0,0.10017949757290379
1818.0,0.09979678698310646
1817.0,0.09946901754724413
1816.0,0.0990869322623309
1815.0,0.09832376867362447
1814.0,0.09745322068600859
1813.0,0.09674718310604158
1812.0,0.09636748391576244
1811.0,0.09587978652380036
1810.0,0.09523037409340485
1809.0,0.09474395125154866
1808.0,0.09431203228814788
1807.0,0.09366495819490939
1806.0,0.09296504751658308
1805.0,0.09237369515673355
1804.0,0.0919441259012328
1803.0,0.09146136782804049
1802.0,0.09097914578884403
1801.0,0.09039048950983108
1800.0,0.08958906008531176
1799.0,0.0884695376928375
1798.0,0.08735289378168276
1797.0,0.08661005636824437
1796.0,0.0862920860195171
1795.0,0.08618614761628329
1794.0,0.0861331881037608
1793.0,0.08576265223225898
1792.0,0.08507535179485148
1791.0,0.08402008585977572
1790.0,0.08286224724355584
1789.0,0.08228448344050654
1788.0,0.08196966321511989
1787.0,0.08155025759884227
1786.0,0.0809742354126397
1785.0,0.08013774644446192
1784.0,0.07893810920972144
1783.0,0.07763790321520991
1782.0,0.07665234350217442
1781.0,0.07577241873988227
1780.0,0.0748426728241014
1779.0,0.07386342893255127
1778.0,0.07288638806623937
1777.0,0.07196279359311708
1776.0,0.07109230975604719
1775.0,0.07063217075990047
1774.0,0.0699173666076287
1773.0,0.06813548650796819
1772.0,0.06570359318059427
1771.0,0.06388856832514578
1770.0,0.06343599486473406
1769.0,0.06393888339001164
1768.0,0.06383825908884244
1767.0,0.062381820606176586
1766.0,0.060530669156469985
1765.0,0.05953332233647113
1764.0,0.05948351506743288
1763.0,0.05923456436878238
1762.0,0.05789269101064454
1761.0,0.05566540802921782
1760.0,0.05389176956309405
1759.0,0.053449489430144714
1758.0,0.05369514500652506
1757.0,0.0531548860393769
1756.0,0.051684859310652254
1755.0,0.05075640943173498
1754.0,0.05114709380028648
1753.0,0.05222329153526162
1752.0,0.052762392129333646
1751.0,0.05256627811294923
1750.0,0.05232126006306337
1749.0,0.05286048235717078
1748.0,0.05443294655761144
1747.0,0.05709945885970602
1746.0,0.06048074738138154
1745.0,0.06449273417528723
1744.0,0.06956040523329987
1743.0,0.0756173227980268
1742.0,0.08228448344050654
1741.0,0.08937559511079884
1740.0,0.09750757884139638
1739.0,0.10668218838388821
1738.0,0.11588463798833115
1737.0,0.1244757360506914
1736.0,0.13270933014511588
1735.0,0.1413425159091921
1734.0,0.15292113793428452
1733.0,0.166151950468852
1732.0,0.17665620917935154
1731.0,0.18641901143180806
1730.0,0.19729467292564795
1729.0,0.2088709992727138
1728.0,0.22025924882325953
1727.0,0.23113999915704286
1726.0,0.2415423113895343
1725.0,0.2522775379644915
1724.0,0.26440110030182007
1723.0,0.27753061411596924
1722.0,0.290051983489239
1721.0,0.30068269897861777
1720.0,0.3091839420190845
1719.0,0.31686286851699297
1718.0,0.3273480771599975
1717.0,0.3432312207339834
1716.0,0.3585258894959005
1715.0,0.3681505378401819
1714.0,0.3738650213646113
1713.0,0.37664731846200805
1712.0,0.3765439519300662
1711.0,0.37427609047424415
1710.0,0.37089634982286346
1709.0,0.36683464631609675
1708.0,0.3618103598091631
1707.0,0.3560540872519333
1706.0,0.34978964533964096
1705.0,0.34390179798716813
1704.0,0.33856594960608
1703.0,0.3340439705460432
1702.0,0.329197715739056
1701.0,0.3223930472795069
1700.0,0.3143478158844757
1699.0,0.30715308072277003
1698.0,0.30242196634888674
1697.0,0.29955589897224844
1696.0,0.2963647624161041
1695.0,0.29140915484965624
1694.0,0.2855864077128789
1693.0,0.2812492652603349
1692.0,0.27769521312567225
1691.0,0.2735173032151703
1690.0,0.2688949487840795
1689.0,0.26512019720737245
1688.0,0.2624893093265239
1687.0,0.26034855629062315
1686.0,0.25688237478525844
1685.0,0.2521222941802099
1684.0,0.24956875133979795
1683.0,0.24964591123729196
1682.0,0.2488749284644165
1681.0,0.24772101453988138
1680.0,0.24618721643529784
1679.0,0.24427755509654192
1678.0,0.242376254091611
1677.0,0.24040769135402518
1676.0,0.23814730553361696
1675.0,0.23582386760966934
1674.0,0.23336411368973242
1673.0,0.2306226739238615
1672.0,0.22841251911874472
1671.0,0.22665245801917688
1670.0,0.22562904015008334
1669.0,0.2251911696892941
1668.0,0.22409842110832567
1667.0,0.22228326139037402
1666.0,0.2204035087421754
1665.0,0.21846003139405834
1664.0,0.21616785661555893
1663.0,0.2141009716156166
1662.0,0.21268124337545258
1661.0,0.21140744407964052
1660.0,0.20999647960951062
1659.0,0.20859008433283988
1658.0,0.2069083998234198
1657.0,0.20530287310800133
1656.0,0.2043980201058202
1655.0,0.2032175882986922
1654.0,0.2010042655561186
1653.0,0.20086630669793704
1652.0,0.19928292171761486
1651.0,0.19517932127883775
1650.0,0.19368433019188647
1649.0,0.19314197048118253
1648.0,0.1921268679966679
1647.0,0.19232969876951622
1646.0,0.19368433019188647
1645.0,0.19334527600813955
1644.0,0.19192413190869306
1643.0,0.19077707831057822
1642.0,0.18983471545685027
1641.0,0.18842499412940672
1640.0,0.1866191932661443
1639.0,0.18508681872492616
1638.0,0.18395765907800343
1637.0,0.18289759574307696
1636.0,0.18283142761894444
1635.0,0.1838250095711984
1634.0,0.18349356295364294
1633.0,0.18256685588861554
1632.0,0.18197215814074386
1631.0,0.1811804924524636
1630.0,0.17999569319168218
1629.0,0.1785519809824696
1628.0,0.17724366704860928
1627.0,0.17639537164484187
1626.0,0.17593928258134706
1625.0,0.17535358528164813
1624.0,0.17483362774345035
1623.0,0.17463880404736676
1622.0,0.1745089701205691
1621.0,0.17379557650074728
1620.0,0.17327747983100794
1619.0,0.1730186630880064
1618.0,0.17263072694617465
1617.0,0.1721785723171978
1616.0,0.1721785723171978
1615.0,0.17237229523256659
1614.0,0.17282465170130723
1613.0,0.1733422081241307
1612.0,0.17327747983100794
1611.0,0.1726953589102651
1610.0,0.17224313702138327
1609.0,0.17179138553205453
1608.0,0.1714045436282976
1607.0,0.17108243838331405
1606.0,0.17076057185861093
1605.0,0.16998906406388214
1604.0,0.16896251435997467
1603.0,0.16813022571949832
1602.0,0.1675549588258891
1601.0,0.16685288808721488
1600.0,0.16596098184053343
1599.0,0.16500739626697003
1598.0,0.16399254087446846
1597.0,0.1627904721987936
1596.0,0.16165473122400909
1595.0,0.16089921729284673
1594.0,0.1605219526258017
1593.0,0.1600194423216572
1592.0,0.15932943866659088
1591.0,0.15857795559764076
1590.0,0.15814019022493886
1589.0,0.1576404266693252
1588.0,0.15707887924001773
1587.0,0.1565803347950816
1586.0,0.1562068016740874
1585.0,0.1559579579589836
1584.0,0.15577141869837208
1583.0,0.1560823619936076
1582.0,0.15689185800039307
1581.0,0.15776531365276036
1580.0,0.1588909155318461
1579.0,0.16058480731610647
1578.0,0.16222223044626682
1577.0,0.16304326294044946
1576.0,0.16348600110932865
1575.0,0.163359458427226
1574.0,0.16266413198498508
1573.0,0.16234844215360744
1572.0,0.16196991701467978
1571.0,0.16064767110457878
1570.0,0.1588909155318461
1569.0,0.157390760389438
1568.0,0.1562068016740874
1567.0,0.15552282425431851
1566.0,0.1550260618531123
1565.0,0.15391041964201602
1564.0,0.15279763601907614
1563.0,0.15279763601907614
1562.0,0.15372475758778692
1561.0,0.15366288787019466
1560.0,0.15033494452126717
1559.0,0.14800825203784274
1558.0,0.1491088158640761
1557.0,0.1479471913021495
1556.0,0.14764201633217278
1555.0,0.14843591773651155
1554.0,0.1482525808667361
1553.0,0.1472151313194523
1552.0,0.14642345638035836
1551.0,0.14624096692523136
1550.0,0.14605855411951008
1549.0,0.14575470293388149
1548.0,0.14514763758216587
1547.0,0.14466259553045968
1546.0,0.1438755557576996
1545.0,0.14284849731250704
1544.0,0.14230574221345038
1543.0,0.14212497447643746
1542.0,0.14122226269455074
1541.0,0.13978181533124334
1540.0,0.13924287691845794
1539.0,0.13834612978608907
1538.0,0.13643923547375736
1537.0,0.13626089265478303
1536.0,0.1374512304752069
1535.0,0.1381073096085541
1534.0,0.13768969004572962
1533.0,0.13721290176465573
1532.0,0.13709378643700187
1531.0,0.1369151746796402
1530.0,0.1367961409713705
1529.0,0.1366771398795441
1528.0,0.13643923547375736
1527.0,0.13596381727422502
1526.0,0.1354889189416082
1525.0,0.13513308567147386
1524.0,0.13513308567147386
1523.0,0.13513308567147386
1522.0,0.134659094375416
1521.0,0.13388996015562338
1520.0,0.1325325121409484
1519.0,0.1312967977214634
1518.0,0.13053358991913355
1517.0,0.12988884463559924
1516.0,0.12942053944731513
1515.0,0.1290696416513042
1514.0,0.12883586719705065
1513.0,0.12854382597704617
1512.0,0.12784372725170723
1511.0,0.12720296001040166
1510.0,0.12720296001040166
1509.0,0.1280186461566306
1508.0,0.13000599987825812
1507.0,0.1370342410222376
1506.0,0.1472151313194523
1505.0,0.15162611615539823
1504.0,0.1523039792658345
1503.0,0.15255073750082726
1502.0,0.1517492853229574
1501.0,0.1497214474819628
1500.0,0.14672777597931685
1499.0,0.14339193156306385
1498.0,0.13990167030148193
1497.0,0.1367961409713705
1496.0,0.1337717526203528
1495.0,0.1308269726783169
1494.0,0.12877744324029283
1493.0,0.12796033202671375
1492.0,0.12737762097471172
1491.0,0.1260984021355387
1490.0,0.12459143992293642
1489.0,0.12389767862220635
1488.0,0.12360893818081231
1487.0,0.12303203256741524
1486.0,0.12274386688641381
1485.0,0.12285911021517903
1484.0,0.12326270285933538
1483.0,0.12383991517437187
1482.0,0.12441789567211425
1481.0,0.1251124891538875
1480.0,0.12598229613781387
1479.0,0.12685384867174432
1478.0,0.1275523522109867
1477.0,0.12819363554127072
1476.0,0.12895273869450063
1475.0,0.12971317100740865
1474.0,0.13024040521758962
1473.0,0.13053358991913355
1472.0,0.1306509192409071
1471.0,0.13012318673323353
1470.0,0.1295960947209729
1469.0,0.12988884463559924
1468.0,0.1304749371427727
1467.0,0.1308269726783169
1466.0,0.1308269726783169
1465.0,0.1306509192409071
1464.0,0.1305922506177981
1463.0,0.1306509192409071
1462.0,0.13100309751286465
1461.0,0.13200248965504868
1460.0,0.13347637446715632
1459.0,0.13489602535887202
1458.0,0.136142038116027
1457.0,0.13792828062000573
1456.0,0.1390633792999063
1455.0,0.13912320359670227
1454.0,0.13960209487268727
1453.0,0.1405014418122239
1452.0,0.1409818561111058
1451.0,0.14086170270546927
1450.0,0.14038142122781938
1449.0,0.1396619934290062
1448.0,0.1388241644869712
1447.0,0.13786862068696282
1446.0,0.13697470377052956
1445.0,0.13620146131949973
1444.0,0.13566694496660703
1443.0,0.13519237097385295
1442.0,0.13454067733803532
1441.0,0.1340081998737246
1440.0,0.13430394008392943
1439.0,0.13519237097385295
1438.0,0.1354889189416082
1437.0,0.13442229258007088
1436.0,0.1320613491092153
1435.0,0.12930354201075
1434.0,0.1270865583796048
1433.0,0.12557616941349803
1432.0,0.12401322857151209
1431.0,0.12193801870998744
1430.0,0.11935787359571504
1429.0,0.11667932161702477
1428.0,0.11429961987167014
1427.0,0.11238269966426384
1426.0,0.11069829749368965
1425.0,0.10851829616048003
1424.0,0.1061827760325369
1423.0,0.10463271122663809
1422.0,0.10402526764093545
1421.0,0.10369429253391926
1420.0,0.10264786565568684
1419.0,0.10105553313349058
1418.0,0.10012480397898926
1417.0,0.10105553313349058
1416.0,0.10424605792627206
1415.0,0.10913206118855912
1414.0,0.11548784080960606
1413.0,0.12378215940835768
1412.0,0.1345998818206986
1411.0,0.14745901423020125
1410.0,0.16045910703103106
1409.0,0.17192040944325404
1408.0,0.18085105719286587
1407.0,0.18655245573517876
1406.0,0.1885590563258419
1405.0,0.1871534630329288
1404.0,0.18362611124763806
1403.0,0.17901082358395048
1402.0,0.17418455501479646
1401.0,0.16928305056310244
1400.0,0.16411926818260536
1399.0,0.15870311250971825
1398.0,0.1537866361206126
1397.0,0.1499667423102311
1396.0,0.14691047014813452
1395.0,0.14363367634075197
1394.0,0.13984173868172167
1393.0,0.13620146131949973
1392.0,0.1337717526203528
1391.0,0.13229686672990226
1390.0,0.13100309751286465
1389.0,0.1294790499872358
1388.0,0.12761061158217912
1387.0,0.12557616941349803
1386.0,0.12360893818081231
1385.0,0.12211057462851604
1384.0,0.12119106764079435
1383.0,0.12061736282565727
1382.0,0.12015894401343741
1381.0,0.11975822410451964
1380.0,0.11964380058076385
1379.0,0.11970100857424737
1378.0,0.11975822410451964
1377.0,0.1199871616332282
1376.0,0.12027350336042275
1375.0,0.12084675381575383
1374.0,0.12159311241900439
1373.0,0.12234075588839133
1372.0,0.12297438413275108
1371.0,0.12355121312165873
1370.0,0.12383991517437187
1369.0,0.12355121312165873
1368.0,0.12268625668776156
1367.0,0.12142076193778073
1366.0,0.11987267778337518
1365.0,0.11798803837334138
1364.0,0.11560117444331386
1363.0,0.11272036546997688
1362.0,0.10957898119908571
1361.0,0.10662666975397506
1360.0,0.10424605792627206
1359.0,0.10248287059947447
1358.0,0.10094593200182911
1357.0,0.09957824654226233
1356.0,0.09837823590664274
1355.0,0.09739886933346864
1354.0,0.09663866374468144
1353.0,0.09625905937846135
1352.0,0.09642170633694569
1351.0,0.09701860020249709
1350.0,0.09821485469640057
1349.0,0.10001543745060903
1348.0,0.10270287794050348
1347.0,0.10640466618011679
1346.0,0.11097857790477517
1345.0,0.11645212073195621
1344.0,0.12274386688641381
1343.0,0.12977172098820566
1342.0,0.1373320497714121
1341.0,0.1456332219591303
1340.0,0.15465386258859137
1339.0,0.16354928627984533
1338.0,0.1701175535565067
1337.0,0.1730186630880064
1336.0,0.1721785723171978
1335.0,0.16806626953325465
1334.0,0.16089921729284673
1333.0,0.1515645446685292
1332.0,0.14110204276799654
1331.0,0.13070959579060148
1330.0,0.12113366304327466
1329.0,0.11272036546997688
1328.0,0.10562854614376227
1327.0,0.09996076451267522
1326.0,0.09550084460218011
1325.0,0.09205147838772776
1324.0,0.08932224525729482
1323.0,0.08719360733870762
1322.0,0.08555105930144569
1321.0,0.08417821237960132
1320.0,0.08312512146131668
1319.0,0.08244197917456386
1318.0,0.08207457793525874
1317.0,0.08175990977858505
1316.0,0.08149786036382611
1315.0,0.08134070657817682
1314.0,0.08134070657817682
1313.0,0.08149786036382611
1312.0,0.08181233864107451
1311.0,0.08244197917456386
1310.0,0.08328292240118751
1309.0,0.08428366205400617
1308.0,0.0854453014823664
1307.0,0.08666307406737683
1306.0,0.08783110394037297
1305.0,0.08878910686244668
1304.0,0.08964244272712252
1303.0,0.09060445403289452
1302.0,0.0917295005042762
1301.0,0.09318028453345462
1300.0,0.09517630019905599
1299.0,0.09794268919153337
1298.0,0.10127481841050656
1297.0,0.10518567091669917
1296.0,0.10946720807225518
1295.0,0.11407366019856902
1294.0,0.11878658374498086
1293.0,0.12349349573411894
1292.0,0.12819363554127072
1291.0,0.13288622016802298
1290.0,0.13751083309410284
1289.0,0.14200450443907608
1288.0,0.14648430324307138
1287.0,0.15088783381542248
1286.0,0.15496400648658493
1285.0,0.15864052954514496
1284.0,0.16209605540705763
1283.0,0.16545214231905137
1282.0,0.16870625562299035
1281.0,0.17179138553205453
1280.0,0.17470373556903995
1279.0,0.17743966305730785
1278.0,0.18006143064460467
1277.0,0.18269912160667867
1276.0,0.18561920553006184
1275.0,0.18889439298206967
1274.0,0.19273564472389304
1273.0,0.19722627470802445
1272.0,0.2028710122034474
1271.0,0.20971483596675822
1270.0,0.21759904750347014
1269.0,0.22628667472297836
1268.0,0.23567439437401605
1267.0,0.24580461181016156
1266.0,0.2562551214075388
1265.0,0.26680273489343054
1264.0,0.2773660774661879
1263.0,0.2876870913186347
1262.0,0.2970527538184442
1261.0,0.30548254618884374
1260.0,0.31300643373532155
1259.0,0.31939257100821217
1258.0,0.32449661527204343
1257.0,0.328179439816751
1256.0,0.3314277308154421
1255.0,0.33451281921718934
1254.0,0.3375254962496905
1253.0,0.3407495312273392
1252.0,0.34495765866879835
1251.0,0.35017853677543487
1250.0,0.3562513145404742
1249.0,0.3630108981877709
1248.0,0.37089634982286346
1247.0,0.3795516152882912
1246.0,0.388382889445664
1245.0,0.39718065756730025
1244.0,0.40604970473601254
1243.0,0.41465208890540906
1242.0,0.4225082001627747
1241.0,0.42934032997846594
1240.0,0.4352156154960132
1239.0,0.43997375108710757
1238.0,0.4430947309445521
1237.0,0.4446636720047332
1236.0,0.44502654166676026
1235.0,0.4444219272270451
1234.0,0.4421320384319778
1233.0,0.4386600585410987
1232.0,0.4345063701311376
1231.0,0.4302750507738411
1230.0,0.42550573171467243
1229.0,0.4205594028602029
1228.0,0.41578188788259496
1227.0,0.4112802203999435
1226.0,0.40660315769979327
1225.0,0.4018663541867622
1224.0,0.3972890550424426
1223.0,0.39275949616825745
1222.0,0.3879582553547305
1221.0,0.3828947694976219
1220.0,0.37809703910876946
1219.0,0.3736596326249577
1218.0,0.36916548217194944
1217.0,0.3643152374527774
1216.0,0.3596179552904315
1215.0,0.3550692920864127
1214.0,0.3503731131594705
1213.0,0.34563090902471405
1212.0,0.34122567915564317
1211.0,0.3372421683184259
1210.0,0.33310778893346393
1209.0,0.32882715728491685
1208.0,0.32449661527204343
1207.0,0.32020882901964565
1206.0,0.3159629625134803
1205.0,0.31175820402228815
1204.0,0.30794663496591923
1203.0,0.3044307729638145
1202.0,0.30076949711659084
1201.0,0.29688065376392214
1200.0,0.29302632382382177
1199.0,0.2892059000696725
1198.0,0.28516748756666743
1197.0,0.28108331398513897
1196.0,0.2772016031290947
1195.0,0.2735173032151703
1194.0,0.26978315943130604
1193.0,0.2657603955645449
1192.0,0.261774551857495
1191.0,0.2578249567763229
1190.0,0.25383303562271453
1189.0,0.2498002721708179
1188.0,0.24603413413483977
1187.0,0.242376254091611
1186.0,0.23874892569133732
1185.0,0.23507701535011138
1184.0,0.23158391178366822
1183.0,0.22848601002033342
1182.0,0.2258481410452895
1181.0,0.22358941119265774
1180.0,0.22199353857649173
1179.0,0.22083657623550135
1178.0,0.2199708726626617
1177.0,0.21917882414652712
1176.0,0.2183882175068499
1175.0,0.21767073100316314
1174.0,0.21681130892474232
1173.0,0.2158107946190393
1172.0,0.2145989750076125
1171.0,0.2130357405642671
1170.0,0.21063084640851826
1169.0,0.20739821883503362
1168.0,0.20356444118982564
1167.0,0.1994203784308699
1166.0,0.19517932127883775
1165.0,0.1910467008440888
1164.0,0.18742084459095332
1163.0,0.18415670933673334
1162.0,0.18111458540599013
1161.0,0.17809362264767703
1160.0,0.17509352869788763
1159.0,0.1721785723171978
1158.0,0.16921892439363884
1157.0,0.16653413982930765
1156.0,0.16411926818260536
1155.0,0.16196991701467978
1154.0,0.15983115075924403
1153.0,0.15776531365276036
1152.0,0.15602015552184012
1151.0,0.15471587365200845
1150.0,0.15360102696532518
1149.0,0.15267416921457633
1148.0,0.15193410459600853
1147.0,0.1514414278762366
1146.0,0.15119529894819617
1145.0,0.15113378850522063
1144.0,0.1514414278762366
1143.0,0.15218065270476067
1142.0,0.15323004646278116
1141.0,0.15440590683997568
1140.0,0.15570925674565683
1139.0,0.15714123755470633
1138.0,0.158765704493959
1137.0,0.16058480731610647
1136.0,0.1627904721987936
1135.0,0.16532502553725603
1134.0,0.16813022571949832
1133.0,0.1711468403233598
1132.0,0.17457388223217696
1131.0,0.17861750025270084
1130.0,0.18302996224270052
1129.0,0.188023055663046
1128.0,0.19361649817583237
1127.0,0.19997064075586568
1126.0,0.2069083998234198
1125.0,0.21445663004340698
1124.0,0.22264568691579112
1123.0,0.23136189875238555
1122.0,0.24018112262517377
1121.0,0.248951965179812
1120.0,0.2575105354182248
1119.0,0.26560025747943294
1118.0,0.27278417909150754
1117.0,0.2785191452299507
1116.0,0.2826624172761363
1115.0,0.2850837520064151
1114.0,0.2852512392749402
1113.0,0.283495836226783
1112.0,0.28058584029740663
1111.0,0.27753061411596924
1110.0,0.2754783728814374
1109.0,0.2755602766029255
1108.0,0.2788491562503159
1107.0,0.28541879116046887
1106.0,0.2945639534147495
1105.0,0.30521936398793836
1104.0,0.3169529617611504
1103.0,0.32910504647979
1102.0,0.3409399277590617
1101.0,0.35222594973116994
1100.0,0.3632113109656252
1099.0,0.3736596326249577
1098.0,0.3828947694976219
1097.0,0.39083262569798016
1096.0,0.3979400086720375
1095.0,0.4041732229267767
1094.0,0.4089353929735009
1093.0,0.412176828681045
1092.0,0.4144264813772689
1091.0,0.41589502960054725
1090.0,0.4162346317150003
1089.0,0.4156687756324693
1088.0,0.4149907200975389
1087.0,0.4145392704914994
1086.0,0.41397561761302426
1085.0,0.41318773055662406
1084.0,0.41251353458903584
1083.0,0.4119525030139173
1082.0,0.4108326094539525
1081.0,0.4090467648120142
1080.0,0.4069355683412825
1079.0,0.4047242881979005
1078.0,0.402195157595707
1077.0,0.39913596369016036
1076.0,0.39555793373927695
1075.0,0.3916879573026728
1074.0,0.38742804593482383
1073.0,0.3828947694976219
1072.0,0.3787198324495853
1071.0,0.37468754903832613
1070.0,0.37048846579954686
1069.0,0.3658251282373999
1068.0,0.36111157529492455
1067.0,0.3565473235138126
1066.0,0.35212823469376753
1065.0,0.34794715175189506
1064.0,0.34438141645877796
1063.0,0.34141628459293716
1062.0,0.3384712598680175
1061.0,0.3352640314812949
1060.0,0.3318005158013382
1059.0,0.328179439816751
1058.0,0.3243132913005988
1057.0,0.3205721033878812
1056.0,0.31740370853944677
1055.0,0.3147062186132159
1054.0,0.3118472444084337
1053.0,0.30891850787703157
1052.0,0.3066248489748147
1051.0,0.3051316720175439
1050.0,0.3041682271733077
1049.0,0.30346888003039285
1048.0,0.30294510772742567
1047.0,0.3025962767995123
1046.0,0.3019864960608183
1045.0,0.301377570297902
1044.0,0.3011168632474097
1043.0,0.30094314545233236
1042.0,0.3005091547277956
1041.0,0.29972906264356314
1040.0,0.298518364379073
1039.0,0.2971388294270707
1038.0,0.29533481454547084
1037.0,0.2933675491267054
1036.0,0.2915790998652872
1035.0,0.2898826348881838
1034.0,0.28785558578511417
1033.0,0.2852512392749402
1032.0,0.2824127031445396
1031.0,0.27926202298157476
1030.0,0.2756421957735735
1029.0,0.27140275661656843
1028.0,0.2670436304243753
1027.0,0.2629664686661224
1026.0,0.25940048718884356
1025.0,0.25703932978584754
1024.0,0.25703932978584754
1023.0,0.26058589730130466
1022.0,0.26841123481326123
1021.0,0.2809174260985141
1020.0,0.2977418368379059
1019.0,0.31758413832264143
1018.0,0.3377144842778699
1017.0,0.3552660725528074
1016.0,0.3677452233152865
1015.0,0.37427609047424415
1014.0,0.374790474618119
1013.0,0.37089634982286346
1012.0,0.3650191999487715
1011.0,0.3584267468218245
1010.0,0.3517375942519556
1009.0,0.3452460667470698
1008.0,0.339608901597533
1007.0,0.3347943715653994
1006.0,0.33031129194379183
1005.0,0.3262420634504233
1004.0,0.32248429520124255
1003.0,0.31921138849331765
1002.0,0.3164126824272331
1001.0,0.31398970868471454
1000.0,0.3119363030536557
999.0,0.31006989598178203
998.0,0.3078583906332164
997.0,0.30548254618884374
996.0,0.3033815407677751
995.0,0.3016384339448903
994.0,0.29990229538694635
993.0,0.29808678878765615
992.0,0.2962788400729801
991.0,0.29473513768259596
990.0,0.29328221766324125
989.0,0.29191918953176854
988.0,0.29073003902416916
987.0,0.28971335229710915
986.0,0.28853021812567214
985.0,0.2874344721266917
984.0,0.28676153845433827
983.0,0.28650945690605756
982.0,0.2863414837916436
981.0,0.28617357561947543
980.0,0.2860896458710447
979.0,0.2863414837916436
978.0,0.28676153845433827
977.0,0.2874344721266917
976.0,0.2886146209015483
975.0,0.2901366825596008
974.0,0.29140915484965624
973.0,0.2925149880325264
972.0,0.29370904274123655
971.0,0.29507770877659834
970.0,0.2961929347256713
969.0,0.29688065376392214
968.0,0.297224922098956
967.0,0.297224922098956
966.0,0.2967946293045136
965.0,0.2960211749916142
964.0,0.295249095709329
963.0,0.2946495371142881
962.0,0.29387989029729633
961.0,0.29268536641129206
960.0,0.291324207273463
959.0,0.2901366825596008
958.0,0.2889523961329661
957.0,0.28777133038046476
956.0,0.28667749501297246
955.0,0.28550259135019407
954.0,0.2839966563652008
953.0,0.2822463067892844
952.0,0.28058584029740663
951.0,0.2793446434482756
950.0,0.2784366816425192
949.0,0.27769521312567225
948.0,0.27687284120430844
947.0,0.27580608048567035
946.0,0.2743333396858214
945.0,0.27245874297144357
944.0,0.27091624295638805
943.0,0.2698639960033222
942.0,0.2692984557181548
941.0,0.2687336509245084
940.0,0.26825011647273667
939.0,0.2676062401770314
938.0,0.26672246606741834
937.0,0.26560025747943294
936.0,0.2645607967485186
935.0,0.2635238179723034
934.0,0.2624893093265239
933.0,0.26145725907121475
932.0,0.2604276555499081
931.0,0.2594794139463352
930.0,0.2582183038568333
929.0,0.25688237478525844
928.0,0.25578527518583405
927.0,0.2550814575586471
926.0,0.25430077339749424
925.0,0.25336580106242135
924.0,0.25219990913563106
923.0,0.2512694439015055
922.0,0.25041826513444065
921.0,0.24956875133979795
920.0,0.24879790541164692
919.0,0.24795155218056153
918.0,0.24687675531828734
917.0,0.24565166428898122
916.0,0.2445062715848807
915.0,0.24351603555739065
914.0,0.24252805223433205
913.0,0.241315150117559
912.0,0.24033215531036944
911.0,0.2395021247734732
910.0,0.23874892569133732
909.0,0.23807216157947098
908.0,0.23784680769640532
907.0,0.2379219126653609
906.0,0.23799703062488464
905.0,0.2379219126653609
904.0,0.23784680769640532
903.0,0.23799703062488464
902.0,0.23814730553361696
901.0,0.23844801143581806
900.0,0.23889946104185777
899.0,0.2393513804186438
898.0,0.2393513804186438
897.0,0.23882418684426865
896.0,0.23814730553361696
895.0,0.2376966367122315
894.0,0.23702150913225695
893.0,0.23574912456122687
892.0,0.23425695857895557
891.0,0.23291837863667775
890.0,0.23158391178366822
889.0,0.2301059641878309
888.0,0.22855951336008817
887.0,0.22716507276098175
886.0,0.22592119924748122
885.0,0.22482661457521314
884.0,0.22424396215590203
883.0,0.22424396215590203
882.0,0.22482661457521314
881.0,0.22635980673997413
880.0,0.22944252514900487
879.0,0.23425695857895557
878.0,0.24025663240227502
877.0,0.24703013497091586
876.0,0.2546128786799913
875.0,0.26312563835157743
874.0,0.2720522904552032
873.0,0.2806687130162735
872.0,0.28793985753892537
871.0,0.2928558116575548
870.0,0.29473513768259596
869.0,0.2941362877160807
868.0,0.2921744316677686
867.0,0.2895441356645754
866.0,0.2863414837916436
865.0,0.28282897316768985
864.0,0.27992342723185937
863.0,0.2780245984140466
862.0,0.2766264329810155
861.0,0.27523275435368966
860.0,0.27417000967941973
859.0,0.2735988378970775
858.0,0.2730284163171235
857.0,0.27213355053251087
856.0,0.27115943166002854
855.0,0.27026840471296465
854.0,0.2696215314123571
853.0,0.2692177243336109
852.0,0.2692984557181548
851.0,0.26970233790285025
850.0,0.26978315943130604
849.0,0.26937920211271726
848.0,0.2688142923659995
847.0,0.2688142923659995
846.0,0.2692984557181548
845.0,0.2701874928390644
844.0,0.2713216331490862
843.0,0.27270279719641266
842.0,0.27384353382724513
841.0,0.2745784499257413
840.0,0.27506908580760214
839.0,0.2749872746588431
838.0,0.2740883677049517
837.0,0.27294698864614264
836.0,0.2723774220308628
835.0,0.27245874297144357
834.0,0.27188981589965944
833.0,0.27026840471296465
832.0,0.26841123481326123
831.0,0.2670436304243753
830.0,0.2659205927194057
829.0,0.26464066699828925
828.0,0.26328486639438897
827.0,0.2622509261084429
826.0,0.2615365605380475
825.0,0.26058589730130466
824.0,0.2596373105057561
823.0,0.2590849235187176
822.0,0.2586907911004306
821.0,0.2581396059347365
820.0,0.2573534100612638
819.0,0.25641184984009624
818.0,0.255237762934422
817.0,0.25406684154055714
816.0,0.25328797748333964
815.0,0.2528990686350139
814.0,0.2525105077413272
813.0,0.25173442733125917
812.0,0.25088233764367773
811.0,0.25018641470706227
810.0,0.24956875133979795
809.0,0.24879790541164692
808.0,0.24802842526367286
807.0,0.24726030606467186
806.0,0.24618721643529784
805.0,0.24496406623222855
804.0,0.2439727870265589
803.0,0.24298376526869947
802.0,0.2414665777627134
801.0,0.23927602785804836
800.0,0.23702150913225695
799.0,0.23545028093553277
798.0,0.2347040703019434
797.0,0.23492779889720805
796.0,0.23657200643706267
795.0,0.2395021247734732
794.0,0.24283180778572744
793.0,0.2454987706130829
792.0,0.24726030606467186
791.0,0.24787469270210183
790.0,0.24726030606467186
789.0,0.24565166428898122
788.0,0.24382048315619098
787.0,0.24214865631442017
786.0,0.2404832405378119
785.0,0.23844801143581806
784.0,0.23619777592540725
783.0,0.23418248469008174
782.0,0.23232477597203993
781.0,0.23077041826340627
780.0,0.22951619056889205
779.0,0.22826557461323072
778.0,0.2267256516625462
777.0,0.2246808781705225
776.0,0.22264568691579112
775.0,0.22054781659593825
774.0,0.2178141335079835
773.0,0.21452779669361166
772.0,0.21147811277752715
771.0,0.2090818047854217
770.0,0.20704829174986794
769.0,0.20467623567068616
768.0,0.20204035626280392
767.0,0.1994203784308699
766.0,0.19681611146465805
765.0,0.19395576425191186
764.0,0.19091186865365373
763.0,0.1875545971272441
762.0,0.1838250095711984
761.0,0.17947015147648027
760.0,0.17483362774345035
759.0,0.1701175535565067
758.0,0.16532502553725603
757.0,0.1605219526258017
756.0,0.15577141869837208
755.0,0.1509493094304879
754.0,0.14575470293388149
753.0,0.14026143380285316
752.0,0.134659094375416
751.0,0.12895273869450063
750.0,0.12291674334934943
749.0,0.11679296664760996
748.0,0.11120293254331926
747.0,0.1061827760325369
746.0,0.10116516193172598
745.0,0.09604229147682952
744.0,0.09146136782804049
743.0,0.08793744441149753
742.0,0.08570974433405087
741.0,0.08539243222891946
740.0,0.08788427092114603
739.0,0.0937727369476411
738.0,0.10325338439259446
737.0,0.11605480496572018
736.0,0.13176713157753506
735.0,0.14953756723848333
734.0,0.16813022571949832
733.0,0.18735398376688117
732.0,0.20781850385032108
731.0,0.2302535328205466
730.0,0.254534831329273
729.0,0.2808345059107866
728.0,0.3091839420190845
727.0,0.3386606599939601
726.0,0.36632959394855624
725.0,0.3889142665851273
724.0,0.405165644416682
723.0,0.4149907200975389
722.0,0.4186193112900132
721.0,0.41759570198097196
720.0,0.4144264813772689
719.0,0.4108326094539525
718.0,0.40582852088508803
717.0,0.39957167426786877
716.0,0.3930814740517088
715.0,0.38742804593482383
714.0,0.38226596463598206
713.0,0.3773715738706751
712.0,0.3736596326249577
711.0,0.3715088950328771
710.0,0.3698773571406879
709.0,0.36764395376092684
708.0,0.3653212478213177
707.0,0.3631110930162009
706.0,0.3607127740897633
705.0,0.35773338109732644
704.0,0.3550692920864127
703.0,0.35300846252287754
702.0,0.35076252765039273
701.0,0.3478503945983471
700.0,0.3452460667470698
699.0,0.3434227086038859
698.0,0.341511618690983
697.0,0.33856594960608
696.0,0.33517005885690954
695.0,0.3315208970674144
694.0,0.32753268693191795
693.0,0.3234892897174464
692.0,0.32075385458614103
691.0,0.3196644865854368
690.0,0.3195738291418546
689.0,0.3196644865854368
688.0,0.32029961912803584
687.0,0.32093568187868726
686.0,0.3199365725180514
685.0,0.31659270086790503
684.0,0.31273865375649357
683.0,0.3099812192113047
682.0,0.30794663496591923
681.0,0.30636097383845184
680.0,0.30557030904291693
679.0,0.30548254618884374
678.0,0.3044307729638145
677.0,0.302073555193495
676.0,0.3001622741327543
675.0,0.3001622741327543
674.0,0.30076949711659084
673.0,0.3005091547277956
672.0,0.30042240860109093
671.0,0.3032942190660828
670.0,0.3086532358651781
669.0,0.31345310093699386
668.0,0.3148855309534606
667.0,0.3105135516357522
666.0,0.30189945437661003
665.0,0.2945639534147495
664.0,0.2906452241656039
663.0,0.2889523961329661
662.0,0.2873502983727887
661.0,0.2852512392749402
660.0,0.28366271211045135
659.0,0.2826624172761363
658.0,0.2812492652603349
657.0,0.2789316982028409
656.0,0.2772016031290947
655.0,0.27687284120430844
654.0,0.27687284120430844
653.0,0.2762160630346706
652.0,0.27580608048567035
651.0,0.2759700270644023
650.0,0.2749872746588431
649.0,0.272296116314646
648.0,0.2705112308204387
647.0,0.2714838952402334
646.0,0.27343578383775524
645.0,0.2740883677049517
644.0,0.2742516670044517
643.0,0.27523275435368966
642.0,0.27646223846794316
641.0,0.27703719105751046
640.0,0.2781893847874535
639.0,0.28149831113272583
638.0,0.28567024025476706
637.0,0.2886990400838343
636.0,0.2908148704497546
635.0,0.2931116050183822
634.0,0.2940508050897044
633.0,0.2915790998652872
632.0,0.28718199979214987
631.0,0.2835792661534451
630.0,0.2806687130162735
629.0,0.2771193893130608
628.0,0.2735988378970775
627.0,0.2714838952402334
626.0,0.27083521030723
625.0,0.27075419277469326
624.0,0.2704302736980302
623.0,0.2700257143004443
622.0,0.2692984557181548
621.0,0.2687336509245084
620.0,0.2692984557181548
619.0,0.2704302736980302
618.0,0.26994484762450033
617.0,0.26744542014856787
616.0,0.26616099930285064
615.0,0.26808905788312765
614.0,0.27115943166002854
613.0,0.27188981589965944
612.0,0.26994484762450033
611.0,0.2671239586372933
610.0,0.264241462556261
609.0,0.26129869956529017
608.0,0.25900606841511387
607.0,0.25798225285986165
606.0,0.2571963415308345
605.0,0.2562551214075388
604.0,0.25688237478525844
603.0,0.2598742630342694
602.0,0.2629664686661224
601.0,0.2639223629960543
600.0,0.26408188346870287
