cm-1,A
4000.0,0.0018714928717336043
3999.0,0.0018714928717336043
3998.0,0.0018278780605593958
3997.0,0.0018278780605593958
3996.0,0.0017842676290416026
3995.0,0.0016534626036355249
3994.0,0.0015226969634936083
3993.0,0.0014791171649619628
3992.0,0.0014791171649619628
3991.0,0.0014791171649619628
3990.0,0.0014791171649619628
3989.0,0.0015226969634936083
3988.0,0.001609869681952425
3987.0,0.0017842676290416026
3986.0,0.001915112063444413
3985.0,0.0019587356365717845
3984.0,0.0019587356365717845
3983.0,0.0018714928717336043
3982.0,0.0017842676290416026
3981.0,0.0017406615763013722
3980.0,0.0016970599014589638
3979.0,0.0017406615763013722
3978.0,0.0017406615763013722
3977.0,0.0017406615763013722
3976.0,0.0017406615763013722
3975.0,0.0016534626036355249
3974.0,0.001609869681952425
3973.0,0.0015226969634936083
3972.0,0.0014791171649619628
3971.0,0.0014791171649619628
3970.0,0.0015226969634936083
3969.0,0.0015662811355310335
3968.0,0.0016534626036355249
3967.0,0.0016970599014589638
3966.0,0.0017406615763013722
3965.0,0.0017842676290416026
3964.0,0.0018714928717336043
3963.0,0.0019587356365717845
3962.0,0.0019587356365717845
3961.0,0.0018714928717336043
3960.0,0.0016970599014589638
3959.0,0.0015226969634936083
3958.0,0.0013919706849057079
3957.0,0.001348404001626502
3956.0,0.0013919706849057079
3955.0,0.0014791171649619628
3954.0,0.0015226969634936083
3953.0,0.0014791171649619628
3952.0,0.0013919706849057079
3951.0,0.001304841688344327
3950.0,0.0012612837441823288
3949.0,0.001304841688344327
3948.0,0.001348404001626502
3947.0,0.0013919706849057079
3946.0,0.0014355417390583547
3945.0,0.0015226969634936083
3944.0,0.0015662811355310335
3943.0,0.001609869681952425
3942.0,0.001609869681952425
3941.0,0.0015662811355310335
3940.0,0.0015662811355310335
3939.0,0.0015662811355310335
3938.0,0.0015662811355310335
3937.0,0.0014355417390583547
3936.0,0.0013919706849057079
3935.0,0.001348404001626502
3934.0,0.0013919706849057079
3933.0,0.0014791171649619628
3932.0,0.0014791171649619628
3931.0,0.0014355417390583547
3930.0,0.0013919706849057079
3929.0,0.001348404001626502
3928.0,0.001348404001626502
3927.0,0.0013919706849057079
3926.0,0.0014791171649619628
3925.0,0.0015226969634936083
3924.0,0.0014355417390583547
3923.0,0.0013919706849057079
3922.0,0.0014355417390583547
3921.0,0.0014791171649619628
3920.0,0.0015226969634936083
3919.0,0.0015226969634936083
3918.0,0.0014791171649619628
3917.0,0.001348404001626502
3916.0,0.0012612837441823288
3915.0,0.0012177301682640973
3914.0,0.001304841688344327
3913.0,0.0014791171649619628
3912.0,0.001609869681952425
3911.0,0.0017406615763013722
3910.0,0.0017842676290416026
3909.0,0.0017406615763013722
3908.0,0.001609869681952425
3907.0,0.0014355417390583547
3906.0,0.0012612837441823288
3905.0,0.0011306361176557367
3904.0,0.0010435595295137379
3903.0,0.0009565003968372565
3902.0,0.0009565003968372565
3901.0,0.0011306361176557367
3900.0,0.001348404001626502
3899.0,0.0014791171649619628
3898.0,0.0015226969634936083
3897.0,0.0015662811355310335
3896.0,0.0016970599014589638
3895.0,0.0017406615763013722
3894.0,0.0017842676290416026
3893.0,0.0018714928717336043
3892.0,0.001915112063444413
3891.0,0.0017406615763013722
3890.0,0.0014791171649619628
3889.0,0.001304841688344327
3888.0,0.0014355417390583547
3887.0,0.0016534626036355249
3886.0,0.0017406615763013722
3885.0,0.001609869681952425
3884.0,0.0013919706849057079
3883.0,0.0014355417390583547
3882.0,0.001609869681952425
3881.0,0.0016970599014589638
3880.0,0.0015662811355310335
3879.0,0.0012612837441823288
3878.0,0.0011306361176557367
3877.0,0.001304841688344327
3876.0,0.0015226969634936083
3875.0,0.001609869681952425
3874.0,0.0014791171649619628
3873.0,0.0012612837441823288
3872.0,0.0012177301682640973
3871.0,0.001348404001626502
3870.0,0.001304841688344327
3869.0,0.0010000277816797354
3868.0,0.0008259444115150671
3867.0,0.0010435595295137379
3866.0,0.0013919706849057079
3865.0,0.0015662811355310335
3864.0,0.0014791171649619628
3863.0,0.001304841688344327
3862.0,0.0012612837441823288
3861.0,0.001304841688344327
3860.0,0.001348404001626502
3859.0,0.001304841688344327
3858.0,0.0010435595295137379
3857.0,0.0006519307932786322
3856.0,0.0003475746339209884
3855.0,0.0003910410285830057
3854.0,0.0009129773741116676
3853.0,0.0011306361176557367
3852.0,0.0010435595295137379
3851.0,0.0012177301682640973
3850.0,0.0016534626036355249
3849.0,0.0019587356365717845
3848.0,0.0019587356365717845
3847.0,0.0018714928717336043
3846.0,0.0017842676290416026
3845.0,0.0016534626036355249
3844.0,0.0014355417390583547
3843.0,0.0011741809597138886
3842.0,0.0010000277816797354
3841.0,0.0010435595295137379
3840.0,0.001304841688344327
3839.0,0.0015662811355310335
3838.0,0.0016534626036355249
3837.0,0.0015662811355310335
3836.0,0.0015662811355310335
3835.0,0.0016534626036355249
3834.0,0.0018278780605593958
3833.0,0.001915112063444413
3832.0,0.0018714928717336043
3831.0,0.0016970599014589638
3830.0,0.001609869681952425
3829.0,0.0016534626036355249
3828.0,0.0018278780605593958
3827.0,0.001915112063444413
3826.0,0.0016970599014589638
3825.0,0.001304841688344327
3824.0,0.0010000277816797354
3823.0,0.0009129773741116676
3822.0,0.0010435595295137379
3821.0,0.0011306361176557367
3820.0,0.0009565003968372565
3819.0,0.0010000277816797354
3818.0,0.0013919706849057079
3817.0,0.0018714928717336043
3816.0,0.0020023635919956817
3815.0,0.0018278780605593958
3814.0,0.0017406615763013722
3813.0,0.0018714928717336043
3812.0,0.002089632653256679
3811.0,0.0021332737608552588
3810.0,0.0021332737608552588
3809.0,0.0022205691343961664
3808.0,0.0023078820582733695
3807.0,0.0021769192542746563
3806.0,0.0017406615763013722
3805.0,0.0013919706849057079
3804.0,0.0013919706849057079
3803.0,0.0016970599014589638
3802.0,0.001915112063444413
3801.0,0.0017406615763013722
3800.0,0.0014355417390583547
3799.0,0.0015226969634936083
3798.0,0.001915112063444413
3797.0,0.0023078820582733695
3796.0,0.002395212539545666
3795.0,0.0022642234021015284
3794.0,0.0022205691343961664
3793.0,0.0022642234021015284
3792.0,0.0023078820582733695
3791.0,0.0022642234021015284
3790.0,0.002089632653256679
3789.0,0.001915112063444413
3788.0,0.0018278780605593958
3787.0,0.0018714928717336043
3786.0,0.0020023635919956817
3785.0,0.0021332737608552588
3784.0,0.0021332737608552588
3783.0,0.002089632653256679
3782.0,0.0020459959305969555
3781.0,0.0021332737608552588
3780.0,0.0021769192542746563
3779.0,0.0021332737608552588
3778.0,0.002089632653256679
3777.0,0.0020459959305969555
3776.0,0.0021332737608552588
3775.0,0.0021332737608552588
3774.0,0.0020023635919956817
3773.0,0.001915112063444413
3772.0,0.001915112063444413
3771.0,0.0020023635919956817
3770.0,0.0020459959305969555
3769.0,0.001915112063444413
3768.0,0.0018714928717336043
3767.0,0.001915112063444413
3766.0,0.0019587356365717845
3765.0,0.001915112063444413
3764.0,0.0017842676290416026
3763.0,0.0016970599014589638
3762.0,0.0017406615763013722
3761.0,0.0017842676290416026
3760.0,0.0017406615763013722
3759.0,0.0017406615763013722
3758.0,0.0017406615763013722
3757.0,0.0016970599014589638
3756.0,0.0015662811355310335
3755.0,0.0014355417390583547
3754.0,0.001304841688344327
3753.0,0.0012612837441823288
3752.0,0.0014355417390583547
3751.0,0.0017406615763013722
3750.0,0.0017406615763013722
3749.0,0.0014791171649619628
3748.0,0.0012177301682640973
3747.0,0.0012177301682640973
3746.0,0.0014791171649619628
3745.0,0.0017842676290416026
3744.0,0.0017406615763013722
3743.0,0.0014355417390583547
3742.0,0.0014791171649619628
3741.0,0.0017842676290416026
3740.0,0.0018714928717336043
3739.0,0.0016534626036355249
3738.0,0.0014355417390583547
3737.0,0.001348404001626502
3736.0,0.0012612837441823288
3735.0,0.0011306361176557367
3734.0,0.0010870956412141197
3733.0,0.0012612837441823288
3732.0,0.0014791171649619628
3731.0,0.0015226969634936083
3730.0,0.0015226969634936083
3729.0,0.0015662811355310335
3728.0,0.0016534626036355249
3727.0,0.0016970599014589638
3726.0,0.001609869681952425
3725.0,0.0014791171649619628
3724.0,0.0015226969634936083
3723.0,0.0015662811355310335
3722.0,0.001609869681952425
3721.0,0.0016534626036355249
3720.0,0.0017406615763013722
3719.0,0.0020023635919956817
3718.0,0.0021769192542746563
3717.0,0.0022205691343961664
3716.0,0.002089632653256679
3715.0,0.0018714928717336043
3714.0,0.001609869681952425
3713.0,0.0013919706849057079
3712.0,0.0012612837441823288
3711.0,0.0011741809597138886
3710.0,0.0012177301682640973
3709.0,0.0013919706849057079
3708.0,0.0015662811355310335
3707.0,0.0016970599014589638
3706.0,0.0016534626036355249
3705.0,0.0014791171649619628
3704.0,0.001348404001626502
3703.0,0.0012177301682640973
3702.0,0.0010870956412141197
3701.0,0.0009129773741116676
3700.0,0.0007389288868995258
3699.0,0.0006954276616513155
3698.0,0.0007389288868995258
3697.0,0.0007824344698965646
3696.0,0.0007389288868995258
3695.0,0.0006084382809090627
3694.0,0.000521466320689834
3693.0,0.0003910410285830057
3692.0,0.00026065489343207737
3691.0,0.00026065489343207737
3690.0,0.0003910410285830057
3689.0,0.000521466320689834
3688.0,0.0004779868710962365
3687.0,0.0003910410285830057
3686.0,0.0005649501236701937
3685.0,0.0007824344698965646
3684.0,0.0009129773741116676
3683.0,0.0009129773741116676
3682.0,0.0008259444115150671
3681.0,0.0007389288868995258
3680.0,0.000521466320689834
3679.0,0.00021720154586435392
3678.0,0.0
3677.0,0.0001303078917322953
3676.0,0.00043451177401765406
3675.0,0.00043451177401765406
3674.0,0.00017375254558760211
3673.0,0.00026065489343207737
3672.0,0.0006954276616513155
3671.0,0.0011306361176557367
3670.0,0.001348404001626502
3669.0,0.001304841688344327
3668.0,0.0012612837441823288
3667.0,0.0014355417390583547
3666.0,0.0016534626036355249
3665.0,0.0016970599014589638
3664.0,0.001609869681952425
3663.0,0.0015662811355310335
3662.0,0.0015662811355310335
3661.0,0.001609869681952425
3660.0,0.0016534626036355249
3659.0,0.0018278780605593958
3658.0,0.0021332737608552588
3657.0,0.002482560585275184
3656.0,0.0026573093983774942
3655.0,0.002613615602686581
3654.0,0.002613615602686581
3653.0,0.002701007590486082
3652.0,0.0028758443407954637
3651.0,0.003050751504618754
3650.0,0.0032694845648473247
3649.0,0.0034445503666347133
3648.0,0.003619686766589858
3647.0,0.0038825238627120395
3646.0,0.004320939488377862
3645.0,0.004803708402820517
3644.0,0.005243055412371911
3643.0,0.005506877116487674
3642.0,0.005682847330363394
3641.0,0.005726851026829571
3640.0,0.005858888873877532
3639.0,0.006035001804881146
3638.0,0.00625524344553785
3637.0,0.006475596832934416
3636.0,0.006740168563263094
3635.0,0.00696076819309055
3634.0,0.007004901568658406
3633.0,0.006916639301937977
3632.0,0.006784279525863024
3631.0,0.00696076819309055
3630.0,0.0075790439479759275
3629.0,0.008330992620051436
3628.0,0.008596697419959609
3627.0,0.008685301823389224
3626.0,0.008995559669244813
3625.0,0.00939478857608056
3624.0,0.009616741093766423
3623.0,0.009705553871561357
3622.0,0.009838807101520963
3621.0,0.010105436281226954
3620.0,0.010505687227290839
3619.0,0.010906307389674463
3618.0,0.011084479487313281
3617.0,0.011218156546359825
3616.0,0.011485634166333858
3615.0,0.011842527443247208
3614.0,0.012289056869694281
3613.0,0.012557195064198723
3612.0,0.012736045877764557
3611.0,0.012825498912458322
3610.0,0.013049212141483357
3609.0,0.013362604389846044
3608.0,0.013765869865004277
3607.0,0.014169510141607944
3606.0,0.01452861671041239
3605.0,0.014932966849499074
3604.0,0.015337693809893471
3603.0,0.015697768020096703
3602.0,0.016058141016111804
3601.0,0.016373712875465518
3600.0,0.016689514205884493
3599.0,0.016960383953898095
3598.0,0.017231422748988034
3597.0,0.017502630802287644
3596.0,0.017774008325325275
3595.0,0.018136109008649592
3594.0,0.018498511851753108
3593.0,0.018815862601645694
3592.0,0.019042683770379876
3591.0,0.019178833355664393
3590.0,0.019360432556262852
3589.0,0.019723858922159776
3588.0,0.02022406727031445
3587.0,0.020724852408976924
3586.0,0.021135015652343103
3585.0,0.02159120737696063
3584.0,0.0221849739168134
3583.0,0.02277955336461468
3582.0,0.023283295636617574
3581.0,0.023741750742954926
3580.0,0.024154774532432866
3579.0,0.024476287039668643
3578.0,0.024798037742147727
3577.0,0.025074013910237447
3576.0,0.02544225514642018
3575.0,0.025902996205869
3574.0,0.026410376572743033
3573.0,0.02677975314776626
3572.0,0.02696455931306696
3571.0,0.02696455931306696
3570.0,0.026872146400301444
3569.0,0.02696455931306696
3568.0,0.02738066094037661
3567.0,0.028028723600243666
3566.0,0.02863136320857662
3565.0,0.02904906565457588
3564.0,0.029513651152349718
3563.0,0.029932203450862893
3562.0,0.030397735151460825
3561.0,0.03081714076773867
3560.0,0.031236951802751545
3559.0,0.03161045815293173
3558.0,0.03193753992355086
3557.0,0.03226486821611996
3556.0,0.032545631817259224
3555.0,0.03282657704446046
3554.0,0.033154576345083564
3553.0,0.03352973627071565
3552.0,0.0338113190438627
3551.0,0.03399914237121604
3550.0,0.03409308450480819
3549.0,0.034187046963396917
3548.0,0.034469056377139484
3547.0,0.03498654972775217
3546.0,0.03555179208333925
3545.0,0.0360705779734416
3544.0,0.03649550058570927
3543.0,0.036873558918095295
3542.0,0.0371573187987575
3541.0,0.03744126420403626
3540.0,0.03772539537668518
3539.0,0.03800971255993524
3538.0,0.038341651362284734
3537.0,0.038721320914956836
3536.0,0.03905380426616856
3535.0,0.03929144831144349
3534.0,0.03943409718180235
3533.0,0.03962436858984186
3532.0,0.03981472339538916
3531.0,0.04014804520039483
3530.0,0.04062466342415694
3529.0,0.04105406750606355
3528.0,0.041483896576958834
3527.0,0.04181850243505214
3526.0,0.042057664554595586
3525.0,0.04229695845116854
3524.0,0.042584285277331047
3523.0,0.042775942156833
3522.0,0.042967683653061695
3521.0,0.0431115453499229
3520.0,0.0433514207947967
3519.0,0.04363944632667782
3518.0,0.0439276630048171
3517.0,0.04421607108308856
3516.0,0.044456557540257124
3515.0,0.04464904263234004
3514.0,0.04474531717982
3513.0,0.04484161307420642
3512.0,0.04484161307420642
3511.0,0.044937930324967956
3510.0,0.04508244626504121
3509.0,0.04527520902093718
3508.0,0.04541983725624266
3507.0,0.0454680573730859
3506.0,0.04541983725624266
3505.0,0.04541983725624266
3504.0,0.0454680573730859
3503.0,0.045516282844447975
3502.0,0.0454680573730859
3501.0,0.04527520902093718
3500.0,0.04503426894157925
3499.0,0.04484161307420642
3498.0,0.04469717723830824
3497.0,0.04464904263234004
3496.0,0.04464904263234004
3495.0,0.04460091336073302
3494.0,0.04450467081587295
3493.0,0.04440844959427559
3492.0,0.044312249686494276
3491.0,0.044167989767578186
3490.0,0.044071843103049346
3489.0,0.04397571771932274
3488.0,0.04387961360698034
3487.0,0.04368746915880539
3486.0,0.0435434165901003
3485.0,0.04339941178682327
3484.0,0.0433514207947967
3483.0,0.04344740808260106
3482.0,0.04359142880416744
3481.0,0.04368746915880539
3480.0,0.043735497301724546
3479.0,0.043735497301724546
3478.0,0.04368746915880539
3477.0,0.043735497301724546
3476.0,0.04387961360698034
3475.0,0.04402377775167454
3474.0,0.04411991377462465
3473.0,0.044167989767578186
3472.0,0.04426415772233416
3471.0,0.04440844959427559
3470.0,0.04455278942230456
3469.0,0.04460091336073302
3468.0,0.04460091336073302
3467.0,0.04460091336073302
3466.0,0.04460091336073302
3465.0,0.04469717723830824
3464.0,0.044793462458058375
3463.0,0.044986096961949995
3462.0,0.0451788169482068
3461.0,0.045323413081356456
3460.0,0.0454680573730859
3459.0,0.045564513671517703
3458.0,0.045660991397539874
3457.0,0.04575749056067524
3456.0,0.045902279520810385
3455.0,0.04609540658654021
3454.0,0.04633693625290869
3453.0,0.04662694927330402
3452.0,0.04686877481655505
3451.0,0.04696554274964315
3450.0,0.04701393480294458
3449.0,0.04701393480294458
3448.0,0.04715914332429838
3447.0,0.04740126547022694
3446.0,0.047595060422975566
3445.0,0.04778894189133087
3444.0,0.047982909952573705
3443.0,0.048225491918274965
3442.0,0.04851676924770687
3441.0,0.04885683989244738
3440.0,0.04909991063361274
3439.0,0.04934311749548925
3438.0,0.04953778109440221
3437.0,0.04973253198641148
3436.0,0.04987865248862655
3435.0,0.050073556332087765
3434.0,0.050317309204795935
3433.0,0.05065879322950262
3432.0,0.051049389754451946
3431.0,0.05139145012356372
3430.0,0.051684859310652254
3429.0,0.05197846685889629
3428.0,0.05232126006306337
3427.0,0.05271335532220167
3426.0,0.05310580489767336
3425.0,0.05340037498486727
3424.0,0.053646002773725554
3423.0,0.05399011523423525
3422.0,0.05433450056786593
3421.0,0.054679159207724926
3420.0,0.05507339001378431
3419.0,0.05536929814372171
3418.0,0.05566540802921782
3417.0,0.05601112492622806
3416.0,0.056406567231630955
3415.0,0.05690137699451481
3414.0,0.05729763111133224
3413.0,0.05764465029232335
3412.0,0.05794231615860479
3411.0,0.0582898510583536
3410.0,0.058737090681050264
3409.0,0.05928434309333741
3408.0,0.05983228596592505
3407.0,0.06033101647767336
3406.0,0.060730413661268745
3405.0,0.06103020277710969
3404.0,0.06128018521761747
3403.0,0.06163040254819374
3402.0,0.06203099704854709
3401.0,0.06248210798265341
3400.0,0.06293368798257193
3399.0,0.06333548699992453
3398.0,0.0636873663378068
3397.0,0.06398920428479049
3396.0,0.06434161389936577
3395.0,0.06474471821595262
3394.0,0.06519865825346338
3393.0,0.06565307326174441
3392.0,0.06605739725873905
3391.0,0.0663102910421054
3390.0,0.0665127121512945
3389.0,0.06671522765130522
3388.0,0.06701917807680191
3387.0,0.06742477650170953
3386.0,0.06793230779927839
3385.0,0.06844043290919477
3384.0,0.0688982543673613
3383.0,0.0692037370166998
3382.0,0.06940751155740177
3381.0,0.06961138175567827
3380.0,0.06981534770138009
3379.0,0.07012147634321675
3378.0,0.07047889936889606
3377.0,0.07083661679493547
3376.0,0.07109230975604719
3375.0,0.0713481533463054
3374.0,0.07155293679081787
3373.0,0.0718090519612431
3372.0,0.07206531825882068
3371.0,0.07232173586200852
3370.0,0.07252697900472405
3369.0,0.07278366940873537
3368.0,0.07309189829456408
3367.0,0.07340034609297241
3366.0,0.07360609973031784
3365.0,0.07376047895413773
3364.0,0.07386342893255127
3363.0,0.07396640332115534
3362.0,0.07396640332115534
3361.0,0.07401789967289685
3360.0,0.07412091069849924
3359.0,0.07422394616325367
3358.0,0.07432700607875953
3357.0,0.07443009045662374
3356.0,0.07443009045662374
3355.0,0.07437854520917098
3354.0,0.07422394616325367
3353.0,0.07406940213152868
3352.0,0.07396640332115534
3351.0,0.07391491307485598
3350.0,0.07391491307485598
3349.0,0.07381195089279391
3348.0,0.07365755337434488
3347.0,0.07334892291111106
3346.0,0.07293775650699996
3345.0,0.0725783049495814
3344.0,0.07221915065262552
3343.0,0.07191154033502922
3342.0,0.07160414774328627
3341.0,0.07119462910671581
3340.0,0.07068327324650436
3339.0,0.07012147634321675
3338.0,0.06950943469373039
3337.0,0.06884736147670667
3336.0,0.06823711151882228
3335.0,0.06767846801070698
3334.0,0.06722192993944942
3333.0,0.06681652082538614
3332.0,0.0663102910421054
3331.0,0.06570359318059427
3330.0,0.06504729218214189
3329.0,0.06439198148213077
3328.0,0.06383825908884244
3327.0,0.06333548699992453
3326.0,0.06283329628496737
3325.0,0.062331685600995
3324.0,0.06173051653708872
3323.0,0.06108018775522828
3322.0,0.060430831344098435
3321.0,0.05978244440026481
3320.0,0.05918479134919874
3319.0,0.05858795962645047
3318.0,0.05799194697768684
3317.0,0.05744631966579017
3316.0,0.05680236993107379
3315.0,0.05620880107069848
3314.0,0.05566540802921782
3313.0,0.055122694036304765
3312.0,0.05458065739693696
3311.0,0.054088483180726676
3310.0,0.053596866100945384
3309.0,0.053203972728539606
3308.0,0.05286048235717078
3307.0,0.052468254304406825
3306.0,0.052027420754219955
3305.0,0.05148923116234294
3304.0,0.05100054597304693
3303.0,0.05056119896349576
3302.0,0.050171041064686284
3301.0,0.04978123335813667
3300.0,0.04934311749548925
3299.0,0.048905443158337114
3298.0,0.048468209457651845
3297.0,0.04807992647970649
3296.0,0.04774046340917959
3295.0,0.04744970610179822
3294.0,0.04715914332429838
3293.0,0.04686877481655505
3292.0,0.046481918555007384
3291.0,0.04609540658654021
3290.0,0.045612749855485024
3289.0,0.0451788169482068
3288.0,0.04469717723830824
3287.0,0.044312249686494276
3286.0,0.04397571771932274
3285.0,0.0437835307566099
3284.0,0.04359142880416744
3283.0,0.04344740808260106
3282.0,0.04320747962950522
3281.0,0.04287180232318688
3280.0,0.042584285277331047
3279.0,0.04229695845116854
3278.0,0.04210551278710151
3277.0,0.041914151478914974
3276.0,0.04172287445230238
3275.0,0.041436116778032606
3274.0,0.041197296600497646
3273.0,0.040958607678906356
3272.0,0.04072004986906119
3271.0,0.04057697805689475
3270.0,0.040481623027001756
3269.0,0.04038628892895613
3268.0,0.040338629726504704
3267.0,0.0402909757535701
3266.0,0.04014804520039483
3265.0,0.03995754427315856
3264.0,0.039719535563357944
3263.0,0.03943409718180235
3262.0,0.03924390909822728
3261.0,0.03910132267333921
3260.0,0.03905380426616856
3259.0,0.038958783046687984
3258.0,0.03886378261277468
3257.0,0.038673844065289176
3256.0,0.038531444649213764
3255.0,0.038436537637930535
3254.0,0.038436537637930535
3253.0,0.038436537637930535
3252.0,0.038341651362284734
3251.0,0.03824678581321739
3250.0,0.038199360808321536
3249.0,0.038199360808321536
3248.0,0.038199360808321536
3247.0,0.038151940981675736
3246.0,0.03800971255993524
3245.0,0.03782014709123227
3244.0,0.037488606492403154
3243.0,0.0371573187987575
3242.0,0.036779013477011624
3241.0,0.03644826642590382
3240.0,0.0360705779734416
3239.0,0.035693217696063595
3238.0,0.035363296211498474
3237.0,0.03512779136222477
3236.0,0.03498654972775217
3235.0,0.0349394793888016
3234.0,0.03489241415094413
3233.0,0.03479829897408804
3232.0,0.03456310022373987
3231.0,0.03423403581731388
3230.0,0.033905220553829274
3229.0,0.03352973627071565
3228.0,0.03334211579824231
3227.0,0.0332483359486222
3226.0,0.033201453616638954
3225.0,0.033154576345083564
3224.0,0.0329671178412978
3223.0,0.032592443402527316
3222.0,0.032124554451966825
3221.0,0.03170388495374454
3220.0,0.03142366482450232
3219.0,0.031190286087141805
3218.0,0.031003673351687855
3217.0,0.030770520137356927
3216.0,0.030537492025363155
3215.0,0.030444315779156517
3214.0,0.030351159519274695
3213.0,0.030351159519274695
3212.0,0.03025802323714588
3211.0,0.030118356253500123
3210.0,0.029932203450862893
3209.0,0.029653123769906697
3208.0,0.02932775731028059
3207.0,0.02904906565457588
3206.0,0.028770552723758724
3205.0,0.02858497661500481
3204.0,0.028445846553939003
3203.0,0.028306761050139073
3202.0,0.028167720075074953
3201.0,0.028028723600243666
3200.0,0.027889771597169544
3199.0,0.027750864037404455
3198.0,0.027658283674251827
3197.0,0.027565723042634938
3196.0,0.027426919073445077
3195.0,0.02724191609646076
3194.0,0.027056991894431892
3193.0,0.026872146400301444
3192.0,0.02664120011360227
3191.0,0.026456531467510258
3190.0,0.026318081496016443
3189.0,0.02613355016462182
3188.0,0.025949097207122573
3187.0,0.025718641122169483
3186.0,0.02544225514642018
3185.0,0.02521206778644225
3184.0,0.024936003904763915
3183.0,0.024706084643793647
3182.0,0.024522236834125355
3181.0,0.02438440203310499
3180.0,0.024292536462819925
3179.0,0.024246610963712723
3178.0,0.024108863598207186
3177.0,0.023971159908874107
3176.0,0.023741750742954926
3175.0,0.02351246269481
3174.0,0.023283295636617574
3173.0,0.023054249440757957
3172.0,0.02277955336461468
3171.0,0.022505030926963654
3170.0,0.02227639471115217
3169.0,0.022139270735302752
3168.0,0.02204787879853809
3167.0,0.021956506090037076
3166.0,0.021819483062586187
3165.0,0.021636852916117055
3164.0,0.02140867317992523
3163.0,0.021135015652343103
3162.0,0.020907099361673565
3161.0,0.020724852408976924
3160.0,0.020542681902151694
3159.0,0.020315076172974234
3158.0,0.02013307743509718
3157.0,0.01995115493504329
3156.0,0.019814763052665052
3155.0,0.019678413991243593
3154.0,0.01954210772389997
3153.0,0.019360432556262852
3152.0,0.019178833355664393
3151.0,0.018906576854070378
3150.0,0.018634490921455527
3149.0,0.01840788278591865
3148.0,0.018181392829336396
3147.0,0.017955020928509757
3146.0,0.017728766960431575
3145.0,0.01759307113620534
3144.0,0.017502630802287644
3143.0,0.017457417697056554
3142.0,0.017412209298337533
3141.0,0.017321806616515723
3140.0,0.017141057687924732
3139.0,0.016915227262211507
3138.0,0.016599261819461697
3137.0,0.01632861713980338
3136.0,0.016058141016111804
3135.0,0.015832872853011715
3134.0,0.015652742414136167
3133.0,0.015517693597737248
3132.0,0.01538268676325183
3131.0,0.015292705517326866
3130.0,0.015202742910707112
3129.0,0.015112798935672522
3128.0,0.014932966849499074
3127.0,0.014798141635428141
3126.0,0.014708281407112
3125.0,0.014573525916998342
3124.0,0.0144837121472845
3123.0,0.014349026309051105
3122.0,0.014124642691606404
3121.0,0.01381070026317599
3120.0,0.013541787262693505
3119.0,0.013362604389846044
3118.0,0.01322826573375524
3117.0,0.013093968619278806
3116.0,0.013004460275618523
3115.0,0.012870232340102872
3114.0,0.012736045877764557
3113.0,0.012691326268817527
3112.0,0.01260190086298274
3111.0,0.012467797270160563
3110.0,0.012244383261476699
3109.0,0.012021084124518078
3108.0,0.011797899741219142
3107.0,0.011664044143949504
3106.0,0.011574829993696856
3105.0,0.011441043121384498
3104.0,0.011307297450183107
3103.0,0.01117359295472431
3102.0,0.011084479487313281
3101.0,0.011039929609661936
3100.0,0.010950843561779777
3099.0,0.010817248744452446
3098.0,0.010639186223752484
3097.0,0.010505687227290839
3096.0,0.010416710688994968
3095.0,0.010283280051895272
3094.0,0.010149890396819572
3093.0,0.009972101229705377
3092.0,0.009838807101520963
3091.0,0.009705553871561357
3090.0,0.009616741093766423
3089.0,0.009572341514736404
3088.0,0.009483555971770974
3087.0,0.009350411681145587
3086.0,0.009217308196862062
3085.0,0.009128595198514056
3084.0,0.00908424549391551
3083.0,0.009039900317800775
3082.0,0.008995559669244813
3081.0,0.008951223547323472
3080.0,0.008906891951112605
3079.0,0.008818242332126802
3078.0,0.008640997362049818
3077.0,0.008419542825660153
3076.0,0.008242460465651913
3075.0,0.008153946355103248
3074.0,0.008109696063975047
3073.0,0.008153946355103248
3072.0,0.008153946355103248
3071.0,0.008109696063975047
3070.0,0.007976972236149349
3069.0,0.007800070204414977
3068.0,0.00762324020119709
3067.0,0.0074464821678643656
3066.0,0.007358130121602358
3065.0,0.007269796045857202
3064.0,0.007225635744644521
3063.0,0.007137328610972382
3062.0,0.007049039429553483
3061.0,0.00696076819309055
3060.0,0.006916639301937977
3059.0,0.006916639301937977
3058.0,0.006916639301937977
3057.0,0.006872514894289861
3056.0,0.006784279525863024
3055.0,0.00656376950238835
3054.0,0.006299305179649828
3053.0,0.006079041198713275
3052.0,0.005858888873877532
3051.0,0.00577085918230158
3050.0,0.005682847330363394
3049.0,0.005638848091999105
3048.0,0.005550862985963967
3047.0,0.005462895701502157
3046.0,0.00537494623139545
3045.0,0.005199100705396198
3044.0,0.005023326350308999
3043.0,0.00489154225525934
3042.0,0.004803708402820517
3041.0,0.004671990922590297
3040.0,0.0044964297349936455
3039.0,0.004320939488377862
3038.0,0.004145520125434121
3037.0,0.00401400208620073
3036.0,0.0038387066319929275
3035.0,0.003619686766589858
3034.0,0.0033570086445275926
3033.0,0.0030944893043338695
3032.0,0.0028758443407954637
3031.0,0.0027447101798967477
3030.0,0.002569926202528716
3029.0,0.0024388843664115978
3028.0,0.0022205691343961664
3027.0,0.0020023635919956817
3026.0,0.0017406615763013722
3025.0,0.0014355417390583547
3024.0,0.0011306361176557367
3023.0,0.000869458712629001
3022.0,0.0006084382809090627
3021.0,0.00030411258916074324
3020.0,0.0
3019.0,-0.00030389978481260016
3018.0,-0.0006509536295951079
3017.0,-0.0009543984064577238
3016.0,-0.0013009330204178937
3015.0,-0.0015606526425728795
3014.0,-0.0018634626925240205
3013.0,-0.0021660617565077978
3012.0,-0.0024684501283323
3011.0,-0.002856926061120646
3010.0,-0.0032450548131470747
3009.0,-0.003632837004408529
3008.0,-0.004020273253241502
3007.0,-0.004364371107751008
3006.0,-0.004622265700782613
3005.0,-0.00488000724063431
3004.0,-0.005137595908863979
3003.0,-0.0054379230508221355
3002.0,-0.005780899954652252
3001.0,-0.006123606211854593
3000.0,-0.006508827775289827
2999.0,-0.006808208492578682
2998.0,-0.007021925578680754
2997.0,-0.007150105366684922
2996.0,-0.007192823557040651
2995.0,-0.007192823557040651
2994.0,-0.007192823557040651
2993.0,-0.007449044497748858
2992.0,-0.007961033336183032
2991.0,-0.008600171761917519
2990.0,-0.009068276192218505
2989.0,-0.009153331907708395
2988.0,-0.00881300905208926
2987.0,-0.008216801589690181
2986.0,-0.007577098304338836
2985.0,-0.00697919057427665
2984.0,-0.006423252507643085
2983.0,-0.005909446494558601
2982.0,-0.005395031886706203
2981.0,-0.004794110388711914
2980.0,-0.004020273253241502
2979.0,-0.0032450548131470747
2978.0,-0.0024252646779014952
2977.0,-0.0015606526425728795
2976.0,-0.0004774613744551459
2975.0,0.0008259444115150671
2974.0,0.002482560585275184
2973.0,0.004540313378935901
2972.0,0.006872514894289861
2971.0,0.009439170005980158
2970.0,0.012110390002254778
2969.0,0.015067833932588037
2968.0,0.01831727262871463
2967.0,0.021910826943857264
2966.0,0.025672564576383117
2965.0,0.029560137048236124
2964.0,0.03334211579824231
2963.0,0.03692083935817303
2962.0,0.04010041213405646
2961.0,0.04268010314465909
2960.0,0.04464904263234004
2959.0,0.046192002334692894
2958.0,0.04749815213697639
2957.0,0.04875964967565971
2956.0,0.050171041064686284
2955.0,0.05188057561946402
2954.0,0.05374429280060267
2953.0,0.05561604235915585
2952.0,0.057198533682059516
2951.0,0.05824018618530458
2950.0,0.0583891978463662
2949.0,0.05749589383191922
2948.0,0.05551732784983132
2947.0,0.0525172634430815
2946.0,0.048905443158337114
2945.0,0.044937930324967956
2944.0,0.040958607678906356
2943.0,0.037251946641359446
2942.0,0.03414006319292828
2941.0,0.03175060589208267
2940.0,0.030071810571884017
2939.0,0.02904906565457588
2938.0,0.028677754757187035
2937.0,0.029002634427514717
2936.0,0.029978734171634214
2935.0,0.031563752288295444
2934.0,0.03362357691107709
2933.0,0.0360705779734416
2932.0,0.03886378261277468
2931.0,0.041914151478914974
2930.0,0.04503426894157925
2929.0,0.048225491918274965
2928.0,0.05139145012356372
2927.0,0.05438372077326825
2926.0,0.05729763111133224
2925.0,0.060131455540490375
2924.0,0.06298389253518577
2923.0,0.0658551882075229
2922.0,0.06874559358358656
2921.0,0.07145053299833615
2920.0,0.07386342893255127
2919.0,0.07566901529132153
2918.0,0.07670415934449615
2917.0,0.07670415934449615
2916.0,0.07572071393811841
2915.0,0.07396640332115534
2914.0,0.07170658776779781
2913.0,0.06935655895783555
2912.0,0.06722192993944942
2911.0,0.06545105233385295
2910.0,0.06403953101083348
2909.0,0.06278310913729457
2908.0,0.06153031163235467
2907.0,0.060131455540490375
2906.0,0.05863766428823891
2905.0,0.05690137699451481
2904.0,0.0549255115212699
2903.0,0.05281143447390635
2902.0,0.050805225762017736
2901.0,0.04905128560059957
2900.0,0.047595060422975566
2899.0,0.04628861957244457
2898.0,0.044986096961949995
2897.0,0.0435434165901003
2896.0,0.04215336629184985
2895.0,0.04081545726880842
2894.0,0.03967194946985697
2893.0,0.038721320914956836
2892.0,0.03800971255993524
2891.0,0.037488606492403154
2890.0,0.037062711569998186
2889.0,0.03668448861388862
2888.0,0.03649550058570927
2887.0,0.036401037402758574
2886.0,0.036542739883292485
2885.0,0.036779013477011624
2884.0,0.0371573187987575
2883.0,0.03777276864991497
2882.0,0.03857890593355173
2881.0,0.03952922246570112
2880.0,0.040481623027001756
2879.0,0.04129280891271536
2878.0,0.04181850243505214
2877.0,0.042057664554595586
2876.0,0.04210551278710151
2875.0,0.042057664554595586
2874.0,0.042057664554595586
2873.0,0.04224908912272074
2872.0,0.042775942156833
2871.0,0.0435434165901003
2870.0,0.044456557540257124
2869.0,0.04537162249272897
2868.0,0.04609540658654021
2867.0,0.04643358574299339
2866.0,0.04609540658654021
2865.0,0.04503426894157925
2864.0,0.04325545471730896
2863.0,0.04105406750606355
2862.0,0.03862637240519895
2861.0,0.03630659476198117
2860.0,0.03428102975577918
2859.0,0.032592443402527316
2858.0,0.03128362253321426
2857.0,0.03030458888152676
2856.0,0.02969962459782227
2855.0,0.02942069428514915
2854.0,0.02942069428514915
2853.0,0.02960662792039992
2852.0,0.029932203450862893
2851.0,0.030351159519274695
2850.0,0.030863766403287585
2849.0,0.03142366482450232
2848.0,0.03226486821611996
2847.0,0.03334211579824231
2846.0,0.03484535401307465
2845.0,0.036779013477011624
2844.0,0.039006291057664066
2843.0,0.041436116778032606
2842.0,0.0439276630048171
2841.0,0.04633693625290869
2840.0,0.048468209457651845
2839.0,0.04997609347667353
2838.0,0.05075640943173498
2837.0,0.0506099933550872
2836.0,0.04953778109440221
2835.0,0.047691990337874746
2834.0,0.04527520902093718
2833.0,0.04253638427006878
2832.0,0.03986232513620536
2831.0,0.037346595106788616
2830.0,0.03508070571335731
2829.0,0.033060836978886954
2828.0,0.031236951802751545
2827.0,0.02969962459782227
2826.0,0.028445846553939003
2825.0,0.02738066094037661
2824.0,0.026502691267936695
2823.0,0.025672564576383117
2822.0,0.02498200236711723
2821.0,0.024338466818941473
2820.0,0.023741750742954926
2819.0,0.023191662661933732
2818.0,0.022688026603074007
2817.0,0.022230681908425698
2816.0,0.021819483062586187
2815.0,0.021499930688540836
2814.0,0.021135015652343103
2813.0,0.020770406977844713
2812.0,0.02036058777709271
2811.0,0.019996628416253603
2810.0,0.019678413991243593
2809.0,0.01940584422377989
2808.0,0.019133445417920836
2807.0,0.018815862601645694
2806.0,0.018498511851753108
2805.0,0.018181392829336396
2804.0,0.01781925440359733
2803.0,0.017547848615010242
2802.0,0.01727661233145472
2801.0,0.017005545341335804
2800.0,0.016689514205884493
2799.0,0.016373712875465518
2798.0,0.016103208673694303
2797.0,0.015877917138889863
2796.0,0.015742798294583915
2795.0,0.015652742414136167
2794.0,0.015607721475734415
2793.0,0.01547268665620738
2792.0,0.015292705517326866
2791.0,0.015112798935672522
2790.0,0.014932966849499074
2789.0,0.014708281407112
2788.0,0.0144837121472845
2787.0,0.014259258949925524
2786.0,0.014079779876432497
2785.0,0.01381070026317599
2784.0,0.013586594534531482
2783.0,0.013407393177789162
2782.0,0.013273040668781544
2781.0,0.01318349541446362
2780.0,0.013049212141483357
2779.0,0.012914970375878188
2778.0,0.012780770091995297
2777.0,0.012691326268817527
2776.0,0.012557195064198723
2775.0,0.012378417874516323
2774.0,0.012244383261476699
2773.0,0.01215504982870197
2772.0,0.012110390002254778
2771.0,0.012021084124518078
2770.0,0.012021084124518078
2769.0,0.0119764380713403
2768.0,0.011931796607364653
2767.0,0.011887159731648111
2766.0,0.011842527443247208
2765.0,0.011753276624621556
2764.0,0.011708658092512314
2763.0,0.011574829993696856
2762.0,0.011441043121384498
2761.0,0.011307297450183107
2760.0,0.01117359295472431
2759.0,0.011129033935354915
2758.0,0.011084479487313281
2757.0,0.011039929609661936
2756.0,0.010950843561779777
2755.0,0.01086177578421088
2754.0,0.010728208358306901
2753.0,0.010639186223752484
2752.0,0.010550182333308289
2751.0,0.010550182333308289
2750.0,0.010550182333308289
2749.0,0.010594681998483901
2748.0,0.010594681998483901
2747.0,0.010550182333308289
2746.0,0.01046119667949763
2745.0,0.01037222925484893
2744.0,0.010327752376126709
2743.0,0.01037222925484893
2742.0,0.010416710688994968
2741.0,0.010550182333308289
2740.0,0.010594681998483901
2739.0,0.010639186223752484
2738.0,0.010639186223752484
2737.0,0.010639186223752484
2736.0,0.010639186223752484
2735.0,0.010639186223752484
2734.0,0.010594681998483901
2733.0,0.010594681998483901
2732.0,0.010550182333308289
2731.0,0.010594681998483901
2730.0,0.010639186223752484
2729.0,0.010817248744452446
2728.0,0.010995384301463185
2727.0,0.011129033935354915
2726.0,0.011218156546359825
2725.0,0.011218156546359825
2724.0,0.011218156546359825
2723.0,0.011262724711199823
2722.0,0.011307297450183107
2721.0,0.011307297450183107
2720.0,0.011262724711199823
2719.0,0.01117359295472431
2718.0,0.011039929609661936
2717.0,0.01086177578421088
2716.0,0.010728208358306901
2715.0,0.010594681998483901
2714.0,0.010416710688994968
2713.0,0.010283280051895272
2712.0,0.010149890396819572
2711.0,0.01001654169860089
2710.0,0.009883233932095559
2709.0,0.009838807101520963
2708.0,0.009838807101520963
2707.0,0.009794384815193347
2706.0,0.009794384815193347
2705.0,0.009794384815193347
2704.0,0.00974996707218323
2703.0,0.00966114521239847
2702.0,0.009572341514736404
2701.0,0.009439170005980158
2700.0,0.009350411681145587
2699.0,0.009306039320248427
2698.0,0.009306039320248427
2697.0,0.009261671492462709
2696.0,0.009217308196862062
2695.0,0.009172949432521227
2694.0,0.009172949432521227
2693.0,0.009217308196862062
2692.0,0.009217308196862062
2691.0,0.009128595198514056
2690.0,0.008995559669244813
2689.0,0.008906891951112605
2688.0,0.008906891951112605
2687.0,0.008995559669244813
2686.0,0.008995559669244813
2685.0,0.008995559669244813
2684.0,0.008906891951112605
2683.0,0.008862564879688284
2682.0,0.008818242332126802
2681.0,0.008818242332126802
2680.0,0.008818242332126802
2679.0,0.008818242332126802
2678.0,0.008818242332126802
2677.0,0.008862564879688284
2676.0,0.008818242332126802
2675.0,0.008818242332126802
2674.0,0.008773924307505121
2673.0,0.008818242332126802
2672.0,0.008862564879688284
2671.0,0.008862564879688284
2670.0,0.008773924307505121
2669.0,0.0087296108049002
2668.0,0.008685301823389224
2667.0,0.008685301823389224
2666.0,0.0087296108049002
2665.0,0.0087296108049002
2664.0,0.008773924307505121
2663.0,0.0087296108049002
2662.0,0.008640997362049818
2661.0,0.00850811108984062
2660.0,0.008375265465994541
2659.0,0.008330992620051436
2658.0,0.008286724286910463
2657.0,0.008242460465651913
2656.0,0.008198201155356077
2655.0,0.008153946355103248
2654.0,0.008198201155356077
2653.0,0.008286724286910463
2652.0,0.008330992620051436
2651.0,0.008330992620051436
2650.0,0.008286724286910463
2649.0,0.008242460465651913
2648.0,0.008198201155356077
2647.0,0.008109696063975047
2646.0,0.008065450281052211
2645.0,0.008065450281052211
2644.0,0.008065450281052211
2643.0,0.008065450281052211
2642.0,0.008065450281052211
2641.0,0.007976972236149349
2640.0,0.007844288957383316
2639.0,0.007755855953228474
2638.0,0.007667440952535687
2637.0,0.007711646202907652
2636.0,0.007800070204414977
2635.0,0.007844288957383316
2634.0,0.007755855953228474
2633.0,0.007667440952535687
2632.0,0.00762324020119709
2631.0,0.0075790439479759275
2630.0,0.00762324020119709
2629.0,0.007711646202907652
2628.0,0.007800070204414977
2627.0,0.007844288957383316
2626.0,0.007932739972333236
2625.0,0.007976972236149349
2624.0,0.007932739972333236
2623.0,0.007888512213050314
2622.0,0.007800070204414977
2621.0,0.007711646202907652
2620.0,0.007711646202907652
2619.0,0.007755855953228474
2618.0,0.007755855953228474
2617.0,0.007755855953228474
2616.0,0.007711646202907652
2615.0,0.00762324020119709
2614.0,0.0075790439479759275
2613.0,0.007534852191956709
2612.0,0.007534852191956709
2611.0,0.007490664932224611
2610.0,0.0074464821678643656
2609.0,0.007402303897961815
2608.0,0.007402303897961815
2607.0,0.007402303897961815
2606.0,0.0074464821678643656
2605.0,0.0074464821678643656
2604.0,0.0074464821678643656
2603.0,0.0074464821678643656
2602.0,0.007358130121602358
2601.0,0.007269796045857202
2600.0,0.007225635744644521
2599.0,0.007225635744644521
2598.0,0.007269796045857202
2597.0,0.007269796045857202
2596.0,0.007269796045857202
2595.0,0.007269796045857202
2594.0,0.007269796045857202
2593.0,0.007269796045857202
2592.0,0.007313960837872058
2591.0,0.007358130121602358
2590.0,0.007313960837872058
2589.0,0.007269796045857202
2588.0,0.007181479933320523
2587.0,0.007181479933320523
2586.0,0.007225635744644521
2585.0,0.007313960837872058
2584.0,0.0074464821678643656
2583.0,0.007534852191956709
2582.0,0.00762324020119709
2581.0,0.0075790439479759275
2580.0,0.007534852191956709
2579.0,0.0074464821678643656
2578.0,0.007402303897961815
2577.0,0.007358130121602358
2576.0,0.007313960837872058
2575.0,0.007225635744644521
2574.0,0.007137328610972382
2573.0,0.007093181776687496
2572.0,0.007049039429553483
2571.0,0.007049039429553483
2570.0,0.007004901568658406
2569.0,0.006916639301937977
2568.0,0.006872514894289861
2567.0,0.006828394969235152
2566.0,0.006784279525863024
2565.0,0.006740168563263094
2564.0,0.006740168563263094
2563.0,0.006784279525863024
2562.0,0.006784279525863024
2561.0,0.006784279525863024
2560.0,0.006784279525863024
2559.0,0.006740168563263094
2558.0,0.006696062080525422
2557.0,0.006696062080525422
2556.0,0.006740168563263094
2555.0,0.006784279525863024
2554.0,0.006740168563263094
2553.0,0.006651960076740071
2552.0,0.00656376950238835
2551.0,0.006519680930003435
2550.0,0.006475596832934416
2549.0,0.006519680930003435
2548.0,0.00656376950238835
2547.0,0.00656376950238835
2546.0,0.00656376950238835
2545.0,0.006519680930003435
2544.0,0.006431517210272464
2543.0,0.006387442061109638
2542.0,0.006387442061109638
2541.0,0.006431517210272464
2540.0,0.006431517210272464
2539.0,0.006387442061109638
2538.0,0.006431517210272464
2537.0,0.006431517210272464
2536.0,0.006475596832934416
2535.0,0.006431517210272464
2534.0,0.006343371384537999
2533.0,0.00625524344553785
2532.0,0.00621118618129457
2531.0,0.00621118618129457
2530.0,0.006167133386013823
2529.0,0.006167133386013823
2528.0,0.006167133386013823
2527.0,0.00621118618129457
2526.0,0.006167133386013823
2525.0,0.006167133386013823
2524.0,0.006079041198713275
2523.0,0.006035001804881146
2522.0,0.005946936412324799
2521.0,0.00590291041179003
2520.0,0.005814871797682919
2519.0,0.00577085918230158
2518.0,0.00577085918230158
2517.0,0.005814871797682919
2516.0,0.005814871797682919
2515.0,0.005814871797682919
2514.0,0.005814871797682919
2513.0,0.005858888873877532
2512.0,0.00590291041179003
2511.0,0.005946936412324799
2510.0,0.005990966876386672
2509.0,0.006035001804881146
2508.0,0.006035001804881146
2507.0,0.006035001804881146
2506.0,0.006035001804881146
2505.0,0.006035001804881146
2504.0,0.005990966876386672
2503.0,0.00590291041179003
2502.0,0.005814871797682919
2501.0,0.005726851026829571
2500.0,0.005682847330363394
2499.0,0.005682847330363394
2498.0,0.005682847330363394
2497.0,0.005726851026829571
2496.0,0.005726851026829571
2495.0,0.00577085918230158
2494.0,0.00577085918230158
2493.0,0.005726851026829571
2492.0,0.005682847330363394
2491.0,0.005638848091999105
2490.0,0.005638848091999105
2489.0,0.005682847330363394
2488.0,0.005682847330363394
2487.0,0.005682847330363394
2486.0,0.005682847330363394
2485.0,0.005682847330363394
2484.0,0.005726851026829571
2483.0,0.00577085918230158
2482.0,0.00577085918230158
2481.0,0.00577085918230158
2480.0,0.005682847330363394
2479.0,0.005594853310833647
2478.0,0.005550862985963967
2477.0,0.005506877116487674
2476.0,0.005550862985963967
2475.0,0.005550862985963967
2474.0,0.005594853310833647
2473.0,0.005638848091999105
2472.0,0.005638848091999105
2471.0,0.005638848091999105
2470.0,0.005550862985963967
2469.0,0.005462895701502157
2468.0,0.00541891874010525
2467.0,0.00537494623139545
2466.0,0.00541891874010525
2465.0,0.005462895701502157
2464.0,0.005506877116487674
2463.0,0.005550862985963967
2462.0,0.005550862985963967
2461.0,0.005506877116487674
2460.0,0.005462895701502157
2459.0,0.005462895701502157
2458.0,0.005506877116487674
2457.0,0.005506877116487674
2456.0,0.005506877116487674
2455.0,0.005462895701502157
2454.0,0.00541891874010525
2453.0,0.005330978174470591
2452.0,0.0052870145684298375
2451.0,0.005243055412371911
2450.0,0.005243055412371911
2449.0,0.0052870145684298375
2448.0,0.005330978174470591
2447.0,0.00537494623139545
2446.0,0.00541891874010525
2445.0,0.005462895701502157
2444.0,0.005550862985963967
2443.0,0.005594853310833647
2442.0,0.005550862985963967
2441.0,0.005462895701502157
2440.0,0.00537494623139545
2439.0,0.0052870145684298375
2438.0,0.0052870145684298375
2437.0,0.005330978174470591
2436.0,0.00541891874010525
2435.0,0.005550862985963967
2434.0,0.005638848091999105
2433.0,0.005726851026829571
2432.0,0.005726851026829571
2431.0,0.005726851026829571
2430.0,0.005726851026829571
2429.0,0.005726851026829571
2428.0,0.005682847330363394
2427.0,0.005638848091999105
2426.0,0.005638848091999105
2425.0,0.005638848091999105
2424.0,0.005594853310833647
2423.0,0.005594853310833647
2422.0,0.005506877116487674
2421.0,0.005462895701502157
2420.0,0.00541891874010525
2419.0,0.005462895701502157
2418.0,0.005506877116487674
2417.0,0.005506877116487674
2416.0,0.005550862985963967
2415.0,0.005550862985963967
2414.0,0.005550862985963967
2413.0,0.005550862985963967
2412.0,0.005594853310833647
2411.0,0.005594853310833647
2410.0,0.005550862985963967
2409.0,0.005462895701502157
2408.0,0.00537494623139545
2407.0,0.005330978174470591
2406.0,0.0052870145684298375
2405.0,0.005330978174470591
2404.0,0.00537494623139545
2403.0,0.00541891874010525
2402.0,0.005550862985963967
2401.0,0.005638848091999105
2400.0,0.005682847330363394
2399.0,0.005726851026829571
2398.0,0.005682847330363394
2397.0,0.005638848091999105
2396.0,0.005550862985963967
2395.0,0.005506877116487674
2394.0,0.005506877116487674
2393.0,0.005506877116487674
2392.0,0.005506877116487674
2391.0,0.005506877116487674
2390.0,0.005462895701502157
2389.0,0.00537494623139545
2388.0,0.005243055412371911
2387.0,0.005155150446602086
2386.0,0.005067263269958211
2385.0,0.004979393875242044
2384.0,0.00489154225525934
2383.0,0.004759798137184523
2382.0,0.004628093971837721
2381.0,0.004540313378935901
2380.0,0.004452550524862486
2379.0,0.004408675747646695
2378.0,0.0043648054024501
2377.0,0.004277078004534696
2376.0,0.004145520125434121
2375.0,0.003926345514724705
2374.0,0.0036634819042162814
2373.0,0.0034445503666347133
2372.0,0.0032694845648473247
2371.0,0.0031819781204844855
2370.0,0.0031382315093266833
2369.0,0.003050751504618754
2368.0,0.0029632891174733444
2367.0,0.0029632891174733444
2366.0,0.003050751504618754
2365.0,0.0032694845648473247
2364.0,0.0034445503666347133
2363.0,0.0036634819042162814
2362.0,0.003970171588923321
2361.0,0.004145520125434121
2360.0,0.00401400208620073
2359.0,0.0036634819042162814
2358.0,0.0034445503666347133
2357.0,0.003488327845821315
2356.0,0.0036634819042162814
2355.0,0.003619686766589858
2354.0,0.0034445503666347133
2353.0,0.0033570086445275926
2352.0,0.003488327845821315
2351.0,0.003619686766589858
2350.0,0.0035321097382827737
2349.0,0.0030944893043338695
2348.0,0.0025262411970197185
2347.0,0.0021332737608552588
2346.0,0.0021769192542746563
2345.0,0.0025262411970197185
2344.0,0.0027447101798967477
2343.0,0.0029195645282691363
2342.0,0.0033132443998284966
2341.0,0.0038387066319929275
2340.0,0.0040578370074493275
2339.0,0.003926345514724705
2338.0,0.0037510854308679953
2337.0,0.0037510854308679953
2336.0,0.0038825238627120395
2335.0,0.0038825238627120395
2334.0,0.0038825238627120395
2333.0,0.0038387066319929275
2332.0,0.003926345514724705
2331.0,0.004145520125434121
2330.0,0.00458420145758498
2329.0,0.004979393875242044
2328.0,0.005243055412371911
2327.0,0.0052870145684298375
2326.0,0.005155150446602086
2325.0,0.004979393875242044
2324.0,0.004803708402820517
2323.0,0.004759798137184523
2322.0,0.004935465843858511
2321.0,0.005199100705396198
2320.0,0.00541891874010525
2319.0,0.00537494623139545
2318.0,0.005199100705396198
2317.0,0.004979393875242044
2316.0,0.004759798137184523
2315.0,0.004628093971837721
2314.0,0.004628093971837721
2313.0,0.004715892310740433
2312.0,0.004759798137184523
2311.0,0.004759798137184523
2310.0,0.004671990922590297
2309.0,0.004715892310740433
2308.0,0.004803708402820517
2307.0,0.004935465843858511
2306.0,0.005111204635089406
2305.0,0.005155150446602086
2304.0,0.005155150446602086
2303.0,0.005023326350308999
2302.0,0.004935465843858511
2301.0,0.00489154225525934
2300.0,0.004979393875242044
2299.0,0.005111204635089406
2298.0,0.005243055412371911
2297.0,0.005330978174470591
2296.0,0.005330978174470591
2295.0,0.00537494623139545
2294.0,0.00541891874010525
2293.0,0.005506877116487674
2292.0,0.005594853310833647
2291.0,0.005638848091999105
2290.0,0.005638848091999105
2289.0,0.005594853310833647
2288.0,0.005638848091999105
2287.0,0.005726851026829571
2286.0,0.005858888873877532
2285.0,0.005990966876386672
2284.0,0.006035001804881146
2283.0,0.005990966876386672
2282.0,0.00590291041179003
2281.0,0.005858888873877532
2280.0,0.005814871797682919
2279.0,0.00577085918230158
2278.0,0.005726851026829571
2277.0,0.005726851026829571
2276.0,0.005726851026829571
2275.0,0.005726851026829571
2274.0,0.00577085918230158
2273.0,0.00577085918230158
2272.0,0.00577085918230158
2271.0,0.005682847330363394
2270.0,0.005594853310833647
2269.0,0.005594853310833647
2268.0,0.005638848091999105
2267.0,0.005726851026829571
2266.0,0.00577085918230158
2265.0,0.005858888873877532
2264.0,0.00590291041179003
2263.0,0.00590291041179003
2262.0,0.00590291041179003
2261.0,0.00590291041179003
2260.0,0.00590291041179003
2259.0,0.00590291041179003
2258.0,0.00590291041179003
2257.0,0.00590291041179003
2256.0,0.005858888873877532
2255.0,0.005858888873877532
2254.0,0.00590291041179003
2253.0,0.00590291041179003
2252.0,0.005946936412324799
2251.0,0.00590291041179003
2250.0,0.00590291041179003
2249.0,0.00590291041179003
2248.0,0.00590291041179003
2247.0,0.005814871797682919
2246.0,0.005726851026829571
2245.0,0.005726851026829571
2244.0,0.005726851026829571
2243.0,0.005726851026829571
2242.0,0.00577085918230158
2241.0,0.00577085918230158
2240.0,0.00577085918230158
2239.0,0.005814871797682919
2238.0,0.005814871797682919
2237.0,0.005858888873877532
2236.0,0.005858888873877532
2235.0,0.00590291041179003
2234.0,0.005990966876386672
2233.0,0.006079041198713275
2232.0,0.006079041198713275
2231.0,0.006035001804881146
2230.0,0.005990966876386672
2229.0,0.005946936412324799
2228.0,0.005946936412324799
2227.0,0.005946936412324799
2226.0,0.005946936412324799
2225.0,0.00590291041179003
2224.0,0.00590291041179003
2223.0,0.00590291041179003
2222.0,0.005946936412324799
2221.0,0.005946936412324799
2220.0,0.00590291041179003
2219.0,0.005858888873877532
2218.0,0.005814871797682919
2217.0,0.00577085918230158
2216.0,0.005682847330363394
2215.0,0.005638848091999105
2214.0,0.005638848091999105
2213.0,0.005638848091999105
2212.0,0.005682847330363394
2211.0,0.005682847330363394
2210.0,0.005726851026829571
2209.0,0.005814871797682919
2208.0,0.005858888873877532
2207.0,0.005858888873877532
2206.0,0.005814871797682919
2205.0,0.005726851026829571
2204.0,0.005638848091999105
2203.0,0.005506877116487674
2202.0,0.005462895701502157
2201.0,0.005506877116487674
2200.0,0.005594853310833647
2199.0,0.005638848091999105
2198.0,0.005638848091999105
2197.0,0.005594853310833647
2196.0,0.005506877116487674
2195.0,0.005462895701502157
2194.0,0.005506877116487674
2193.0,0.005550862985963967
2192.0,0.005638848091999105
2191.0,0.005682847330363394
2190.0,0.005682847330363394
2189.0,0.005682847330363394
2188.0,0.005594853310833647
2187.0,0.005462895701502157
2186.0,0.00537494623139545
2185.0,0.00537494623139545
2184.0,0.005462895701502157
2183.0,0.005550862985963967
2182.0,0.005638848091999105
2181.0,0.005726851026829571
2180.0,0.00577085918230158
2179.0,0.00577085918230158
2178.0,0.00577085918230158
2177.0,0.005726851026829571
2176.0,0.005726851026829571
2175.0,0.005726851026829571
2174.0,0.005682847330363394
2173.0,0.005638848091999105
2172.0,0.005594853310833647
2171.0,0.005462895701502157
2170.0,0.005330978174470591
2169.0,0.005243055412371911
2168.0,0.005243055412371911
2167.0,0.005330978174470591
2166.0,0.00541891874010525
2165.0,0.005506877116487674
2164.0,0.005550862985963967
2163.0,0.005506877116487674
2162.0,0.005462895701502157
2161.0,0.00537494623139545
2160.0,0.00537494623139545
2159.0,0.00541891874010525
2158.0,0.005462895701502157
2157.0,0.00541891874010525
2156.0,0.00541891874010525
2155.0,0.00541891874010525
2154.0,0.00541891874010525
2153.0,0.00537494623139545
2152.0,0.00537494623139545
2151.0,0.00537494623139545
2150.0,0.005330978174470591
2149.0,0.0052870145684298375
2148.0,0.005243055412371911
2147.0,0.005199100705396198
2146.0,0.005243055412371911
2145.0,0.005243055412371911
2144.0,0.005243055412371911
2143.0,0.0052870145684298375
2142.0,0.0052870145684298375
2141.0,0.0052870145684298375
2140.0,0.005243055412371911
2139.0,0.005155150446602086
2138.0,0.005023326350308999
2137.0,0.004979393875242044
2136.0,0.005023326350308999
2135.0,0.005067263269958211
2134.0,0.005111204635089406
2133.0,0.005111204635089406
2132.0,0.005067263269958211
2131.0,0.005023326350308999
2130.0,0.005067263269958211
2129.0,0.005067263269958211
2128.0,0.005111204635089406
2127.0,0.005111204635089406
2126.0,0.005111204635089406
2125.0,0.005111204635089406
2124.0,0.005067263269958211
2123.0,0.005023326350308999
2122.0,0.004979393875242044
2121.0,0.004935465843858511
2120.0,0.004935465843858511
2119.0,0.004935465843858511
2118.0,0.00489154225525934
2117.0,0.00489154225525934
2116.0,0.00489154225525934
2115.0,0.004935465843858511
2114.0,0.004979393875242044
2113.0,0.005023326350308999
2112.0,0.005023326350308999
2111.0,0.005023326350308999
2110.0,0.004935465843858511
2109.0,0.00484762310854614
2108.0,0.004759798137184523
2107.0,0.004715892310740433
2106.0,0.004759798137184523
2105.0,0.004759798137184523
2104.0,0.004803708402820517
2103.0,0.00484762310854614
2102.0,0.004803708402820517
2101.0,0.004759798137184523
2100.0,0.004671990922590297
2099.0,0.004628093971837721
2098.0,0.004628093971837721
2097.0,0.004671990922590297
2096.0,0.004715892310740433
2095.0,0.004759798137184523
2094.0,0.004803708402820517
2093.0,0.00484762310854614
2092.0,0.00489154225525934
2091.0,0.00484762310854614
2090.0,0.004759798137184523
2089.0,0.004715892310740433
2088.0,0.004671990922590297
2087.0,0.00458420145758498
2086.0,0.0044964297349936455
2085.0,0.004452550524862486
2084.0,0.0044964297349936455
2083.0,0.004540313378935901
2082.0,0.00458420145758498
2081.0,0.004540313378935901
2080.0,0.0044964297349936455
2079.0,0.004452550524862486
2078.0,0.004452550524862486
2077.0,0.0044964297349936455
2076.0,0.0044964297349936455
2075.0,0.004452550524862486
2074.0,0.0043648054024501
2073.0,0.004277078004534696
2072.0,0.004277078004534696
2071.0,0.004277078004534696
2070.0,0.004320939488377862
2069.0,0.0043648054024501
2068.0,0.004408675747646695
2067.0,0.004452550524862486
2066.0,0.004540313378935901
2065.0,0.00458420145758498
2064.0,0.004540313378935901
2063.0,0.0044964297349936455
2062.0,0.004452550524862486
2061.0,0.004408675747646695
2060.0,0.004408675747646695
2059.0,0.004408675747646695
2058.0,0.004408675747646695
2057.0,0.004408675747646695
2056.0,0.004408675747646695
2055.0,0.004452550524862486
2054.0,0.004452550524862486
2053.0,0.004452550524862486
2052.0,0.004452550524862486
2051.0,0.004408675747646695
2050.0,0.0043648054024501
2049.0,0.004277078004534696
2048.0,0.004233220950025984
2047.0,0.004277078004534696
2046.0,0.004320939488377862
2045.0,0.0043648054024501
2044.0,0.004320939488377862
2043.0,0.004233220950025984
2042.0,0.004189368323957332
2041.0,0.004145520125434121
2040.0,0.004145520125434121
2039.0,0.004189368323957332
2038.0,0.004145520125434121
2037.0,0.004101676353562844
2036.0,0.00401400208620073
2035.0,0.003970171588923321
2034.0,0.003970171588923321
2033.0,0.0040578370074493275
2032.0,0.004101676353562844
2031.0,0.004101676353562844
2030.0,0.004101676353562844
2029.0,0.0040578370074493275
2028.0,0.00401400208620073
2027.0,0.00401400208620073
2026.0,0.00401400208620073
2025.0,0.0040578370074493275
2024.0,0.0040578370074493275
2023.0,0.0040578370074493275
2022.0,0.0040578370074493275
2021.0,0.0040578370074493275
2020.0,0.0040578370074493275
2019.0,0.00401400208620073
2018.0,0.003970171588923321
2017.0,0.0038825238627120395
2016.0,0.0038387066319929275
2015.0,0.0038387066319929275
2014.0,0.0038387066319929275
2013.0,0.003794893821675638
2012.0,0.0037510854308679953
2011.0,0.003707281458678491
2010.0,0.0036634819042162814
2009.0,0.003707281458678491
2008.0,0.0037510854308679953
2007.0,0.003794893821675638
2006.0,0.003794893821675638
2005.0,0.003794893821675638
2004.0,0.0037510854308679953
2003.0,0.003707281458678491
2002.0,0.0036634819042162814
2001.0,0.003707281458678491
2000.0,0.0037510854308679953
1999.0,0.003707281458678491
1998.0,0.0036634819042162814
1997.0,0.0035758960449088217
1996.0,0.0035758960449088217
1995.0,0.0035758960449088217
1994.0,0.0035758960449088217
1993.0,0.0035758960449088217
1992.0,0.003619686766589858
1991.0,0.003619686766589858
1990.0,0.0036634819042162814
1989.0,0.003707281458678491
1988.0,0.003707281458678491
1987.0,0.003619686766589858
1986.0,0.0035758960449088217
1985.0,0.0035321097382827737
1984.0,0.0035321097382827737
1983.0,0.0035758960449088217
1982.0,0.003619686766589858
1981.0,0.003619686766589858
1980.0,0.0035758960449088217
1979.0,0.003488327845821315
1978.0,0.0034007772998332353
1977.0,0.0033570086445275926
1976.0,0.0032694845648473247
1975.0,0.0032257291386954545
1974.0,0.0032257291386954545
1973.0,0.0033132443998284966
1972.0,0.0034007772998332353
1971.0,0.0034445503666347133
1970.0,0.0034007772998332353
1969.0,0.0033570086445275926
1968.0,0.0033570086445275926
1967.0,0.0034007772998332353
1966.0,0.0034445503666347133
1965.0,0.0034445503666347133
1964.0,0.0034007772998332353
1963.0,0.0033570086445275926
1962.0,0.0033132443998284966
1961.0,0.0033132443998284966
1960.0,0.0033132443998284966
1959.0,0.0033570086445275926
1958.0,0.0033570086445275926
1957.0,0.0033570086445275926
1956.0,0.0033132443998284966
1955.0,0.0033132443998284966
1954.0,0.0032694845648473247
1953.0,0.0032257291386954545
1952.0,0.0031382315093266833
1951.0,0.0030944893043338695
1950.0,0.0031382315093266833
1949.0,0.0031382315093266833
1948.0,0.0031819781204844855
1947.0,0.0031819781204844855
1946.0,0.0031382315093266833
1945.0,0.0031382315093266833
1944.0,0.0030944893043338695
1943.0,0.0030944893043338695
1942.0,0.003050751504618754
1941.0,0.0030070181092942683
1940.0,0.0030070181092942683
1939.0,0.003050751504618754
1938.0,0.003050751504618754
1937.0,0.003050751504618754
1936.0,0.0030070181092942683
1935.0,0.0029632891174733444
1934.0,0.0028758443407954637
1933.0,0.0028758443407954637
1932.0,0.0029195645282691363
1931.0,0.0029632891174733444
1930.0,0.003050751504618754
1929.0,0.0030944893043338695
1928.0,0.0031382315093266833
1927.0,0.0030944893043338695
1926.0,0.0030944893043338695
1925.0,0.003050751504618754
1924.0,0.0030070181092942683
1923.0,0.0029195645282691363
1922.0,0.0028758443407954637
1921.0,0.0029195645282691363
1920.0,0.0029632891174733444
1919.0,0.003050751504618754
1918.0,0.0030944893043338695
1917.0,0.0030944893043338695
1916.0,0.0030944893043338695
1915.0,0.0030944893043338695
1914.0,0.003050751504618754
1913.0,0.003050751504618754
1912.0,0.0030070181092942683
1911.0,0.003050751504618754
1910.0,0.0030944893043338695
1909.0,0.0031382315093266833
1908.0,0.0031819781204844855
1907.0,0.0031819781204844855
1906.0,0.0031382315093266833
1905.0,0.0030944893043338695
1904.0,0.003050751504618754
1903.0,0.003050751504618754
1902.0,0.003050751504618754
1901.0,0.0030944893043338695
1900.0,0.0030944893043338695
1899.0,0.003050751504618754
1898.0,0.0030070181092942683
1897.0,0.0030070181092942683
1896.0,0.0030070181092942683
1895.0,0.003050751504618754
1894.0,0.0030944893043338695
1893.0,0.0031382315093266833
1892.0,0.0031382315093266833
1891.0,0.0030944893043338695
1890.0,0.0030944893043338695
1889.0,0.0031382315093266833
1888.0,0.0031819781204844855
1887.0,0.0032257291386954545
1886.0,0.0032694845648473247
1885.0,0.0032257291386954545
1884.0,0.0031819781204844855
1883.0,0.0030944893043338695
1882.0,0.0030944893043338695
1881.0,0.0030944893043338695
1880.0,0.0031382315093266833
1879.0,0.0031382315093266833
1878.0,0.0030944893043338695
1877.0,0.0031382315093266833
1876.0,0.0031819781204844855
1875.0,0.0032257291386954545
1874.0,0.0032257291386954545
1873.0,0.0031819781204844855
1872.0,0.0030944893043338695
1871.0,0.003050751504618754
1870.0,0.0030070181092942683
1869.0,0.0030070181092942683
1868.0,0.003050751504618754
1867.0,0.0030944893043338695
1866.0,0.0030944893043338695
1865.0,0.0031382315093266833
1864.0,0.0031819781204844855
1863.0,0.0032257291386954545
1862.0,0.0032257291386954545
1861.0,0.0032694845648473247
1860.0,0.0033132443998284966
1859.0,0.0033570086445275926
1858.0,0.0033570086445275926
1857.0,0.0033132443998284966
1856.0,0.0032257291386954545
1855.0,0.0031819781204844855
1854.0,0.0031819781204844855
1853.0,0.0032257291386954545
1852.0,0.0032257291386954545
1851.0,0.0031819781204844855
1850.0,0.0031382315093266833
1849.0,0.003050751504618754
1848.0,0.0030070181092942683
1847.0,0.0030070181092942683
1846.0,0.003050751504618754
1845.0,0.0031382315093266833
1844.0,0.0032257291386954545
1843.0,0.0032694845648473247
1842.0,0.0033132443998284966
1841.0,0.0033132443998284966
1840.0,0.0032694845648473247
1839.0,0.0031819781204844855
1838.0,0.0031382315093266833
1837.0,0.0031819781204844855
1836.0,0.0032257291386954545
1835.0,0.0032257291386954545
1834.0,0.0032257291386954545
1833.0,0.0031819781204844855
1832.0,0.0031382315093266833
1831.0,0.0030944893043338695
1830.0,0.0030944893043338695
1829.0,0.0031382315093266833
1828.0,0.0032257291386954545
1827.0,0.0032694845648473247
1826.0,0.0032694845648473247
1825.0,0.0032257291386954545
1824.0,0.0031819781204844855
1823.0,0.0031819781204844855
1822.0,0.0031819781204844855
1821.0,0.0032694845648473247
1820.0,0.0033132443998284966
1819.0,0.0033132443998284966
1818.0,0.0033132443998284966
1817.0,0.0033132443998284966
1816.0,0.0033570086445275926
1815.0,0.0033132443998284966
1814.0,0.0033132443998284966
1813.0,0.0033132443998284966
1812.0,0.0033132443998284966
1811.0,0.0032694845648473247
1810.0,0.0031819781204844855
1809.0,0.0031819781204844855
1808.0,0.0032257291386954545
1807.0,0.0032257291386954545
1806.0,0.0032257291386954545
1805.0,0.0032257291386954545
1804.0,0.0031819781204844855
1803.0,0.0030944893043338695
1802.0,0.0030070181092942683
1801.0,0.003050751504618754
1800.0,0.0031382315093266833
1799.0,0.0031819781204844855
1798.0,0.0031819781204844855
1797.0,0.0031819781204844855
1796.0,0.0031819781204844855
1795.0,0.0030944893043338695
1794.0,0.0029632891174733444
1793.0,0.0028321285541661467
1792.0,0.0028758443407954637
1791.0,0.0029632891174733444
1790.0,0.0031382315093266833
1789.0,0.0032694845648473247
1788.0,0.0033570086445275926
1787.0,0.0034007772998332353
1786.0,0.0033570086445275926
1785.0,0.0033570086445275926
1784.0,0.0034007772998332353
1783.0,0.0034007772998332353
1782.0,0.0034007772998332353
1781.0,0.0034007772998332353
1780.0,0.0034007772998332353
1779.0,0.0033570086445275926
1778.0,0.0033132443998284966
1777.0,0.0032694845648473247
1776.0,0.0032694845648473247
1775.0,0.0032257291386954545
1774.0,0.0030944893043338695
1773.0,0.0030070181092942683
1772.0,0.0030070181092942683
1771.0,0.0031382315093266833
1770.0,0.0033570086445275926
1769.0,0.003488327845821315
1768.0,0.0035321097382827737
1767.0,0.0034007772998332353
1766.0,0.0032694845648473247
1765.0,0.0032257291386954545
1764.0,0.0031819781204844855
1763.0,0.0032257291386954545
1762.0,0.0032694845648473247
1761.0,0.0033132443998284966
1760.0,0.0034007772998332353
1759.0,0.0034007772998332353
1758.0,0.0034007772998332353
1757.0,0.0034007772998332353
1756.0,0.0034445503666347133
1755.0,0.0035321097382827737
1754.0,0.003619686766589858
1753.0,0.0036634819042162814
1752.0,0.003707281458678491
1751.0,0.0037510854308679953
1750.0,0.003794893821675638
1749.0,0.0038387066319929275
1748.0,0.003926345514724705
1747.0,0.003926345514724705
1746.0,0.003926345514724705
1745.0,0.003970171588923321
1744.0,0.0040578370074493275
1743.0,0.004145520125434121
1742.0,0.004233220950025984
1741.0,0.004277078004534696
1740.0,0.004277078004534696
1739.0,0.004189368323957332
1738.0,0.004101676353562844
1737.0,0.004145520125434121
1736.0,0.004145520125434121
1735.0,0.004233220950025984
1734.0,0.004320939488377862
1733.0,0.004408675747646695
1732.0,0.004540313378935901
1731.0,0.004715892310740433
1730.0,0.004803708402820517
1729.0,0.00484762310854614
1728.0,0.00489154225525934
1727.0,0.00489154225525934
1726.0,0.00484762310854614
1725.0,0.00484762310854614
1724.0,0.00484762310854614
1723.0,0.00489154225525934
1722.0,0.004935465843858511
1721.0,0.005023326350308999
1720.0,0.005111204635089406
1719.0,0.005199100705396198
1718.0,0.00537494623139545
1717.0,0.005462895701502157
1716.0,0.005462895701502157
1715.0,0.005462895701502157
1714.0,0.005550862985963967
1713.0,0.005682847330363394
1712.0,0.00577085918230158
1711.0,0.005814871797682919
1710.0,0.005858888873877532
1709.0,0.005946936412324799
1708.0,0.00612308505878878
1707.0,0.00621118618129457
1706.0,0.00625524344553785
1705.0,0.006299305179649828
1704.0,0.006387442061109638
1703.0,0.00656376950238835
1702.0,0.006740168563263094
1701.0,0.007049039429553483
1700.0,0.007313960837872058
1699.0,0.007402303897961815
1698.0,0.007534852191956709
1697.0,0.007800070204414977
1696.0,0.008021209005416363
1695.0,0.008065450281052211
1694.0,0.008065450281052211
1693.0,0.008153946355103248
1692.0,0.008242460465651913
1691.0,0.008375265465994541
1690.0,0.008552401996197112
1689.0,0.008862564879688284
1688.0,0.009172949432521227
1687.0,0.00939478857608056
1686.0,0.009527946474380489
1685.0,0.009883233932095559
1684.0,0.01037222925484893
1683.0,0.010639186223752484
1682.0,0.01077272626946324
1681.0,0.010950843561779777
1680.0,0.01117359295472431
1679.0,0.011441043121384498
1678.0,0.011708658092512314
1677.0,0.0119764380713403
1676.0,0.012378417874516323
1675.0,0.012825498912458322
1674.0,0.01318349541446362
1673.0,0.013362604389846044
1672.0,0.013541787262693505
1671.0,0.01381070026317599
1670.0,0.014259258949925524
1669.0,0.014753209197138295
1668.0,0.015157768594724175
1667.0,0.015427684378367834
1666.0,0.015562705203923999
1665.0,0.015652742414136167
1664.0,0.015922966097169144
1663.0,0.016373712875465518
1662.0,0.016870075265299933
1661.0,0.017231422748988034
1660.0,0.017502630802287644
1659.0,0.017728766960431575
1658.0,0.017864505196230507
1657.0,0.017955020928509757
1656.0,0.01800028587012159
1655.0,0.018136109008649592
1654.0,0.018906576854070378
1653.0,0.02026956933771462
1652.0,0.020861530453190058
1651.0,0.020952673052035298
1650.0,0.020952673052035298
1649.0,0.021043834782408455
1648.0,0.02159120737696063
1647.0,0.02277955336461468
1646.0,0.023925268380126097
1645.0,0.024660115394541604
1644.0,0.02516604495145991
1643.0,0.02562649291857677
1642.0,0.026087429580295085
1641.0,0.026502691267936695
1640.0,0.02677975314776626
1639.0,0.02677975314776626
1638.0,0.026595025589939425
1637.0,0.02654885597506529
1636.0,0.02677975314776626
1635.0,0.02696455931306696
1634.0,0.02691835039863255
1633.0,0.026872146400301444
1632.0,0.02696455931306696
1631.0,0.027149444152769986
1630.0,0.027612000892527133
1629.0,0.028445846553939003
1628.0,0.02969962459782227
1627.0,0.03105031901865729
1626.0,0.032311649546687526
1625.0,0.033905220553829274
1624.0,0.03625938114211591
1623.0,0.03910132267333921
1622.0,0.04153168163305643
1621.0,0.04320747962950522
1620.0,0.04450467081587295
1619.0,0.04575749056067524
1618.0,0.04730440041308315
1617.0,0.049294465226138895
1616.0,0.05095170768433621
1615.0,0.05144033789103841
1614.0,0.05085404758005607
1613.0,0.04963514562387683
1612.0,0.04803141550708934
1611.0,0.04599883231842972
1610.0,0.04359142880416744
1609.0,0.04091088563260792
1608.0,0.03824678581321739
1607.0,0.03559892883726867
1606.0,0.03301397488206215
1605.0,0.030537492025363155
1604.0,0.028214062120885508
1603.0,0.02613355016462182
1602.0,0.024246610963712723
1601.0,0.022642270454698687
1600.0,0.021271822861508305
1599.0,0.02013307743509718
1598.0,0.0190880622231564
1597.0,0.018136109008649592
1596.0,0.017321806616515723
1595.0,0.016689514205884493
1594.0,0.016103208673694303
1593.0,0.015562705203923999
1592.0,0.015022873584506602
1591.0,0.01452861671041239
1590.0,0.01403492169512921
1589.0,0.013631406429727155
1588.0,0.013273040668781544
1587.0,0.013004460275618523
1586.0,0.012825498912458322
1585.0,0.01260190086298274
1584.0,0.012333735073725371
1583.0,0.01215504982870197
1582.0,0.0119764380713403
1581.0,0.011753276624621556
1580.0,0.011530229790124524
1579.0,0.011307297450183107
1578.0,0.011084479487313281
1577.0,0.01086177578421088
1576.0,0.010683695010048622
1575.0,0.010505687227290839
1574.0,0.010416710688994968
1573.0,0.010327752376126709
1572.0,0.010149890396819572
1571.0,0.009972101229705377
1570.0,0.009794384815193347
1569.0,0.009616741093766423
1568.0,0.009439170005980158
1567.0,0.009306039320248427
1566.0,0.009172949432521227
1565.0,0.008995559669244813
1564.0,0.008862564879688284
1563.0,0.0087296108049002
1562.0,0.008640997362049818
1561.0,0.008286724286910463
1560.0,0.007976972236149349
1559.0,0.007888512213050314
1558.0,0.007800070204414977
1557.0,0.007755855953228474
1556.0,0.007711646202907652
1555.0,0.00762324020119709
1554.0,0.0074464821678643656
1553.0,0.007269796045857202
1552.0,0.007137328610972382
1551.0,0.007004901568658406
1550.0,0.006916639301937977
1549.0,0.006872514894289861
1548.0,0.006828394969235152
1547.0,0.006740168563263094
1546.0,0.00656376950238835
1545.0,0.006387442061109638
1544.0,0.006299305179649828
1543.0,0.006167133386013823
1542.0,0.006079041198713275
1541.0,0.006035001804881146
1540.0,0.005990966876386672
1539.0,0.00590291041179003
1538.0,0.005814871797682919
1537.0,0.005814871797682919
1536.0,0.00577085918230158
1535.0,0.005638848091999105
1534.0,0.00541891874010525
1533.0,0.005243055412371911
1532.0,0.005111204635089406
1531.0,0.004935465843858511
1530.0,0.004803708402820517
1529.0,0.004671990922590297
1528.0,0.004628093971837721
1527.0,0.00458420145758498
1526.0,0.004540313378935901
1525.0,0.0044964297349936455
1524.0,0.0043648054024501
1523.0,0.004189368323957332
1522.0,0.0040578370074493275
1521.0,0.0040578370074493275
1520.0,0.004101676353562844
1519.0,0.004189368323957332
1518.0,0.004189368323957332
1517.0,0.004145520125434121
1516.0,0.004145520125434121
1515.0,0.004145520125434121
1514.0,0.004189368323957332
1513.0,0.004189368323957332
1512.0,0.004145520125434121
1511.0,0.0040578370074493275
1510.0,0.003970171588923321
1509.0,0.0038825238627120395
1508.0,0.003926345514724705
1507.0,0.0040578370074493275
1506.0,0.0040578370074493275
1505.0,0.003970171588923321
1504.0,0.003970171588923321
1503.0,0.003970171588923321
1502.0,0.003970171588923321
1501.0,0.00401400208620073
1500.0,0.004145520125434121
1499.0,0.004233220950025984
1498.0,0.004277078004534696
1497.0,0.004320939488377862
1496.0,0.004320939488377862
1495.0,0.004189368323957332
1494.0,0.004101676353562844
1493.0,0.004101676353562844
1492.0,0.004101676353562844
1491.0,0.0040578370074493275
1490.0,0.0040578370074493275
1489.0,0.004189368323957332
1488.0,0.004408675747646695
1487.0,0.00458420145758498
1486.0,0.004759798137184523
1485.0,0.004935465843858511
1484.0,0.005111204635089406
1483.0,0.0052870145684298375
1482.0,0.005594853310833647
1481.0,0.006035001804881146
1480.0,0.00656376950238835
1479.0,0.007004901568658406
1478.0,0.0075790439479759275
1477.0,0.008463824699968647
1476.0,0.009483555971770974
1475.0,0.010728208358306901
1474.0,0.012467797270160563
1473.0,0.015247721884586563
1472.0,0.018543833477873584
1471.0,0.0214542995372613
1470.0,0.02406295751688936
1469.0,0.026687379547098322
1468.0,0.029513651152349718
1467.0,0.032686081712916426
1466.0,0.03649550058570927
1465.0,0.04086316882962593
1464.0,0.04469717723830824
1463.0,0.04725597598510167
1462.0,0.04875964967565971
1461.0,0.04982994019179987
1460.0,0.0506099933550872
1459.0,0.05148923116234294
1458.0,0.053203972728539606
1457.0,0.05546797900801881
1456.0,0.05665390164340933
1455.0,0.05680236993107379
1454.0,0.05670338543334519
1453.0,0.05655495097496965
1452.0,0.05620880107069848
1451.0,0.05541863577307371
1450.0,0.054088483180726676
1449.0,0.052027420754219955
1448.0,0.04905128560059957
1447.0,0.045612749855485024
1446.0,0.04215336629184985
1445.0,0.03886378261277468
1444.0,0.03583468937826462
1443.0,0.033154576345083564
1442.0,0.03105031901865729
1441.0,0.02942069428514915
1440.0,0.028306761050139073
1439.0,0.0277045713888604
1438.0,0.0277045713888604
1437.0,0.028075050815808744
1436.0,0.028028723600243666
1435.0,0.02710321556345563
1434.0,0.02539620791296726
1433.0,0.023237476732539397
1432.0,0.020952673052035298
1431.0,0.018861217359339655
1430.0,0.017141057687924732
1429.0,0.01578783323856614
1428.0,0.014708281407112
1427.0,0.013945219230304673
1426.0,0.013273040668781544
1425.0,0.01264661126420652
1424.0,0.012110390002254778
1423.0,0.011708658092512314
1422.0,0.011351874764248926
1421.0,0.01086177578421088
1420.0,0.010327752376126709
1419.0,0.009883233932095559
1418.0,0.009439170005980158
1417.0,0.008906891951112605
1416.0,0.008375265465994541
1415.0,0.007888512213050314
1414.0,0.007313960837872058
1413.0,0.006740168563263094
1412.0,0.00612308505878878
1411.0,0.005638848091999105
1410.0,0.005199100705396198
1409.0,0.004759798137184523
1408.0,0.004277078004534696
1407.0,0.003970171588923321
1406.0,0.003707281458678491
1405.0,0.0035321097382827737
1404.0,0.0034007772998332353
1403.0,0.0034445503666347133
1402.0,0.003488327845821315
1401.0,0.0034445503666347133
1400.0,0.0034007772998332353
1399.0,0.0033570086445275926
1398.0,0.0032257291386954545
1397.0,0.0026573093983774942
1396.0,0.0017842676290416026
1395.0,0.0010435595295137379
1394.0,0.0008259444115150671
1393.0,0.0012177301682640973
1392.0,0.0018714928717336043
1391.0,0.002569926202528716
1390.0,0.0031382315093266833
1389.0,0.0036634819042162814
1388.0,0.004320939488377862
1387.0,0.005506877116487674
1386.0,0.007269796045857202
1385.0,0.009705553871561357
1384.0,0.013273040668781544
1383.0,0.018362575344230914
1382.0,0.02512002699306959
1381.0,0.033482823553208085
1380.0,0.0435434165901003
1379.0,0.05477768336465916
1378.0,0.06545105233385295
1377.0,0.07355465218161061
1376.0,0.07737832847680104
1375.0,0.07613452481449845
1374.0,0.0702746216219956
1373.0,0.06208109735221967
1372.0,0.05374429280060267
1371.0,0.046143701775014145
1370.0,0.039338992729018196
1369.0,0.03367050483612166
1368.0,0.029374223311705583
1367.0,0.026456531467510258
1366.0,0.024660115394541604
1365.0,0.02365002099672653
1364.0,0.023466619608062178
1363.0,0.023925268380126097
1362.0,0.024936003904763915
1361.0,0.026041313893296225
1360.0,0.02691835039863255
1359.0,0.027288159452933503
1358.0,0.02696455931306696
1357.0,0.025949097207122573
1356.0,0.024430342106337877
1355.0,0.02259651912656535
1354.0,0.02081596632558158
1353.0,0.019178833355664393
1352.0,0.017864505196230507
1351.0,0.016689514205884493
1350.0,0.015742798294583915
1349.0,0.014932966849499074
1348.0,0.014214382227394795
1347.0,0.013586594534531482
1346.0,0.012959713020733288
1345.0,0.012423105273012602
1344.0,0.011931796607364653
1343.0,0.011530229790124524
1342.0,0.011218156546359825
1341.0,0.010906307389674463
1340.0,0.010683695010048622
1339.0,0.010550182333308289
1338.0,0.01046119667949763
1337.0,0.010416710688994968
1336.0,0.010416710688994968
1335.0,0.010416710688994968
1334.0,0.010505687227290839
1333.0,0.010683695010048622
1332.0,0.010906307389674463
1331.0,0.011129033935354915
1330.0,0.011262724711199823
1329.0,0.011307297450183107
1328.0,0.01117359295472431
1327.0,0.010995384301463185
1326.0,0.01077272626946324
1325.0,0.01046119667949763
1324.0,0.010194349063173958
1323.0,0.009883233932095559
1322.0,0.009616741093766423
1321.0,0.009439170005980158
1320.0,0.009261671492462709
1319.0,0.009128595198514056
1318.0,0.008951223547323472
1317.0,0.008773924307505121
1316.0,0.008596697419959609
1315.0,0.008463824699968647
1314.0,0.008375265465994541
1313.0,0.008375265465994541
1312.0,0.008375265465994541
1311.0,0.008463824699968647
1310.0,0.008640997362049818
1309.0,0.008906891951112605
1308.0,0.009350411681145587
1307.0,0.009972101229705377
1306.0,0.010639186223752484
1305.0,0.01117359295472431
1304.0,0.011307297450183107
1303.0,0.01117359295472431
1302.0,0.01086177578421088
1301.0,0.010550182333308289
1300.0,0.010327752376126709
1299.0,0.01023881228122181
1298.0,0.010194349063173958
1297.0,0.010194349063173958
1296.0,0.010149890396819572
1295.0,0.010060986715464404
1294.0,0.009838807101520963
1293.0,0.009572341514736404
1292.0,0.009306039320248427
1291.0,0.008995559669244813
1290.0,0.0087296108049002
1289.0,0.008463824699968647
1288.0,0.008286724286910463
1287.0,0.008153946355103248
1286.0,0.008021209005416363
1285.0,0.007932739972333236
1284.0,0.007844288957383316
1283.0,0.007711646202907652
1282.0,0.007534852191956709
1281.0,0.007313960837872058
1280.0,0.007181479933320523
1279.0,0.007093181776687496
1278.0,0.007049039429553483
1277.0,0.007004901568658406
1276.0,0.006916639301937977
1275.0,0.006784279525863024
1274.0,0.006696062080525422
1273.0,0.006607862550997545
1272.0,0.006475596832934416
1271.0,0.006343371384537999
1270.0,0.00612308505878878
1269.0,0.005946936412324799
1268.0,0.005814871797682919
1267.0,0.005726851026829571
1266.0,0.005726851026829571
1265.0,0.005726851026829571
1264.0,0.005682847330363394
1263.0,0.005726851026829571
1262.0,0.00577085918230158
1261.0,0.005946936412324799
1260.0,0.00621118618129457
1259.0,0.00656376950238835
1258.0,0.00696076819309055
1257.0,0.007313960837872058
1256.0,0.007490664932224611
1255.0,0.0074464821678643656
1254.0,0.007225635744644521
1253.0,0.006872514894289861
1252.0,0.006387442061109638
1251.0,0.005946936412324799
1250.0,0.005682847330363394
1249.0,0.005550862985963967
1248.0,0.005550862985963967
1247.0,0.005638848091999105
1246.0,0.005638848091999105
1245.0,0.005594853310833647
1244.0,0.00537494623139545
1243.0,0.005111204635089406
1242.0,0.004935465843858511
1241.0,0.005067263269958211
1240.0,0.005462895701502157
1239.0,0.005814871797682919
1238.0,0.005946936412324799
1237.0,0.00590291041179003
1236.0,0.005814871797682919
1235.0,0.005682847330363394
1234.0,0.005594853310833647
1233.0,0.005550862985963967
1232.0,0.005550862985963967
1231.0,0.005682847330363394
1230.0,0.005814871797682919
1229.0,0.005946936412324799
1228.0,0.006079041198713275
1227.0,0.006299305179649828
1226.0,0.006607862550997545
1225.0,0.00696076819309055
1224.0,0.007313960837872058
1223.0,0.007711646202907652
1222.0,0.008065450281052211
1221.0,0.008419542825660153
1220.0,0.008773924307505121
1219.0,0.00908424549391551
1218.0,0.009350411681145587
1217.0,0.009483555971770974
1216.0,0.009572341514736404
1215.0,0.00966114521239847
1214.0,0.00974996707218323
1213.0,0.009838807101520963
1212.0,0.010060986715464404
1211.0,0.010283280051895272
1210.0,0.010550182333308289
1209.0,0.01077272626946324
1208.0,0.010950843561779777
1207.0,0.01117359295472431
1206.0,0.011351874764248926
1205.0,0.011485634166333858
1204.0,0.011619434777991433
1203.0,0.011753276624621556
1202.0,0.011931796607364653
1201.0,0.01215504982870197
1200.0,0.012333735073725371
1199.0,0.012512493866907004
1198.0,0.012736045877764557
1197.0,0.012959713020733288
1196.0,0.01322826573375524
1195.0,0.013496984613259544
1194.0,0.013765869865004277
1193.0,0.013990068146738865
1192.0,0.014214382227394795
1191.0,0.0144837121472845
1190.0,0.014663358264387139
1189.0,0.014843078722943437
1188.0,0.015067833932588037
1187.0,0.015292705517326866
1186.0,0.015562705203923999
1185.0,0.015877917138889863
1184.0,0.016238439713835096
1183.0,0.016554142658660398
1182.0,0.016915227262211507
1181.0,0.01727661233145472
1180.0,0.017638298366853045
1179.0,0.018136109008649592
1178.0,0.018679826740892747
1177.0,0.019360432556262852
1176.0,0.020178569969774962
1175.0,0.021317434843055594
1174.0,0.022733787572707387
1173.0,0.024476287039668643
1172.0,0.026502691267936695
1171.0,0.02872415126189476
1170.0,0.030863766403287585
1169.0,0.032686081712916426
1168.0,0.033952178923546183
1167.0,0.034469056377139484
1166.0,0.03432802877989327
1165.0,0.0338113190438627
1164.0,0.03310770413286357
1163.0,0.03240522732811035
1162.0,0.03189079887180224
1161.0,0.03151705144606498
1160.0,0.031236951802751545
1159.0,0.031096969696171817
1158.0,0.03105031901865729
1157.0,0.031096969696171817
1156.0,0.031190286087141805
1155.0,0.03128362253321426
1154.0,0.03147035562516054
1153.0,0.03161045815293173
1152.0,0.03179733185715028
1151.0,0.03189079887180224
1150.0,0.03189079887180224
1149.0,0.03175060589208267
1148.0,0.03151705144606498
1147.0,0.03128362253321426
1146.0,0.031143625385307683
1145.0,0.031096969696171817
1144.0,0.031143625385307683
1143.0,0.031236951802751545
1142.0,0.03128362253321426
1141.0,0.03137697904301118
1140.0,0.03142366482450232
1139.0,0.031563752288295444
1138.0,0.03170388495374454
1137.0,0.03189079887180224
1136.0,0.032124554451966825
1135.0,0.03235843591698884
1134.0,0.032545631817259224
1133.0,0.03263926003405038
1132.0,0.03273290844021437
1131.0,0.03282657704446046
1130.0,0.032920265855503006
1129.0,0.0329671178412978
1128.0,0.0329671178412978
1127.0,0.033060836978886954
1126.0,0.033201453616638954
1125.0,0.03334211579824231
1124.0,0.03352973627071565
1123.0,0.03357665405630694
1122.0,0.033482823553208085
1121.0,0.03334211579824231
1120.0,0.033154576345083564
1119.0,0.033060836978886954
1118.0,0.033060836978886954
1117.0,0.03301397488206215
1116.0,0.0329671178412978
1115.0,0.032873418923587305
1114.0,0.03277974021703267
1113.0,0.03273290844021437
1112.0,0.03273290844021437
1111.0,0.032686081712916426
1110.0,0.032592443402527316
1109.0,0.03249882527715853
1108.0,0.03245202378113787
1107.0,0.03249882527715853
1106.0,0.032686081712916426
1105.0,0.032873418923587305
1104.0,0.03301397488206215
1103.0,0.033060836978886954
1102.0,0.032920265855503006
1101.0,0.03263926003405038
1100.0,0.032218091924200776
1099.0,0.03175060589208267
1098.0,0.03128362253321426
1097.0,0.03081714076773867
1096.0,0.030351159519274695
1095.0,0.029792641193145286
1094.0,0.029141943003497595
1093.0,0.028353117935693284
1092.0,0.02738066094037661
1091.0,0.026318081496016443
1090.0,0.02521206778644225
1089.0,0.024154774532432866
1088.0,0.023191662661933732
1087.0,0.0221849739168134
1086.0,0.021043834782408455
1085.0,0.019860222254245663
1084.0,0.018725167293411005
1083.0,0.01759307113620534
1082.0,0.01646391839700767
1081.0,0.015292705517326866
1080.0,0.01403492169512921
1079.0,0.012780770091995297
1078.0,0.011574829993696856
1077.0,0.01046119667949763
1076.0,0.009439170005980158
1075.0,0.008640997362049818
1074.0,0.007932739972333236
1073.0,0.0074464821678643656
1072.0,0.007049039429553483
1071.0,0.006607862550997545
1070.0,0.005858888873877532
1069.0,0.004671990922590297
1068.0,0.0032257291386954545
1067.0,0.0019587356365717845
1066.0,0.001304841688344327
1065.0,0.0013919706849057079
1064.0,0.0017842676290416026
1063.0,0.002089632653256679
1062.0,0.0020023635919956817
1061.0,0.0014791171649619628
1060.0,0.000521466320689834
1059.0,-0.0004774613744551459
1058.0,-0.0013009330204178937
1057.0,-0.0016904542321527494
1056.0,-0.001733712809000476
1055.0,-0.0016904542321527494
1054.0,-0.0016471913460383014
1053.0,-0.0016904542321527494
1052.0,-0.001776967077439462
1051.0,-0.0019067040408846658
1050.0,-0.0019499410842680476
1049.0,-0.0019499410842680476
1048.0,-0.001733712809000476
1047.0,-0.001344230411601366
1046.0,-0.0009977303577937136
1045.0,-0.0006943158663546001
1044.0,-0.0005208409361854294
1043.0,-0.00030389978481260016
1042.0,-8.685021164911433e-05
1041.0,0.0001303078917322953
1040.0,0.00021720154586435392
1039.0,0.00026065489343207737
1038.0,0.0003910410285830057
1037.0,0.0007824344698965646
1036.0,0.0013919706849057079
1035.0,0.002089632653256679
1034.0,0.0026573093983774942
1033.0,0.0030944893043338695
1032.0,0.0033570086445275926
1031.0,0.0034007772998332353
1030.0,0.0030944893043338695
1029.0,0.0026573093983774942
1028.0,0.0024388843664115978
1027.0,0.0027447101798967477
1026.0,0.003488327845821315
1025.0,0.004233220950025984
1024.0,0.004715892310740433
1023.0,0.00484762310854614
1022.0,0.00484762310854614
1021.0,0.004759798137184523
1020.0,0.004715892310740433
1019.0,0.004628093971837721
1018.0,0.004671990922590297
1017.0,0.004715892310740433
1016.0,0.00489154225525934
1015.0,0.005067263269958211
1014.0,0.0052870145684298375
1013.0,0.005462895701502157
1012.0,0.005682847330363394
1011.0,0.005946936412324799
1010.0,0.006343371384537999
1009.0,0.006784279525863024
1008.0,0.007313960837872058
1007.0,0.007976972236149349
1006.0,0.008685301823389224
1005.0,0.009572341514736404
1004.0,0.010683695010048622
1003.0,0.012289056869694281
1002.0,0.014393916947563534
1001.0,0.016915227262211507
1000.0,0.01958753839310856
999.0,0.021865152601710403
998.0,0.023191662661933732
997.0,0.023329119375188556
996.0,0.0221849739168134
995.0,0.020315076172974234
994.0,0.018181392829336396
993.0,0.016193358021584725
992.0,0.014573525916998342
991.0,0.013407393177789162
990.0,0.012557195064198723
989.0,0.011931796607364653
988.0,0.011530229790124524
987.0,0.011262724711199823
986.0,0.011129033935354915
985.0,0.01117359295472431
984.0,0.011351874764248926
983.0,0.011619434777991433
982.0,0.012110390002254778
981.0,0.012870232340102872
980.0,0.014124642691606404
979.0,0.015877917138889863
978.0,0.018136109008649592
977.0,0.020770406977844713
976.0,0.023604163388120325
975.0,0.02636422658259252
974.0,0.028538594975413334
973.0,0.029513651152349718
972.0,0.028956208163971375
971.0,0.027010773144651168
970.0,0.024154774532432866
969.0,0.02122621566987748
968.0,0.01858915983411169
967.0,0.01646391839700767
966.0,0.014798141635428141
965.0,0.013541787262693505
964.0,0.01260190086298274
963.0,0.011797899741219142
962.0,0.01117359295472431
961.0,0.010728208358306901
960.0,0.01046119667949763
959.0,0.010283280051895272
958.0,0.010060986715464404
957.0,0.009794384815193347
956.0,0.009527946474380489
955.0,0.009261671492462709
954.0,0.009039900317800775
953.0,0.008862564879688284
952.0,0.008685301823389224
951.0,0.008596697419959609
950.0,0.008552401996197112
949.0,0.00850811108984062
948.0,0.00850811108984062
947.0,0.00850811108984062
946.0,0.008463824699968647
945.0,0.008419542825660153
944.0,0.008463824699968647
943.0,0.008685301823389224
942.0,0.009039900317800775
941.0,0.009306039320248427
940.0,0.009439170005980158
939.0,0.009439170005980158
938.0,0.009261671492462709
937.0,0.008995559669244813
936.0,0.0087296108049002
935.0,0.008463824699968647
934.0,0.008286724286910463
933.0,0.008109696063975047
932.0,0.007932739972333236
931.0,0.007888512213050314
930.0,0.007888512213050314
929.0,0.007932739972333236
928.0,0.008021209005416363
927.0,0.008021209005416363
926.0,0.007976972236149349
925.0,0.007888512213050314
924.0,0.007755855953228474
923.0,0.00762324020119709
922.0,0.007534852191956709
921.0,0.0074464821678643656
920.0,0.007490664932224611
919.0,0.00762324020119709
918.0,0.007755855953228474
917.0,0.007800070204414977
916.0,0.007711646202907652
915.0,0.0075790439479759275
914.0,0.007402303897961815
913.0,0.007225635744644521
912.0,0.007181479933320523
911.0,0.007225635744644521
910.0,0.007225635744644521
909.0,0.007225635744644521
908.0,0.007225635744644521
907.0,0.007358130121602358
906.0,0.0075790439479759275
905.0,0.007976972236149349
904.0,0.008596697419959609
903.0,0.009572341514736404
902.0,0.010817248744452446
901.0,0.012065734767841452
900.0,0.013004460275618523
899.0,0.013362604389846044
898.0,0.013093968619278806
897.0,0.012289056869694281
896.0,0.01117359295472431
895.0,0.009927665307847056
894.0,0.0087296108049002
893.0,0.007755855953228474
892.0,0.007137328610972382
891.0,0.006872514894289861
890.0,0.006828394969235152
889.0,0.006828394969235152
888.0,0.006872514894289861
887.0,0.006872514894289861
886.0,0.006872514894289861
885.0,0.006828394969235152
884.0,0.006740168563263094
883.0,0.006696062080525422
882.0,0.006607862550997545
881.0,0.006519680930003435
880.0,0.006519680930003435
879.0,0.006696062080525422
878.0,0.00696076819309055
877.0,0.007225635744644521
876.0,0.007358130121602358
875.0,0.007402303897961815
874.0,0.007490664932224611
873.0,0.00762324020119709
872.0,0.007800070204414977
871.0,0.007976972236149349
870.0,0.008109696063975047
869.0,0.008198201155356077
868.0,0.008242460465651913
867.0,0.008419542825660153
866.0,0.008640997362049818
865.0,0.008951223547323472
864.0,0.009261671492462709
863.0,0.009483555971770974
862.0,0.00966114521239847
861.0,0.009794384815193347
860.0,0.009972101229705377
859.0,0.010194349063173958
858.0,0.01037222925484893
857.0,0.010550182333308289
856.0,0.010728208358306901
855.0,0.010906307389674463
854.0,0.011129033935354915
853.0,0.011351874764248926
852.0,0.011530229790124524
851.0,0.011664044143949504
850.0,0.011887159731648111
849.0,0.012199714248127602
848.0,0.012736045877764557
847.0,0.013541787262693505
846.0,0.014708281407112
845.0,0.016509028184833463
844.0,0.019178833355664393
843.0,0.02245929405346514
842.0,0.025350165561278004
841.0,0.026595025589939425
840.0,0.025672564576383117
839.0,0.023191662661933732
838.0,0.020406104151069693
837.0,0.018136109008649592
836.0,0.016644385668211692
835.0,0.015652742414136167
834.0,0.014798141635428141
833.0,0.014079779876432497
832.0,0.013541787262693505
831.0,0.01322826573375524
830.0,0.013138729709955221
829.0,0.013049212141483357
828.0,0.013004460275618523
827.0,0.012914970375878188
826.0,0.012825498912458322
825.0,0.01264661126420652
824.0,0.012467797270160563
823.0,0.012333735073725371
822.0,0.012378417874516323
821.0,0.012467797270160563
820.0,0.01260190086298274
819.0,0.012780770091995297
818.0,0.013004460275618523
817.0,0.013452186585275916
816.0,0.014124642691606404
815.0,0.015022873584506602
814.0,0.016103208673694303
813.0,0.01727661233145472
812.0,0.018543833477873584
811.0,0.019769308608968306
810.0,0.02081596632558158
809.0,0.021545566634771474
808.0,0.021819483062586187
807.0,0.021545566634771474
806.0,0.020770406977844713
805.0,0.019769308608968306
804.0,0.018906576854070378
803.0,0.018271974638383703
802.0,0.01781925440359733
801.0,0.017457417697056554
800.0,0.017186237868137555
799.0,0.017005545341335804
798.0,0.016915227262211507
797.0,0.016915227262211507
796.0,0.017005545341335804
795.0,0.017095882207371904
794.0,0.017095882207371904
793.0,0.017005545341335804
792.0,0.016734647433454652
791.0,0.016509028184833463
790.0,0.016373712875465518
789.0,0.01632861713980338
788.0,0.016418813294209356
787.0,0.01646391839700767
786.0,0.01646391839700767
785.0,0.016418813294209356
784.0,0.01628352608625061
783.0,0.016058141016111804
782.0,0.015832872853011715
781.0,0.015832872853011715
780.0,0.016058141016111804
779.0,0.01632861713980338
778.0,0.016509028184833463
777.0,0.016554142658660398
776.0,0.016554142658660398
775.0,0.016599261819461697
774.0,0.01646391839700767
773.0,0.01628352608625061
772.0,0.016058141016111804
771.0,0.01596801972881945
770.0,0.01596801972881945
769.0,0.016148281008528276
768.0,0.016418813294209356
767.0,0.01677978535189717
766.0,0.017005545341335804
765.0,0.017186237868137555
764.0,0.017412209298337533
763.0,0.01768353030793479
762.0,0.017864505196230507
761.0,0.01781925440359733
760.0,0.017774008325325275
759.0,0.017864505196230507
758.0,0.01809082990920774
757.0,0.01831727262871463
756.0,0.018543833477873584
755.0,0.018815862601645694
754.0,0.0190880622231564
753.0,0.019269623464054586
752.0,0.01940584422377989
751.0,0.01954210772389997
750.0,0.019814763052665052
749.0,0.02022406727031445
748.0,0.020724852408976924
747.0,0.0211806132671577
746.0,0.02140867317992523
745.0,0.021499930688540836
744.0,0.021499930688540836
743.0,0.021636852916117055
742.0,0.021819483062586187
741.0,0.02200219004126036
740.0,0.022139270735302752
739.0,0.022322112326006227
738.0,0.02255077261765881
737.0,0.02291687968414724
736.0,0.023374947949272418
735.0,0.023787622882622816
734.0,0.02406295751688936
733.0,0.024338466818941473
732.0,0.024568191490736968
731.0,0.02484402159331056
730.0,0.025028005701930978
729.0,0.02516604495145991
728.0,0.02521206778644225
727.0,0.025304128090317013
726.0,0.025488307262671706
725.0,0.025856900097785074
724.0,0.02636422658259252
723.0,0.02677975314776626
722.0,0.02691835039863255
721.0,0.02696455931306696
720.0,0.027056991894431892
719.0,0.027334407733889066
718.0,0.027565723042634938
717.0,0.027658283674251827
716.0,0.0277045713888604
715.0,0.027889771597169544
714.0,0.028306761050139073
713.0,0.028956208163971375
712.0,0.029746130405213123
711.0,0.030537492025363155
710.0,0.03105031901865729
709.0,0.03128362253321426
708.0,0.03133029827960798
707.0,0.03137697904301118
706.0,0.03142366482450232
705.0,0.03142366482450232
704.0,0.03151705144606498
703.0,0.03170388495374454
702.0,0.03193753992355086
701.0,0.03217132066984485
700.0,0.03235843591698884
699.0,0.03249882527715853
698.0,0.03273290844021437
697.0,0.03310770413286357
696.0,0.03367050483612166
695.0,0.034187046963396917
694.0,0.03456310022373987
693.0,0.03484535401307465
692.0,0.03531618502395939
691.0,0.03583468937826462
690.0,0.03602339000339416
689.0,0.035693217696063595
688.0,0.03498654972775217
687.0,0.03428102975577918
686.0,0.03385826726096752
685.0,0.03409308450480819
684.0,0.03503362516890207
683.0,0.03616496929785207
682.0,0.03668448861388862
681.0,0.03644826642590382
680.0,0.03602339000339416
679.0,0.03616496929785207
678.0,0.03668448861388862
677.0,0.03692083935817303
676.0,0.036542739883292485
675.0,0.036117771071222604
674.0,0.0360705779734416
673.0,0.03635381351515665
672.0,0.036542739883292485
671.0,0.03649550058570927
670.0,0.036401037402758574
669.0,0.03720463014276687
668.0,0.03938654235209116
667.0,0.040529297924893015
666.0,0.03995754427315856
665.0,0.039006291057664066
664.0,0.03848398855105106
663.0,0.03824678581321739
662.0,0.03786753070176463
661.0,0.03744126420403626
660.0,0.037346595106788616
659.0,0.037583306554248797
658.0,0.03796231343498735
657.0,0.03824678581321739
656.0,0.038531444649213764
655.0,0.03876880295533702
654.0,0.038816290187564384
653.0,0.038673844065289176
652.0,0.03862637240519895
651.0,0.03857890593355173
650.0,0.03848398855105106
649.0,0.03862637240519895
648.0,0.03910132267333921
647.0,0.03967194946985697
646.0,0.03995754427315856
645.0,0.04010041213405646
644.0,0.04062466342415694
643.0,0.041340572947066834
642.0,0.0417706858116178
641.0,0.04181850243505214
640.0,0.04210551278710151
639.0,0.042967683653061695
638.0,0.04421607108308856
637.0,0.045660991397539874
636.0,0.047062332249019345
635.0,0.04837110616336182
634.0,0.04939177521576932
633.0,0.049927370249842395
632.0,0.04973253198641148
631.0,0.04866248120408234
630.0,0.047062332249019345
629.0,0.04585401117045196
628.0,0.04575749056067524
627.0,0.04657860031896477
626.0,0.04754660357696672
625.0,0.048225491918274965
624.0,0.048565334467987054
623.0,0.048565334467987054
622.0,0.04827402457540786
621.0,0.04803141550708934
620.0,0.04807992647970649
619.0,0.04832256265669943
618.0,0.04851676924770687
617.0,0.04885683989244738
616.0,0.04934311749548925
615.0,0.049245818406496555
614.0,0.04803141550708934
613.0,0.04633693625290869
612.0,0.04522701031028298
611.0,0.04474531717982
610.0,0.04397571771932274
609.0,0.04282386959515394
608.0,0.042201225070002124
607.0,0.042392712939904875
606.0,0.04263219156847242
605.0,0.042392712939904875
604.0,0.042392712939904875
603.0,0.04315950984076644
602.0,0.04421607108308856
601.0,0.04503426894157925
600.0,0.04541983725624266
