cm-1,A
4000.0,0.0005649501236701937
3999.0,0.0004779868710962365
3998.0,0.0003910410285830057
3997.0,0.00026065489343207737
3996.0,0.00017375254558760211
3995.0,0.0001303078917322953
3994.0,0.00017375254558760211
3993.0,0.00030411258916074324
3992.0,0.0004779868710962365
3991.0,0.0006084382809090627
3990.0,0.0006519307932786322
3989.0,0.0005649501236701937
3988.0,0.0004779868710962365
3987.0,0.0003910410285830057
3986.0,0.0003910410285830057
3985.0,0.00043451177401765406
3984.0,0.0004779868710962365
3983.0,0.000521466320689834
3982.0,0.000521466320689834
3981.0,0.000521466320689834
3980.0,0.000521466320689834
3979.0,0.0005649501236701937
3978.0,0.0005649501236701937
3977.0,0.0005649501236701937
3976.0,0.0004779868710962365
3975.0,0.0003910410285830057
3974.0,0.00030411258916074324
3973.0,0.00030411258916074324
3972.0,0.00030411258916074324
3971.0,0.0003475746339209884
3970.0,0.0003910410285830057
3969.0,0.00043451177401765406
3968.0,0.0005649501236701937
3967.0,0.0006519307932786322
3966.0,0.0006954276616513155
3965.0,0.0006954276616513155
3964.0,0.0006519307932786322
3963.0,0.0005649501236701937
3962.0,0.000521466320689834
3961.0,0.0004779868710962365
3960.0,0.00043451177401765406
3959.0,0.00043451177401765406
3958.0,0.00043451177401765406
3957.0,0.00043451177401765406
3956.0,0.00043451177401765406
3955.0,0.0003910410285830057
3954.0,0.0003475746339209884
3953.0,0.0003475746339209884
3952.0,0.0003475746339209884
3951.0,0.00043451177401765406
3950.0,0.000521466320689834
3949.0,0.0006519307932786322
3948.0,0.0006954276616513155
3947.0,0.0006954276616513155
3946.0,0.0006084382809090627
3945.0,0.0004779868710962365
3944.0,0.0003475746339209884
3943.0,0.00030411258916074324
3942.0,0.00030411258916074324
3941.0,0.0003475746339209884
3940.0,0.0003910410285830057
3939.0,0.00043451177401765406
3938.0,0.00043451177401765406
3937.0,0.00043451177401765406
3936.0,0.0004779868710962365
3935.0,0.000521466320689834
3934.0,0.000521466320689834
3933.0,0.000521466320689834
3932.0,0.000521466320689834
3931.0,0.0004779868710962365
3930.0,0.0004779868710962365
3929.0,0.0004779868710962365
3928.0,0.0004779868710962365
3927.0,0.00043451177401765406
3926.0,0.0003475746339209884
3925.0,0.00030411258916074324
3924.0,0.00030411258916074324
3923.0,0.00030411258916074324
3922.0,0.0003475746339209884
3921.0,0.00030411258916074324
3920.0,0.00030411258916074324
3919.0,0.00030411258916074324
3918.0,0.00030411258916074324
3917.0,0.0003475746339209884
3916.0,0.0003910410285830057
3915.0,0.0003910410285830057
3914.0,0.0003475746339209884
3913.0,0.00030411258916074324
3912.0,0.00026065489343207737
3911.0,0.00021720154586435392
3910.0,0.00026065489343207737
3909.0,0.00026065489343207737
3908.0,0.00030411258916074324
3907.0,0.00026065489343207737
3906.0,0.00021720154586435392
3905.0,0.00017375254558760211
3904.0,0.00017375254558760211
3903.0,0.00017375254558760211
3902.0,0.00017375254558760211
3901.0,0.00017375254558760211
3900.0,0.00021720154586435392
3899.0,0.00021720154586435392
3898.0,0.00021720154586435392
3897.0,0.00030411258916074324
3896.0,0.0003475746339209884
3895.0,0.00043451177401765406
3894.0,0.0004779868710962365
3893.0,0.0005649501236701937
3892.0,0.0006519307932786322
3891.0,0.0006084382809090627
3890.0,0.000521466320689834
3889.0,0.000521466320689834
3888.0,0.0005649501236701937
3887.0,0.0006084382809090627
3886.0,0.0006084382809090627
3885.0,0.000521466320689834
3884.0,0.00043451177401765406
3883.0,0.0003910410285830057
3882.0,0.00030411258916074324
3881.0,0.00021720154586435392
3880.0,0.00021720154586435392
3879.0,0.00021720154586435392
3878.0,0.00026065489343207737
3877.0,0.00026065489343207737
3876.0,0.00021720154586435392
3875.0,0.0001303078917322953
3874.0,8.686758342868472e-05
3873.0,4.343161980746579e-05
3872.0,0.0001303078917322953
3871.0,0.00021720154586435392
3870.0,0.00026065489343207737
3869.0,0.00026065489343207737
3868.0,0.0003475746339209884
3867.0,0.00043451177401765406
3866.0,0.0004779868710962365
3865.0,0.0004779868710962365
3864.0,0.0003910410285830057
3863.0,0.00030411258916074324
3862.0,0.00026065489343207737
3861.0,0.00021720154586435392
3860.0,0.00021720154586435392
3859.0,0.00017375254558760211
3858.0,0.00017375254558760211
3857.0,0.00017375254558760211
3856.0,0.00026065489343207737
3855.0,0.00043451177401765406
3854.0,0.0006954276616513155
3853.0,0.0007824344698965646
3852.0,0.0007824344698965646
3851.0,0.000869458712629001
3850.0,0.000869458712629001
3849.0,0.0006954276616513155
3848.0,0.000521466320689834
3847.0,0.00043451177401765406
3846.0,0.0003475746339209884
3845.0,0.00030411258916074324
3844.0,0.00026065489343207737
3843.0,0.00030411258916074324
3842.0,0.0003475746339209884
3841.0,0.00043451177401765406
3840.0,0.0005649501236701937
3839.0,0.0006084382809090627
3838.0,0.0006519307932786322
3837.0,0.0006519307932786322
3836.0,0.0006519307932786322
3835.0,0.0006519307932786322
3834.0,0.0006084382809090627
3833.0,0.000521466320689834
3832.0,0.00043451177401765406
3831.0,0.0003475746339209884
3830.0,0.00026065489343207737
3829.0,0.00021720154586435392
3828.0,0.00017375254558760211
3827.0,0.00017375254558760211
3826.0,0.00021720154586435392
3825.0,0.00026065489343207737
3824.0,0.00030411258916074324
3823.0,0.0003475746339209884
3822.0,0.00030411258916074324
3821.0,0.00021720154586435392
3820.0,0.0001303078917322953
3819.0,0.00021720154586435392
3818.0,0.0004779868710962365
3817.0,0.0006519307932786322
3816.0,0.0007389288868995258
3815.0,0.0007824344698965646
3814.0,0.0007824344698965646
3813.0,0.0007824344698965646
3812.0,0.0008259444115150671
3811.0,0.0007824344698965646
3810.0,0.0008259444115150671
3809.0,0.0009129773741116676
3808.0,0.000869458712629001
3807.0,0.0007389288868995258
3806.0,0.0005649501236701937
3805.0,0.00043451177401765406
3804.0,0.0004779868710962365
3803.0,0.0006084382809090627
3802.0,0.0006954276616513155
3801.0,0.0006084382809090627
3800.0,0.000521466320689834
3799.0,0.0004779868710962365
3798.0,0.000521466320689834
3797.0,0.000521466320689834
3796.0,0.0006084382809090627
3795.0,0.0006519307932786322
3794.0,0.0006954276616513155
3793.0,0.0006954276616513155
3792.0,0.0006084382809090627
3791.0,0.000521466320689834
3790.0,0.000521466320689834
3789.0,0.0005649501236701937
3788.0,0.0006084382809090627
3787.0,0.0006084382809090627
3786.0,0.0005649501236701937
3785.0,0.0004779868710962365
3784.0,0.0004779868710962365
3783.0,0.0004779868710962365
3782.0,0.0005649501236701937
3781.0,0.0005649501236701937
3780.0,0.0004779868710962365
3779.0,0.0003475746339209884
3778.0,0.00026065489343207737
3777.0,0.0003475746339209884
3776.0,0.0004779868710962365
3775.0,0.0005649501236701937
3774.0,0.0005649501236701937
3773.0,0.000521466320689834
3772.0,0.00043451177401765406
3771.0,0.0003910410285830057
3770.0,0.0003910410285830057
3769.0,0.00043451177401765406
3768.0,0.0004779868710962365
3767.0,0.0005649501236701937
3766.0,0.0005649501236701937
3765.0,0.00043451177401765406
3764.0,0.00030411258916074324
3763.0,0.00026065489343207737
3762.0,0.00021720154586435392
3761.0,0.00021720154586435392
3760.0,0.00026065489343207737
3759.0,0.0003475746339209884
3758.0,0.0003910410285830057
3757.0,0.00043451177401765406
3756.0,0.0003910410285830057
3755.0,0.0003910410285830057
3754.0,0.0003910410285830057
3753.0,0.00043451177401765406
3752.0,0.0006084382809090627
3751.0,0.0008259444115150671
3750.0,0.0009565003968372565
3749.0,0.0010000277816797354
3748.0,0.0010435595295137379
3747.0,0.0011741809597138886
3746.0,0.0012612837441823288
3745.0,0.001304841688344327
3744.0,0.0011741809597138886
3743.0,0.0010435595295137379
3742.0,0.0010000277816797354
3741.0,0.000869458712629001
3740.0,0.0007824344698965646
3739.0,0.0007389288868995258
3738.0,0.0008259444115150671
3737.0,0.0009129773741116676
3736.0,0.0008259444115150671
3735.0,0.0006084382809090627
3734.0,0.0004779868710962365
3733.0,0.0004779868710962365
3732.0,0.0005649501236701937
3731.0,0.0006084382809090627
3730.0,0.0006954276616513155
3729.0,0.0006954276616513155
3728.0,0.0006954276616513155
3727.0,0.0007389288868995258
3726.0,0.0007824344698965646
3725.0,0.000869458712629001
3724.0,0.0009129773741116676
3723.0,0.0007824344698965646
3722.0,0.0006519307932786322
3721.0,0.0005649501236701937
3720.0,0.000521466320689834
3719.0,0.0004779868710962365
3718.0,0.0004779868710962365
3717.0,0.00043451177401765406
3716.0,0.00043451177401765406
3715.0,0.0004779868710962365
3714.0,0.000521466320689834
3713.0,0.0006084382809090627
3712.0,0.0006519307932786322
3711.0,0.0006954276616513155
3710.0,0.0006954276616513155
3709.0,0.0006954276616513155
3708.0,0.0006954276616513155
3707.0,0.0006954276616513155
3706.0,0.0006519307932786322
3705.0,0.0006084382809090627
3704.0,0.0006084382809090627
3703.0,0.0006084382809090627
3702.0,0.0006084382809090627
3701.0,0.0006084382809090627
3700.0,0.0006084382809090627
3699.0,0.0006519307932786322
3698.0,0.0006519307932786322
3697.0,0.0006954276616513155
3696.0,0.0006954276616513155
3695.0,0.0006519307932786322
3694.0,0.000521466320689834
3693.0,0.0003910410285830057
3692.0,0.00026065489343207737
3691.0,0.00026065489343207737
3690.0,0.0003910410285830057
3689.0,0.000521466320689834
3688.0,0.0006084382809090627
3687.0,0.0006954276616513155
3686.0,0.0007824344698965646
3685.0,0.0008259444115150671
3684.0,0.0007824344698965646
3683.0,0.0007389288868995258
3682.0,0.0006954276616513155
3681.0,0.0006084382809090627
3680.0,0.00043451177401765406
3679.0,0.00021720154586435392
3678.0,0.00021720154586435392
3677.0,0.0003910410285830057
3676.0,0.0006954276616513155
3675.0,0.0008259444115150671
3674.0,0.0007824344698965646
3673.0,0.0007824344698965646
3672.0,0.0007824344698965646
3671.0,0.0006954276616513155
3670.0,0.0006954276616513155
3669.0,0.0006954276616513155
3668.0,0.0007389288868995258
3667.0,0.0007824344698965646
3666.0,0.000869458712629001
3665.0,0.000869458712629001
3664.0,0.0009129773741116676
3663.0,0.0009129773741116676
3662.0,0.0009565003968372565
3661.0,0.0009565003968372565
3660.0,0.0010000277816797354
3659.0,0.0010435595295137379
3658.0,0.0010870956412141197
3657.0,0.0010435595295137379
3656.0,0.0010000277816797354
3655.0,0.000869458712629001
3654.0,0.0007824344698965646
3653.0,0.0006954276616513155
3652.0,0.0006084382809090627
3651.0,0.0006519307932786322
3650.0,0.0006954276616513155
3649.0,0.0006954276616513155
3648.0,0.0006519307932786322
3647.0,0.0006954276616513155
3646.0,0.0008259444115150671
3645.0,0.0010000277816797354
3644.0,0.0011306361176557367
3643.0,0.0012177301682640973
3642.0,0.0011741809597138886
3641.0,0.0010870956412141197
3640.0,0.0009565003968372565
3639.0,0.0009129773741116676
3638.0,0.0009129773741116676
3637.0,0.0009565003968372565
3636.0,0.0010435595295137379
3635.0,0.0010870956412141197
3634.0,0.0010870956412141197
3633.0,0.0011306361176557367
3632.0,0.0011741809597138886
3631.0,0.0012177301682640973
3630.0,0.0012612837441823288
3629.0,0.0012177301682640973
3628.0,0.0011306361176557367
3627.0,0.0010870956412141197
3626.0,0.0011306361176557367
3625.0,0.0011306361176557367
3624.0,0.0010870956412141197
3623.0,0.0010870956412141197
3622.0,0.0010435595295137379
3621.0,0.0010000277816797354
3620.0,0.000869458712629001
3619.0,0.0008259444115150671
3618.0,0.000869458712629001
3617.0,0.0009565003968372565
3616.0,0.0010870956412141197
3615.0,0.0011306361176557367
3614.0,0.0011741809597138886
3613.0,0.0011741809597138886
3612.0,0.0011741809597138886
3611.0,0.0012177301682640973
3610.0,0.001304841688344327
3609.0,0.001348404001626502
3608.0,0.0013919706849057079
3607.0,0.0014355417390583547
3606.0,0.0014355417390583547
3605.0,0.0013919706849057079
3604.0,0.0013919706849057079
3603.0,0.001348404001626502
3602.0,0.001304841688344327
3601.0,0.0012177301682640973
3600.0,0.0010870956412141197
3599.0,0.0010000277816797354
3598.0,0.000869458712629001
3597.0,0.0008259444115150671
3596.0,0.0008259444115150671
3595.0,0.0009129773741116676
3594.0,0.0010000277816797354
3593.0,0.0010870956412141197
3592.0,0.0011306361176557367
3591.0,0.0011741809597138886
3590.0,0.0011741809597138886
3589.0,0.0011741809597138886
3588.0,0.0012612837441823288
3587.0,0.001348404001626502
3586.0,0.0013919706849057079
3585.0,0.0014355417390583547
3584.0,0.0013919706849057079
3583.0,0.001304841688344327
3582.0,0.0012177301682640973
3581.0,0.0011741809597138886
3580.0,0.0012612837441823288
3579.0,0.0013919706849057079
3578.0,0.0015226969634936083
3577.0,0.0015662811355310335
3576.0,0.0015226969634936083
3575.0,0.0014355417390583547
3574.0,0.001304841688344327
3573.0,0.0012177301682640973
3572.0,0.0010870956412141197
3571.0,0.0010000277816797354
3570.0,0.0010000277816797354
3569.0,0.0011306361176557367
3568.0,0.0013919706849057079
3567.0,0.0016534626036355249
3566.0,0.0017406615763013722
3565.0,0.0016970599014589638
3564.0,0.0016534626036355249
3563.0,0.0016534626036355249
3562.0,0.0016534626036355249
3561.0,0.0016970599014589638
3560.0,0.0017406615763013722
3559.0,0.0017842676290416026
3558.0,0.0017842676290416026
3557.0,0.0017842676290416026
3556.0,0.0017842676290416026
3555.0,0.0018278780605593958
3554.0,0.0018714928717336043
3553.0,0.001915112063444413
3552.0,0.001915112063444413
3551.0,0.0018714928717336043
3550.0,0.0018278780605593958
3549.0,0.0017842676290416026
3548.0,0.0016970599014589638
3547.0,0.0016534626036355249
3546.0,0.001609869681952425
3545.0,0.0016534626036355249
3544.0,0.0016534626036355249
3543.0,0.0016970599014589638
3542.0,0.0017406615763013722
3541.0,0.0017842676290416026
3540.0,0.0018278780605593958
3539.0,0.001915112063444413
3538.0,0.0020459959305969555
3537.0,0.002089632653256679
3536.0,0.002089632653256679
3535.0,0.002089632653256679
3534.0,0.002089632653256679
3533.0,0.0021332737608552588
3532.0,0.0021769192542746563
3531.0,0.0021769192542746563
3530.0,0.0021332737608552588
3529.0,0.0019587356365717845
3528.0,0.0017842676290416026
3527.0,0.001609869681952425
3526.0,0.0015226969634936083
3525.0,0.0015662811355310335
3524.0,0.0017406615763013722
3523.0,0.0019587356365717845
3522.0,0.002089632653256679
3521.0,0.002089632653256679
3520.0,0.0019587356365717845
3519.0,0.0018714928717336043
3518.0,0.0017406615763013722
3517.0,0.0017406615763013722
3516.0,0.0017842676290416026
3515.0,0.001915112063444413
3514.0,0.0020459959305969555
3513.0,0.002089632653256679
3512.0,0.0020023635919956817
3511.0,0.001915112063444413
3510.0,0.0018278780605593958
3509.0,0.0017842676290416026
3508.0,0.0018278780605593958
3507.0,0.0018714928717336043
3506.0,0.001915112063444413
3505.0,0.001915112063444413
3504.0,0.001915112063444413
3503.0,0.001915112063444413
3502.0,0.0019587356365717845
3501.0,0.0019587356365717845
3500.0,0.0019587356365717845
3499.0,0.0019587356365717845
3498.0,0.001915112063444413
3497.0,0.0018278780605593958
3496.0,0.0016970599014589638
3495.0,0.0015662811355310335
3494.0,0.0014355417390583547
3493.0,0.0014355417390583547
3492.0,0.0015226969634936083
3491.0,0.0017406615763013722
3490.0,0.0019587356365717845
3489.0,0.0021332737608552588
3488.0,0.0021769192542746563
3487.0,0.0021769192542746563
3486.0,0.002089632653256679
3485.0,0.0020023635919956817
3484.0,0.0019587356365717845
3483.0,0.0018714928717336043
3482.0,0.0017842676290416026
3481.0,0.0016534626036355249
3480.0,0.001609869681952425
3479.0,0.0016534626036355249
3478.0,0.0017406615763013722
3477.0,0.0018714928717336043
3476.0,0.0020459959305969555
3475.0,0.0021769192542746563
3474.0,0.0022642234021015284
3473.0,0.0022642234021015284
3472.0,0.0021769192542746563
3471.0,0.0021332737608552588
3470.0,0.0020459959305969555
3469.0,0.0020459959305969555
3468.0,0.0020023635919956817
3467.0,0.0020023635919956817
3466.0,0.0020023635919956817
3465.0,0.0020023635919956817
3464.0,0.0020459959305969555
3463.0,0.0020023635919956817
3462.0,0.0020023635919956817
3461.0,0.0020023635919956817
3460.0,0.0020459959305969555
3459.0,0.0021332737608552588
3458.0,0.0021332737608552588
3457.0,0.0021332737608552588
3456.0,0.0020459959305969555
3455.0,0.002089632653256679
3454.0,0.0021769192542746563
3453.0,0.0023078820582733695
3452.0,0.002351545103793873
3451.0,0.0023078820582733695
3450.0,0.0021769192542746563
3449.0,0.002089632653256679
3448.0,0.0021332737608552588
3447.0,0.0021769192542746563
3446.0,0.0022642234021015284
3445.0,0.0022642234021015284
3444.0,0.0022205691343961664
3443.0,0.0021769192542746563
3442.0,0.0021332737608552588
3441.0,0.0021769192542746563
3440.0,0.0023078820582733695
3439.0,0.002395212539545666
3438.0,0.0024388843664115978
3437.0,0.0024388843664115978
3436.0,0.002482560585275184
3435.0,0.0025262411970197185
3434.0,0.002569926202528716
3433.0,0.002569926202528716
3432.0,0.0025262411970197185
3431.0,0.002482560585275184
3430.0,0.0024388843664115978
3429.0,0.0024388843664115978
3428.0,0.002395212539545666
3427.0,0.002351545103793873
3426.0,0.0023078820582733695
3425.0,0.0022642234021015284
3424.0,0.0023078820582733695
3423.0,0.002351545103793873
3422.0,0.002395212539545666
3421.0,0.002395212539545666
3420.0,0.002395212539545666
3419.0,0.002395212539545666
3418.0,0.002482560585275184
3417.0,0.002569926202528716
3416.0,0.0026573093983774942
3415.0,0.002701007590486082
3414.0,0.002613615602686581
3413.0,0.0025262411970197185
3412.0,0.0024388843664115978
3411.0,0.002395212539545666
3410.0,0.0024388843664115978
3409.0,0.0024388843664115978
3408.0,0.002482560585275184
3407.0,0.002482560585275184
3406.0,0.002482560585275184
3405.0,0.002482560585275184
3404.0,0.0024388843664115978
3403.0,0.002395212539545666
3402.0,0.0022642234021015284
3401.0,0.0021332737608552588
3400.0,0.0020459959305969555
3399.0,0.002089632653256679
3398.0,0.0021769192542746563
3397.0,0.0022642234021015284
3396.0,0.0023078820582733695
3395.0,0.0023078820582733695
3394.0,0.0023078820582733695
3393.0,0.0022642234021015284
3392.0,0.0022642234021015284
3391.0,0.0021769192542746563
3390.0,0.0021332737608552588
3389.0,0.0020459959305969555
3388.0,0.0019587356365717845
3387.0,0.001915112063444413
3386.0,0.0019587356365717845
3385.0,0.0020459959305969555
3384.0,0.0022205691343961664
3383.0,0.002351545103793873
3382.0,0.0024388843664115978
3381.0,0.002482560585275184
3380.0,0.002482560585275184
3379.0,0.0024388843664115978
3378.0,0.002395212539545666
3377.0,0.002351545103793873
3376.0,0.0023078820582733695
3375.0,0.0022642234021015284
3374.0,0.0022205691343961664
3373.0,0.0021769192542746563
3372.0,0.0021332737608552588
3371.0,0.0021332737608552588
3370.0,0.0021769192542746563
3369.0,0.0021769192542746563
3368.0,0.0021769192542746563
3367.0,0.0021332737608552588
3366.0,0.0021332737608552588
3365.0,0.0021769192542746563
3364.0,0.0022642234021015284
3363.0,0.0023078820582733695
3362.0,0.002351545103793873
3361.0,0.0023078820582733695
3360.0,0.0022642234021015284
3359.0,0.0021769192542746563
3358.0,0.002089632653256679
3357.0,0.0020459959305969555
3356.0,0.0020023635919956817
3355.0,0.0019587356365717845
3354.0,0.0019587356365717845
3353.0,0.0019587356365717845
3352.0,0.0020023635919956817
3351.0,0.002089632653256679
3350.0,0.0021769192542746563
3349.0,0.0022642234021015284
3348.0,0.002351545103793873
3347.0,0.002482560585275184
3346.0,0.0025262411970197185
3345.0,0.0024388843664115978
3344.0,0.0023078820582733695
3343.0,0.0021332737608552588
3342.0,0.0020023635919956817
3341.0,0.0018714928717336043
3340.0,0.0018278780605593958
3339.0,0.0017842676290416026
3338.0,0.0018278780605593958
3337.0,0.001915112063444413
3336.0,0.0019587356365717845
3335.0,0.0020023635919956817
3334.0,0.0020459959305969555
3333.0,0.0021332737608552588
3332.0,0.0022642234021015284
3331.0,0.002351545103793873
3330.0,0.002395212539545666
3329.0,0.002395212539545666
3328.0,0.0023078820582733695
3327.0,0.0022642234021015284
3326.0,0.0021769192542746563
3325.0,0.0021769192542746563
3324.0,0.0021769192542746563
3323.0,0.0022205691343961664
3322.0,0.0022642234021015284
3321.0,0.0023078820582733695
3320.0,0.002351545103793873
3319.0,0.002395212539545666
3318.0,0.002482560585275184
3317.0,0.002482560585275184
3316.0,0.002395212539545666
3315.0,0.0022642234021015284
3314.0,0.0021769192542746563
3313.0,0.0021769192542746563
3312.0,0.0022642234021015284
3311.0,0.002351545103793873
3310.0,0.002351545103793873
3309.0,0.002351545103793873
3308.0,0.0023078820582733695
3307.0,0.0023078820582733695
3306.0,0.002351545103793873
3305.0,0.002351545103793873
3304.0,0.002351545103793873
3303.0,0.0022642234021015284
3302.0,0.0022205691343961664
3301.0,0.0022205691343961664
3300.0,0.0022642234021015284
3299.0,0.0023078820582733695
3298.0,0.002351545103793873
3297.0,0.0023078820582733695
3296.0,0.0021769192542746563
3295.0,0.0020023635919956817
3294.0,0.0018714928717336043
3293.0,0.0017842676290416026
3292.0,0.0018278780605593958
3291.0,0.0019587356365717845
3290.0,0.0021332737608552588
3289.0,0.0023078820582733695
3288.0,0.002395212539545666
3287.0,0.0024388843664115978
3286.0,0.002482560585275184
3285.0,0.0025262411970197185
3284.0,0.002569926202528716
3283.0,0.0025262411970197185
3282.0,0.002482560585275184
3281.0,0.0024388843664115978
3280.0,0.002395212539545666
3279.0,0.0023078820582733695
3278.0,0.0021769192542746563
3277.0,0.002089632653256679
3276.0,0.0020459959305969555
3275.0,0.0020459959305969555
3274.0,0.002089632653256679
3273.0,0.0021332737608552588
3272.0,0.0022205691343961664
3271.0,0.0022205691343961664
3270.0,0.0022642234021015284
3269.0,0.0022642234021015284
3268.0,0.0022642234021015284
3267.0,0.0022642234021015284
3266.0,0.0023078820582733695
3265.0,0.0023078820582733695
3264.0,0.002351545103793873
3263.0,0.002395212539545666
3262.0,0.002395212539545666
3261.0,0.0024388843664115978
3260.0,0.002395212539545666
3259.0,0.002351545103793873
3258.0,0.0022642234021015284
3257.0,0.0022642234021015284
3256.0,0.0023078820582733695
3255.0,0.002395212539545666
3254.0,0.0024388843664115978
3253.0,0.0024388843664115978
3252.0,0.002395212539545666
3251.0,0.002351545103793873
3250.0,0.0023078820582733695
3249.0,0.002351545103793873
3248.0,0.002395212539545666
3247.0,0.002395212539545666
3246.0,0.002395212539545666
3245.0,0.0023078820582733695
3244.0,0.0022205691343961664
3243.0,0.0021769192542746563
3242.0,0.0022205691343961664
3241.0,0.0022642234021015284
3240.0,0.0023078820582733695
3239.0,0.0022642234021015284
3238.0,0.0021769192542746563
3237.0,0.0021332737608552588
3236.0,0.0021332737608552588
3235.0,0.0022205691343961664
3234.0,0.0023078820582733695
3233.0,0.002351545103793873
3232.0,0.0022642234021015284
3231.0,0.0021769192542746563
3230.0,0.002089632653256679
3229.0,0.0020459959305969555
3228.0,0.002089632653256679
3227.0,0.0021332737608552588
3226.0,0.0021332737608552588
3225.0,0.002089632653256679
3224.0,0.0020459959305969555
3223.0,0.0020459959305969555
3222.0,0.002089632653256679
3221.0,0.0021332737608552588
3220.0,0.0021769192542746563
3219.0,0.0021769192542746563
3218.0,0.0021332737608552588
3217.0,0.002089632653256679
3216.0,0.002089632653256679
3215.0,0.0021769192542746563
3214.0,0.0023078820582733695
3213.0,0.0023078820582733695
3212.0,0.0022642234021015284
3211.0,0.0021769192542746563
3210.0,0.002089632653256679
3209.0,0.0020459959305969555
3208.0,0.0020023635919956817
3207.0,0.0020459959305969555
3206.0,0.002089632653256679
3205.0,0.0021769192542746563
3204.0,0.0022642234021015284
3203.0,0.0022642234021015284
3202.0,0.0021332737608552588
3201.0,0.0020023635919956817
3200.0,0.0019587356365717845
3199.0,0.0019587356365717845
3198.0,0.002089632653256679
3197.0,0.0022205691343961664
3196.0,0.0022642234021015284
3195.0,0.0022205691343961664
3194.0,0.0021332737608552588
3193.0,0.0020459959305969555
3192.0,0.002089632653256679
3191.0,0.0021332737608552588
3190.0,0.0021769192542746563
3189.0,0.0022205691343961664
3188.0,0.0022205691343961664
3187.0,0.0022205691343961664
3186.0,0.0021769192542746563
3185.0,0.002089632653256679
3184.0,0.0020459959305969555
3183.0,0.0020459959305969555
3182.0,0.002089632653256679
3181.0,0.0021769192542746563
3180.0,0.0022205691343961664
3179.0,0.0022642234021015284
3178.0,0.0022642234021015284
3177.0,0.0022642234021015284
3176.0,0.0023078820582733695
3175.0,0.002351545103793873
3174.0,0.002351545103793873
3173.0,0.002351545103793873
3172.0,0.0022642234021015284
3171.0,0.0021769192542746563
3170.0,0.0021332737608552588
3169.0,0.0020459959305969555
3168.0,0.0020023635919956817
3167.0,0.0020023635919956817
3166.0,0.0020459959305969555
3165.0,0.0020459959305969555
3164.0,0.0020459959305969555
3163.0,0.0020459959305969555
3162.0,0.0020459959305969555
3161.0,0.002089632653256679
3160.0,0.0021332737608552588
3159.0,0.0021769192542746563
3158.0,0.0021332737608552588
3157.0,0.002089632653256679
3156.0,0.002089632653256679
3155.0,0.002089632653256679
3154.0,0.0021332737608552588
3153.0,0.0021332737608552588
3152.0,0.0021332737608552588
3151.0,0.0021332737608552588
3150.0,0.0021769192542746563
3149.0,0.0022205691343961664
3148.0,0.0023078820582733695
3147.0,0.002351545103793873
3146.0,0.002351545103793873
3145.0,0.0023078820582733695
3144.0,0.0022205691343961664
3143.0,0.0021332737608552588
3142.0,0.0020459959305969555
3141.0,0.0020023635919956817
3140.0,0.0020459959305969555
3139.0,0.0021769192542746563
3138.0,0.0022642234021015284
3137.0,0.0023078820582733695
3136.0,0.0023078820582733695
3135.0,0.0022642234021015284
3134.0,0.0022642234021015284
3133.0,0.0023078820582733695
3132.0,0.002351545103793873
3131.0,0.002351545103793873
3130.0,0.0023078820582733695
3129.0,0.0022642234021015284
3128.0,0.0022205691343961664
3127.0,0.0022205691343961664
3126.0,0.0021769192542746563
3125.0,0.0021769192542746563
3124.0,0.0021769192542746563
3123.0,0.0022205691343961664
3122.0,0.0022642234021015284
3121.0,0.0023078820582733695
3120.0,0.002351545103793873
3119.0,0.002351545103793873
3118.0,0.0023078820582733695
3117.0,0.0022205691343961664
3116.0,0.0021332737608552588
3115.0,0.002089632653256679
3114.0,0.002089632653256679
3113.0,0.0021769192542746563
3112.0,0.0022642234021015284
3111.0,0.0022642234021015284
3110.0,0.0022205691343961664
3109.0,0.0021769192542746563
3108.0,0.0021769192542746563
3107.0,0.0022642234021015284
3106.0,0.0023078820582733695
3105.0,0.002395212539545666
3104.0,0.002395212539545666
3103.0,0.002395212539545666
3102.0,0.0023078820582733695
3101.0,0.0022642234021015284
3100.0,0.0022642234021015284
3099.0,0.0022642234021015284
3098.0,0.002351545103793873
3097.0,0.002395212539545666
3096.0,0.002482560585275184
3095.0,0.002482560585275184
3094.0,0.0024388843664115978
3093.0,0.002351545103793873
3092.0,0.0022642234021015284
3091.0,0.0022642234021015284
3090.0,0.0023078820582733695
3089.0,0.002395212539545666
3088.0,0.0024388843664115978
3087.0,0.0024388843664115978
3086.0,0.002351545103793873
3085.0,0.0022642234021015284
3084.0,0.0022642234021015284
3083.0,0.0023078820582733695
3082.0,0.002351545103793873
3081.0,0.0023078820582733695
3080.0,0.0022205691343961664
3079.0,0.0021769192542746563
3078.0,0.0021769192542746563
3077.0,0.0022205691343961664
3076.0,0.0023078820582733695
3075.0,0.002351545103793873
3074.0,0.002351545103793873
3073.0,0.002351545103793873
3072.0,0.0023078820582733695
3071.0,0.0022642234021015284
3070.0,0.0022205691343961664
3069.0,0.0022205691343961664
3068.0,0.0022642234021015284
3067.0,0.002351545103793873
3066.0,0.002482560585275184
3065.0,0.002569926202528716
3064.0,0.002613615602686581
3063.0,0.002613615602686581
3062.0,0.0025262411970197185
3061.0,0.0024388843664115978
3060.0,0.002351545103793873
3059.0,0.0022642234021015284
3058.0,0.0022642234021015284
3057.0,0.0023078820582733695
3056.0,0.0024388843664115978
3055.0,0.0025262411970197185
3054.0,0.002569926202528716
3053.0,0.002569926202528716
3052.0,0.0025262411970197185
3051.0,0.0025262411970197185
3050.0,0.0025262411970197185
3049.0,0.0025262411970197185
3048.0,0.0025262411970197185
3047.0,0.002482560585275184
3046.0,0.0024388843664115978
3045.0,0.002395212539545666
3044.0,0.002351545103793873
3043.0,0.002351545103793873
3042.0,0.0023078820582733695
3041.0,0.0022642234021015284
3040.0,0.0022205691343961664
3039.0,0.0022205691343961664
3038.0,0.0022642234021015284
3037.0,0.0022642234021015284
3036.0,0.0022642234021015284
3035.0,0.0023078820582733695
3034.0,0.002351545103793873
3033.0,0.002395212539545666
3032.0,0.002395212539545666
3031.0,0.002395212539545666
3030.0,0.002351545103793873
3029.0,0.0023078820582733695
3028.0,0.0022205691343961664
3027.0,0.0021769192542746563
3026.0,0.002089632653256679
3025.0,0.0020459959305969555
3024.0,0.0020459959305969555
3023.0,0.0020023635919956817
3022.0,0.0020023635919956817
3021.0,0.0019587356365717845
3020.0,0.0020023635919956817
3019.0,0.002089632653256679
3018.0,0.0021332737608552588
3017.0,0.0021769192542746563
3016.0,0.0022642234021015284
3015.0,0.0023078820582733695
3014.0,0.0023078820582733695
3013.0,0.0023078820582733695
3012.0,0.0022205691343961664
3011.0,0.0021332737608552588
3010.0,0.002089632653256679
3009.0,0.0021332737608552588
3008.0,0.0022642234021015284
3007.0,0.002395212539545666
3006.0,0.002482560585275184
3005.0,0.0025262411970197185
3004.0,0.0025262411970197185
3003.0,0.002482560585275184
3002.0,0.002395212539545666
3001.0,0.002351545103793873
3000.0,0.0023078820582733695
2999.0,0.0023078820582733695
2998.0,0.002395212539545666
2997.0,0.002482560585275184
2996.0,0.002613615602686581
2995.0,0.002701007590486082
2994.0,0.0027447101798967477
2993.0,0.0027884171674950053
2992.0,0.0027884171674950053
2991.0,0.0027884171674950053
2990.0,0.0028321285541661467
2989.0,0.0028321285541661467
2988.0,0.0028321285541661467
2987.0,0.0028321285541661467
2986.0,0.0028321285541661467
2985.0,0.0028758443407954637
2984.0,0.0029632891174733444
2983.0,0.003050751504618754
2982.0,0.0031382315093266833
2981.0,0.0031819781204844855
2980.0,0.0031819781204844855
2979.0,0.0031382315093266833
2978.0,0.003050751504618754
2977.0,0.0030070181092942683
2976.0,0.0030070181092942683
2975.0,0.003050751504618754
2974.0,0.0031382315093266833
2973.0,0.0032694845648473247
2972.0,0.0034007772998332353
2971.0,0.003488327845821315
2970.0,0.0035321097382827737
2969.0,0.0035758960449088217
2968.0,0.003619686766589858
2967.0,0.003707281458678491
2966.0,0.003794893821675638
2965.0,0.003970171588923321
2964.0,0.004101676353562844
2963.0,0.004233220950025984
2962.0,0.004320939488377862
2961.0,0.004408675747646695
2960.0,0.0044964297349936455
2959.0,0.004540313378935901
2958.0,0.00458420145758498
2957.0,0.004671990922590297
2956.0,0.004803708402820517
2955.0,0.00489154225525934
2954.0,0.00489154225525934
2953.0,0.004803708402820517
2952.0,0.004671990922590297
2951.0,0.004540313378935901
2950.0,0.0044964297349936455
2949.0,0.0044964297349936455
2948.0,0.0044964297349936455
2947.0,0.004408675747646695
2946.0,0.004277078004534696
2945.0,0.004145520125434121
2944.0,0.00401400208620073
2943.0,0.003970171588923321
2942.0,0.003926345514724705
2941.0,0.0038825238627120395
2940.0,0.003794893821675638
2939.0,0.003707281458678491
2938.0,0.0035758960449088217
2937.0,0.0035321097382827737
2936.0,0.0034445503666347133
2935.0,0.0034007772998332353
2934.0,0.0033132443998284966
2933.0,0.0032694845648473247
2932.0,0.0032257291386954545
2931.0,0.0031382315093266833
2930.0,0.0030944893043338695
2929.0,0.0030944893043338695
2928.0,0.0031819781204844855
2927.0,0.0032694845648473247
2926.0,0.0034007772998332353
2925.0,0.003488327845821315
2924.0,0.0035321097382827737
2923.0,0.003488327845821315
2922.0,0.0034007772998332353
2921.0,0.0033132443998284966
2920.0,0.0032694845648473247
2919.0,0.0031819781204844855
2918.0,0.0031382315093266833
2917.0,0.0030944893043338695
2916.0,0.0030944893043338695
2915.0,0.0030944893043338695
2914.0,0.0030944893043338695
2913.0,0.0030944893043338695
2912.0,0.0030944893043338695
2911.0,0.0030944893043338695
2910.0,0.0031382315093266833
2909.0,0.0031819781204844855
2908.0,0.0032694845648473247
2907.0,0.0033132443998284966
2906.0,0.0033132443998284966
2905.0,0.0032694845648473247
2904.0,0.0031819781204844855
2903.0,0.0030944893043338695
2902.0,0.003050751504618754
2901.0,0.0030944893043338695
2900.0,0.0031819781204844855
2899.0,0.0032694845648473247
2898.0,0.0033570086445275926
2897.0,0.0033570086445275926
2896.0,0.0033132443998284966
2895.0,0.0032694845648473247
2894.0,0.0032694845648473247
2893.0,0.0032694845648473247
2892.0,0.0032694845648473247
2891.0,0.0033132443998284966
2890.0,0.0033570086445275926
2889.0,0.0034007772998332353
2888.0,0.0034007772998332353
2887.0,0.0033570086445275926
2886.0,0.0032694845648473247
2885.0,0.0032694845648473247
2884.0,0.0032694845648473247
2883.0,0.0033570086445275926
2882.0,0.0034445503666347133
2881.0,0.0035321097382827737
2880.0,0.0035321097382827737
2879.0,0.0034445503666347133
2878.0,0.0034007772998332353
2877.0,0.0033132443998284966
2876.0,0.0032694845648473247
2875.0,0.0031819781204844855
2874.0,0.0031819781204844855
2873.0,0.0031819781204844855
2872.0,0.0032257291386954545
2871.0,0.0032257291386954545
2870.0,0.0032694845648473247
2869.0,0.0032257291386954545
2868.0,0.0031382315093266833
2867.0,0.0030944893043338695
2866.0,0.0030944893043338695
2865.0,0.0031819781204844855
2864.0,0.0032694845648473247
2863.0,0.0033570086445275926
2862.0,0.0033570086445275926
2861.0,0.0033132443998284966
2860.0,0.0032694845648473247
2859.0,0.0032257291386954545
2858.0,0.0032257291386954545
2857.0,0.0032257291386954545
2856.0,0.0031819781204844855
2855.0,0.0031382315093266833
2854.0,0.0030944893043338695
2853.0,0.0030070181092942683
2852.0,0.0030070181092942683
2851.0,0.003050751504618754
2850.0,0.0030944893043338695
2849.0,0.0031382315093266833
2848.0,0.0030944893043338695
2847.0,0.0030944893043338695
2846.0,0.0030944893043338695
2845.0,0.0031382315093266833
2844.0,0.0031819781204844855
2843.0,0.0032257291386954545
2842.0,0.0031819781204844855
2841.0,0.0030944893043338695
2840.0,0.0030070181092942683
2839.0,0.0029632891174733444
2838.0,0.0029195645282691363
2837.0,0.0029195645282691363
2836.0,0.0029632891174733444
2835.0,0.0029632891174733444
2834.0,0.0029632891174733444
2833.0,0.0030070181092942683
2832.0,0.0030070181092942683
2831.0,0.003050751504618754
2830.0,0.0030070181092942683
2829.0,0.0029632891174733444
2828.0,0.0028758443407954637
2827.0,0.0027884171674950053
2826.0,0.0027447101798967477
2825.0,0.0027447101798967477
2824.0,0.0027884171674950053
2823.0,0.0027884171674950053
2822.0,0.0028321285541661467
2821.0,0.0028321285541661467
2820.0,0.0027884171674950053
2819.0,0.0027884171674950053
2818.0,0.0027447101798967477
2817.0,0.0027447101798967477
2816.0,0.0027447101798967477
2815.0,0.0027884171674950053
2814.0,0.0028758443407954637
2813.0,0.0029195645282691363
2812.0,0.0029195645282691363
2811.0,0.0029195645282691363
2810.0,0.0028321285541661467
2809.0,0.0028321285541661467
2808.0,0.0028321285541661467
2807.0,0.0028758443407954637
2806.0,0.0029195645282691363
2805.0,0.0030070181092942683
2804.0,0.0030070181092942683
2803.0,0.0030070181092942683
2802.0,0.0029632891174733444
2801.0,0.0029195645282691363
2800.0,0.0029195645282691363
2799.0,0.0029632891174733444
2798.0,0.0030070181092942683
2797.0,0.003050751504618754
2796.0,0.003050751504618754
2795.0,0.003050751504618754
2794.0,0.003050751504618754
2793.0,0.003050751504618754
2792.0,0.0030070181092942683
2791.0,0.0029632891174733444
2790.0,0.0028321285541661467
2789.0,0.002701007590486082
2788.0,0.002613615602686581
2787.0,0.002613615602686581
2786.0,0.002613615602686581
2785.0,0.0026573093983774942
2784.0,0.0026573093983774942
2783.0,0.0026573093983774942
2782.0,0.002701007590486082
2781.0,0.0027447101798967477
2780.0,0.0028321285541661467
2779.0,0.0028321285541661467
2778.0,0.0028321285541661467
2777.0,0.0028758443407954637
2776.0,0.0029195645282691363
2775.0,0.0029195645282691363
2774.0,0.0028758443407954637
2773.0,0.0028321285541661467
2772.0,0.0027447101798967477
2771.0,0.002701007590486082
2770.0,0.002701007590486082
2769.0,0.002701007590486082
2768.0,0.0026573093983774942
2767.0,0.0026573093983774942
2766.0,0.0026573093983774942
2765.0,0.0027447101798967477
2764.0,0.0027884171674950053
2763.0,0.0027884171674950053
2762.0,0.0027447101798967477
2761.0,0.0027447101798967477
2760.0,0.0027447101798967477
2759.0,0.0027447101798967477
2758.0,0.0027447101798967477
2757.0,0.002701007590486082
2756.0,0.002701007590486082
2755.0,0.002701007590486082
2754.0,0.0027447101798967477
2753.0,0.0027884171674950053
2752.0,0.0027884171674950053
2751.0,0.0027447101798967477
2750.0,0.002701007590486082
2749.0,0.002613615602686581
2748.0,0.0025262411970197185
2747.0,0.0025262411970197185
2746.0,0.0025262411970197185
2745.0,0.002613615602686581
2744.0,0.0026573093983774942
2743.0,0.002701007590486082
2742.0,0.002701007590486082
2741.0,0.002701007590486082
2740.0,0.0027447101798967477
2739.0,0.0027884171674950053
2738.0,0.0028321285541661467
2737.0,0.0028321285541661467
2736.0,0.0027884171674950053
2735.0,0.002701007590486082
2734.0,0.0026573093983774942
2733.0,0.0026573093983774942
2732.0,0.002701007590486082
2731.0,0.002701007590486082
2730.0,0.002701007590486082
2729.0,0.0027447101798967477
2728.0,0.0027447101798967477
2727.0,0.002701007590486082
2726.0,0.0026573093983774942
2725.0,0.002569926202528716
2724.0,0.002569926202528716
2723.0,0.0025262411970197185
2722.0,0.002569926202528716
2721.0,0.002569926202528716
2720.0,0.002569926202528716
2719.0,0.0025262411970197185
2718.0,0.002482560585275184
2717.0,0.0024388843664115978
2716.0,0.002482560585275184
2715.0,0.0025262411970197185
2714.0,0.002569926202528716
2713.0,0.002613615602686581
2712.0,0.002701007590486082
2711.0,0.0027447101798967477
2710.0,0.0027447101798967477
2709.0,0.002701007590486082
2708.0,0.002701007590486082
2707.0,0.002613615602686581
2706.0,0.002569926202528716
2705.0,0.002569926202528716
2704.0,0.002613615602686581
2703.0,0.002613615602686581
2702.0,0.002613615602686581
2701.0,0.002569926202528716
2700.0,0.002569926202528716
2699.0,0.002569926202528716
2698.0,0.002613615602686581
2697.0,0.002701007590486082
2696.0,0.0027447101798967477
2695.0,0.0027884171674950053
2694.0,0.0027447101798967477
2693.0,0.002701007590486082
2692.0,0.0026573093983774942
2691.0,0.002613615602686581
2690.0,0.002569926202528716
2689.0,0.0025262411970197185
2688.0,0.002482560585275184
2687.0,0.0024388843664115978
2686.0,0.002482560585275184
2685.0,0.0025262411970197185
2684.0,0.002613615602686581
2683.0,0.0026573093983774942
2682.0,0.002701007590486082
2681.0,0.0027447101798967477
2680.0,0.002701007590486082
2679.0,0.002701007590486082
2678.0,0.002701007590486082
2677.0,0.002701007590486082
2676.0,0.002701007590486082
2675.0,0.002701007590486082
2674.0,0.0026573093983774942
2673.0,0.0026573093983774942
2672.0,0.0026573093983774942
2671.0,0.0026573093983774942
2670.0,0.0026573093983774942
2669.0,0.0026573093983774942
2668.0,0.002701007590486082
2667.0,0.002701007590486082
2666.0,0.002701007590486082
2665.0,0.002701007590486082
2664.0,0.002701007590486082
2663.0,0.002701007590486082
2662.0,0.0026573093983774942
2661.0,0.002569926202528716
2660.0,0.002482560585275184
2659.0,0.0024388843664115978
2658.0,0.002482560585275184
2657.0,0.002569926202528716
2656.0,0.002613615602686581
2655.0,0.002613615602686581
2654.0,0.002613615602686581
2653.0,0.002613615602686581
2652.0,0.0026573093983774942
2651.0,0.002613615602686581
2650.0,0.0026573093983774942
2649.0,0.0026573093983774942
2648.0,0.0026573093983774942
2647.0,0.0026573093983774942
2646.0,0.0026573093983774942
2645.0,0.0026573093983774942
2644.0,0.002701007590486082
2643.0,0.0027447101798967477
2642.0,0.0027447101798967477
2641.0,0.002701007590486082
2640.0,0.002613615602686581
2639.0,0.002569926202528716
2638.0,0.0025262411970197185
2637.0,0.002569926202528716
2636.0,0.002569926202528716
2635.0,0.002613615602686581
2634.0,0.002613615602686581
2633.0,0.002613615602686581
2632.0,0.002613615602686581
2631.0,0.0026573093983774942
2630.0,0.002701007590486082
2629.0,0.002701007590486082
2628.0,0.002701007590486082
2627.0,0.002701007590486082
2626.0,0.002701007590486082
2625.0,0.002701007590486082
2624.0,0.0026573093983774942
2623.0,0.002569926202528716
2622.0,0.0025262411970197185
2621.0,0.002482560585275184
2620.0,0.002482560585275184
2619.0,0.0025262411970197185
2618.0,0.002613615602686581
2617.0,0.002701007590486082
2616.0,0.002701007590486082
2615.0,0.0026573093983774942
2614.0,0.002613615602686581
2613.0,0.002569926202528716
2612.0,0.0025262411970197185
2611.0,0.0025262411970197185
2610.0,0.0025262411970197185
2609.0,0.002569926202528716
2608.0,0.0026573093983774942
2607.0,0.002701007590486082
2606.0,0.002701007590486082
2605.0,0.0026573093983774942
2604.0,0.002569926202528716
2603.0,0.002482560585275184
2602.0,0.002482560585275184
2601.0,0.002482560585275184
2600.0,0.002613615602686581
2599.0,0.0027447101798967477
2598.0,0.0028758443407954637
2597.0,0.0029195645282691363
2596.0,0.0029195645282691363
2595.0,0.0027884171674950053
2594.0,0.0026573093983774942
2593.0,0.002569926202528716
2592.0,0.0025262411970197185
2591.0,0.0025262411970197185
2590.0,0.002482560585275184
2589.0,0.002482560585275184
2588.0,0.002482560585275184
2587.0,0.0025262411970197185
2586.0,0.002569926202528716
2585.0,0.002613615602686581
2584.0,0.002613615602686581
2583.0,0.002569926202528716
2582.0,0.002569926202528716
2581.0,0.002569926202528716
2580.0,0.002613615602686581
2579.0,0.002613615602686581
2578.0,0.002613615602686581
2577.0,0.002613615602686581
2576.0,0.002613615602686581
2575.0,0.0026573093983774942
2574.0,0.002701007590486082
2573.0,0.0026573093983774942
2572.0,0.002613615602686581
2571.0,0.002569926202528716
2570.0,0.002569926202528716
2569.0,0.002569926202528716
2568.0,0.002613615602686581
2567.0,0.0026573093983774942
2566.0,0.0026573093983774942
2565.0,0.002613615602686581
2564.0,0.002569926202528716
2563.0,0.002482560585275184
2562.0,0.002482560585275184
2561.0,0.002482560585275184
2560.0,0.002569926202528716
2559.0,0.002613615602686581
2558.0,0.0026573093983774942
2557.0,0.0026573093983774942
2556.0,0.002701007590486082
2555.0,0.0028321285541661467
2554.0,0.0028758443407954637
2553.0,0.0028758443407954637
2552.0,0.0028321285541661467
2551.0,0.002701007590486082
2550.0,0.002569926202528716
2549.0,0.002482560585275184
2548.0,0.002482560585275184
2547.0,0.0025262411970197185
2546.0,0.002613615602686581
2545.0,0.002701007590486082
2544.0,0.0027447101798967477
2543.0,0.0027884171674950053
2542.0,0.0028321285541661467
2541.0,0.0028321285541661467
2540.0,0.0028321285541661467
2539.0,0.0028321285541661467
2538.0,0.0027884171674950053
2537.0,0.0027447101798967477
2536.0,0.0026573093983774942
2535.0,0.002613615602686581
2534.0,0.002569926202528716
2533.0,0.002569926202528716
2532.0,0.0025262411970197185
2531.0,0.0025262411970197185
2530.0,0.002569926202528716
2529.0,0.002613615602686581
2528.0,0.0026573093983774942
2527.0,0.0026573093983774942
2526.0,0.002613615602686581
2525.0,0.0025262411970197185
2524.0,0.0025262411970197185
2523.0,0.0025262411970197185
2522.0,0.002569926202528716
2521.0,0.002569926202528716
2520.0,0.002569926202528716
2519.0,0.002613615602686581
2518.0,0.0026573093983774942
2517.0,0.002701007590486082
2516.0,0.002701007590486082
2515.0,0.0026573093983774942
2514.0,0.002613615602686581
2513.0,0.002613615602686581
2512.0,0.0026573093983774942
2511.0,0.0027447101798967477
2510.0,0.0027884171674950053
2509.0,0.0027884171674950053
2508.0,0.0027884171674950053
2507.0,0.0027884171674950053
2506.0,0.0027884171674950053
2505.0,0.0027447101798967477
2504.0,0.002701007590486082
2503.0,0.0026573093983774942
2502.0,0.0026573093983774942
2501.0,0.0026573093983774942
2500.0,0.002613615602686581
2499.0,0.002613615602686581
2498.0,0.0026573093983774942
2497.0,0.002701007590486082
2496.0,0.0027447101798967477
2495.0,0.002701007590486082
2494.0,0.0026573093983774942
2493.0,0.002569926202528716
2492.0,0.002569926202528716
2491.0,0.002613615602686581
2490.0,0.0026573093983774942
2489.0,0.002701007590486082
2488.0,0.002613615602686581
2487.0,0.0025262411970197185
2486.0,0.0024388843664115978
2485.0,0.0024388843664115978
2484.0,0.002482560585275184
2483.0,0.0025262411970197185
2482.0,0.0025262411970197185
2481.0,0.002569926202528716
2480.0,0.002613615602686581
2479.0,0.0026573093983774942
2478.0,0.0026573093983774942
2477.0,0.0026573093983774942
2476.0,0.002613615602686581
2475.0,0.0026573093983774942
2474.0,0.002701007590486082
2473.0,0.0027447101798967477
2472.0,0.002701007590486082
2471.0,0.0026573093983774942
2470.0,0.002613615602686581
2469.0,0.002569926202528716
2468.0,0.0025262411970197185
2467.0,0.002482560585275184
2466.0,0.0024388843664115978
2465.0,0.002395212539545666
2464.0,0.002395212539545666
2463.0,0.0024388843664115978
2462.0,0.0024388843664115978
2461.0,0.0024388843664115978
2460.0,0.0024388843664115978
2459.0,0.002395212539545666
2458.0,0.002395212539545666
2457.0,0.002395212539545666
2456.0,0.002395212539545666
2455.0,0.002395212539545666
2454.0,0.002395212539545666
2453.0,0.002395212539545666
2452.0,0.002395212539545666
2451.0,0.002395212539545666
2450.0,0.002351545103793873
2449.0,0.002395212539545666
2448.0,0.0024388843664115978
2447.0,0.0025262411970197185
2446.0,0.0025262411970197185
2445.0,0.0025262411970197185
2444.0,0.0024388843664115978
2443.0,0.0024388843664115978
2442.0,0.002395212539545666
2441.0,0.002351545103793873
2440.0,0.002351545103793873
2439.0,0.002351545103793873
2438.0,0.002395212539545666
2437.0,0.002395212539545666
2436.0,0.002351545103793873
2435.0,0.0023078820582733695
2434.0,0.0022642234021015284
2433.0,0.0023078820582733695
2432.0,0.002395212539545666
2431.0,0.002395212539545666
2430.0,0.002351545103793873
2429.0,0.0023078820582733695
2428.0,0.0023078820582733695
2427.0,0.002351545103793873
2426.0,0.002351545103793873
2425.0,0.002395212539545666
2424.0,0.0024388843664115978
2423.0,0.0024388843664115978
2422.0,0.0024388843664115978
2421.0,0.0024388843664115978
2420.0,0.002482560585275184
2419.0,0.0024388843664115978
2418.0,0.0024388843664115978
2417.0,0.002395212539545666
2416.0,0.0023078820582733695
2415.0,0.0023078820582733695
2414.0,0.0023078820582733695
2413.0,0.002351545103793873
2412.0,0.0024388843664115978
2411.0,0.0024388843664115978
2410.0,0.002482560585275184
2409.0,0.002482560585275184
2408.0,0.002482560585275184
2407.0,0.002482560585275184
2406.0,0.002482560585275184
2405.0,0.002482560585275184
2404.0,0.0024388843664115978
2403.0,0.002395212539545666
2402.0,0.002395212539545666
2401.0,0.002395212539545666
2400.0,0.002395212539545666
2399.0,0.002482560585275184
2398.0,0.0025262411970197185
2397.0,0.002569926202528716
2396.0,0.002613615602686581
2395.0,0.002569926202528716
2394.0,0.002482560585275184
2393.0,0.002482560585275184
2392.0,0.0025262411970197185
2391.0,0.002613615602686581
2390.0,0.0026573093983774942
2389.0,0.0026573093983774942
2388.0,0.0026573093983774942
2387.0,0.002613615602686581
2386.0,0.0026573093983774942
2385.0,0.002701007590486082
2384.0,0.0027447101798967477
2383.0,0.0027447101798967477
2382.0,0.002701007590486082
2381.0,0.002613615602686581
2380.0,0.002569926202528716
2379.0,0.002613615602686581
2378.0,0.002701007590486082
2377.0,0.0028321285541661467
2376.0,0.0029632891174733444
2375.0,0.0031382315093266833
2374.0,0.0033570086445275926
2373.0,0.0035758960449088217
2372.0,0.003619686766589858
2371.0,0.0033570086445275926
2370.0,0.0027884171674950053
2369.0,0.002089632653256679
2368.0,0.0016534626036355249
2367.0,0.0017406615763013722
2366.0,0.002089632653256679
2365.0,0.002351545103793873
2364.0,0.002701007590486082
2363.0,0.003488327845821315
2362.0,0.004408675747646695
2361.0,0.004452550524862486
2360.0,0.0034007772998332353
2359.0,0.0021332737608552588
2358.0,0.0016534626036355249
2357.0,0.0020459959305969555
2356.0,0.0026573093983774942
2355.0,0.0029632891174733444
2354.0,0.0029195645282691363
2353.0,0.0026573093983774942
2352.0,0.002395212539545666
2351.0,0.0023078820582733695
2350.0,0.002351545103793873
2349.0,0.002569926202528716
2348.0,0.0028321285541661467
2347.0,0.0031819781204844855
2346.0,0.0033570086445275926
2345.0,0.0032257291386954545
2344.0,0.0027884171674950053
2343.0,0.002395212539545666
2342.0,0.0022642234021015284
2341.0,0.002351545103793873
2340.0,0.0025262411970197185
2339.0,0.0027884171674950053
2338.0,0.0030944893043338695
2337.0,0.0033132443998284966
2336.0,0.0034007772998332353
2335.0,0.0032257291386954545
2334.0,0.0029195645282691363
2333.0,0.002482560585275184
2332.0,0.0021332737608552588
2331.0,0.0019587356365717845
2330.0,0.0019587356365717845
2329.0,0.0020459959305969555
2328.0,0.002089632653256679
2327.0,0.0020459959305969555
2326.0,0.0019587356365717845
2325.0,0.0019587356365717845
2324.0,0.002089632653256679
2323.0,0.0022642234021015284
2322.0,0.002395212539545666
2321.0,0.0024388843664115978
2320.0,0.002482560585275184
2319.0,0.002569926202528716
2318.0,0.0026573093983774942
2317.0,0.002701007590486082
2316.0,0.0026573093983774942
2315.0,0.0025262411970197185
2314.0,0.002351545103793873
2313.0,0.0022642234021015284
2312.0,0.0022642234021015284
2311.0,0.002351545103793873
2310.0,0.002395212539545666
2309.0,0.002351545103793873
2308.0,0.0023078820582733695
2307.0,0.0023078820582733695
2306.0,0.002351545103793873
2305.0,0.0024388843664115978
2304.0,0.0025262411970197185
2303.0,0.002613615602686581
2302.0,0.002613615602686581
2301.0,0.002569926202528716
2300.0,0.0024388843664115978
2299.0,0.0023078820582733695
2298.0,0.0022642234021015284
2297.0,0.0022642234021015284
2296.0,0.0022642234021015284
2295.0,0.0022205691343961664
2294.0,0.0021769192542746563
2293.0,0.0021769192542746563
2292.0,0.0022205691343961664
2291.0,0.0022205691343961664
2290.0,0.0022205691343961664
2289.0,0.0022205691343961664
2288.0,0.0021769192542746563
2287.0,0.0021769192542746563
2286.0,0.0022205691343961664
2285.0,0.0022205691343961664
2284.0,0.0022642234021015284
2283.0,0.0022642234021015284
2282.0,0.0023078820582733695
2281.0,0.002351545103793873
2280.0,0.002395212539545666
2279.0,0.0024388843664115978
2278.0,0.002395212539545666
2277.0,0.0023078820582733695
2276.0,0.0022642234021015284
2275.0,0.0022205691343961664
2274.0,0.0021769192542746563
2273.0,0.0021769192542746563
2272.0,0.0021332737608552588
2271.0,0.002089632653256679
2270.0,0.0020459959305969555
2269.0,0.0020023635919956817
2268.0,0.0019587356365717845
2267.0,0.0019587356365717845
2266.0,0.0019587356365717845
2265.0,0.0020023635919956817
2264.0,0.002089632653256679
2263.0,0.0021332737608552588
2262.0,0.0021769192542746563
2261.0,0.0022205691343961664
2260.0,0.0022205691343961664
2259.0,0.0022205691343961664
2258.0,0.0022642234021015284
2257.0,0.0022642234021015284
2256.0,0.0022205691343961664
2255.0,0.0021769192542746563
2254.0,0.002089632653256679
2253.0,0.0020459959305969555
2252.0,0.0020023635919956817
2251.0,0.0019587356365717845
2250.0,0.001915112063444413
2249.0,0.001915112063444413
2248.0,0.0019587356365717845
2247.0,0.0020459959305969555
2246.0,0.002089632653256679
2245.0,0.0021332737608552588
2244.0,0.0021332737608552588
2243.0,0.0021332737608552588
2242.0,0.002089632653256679
2241.0,0.0020459959305969555
2240.0,0.0020023635919956817
2239.0,0.0020023635919956817
2238.0,0.0020023635919956817
2237.0,0.0020459959305969555
2236.0,0.0020023635919956817
2235.0,0.0020023635919956817
2234.0,0.0020023635919956817
2233.0,0.0020023635919956817
2232.0,0.0020023635919956817
2231.0,0.0020023635919956817
2230.0,0.0019587356365717845
2229.0,0.001915112063444413
2228.0,0.001915112063444413
2227.0,0.001915112063444413
2226.0,0.0019587356365717845
2225.0,0.0020023635919956817
2224.0,0.0020023635919956817
2223.0,0.0020023635919956817
2222.0,0.0020023635919956817
2221.0,0.0020023635919956817
2220.0,0.0019587356365717845
2219.0,0.001915112063444413
2218.0,0.0018278780605593958
2217.0,0.0018278780605593958
2216.0,0.0017842676290416026
2215.0,0.0018278780605593958
2214.0,0.0018278780605593958
2213.0,0.0018278780605593958
2212.0,0.0018714928717336043
2211.0,0.0018714928717336043
2210.0,0.0018714928717336043
2209.0,0.0017842676290416026
2208.0,0.0017406615763013722
2207.0,0.0016970599014589638
2206.0,0.0017406615763013722
2205.0,0.0017842676290416026
2204.0,0.0018278780605593958
2203.0,0.0017842676290416026
2202.0,0.0016970599014589638
2201.0,0.0016534626036355249
2200.0,0.0016970599014589638
2199.0,0.0017406615763013722
2198.0,0.0017406615763013722
2197.0,0.0017406615763013722
2196.0,0.0017406615763013722
2195.0,0.0017842676290416026
2194.0,0.0018278780605593958
2193.0,0.0018278780605593958
2192.0,0.0018278780605593958
2191.0,0.0018278780605593958
2190.0,0.0018278780605593958
2189.0,0.0018278780605593958
2188.0,0.0018278780605593958
2187.0,0.0017842676290416026
2186.0,0.0017406615763013722
2185.0,0.0016534626036355249
2184.0,0.001609869681952425
2183.0,0.0016534626036355249
2182.0,0.0016970599014589638
2181.0,0.0017842676290416026
2180.0,0.0018714928717336043
2179.0,0.001915112063444413
2178.0,0.001915112063444413
2177.0,0.0018278780605593958
2176.0,0.0016970599014589638
2175.0,0.001609869681952425
2174.0,0.0015662811355310335
2173.0,0.001609869681952425
2172.0,0.0016534626036355249
2171.0,0.0017406615763013722
2170.0,0.0017842676290416026
2169.0,0.0017842676290416026
2168.0,0.0017842676290416026
2167.0,0.0017842676290416026
2166.0,0.0017842676290416026
2165.0,0.0017842676290416026
2164.0,0.0017842676290416026
2163.0,0.0018278780605593958
2162.0,0.0018278780605593958
2161.0,0.0017842676290416026
2160.0,0.0017406615763013722
2159.0,0.0017406615763013722
2158.0,0.0017842676290416026
2157.0,0.0017842676290416026
2156.0,0.0017406615763013722
2155.0,0.0016970599014589638
2154.0,0.0016970599014589638
2153.0,0.0016970599014589638
2152.0,0.0017406615763013722
2151.0,0.0017406615763013722
2150.0,0.0017406615763013722
2149.0,0.0017842676290416026
2148.0,0.0017842676290416026
2147.0,0.0018278780605593958
2146.0,0.0018278780605593958
2145.0,0.0017842676290416026
2144.0,0.0017406615763013722
2143.0,0.0017406615763013722
2142.0,0.0016534626036355249
2141.0,0.001609869681952425
2140.0,0.0015662811355310335
2139.0,0.0015662811355310335
2138.0,0.001609869681952425
2137.0,0.0016970599014589638
2136.0,0.0017406615763013722
2135.0,0.0017842676290416026
2134.0,0.0018278780605593958
2133.0,0.0018714928717336043
2132.0,0.0018714928717336043
2131.0,0.001915112063444413
2130.0,0.001915112063444413
2129.0,0.001915112063444413
2128.0,0.001915112063444413
2127.0,0.0018714928717336043
2126.0,0.0018278780605593958
2125.0,0.0018278780605593958
2124.0,0.0018278780605593958
2123.0,0.0017842676290416026
2122.0,0.0017842676290416026
2121.0,0.0017406615763013722
2120.0,0.0016970599014589638
2119.0,0.0016534626036355249
2118.0,0.0016534626036355249
2117.0,0.0015662811355310335
2116.0,0.0015226969634936083
2115.0,0.0014355417390583547
2114.0,0.0014791171649619628
2113.0,0.0015226969634936083
2112.0,0.001609869681952425
2111.0,0.0016534626036355249
2110.0,0.0016970599014589638
2109.0,0.0016534626036355249
2108.0,0.001609869681952425
2107.0,0.0015662811355310335
2106.0,0.0015226969634936083
2105.0,0.0014791171649619628
2104.0,0.0014791171649619628
2103.0,0.0014791171649619628
2102.0,0.0015226969634936083
2101.0,0.0015226969634936083
2100.0,0.0015662811355310335
2099.0,0.0015662811355310335
2098.0,0.0015662811355310335
2097.0,0.0015662811355310335
2096.0,0.0015662811355310335
2095.0,0.0015662811355310335
2094.0,0.001609869681952425
2093.0,0.001609869681952425
2092.0,0.001609869681952425
2091.0,0.001609869681952425
2090.0,0.0015662811355310335
2089.0,0.0014791171649619628
2088.0,0.0014355417390583547
2087.0,0.0013919706849057079
2086.0,0.0014355417390583547
2085.0,0.0014791171649619628
2084.0,0.0014791171649619628
2083.0,0.0014355417390583547
2082.0,0.0013919706849057079
2081.0,0.001304841688344327
2080.0,0.001304841688344327
2079.0,0.001348404001626502
2078.0,0.0013919706849057079
2077.0,0.0014355417390583547
2076.0,0.0014791171649619628
2075.0,0.0014791171649619628
2074.0,0.0014791171649619628
2073.0,0.0014355417390583547
2072.0,0.001348404001626502
2071.0,0.001348404001626502
2070.0,0.001348404001626502
2069.0,0.001348404001626502
2068.0,0.001304841688344327
2067.0,0.0012612837441823288
2066.0,0.0011741809597138886
2065.0,0.0011306361176557367
2064.0,0.0010870956412141197
2063.0,0.0011306361176557367
2062.0,0.0011741809597138886
2061.0,0.0012177301682640973
2060.0,0.0012177301682640973
2059.0,0.0011741809597138886
2058.0,0.0011306361176557367
2057.0,0.0010870956412141197
2056.0,0.0010435595295137379
2055.0,0.0010000277816797354
2054.0,0.0009565003968372565
2053.0,0.0009565003968372565
2052.0,0.0009129773741116676
2051.0,0.0009129773741116676
2050.0,0.000869458712629001
2049.0,0.0008259444115150671
2048.0,0.0008259444115150671
2047.0,0.0008259444115150671
2046.0,0.0008259444115150671
2045.0,0.000869458712629001
2044.0,0.000869458712629001
2043.0,0.0009129773741116676
2042.0,0.0009129773741116676
2041.0,0.000869458712629001
2040.0,0.0008259444115150671
2039.0,0.0008259444115150671
2038.0,0.0008259444115150671
2037.0,0.0008259444115150671
2036.0,0.000869458712629001
2035.0,0.000869458712629001
2034.0,0.000869458712629001
2033.0,0.0008259444115150671
2032.0,0.0008259444115150671
2031.0,0.0007824344698965646
2030.0,0.0007389288868995258
2029.0,0.0006954276616513155
2028.0,0.0006519307932786322
2027.0,0.0006519307932786322
2026.0,0.0006954276616513155
2025.0,0.0007389288868995258
2024.0,0.0007389288868995258
2023.0,0.0006954276616513155
2022.0,0.0006519307932786322
2021.0,0.0006519307932786322
2020.0,0.0006519307932786322
2019.0,0.0006519307932786322
2018.0,0.0006519307932786322
2017.0,0.0006954276616513155
2016.0,0.0006519307932786322
2015.0,0.0006519307932786322
2014.0,0.0006954276616513155
2013.0,0.0006954276616513155
2012.0,0.0006954276616513155
2011.0,0.0006519307932786322
2010.0,0.0006084382809090627
2009.0,0.0006084382809090627
2008.0,0.0006084382809090627
2007.0,0.0006084382809090627
2006.0,0.0006519307932786322
2005.0,0.0006519307932786322
2004.0,0.0006084382809090627
2003.0,0.0006084382809090627
2002.0,0.0006084382809090627
2001.0,0.0006084382809090627
2000.0,0.0006084382809090627
1999.0,0.0005649501236701937
1998.0,0.0005649501236701937
1997.0,0.0005649501236701937
1996.0,0.0006084382809090627
1995.0,0.0006954276616513155
1994.0,0.0007389288868995258
1993.0,0.0007824344698965646
1992.0,0.0007824344698965646
1991.0,0.0007389288868995258
1990.0,0.0006954276616513155
1989.0,0.0006954276616513155
1988.0,0.0006954276616513155
1987.0,0.0006954276616513155
1986.0,0.0006954276616513155
1985.0,0.0006954276616513155
1984.0,0.0006519307932786322
1983.0,0.0006519307932786322
1982.0,0.0006084382809090627
1981.0,0.0006084382809090627
1980.0,0.0006084382809090627
1979.0,0.0006519307932786322
1978.0,0.0006084382809090627
1977.0,0.000521466320689834
1976.0,0.0004779868710962365
1975.0,0.0004779868710962365
1974.0,0.000521466320689834
1973.0,0.0005649501236701937
1972.0,0.0006084382809090627
1971.0,0.0006084382809090627
1970.0,0.0006084382809090627
1969.0,0.0006084382809090627
1968.0,0.0006519307932786322
1967.0,0.0006519307932786322
1966.0,0.0006519307932786322
1965.0,0.0006084382809090627
1964.0,0.0006084382809090627
1963.0,0.0006084382809090627
1962.0,0.0006084382809090627
1961.0,0.0006084382809090627
1960.0,0.0006084382809090627
1959.0,0.0006519307932786322
1958.0,0.0006954276616513155
1957.0,0.0007824344698965646
1956.0,0.000869458712629001
1955.0,0.0009565003968372565
1954.0,0.0009565003968372565
1953.0,0.0009129773741116676
1952.0,0.000869458712629001
1951.0,0.000869458712629001
1950.0,0.0009129773741116676
1949.0,0.0009565003968372565
1948.0,0.0009565003968372565
1947.0,0.0009129773741116676
1946.0,0.0009129773741116676
1945.0,0.0009565003968372565
1944.0,0.0009565003968372565
1943.0,0.0009129773741116676
1942.0,0.0008259444115150671
1941.0,0.0006954276616513155
1940.0,0.0006519307932786322
1939.0,0.0006084382809090627
1938.0,0.0006084382809090627
1937.0,0.0006084382809090627
1936.0,0.000521466320689834
1935.0,0.00043451177401765406
1934.0,0.0003910410285830057
1933.0,0.0003475746339209884
1932.0,0.00026065489343207737
1931.0,0.00017375254558760211
1930.0,8.686758342868472e-05
1929.0,0.0
1928.0,-8.685021164911433e-05
1927.0,-8.685021164911433e-05
1926.0,-4.3427276862573194e-05
1925.0,-4.3427276862573194e-05
1924.0,0.0
1923.0,-4.3427276862573194e-05
1922.0,-8.685021164911433e-05
1921.0,-0.00013026880522692963
1920.0,-0.00017368305846510168
1919.0,-0.00021709297223004853
1918.0,-0.0002604985473904087
1917.0,-0.00030389978481260016
1916.0,-0.00030389978481260016
1915.0,-0.00030389978481260016
1914.0,-0.00030389978481260016
1913.0,-0.0003472966853634851
1912.0,-0.0003906892499099257
1911.0,-0.0003906892499099257
1910.0,-0.00043407747931878404
1909.0,-0.00043407747931878404
1908.0,-0.00043407747931878404
1907.0,-0.00043407747931878404
1906.0,-0.0004774613744551459
1905.0,-0.0005642161653756084
1904.0,-0.0006509536295951079
1903.0,-0.0007376737740329986
1902.0,-0.0007810273534953893
1901.0,-0.0007810273534953893
1900.0,-0.0007810273534953893
1899.0,-0.0008243766056055257
1898.0,-0.0009110621312231615
1897.0,-0.0009977303577937136
1896.0,-0.001041057986093552
1895.0,-0.0010843812922201046
1894.0,-0.0010843812922201046
1893.0,-0.0010843812922201046
1892.0,-0.0011277002770349043
1891.0,-0.00121432528617893
1890.0,-0.001257631312230778
1889.0,-0.001344230411601366
1888.0,-0.001344230411601366
1887.0,-0.001344230411601366
1886.0,-0.0013009330204178937
1885.0,-0.001344230411601366
1884.0,-0.0013875234866409514
1883.0,-0.0013875234866409514
1882.0,-0.0014308122463981832
1881.0,-0.0014308122463981832
1880.0,-0.0014308122463981832
1879.0,-0.0015173768235041685
1878.0,-0.0016039241497978196
1877.0,-0.0016471913460383014
1876.0,-0.001733712809000476
1875.0,-0.001733712809000476
1874.0,-0.0016904542321527494
1873.0,-0.0016471913460383014
1872.0,-0.0015606526425728795
1871.0,-0.0015606526425728795
1870.0,-0.0016039241497978196
1869.0,-0.001733712809000476
1868.0,-0.001776967077439462
1867.0,-0.0018202170383281313
1866.0,-0.001776967077439462
1865.0,-0.001776967077439462
1864.0,-0.0018202170383281313
1863.0,-0.0019067040408846658
1862.0,-0.0019931738235303698
1861.0,-0.0020364022595291686
1860.0,-0.0020796263931210923
1859.0,-0.0020796263931210923
1858.0,-0.0021228462251614566
1857.0,-0.0021660617565077978
1856.0,-0.0022092729880145434
1855.0,-0.0022092729880145434
1854.0,-0.0022092729880145434
1853.0,-0.0022092729880145434
1852.0,-0.0022092729880145434
1851.0,-0.0022524799205383417
1850.0,-0.0022524799205383417
1849.0,-0.0022956825549340643
1848.0,-0.0022524799205383417
1847.0,-0.0021660617565077978
1846.0,-0.0021660617565077978
1845.0,-0.0022092729880145434
1844.0,-0.0022956825549340643
1843.0,-0.0022956825549340643
1842.0,-0.0022524799205383417
1841.0,-0.0022092729880145434
1840.0,-0.0021660617565077978
1839.0,-0.0021660617565077978
1838.0,-0.0022092729880145434
1837.0,-0.0022524799205383417
1836.0,-0.0022956825549340643
1835.0,-0.002338880892056583
1834.0,-0.002338880892056583
1833.0,-0.0022956825549340643
1832.0,-0.0022524799205383417
1831.0,-0.0022092729880145434
1830.0,-0.0022092729880145434
1829.0,-0.0022524799205383417
1828.0,-0.0022956825549340643
1827.0,-0.0022524799205383417
1826.0,-0.0022956825549340643
1825.0,-0.002338880892056583
1824.0,-0.0023820749327607693
1823.0,-0.0024252646779014952
1822.0,-0.0024684501283323
1821.0,-0.0025548081484823015
1820.0,-0.0025548081484823015
1819.0,-0.0025548081484823015
1818.0,-0.0025548081484823015
1817.0,-0.0025548081484823015
1816.0,-0.0026411490000399773
1815.0,-0.002684312989729598
1814.0,-0.0027274726898296464
1813.0,-0.0027274726898296464
1812.0,-0.0027274726898296464
1811.0,-0.0027274726898296464
1810.0,-0.0028137792246734072
1809.0,-0.002900068611387585
1808.0,-0.003029470553618019
1807.0,-0.003115717099805959
1806.0,-0.003158833950862139
1805.0,-0.003158833950862139
1804.0,-0.003115717099805959
1803.0,-0.003029470553618019
1802.0,-0.0030725959676747294
1801.0,-0.003158833950862139
1800.0,-0.003201946521692367
1799.0,-0.0032450548131470747
1798.0,-0.0032881588260753603
1797.0,-0.0033312585613267665
1796.0,-0.0033743540197499478
1795.0,-0.0033743540197499478
1794.0,-0.0033743540197499478
1793.0,-0.0034174452021935586
1792.0,-0.0034605321095062536
1791.0,-0.003503614742536687
1790.0,-0.003503614742536687
1789.0,-0.003503614742536687
1788.0,-0.0034605321095062536
1787.0,-0.0033743540197499478
1786.0,-0.0032881588260753603
1785.0,-0.0032881588260753603
1784.0,-0.0033312585613267665
1783.0,-0.0032881588260753603
1782.0,-0.0032450548131470747
1781.0,-0.0032450548131470747
1780.0,-0.0032450548131470747
1779.0,-0.0032450548131470747
1778.0,-0.0032450548131470747
1777.0,-0.0032881588260753603
1776.0,-0.0032450548131470747
1775.0,-0.003158833950862139
1774.0,-0.0030725959676747294
1773.0,-0.0030725959676747294
1772.0,-0.0030725959676747294
1771.0,-0.0029863408567849525
1770.0,-0.002856926061120646
1769.0,-0.0027274726898296464
1768.0,-0.0026411490000399773
1767.0,-0.0025116312849080558
1766.0,-0.002338880892056583
1765.0,-0.0021660617565077978
1764.0,-0.0019499410842680476
1763.0,-0.001733712809000476
1762.0,-0.0015606526425728795
1761.0,-0.0014308122463981832
1760.0,-0.0011710149414008164
1759.0,-0.0008243766056055257
1758.0,-0.00043407747931878404
1757.0,-8.685021164911433e-05
1756.0,0.00026065489343207737
1755.0,0.0006954276616513155
1754.0,0.0012177301682640973
1753.0,0.0017842676290416026
1752.0,0.0025262411970197185
1751.0,0.0035321097382827737
1750.0,0.004715892310740433
1749.0,0.005990966876386672
1748.0,0.007313960837872058
1747.0,0.0087296108049002
1746.0,0.010327752376126709
1745.0,0.012199714248127602
1744.0,0.014438812226654996
1743.0,0.016915227262211507
1742.0,0.01949668180660491
1741.0,0.022505030926963654
1740.0,0.026225806029419818
1739.0,0.030071810571884017
1738.0,0.03301397488206215
1737.0,0.03517488211661135
1736.0,0.03753595394209874
1735.0,0.04196198390166317
1734.0,0.04807992647970649
1733.0,0.05290953578037816
1732.0,0.055912320584565744
1731.0,0.05863766428823891
1730.0,0.061680456657844385
1729.0,0.06469430971007495
1728.0,0.06737405597821788
1727.0,0.06971335275448043
1726.0,0.07206531825882068
1725.0,0.07463633264589853
1724.0,0.07737832847680104
1723.0,0.07982447798997727
1722.0,0.08155025759884227
1721.0,0.08249449044745338
1720.0,0.0830725338870073
1719.0,0.08465293767580806
1718.0,0.08788427092114603
1717.0,0.09113982698272349
1716.0,0.09285746899685954
1715.0,0.09334178232840018
1714.0,0.09323411045927221
1713.0,0.09237369515673355
1712.0,0.09087205801073917
1711.0,0.08900228368935714
1710.0,0.08698131625203986
1709.0,0.08460016478773014
1708.0,0.08170748724464438
1707.0,0.07846958649875768
1706.0,0.07510073598571654
1705.0,0.07196279359311708
1704.0,0.0690000580438479
1703.0,0.06605739725873905
1702.0,0.06293368798257193
1701.0,0.05963295401433477
1700.0,0.0567528748621382
1699.0,0.05458065739693696
1698.0,0.05271335532220167
1697.0,0.050707598587974356
1696.0,0.0486139051197072
1695.0,0.04667530361081473
1694.0,0.04503426894157925
1693.0,0.043495409683302455
1692.0,0.04196198390166317
1691.0,0.04043395336207234
1690.0,0.03914884628031379
1689.0,0.038057116858612794
1688.0,0.0371100126082089
1687.0,0.03602339000339416
1686.0,0.03484535401307465
1685.0,0.03409308450480819
1684.0,0.033952178923546183
1683.0,0.03362357691107709
1682.0,0.03301397488206215
1681.0,0.032311649546687526
1680.0,0.031563752288295444
1679.0,0.030770520137356927
1678.0,0.029885677714903025
1677.0,0.029002634427514717
1676.0,0.028214062120885508
1675.0,0.027612000892527133
1674.0,0.027056991894431892
1673.0,0.026410376572743033
1672.0,0.025718641122169483
1671.0,0.02498200236711723
1670.0,0.024430342106337877
1669.0,0.024017056287453542
1668.0,0.02355831062115543
1667.0,0.023054249440757957
1666.0,0.022505030926963654
1665.0,0.021910826943857264
1664.0,0.021271822861508305
1663.0,0.02081596632558158
1662.0,0.02045162529590483
1661.0,0.020087589665283012
1660.0,0.019678413991243593
1659.0,0.0192242260373785
1658.0,0.018815862601645694
1657.0,0.018362575344230914
1656.0,0.01781925440359733
1655.0,0.017186237868137555
1654.0,0.016824927962187042
1653.0,0.016870075265299933
1652.0,0.016689514205884493
1651.0,0.016509028184833463
1650.0,0.01632861713980338
1649.0,0.016013078034810446
1648.0,0.015742798294583915
1647.0,0.015562705203923999
1646.0,0.015292705517326866
1645.0,0.014932966849499074
1644.0,0.014618439768003144
1643.0,0.014349026309051105
1642.0,0.014124642691606404
1641.0,0.013900374944870508
1640.0,0.013631406429727155
1639.0,0.013362604389846044
1638.0,0.013138729709955221
1637.0,0.012959713020733288
1636.0,0.012914970375878188
1635.0,0.012780770091995297
1634.0,0.012557195064198723
1633.0,0.012423105273012602
1632.0,0.012333735073725371
1631.0,0.012199714248127602
1630.0,0.012021084124518078
1629.0,0.011931796607364653
1628.0,0.011797899741219142
1627.0,0.011664044143949504
1626.0,0.011485634166333858
1625.0,0.011351874764248926
1624.0,0.011218156546359825
1623.0,0.011084479487313281
1622.0,0.010906307389674463
1621.0,0.01077272626946324
1620.0,0.010683695010048622
1619.0,0.010639186223752484
1618.0,0.010728208358306901
1617.0,0.011084479487313281
1616.0,0.011441043121384498
1615.0,0.011574829993696856
1614.0,0.011574829993696856
1613.0,0.011530229790124524
1612.0,0.011441043121384498
1611.0,0.011307297450183107
1610.0,0.011129033935354915
1609.0,0.01086177578421088
1608.0,0.010594681998483901
1607.0,0.010283280051895272
1606.0,0.01001654169860089
1605.0,0.00974996707218323
1604.0,0.009439170005980158
1603.0,0.009128595198514056
1602.0,0.008862564879688284
1601.0,0.008596697419959609
1600.0,0.008286724286910463
1599.0,0.008021209005416363
1598.0,0.007800070204414977
1597.0,0.00762324020119709
1596.0,0.007490664932224611
1595.0,0.007402303897961815
1594.0,0.007269796045857202
1593.0,0.007093181776687496
1592.0,0.00696076819309055
1591.0,0.006872514894289861
1590.0,0.006872514894289861
1589.0,0.006872514894289861
1588.0,0.006872514894289861
1587.0,0.006916639301937977
1586.0,0.007049039429553483
1585.0,0.007358130121602358
1584.0,0.007888512213050314
1583.0,0.008640997362049818
1582.0,0.009483555971770974
1581.0,0.01037222925484893
1580.0,0.011084479487313281
1579.0,0.011664044143949504
1578.0,0.011931796607364653
1577.0,0.011931796607364653
1576.0,0.011485634166333858
1575.0,0.01086177578421088
1574.0,0.010327752376126709
1573.0,0.009838807101520963
1572.0,0.009306039320248427
1571.0,0.008773924307505121
1570.0,0.008242460465651913
1569.0,0.007844288957383316
1568.0,0.007534852191956709
1567.0,0.007313960837872058
1566.0,0.007093181776687496
1565.0,0.006872514894289861
1564.0,0.006696062080525422
1563.0,0.006519680930003435
1562.0,0.006343371384537999
1561.0,0.006035001804881146
1560.0,0.00577085918230158
1559.0,0.00577085918230158
1558.0,0.005638848091999105
1557.0,0.00541891874010525
1556.0,0.00537494623139545
1555.0,0.0052870145684298375
1554.0,0.005199100705396198
1553.0,0.005067263269958211
1552.0,0.005023326350308999
1551.0,0.00489154225525934
1550.0,0.004671990922590297
1549.0,0.004408675747646695
1548.0,0.004233220950025984
1547.0,0.0040578370074493275
1546.0,0.003970171588923321
1545.0,0.003970171588923321
1544.0,0.00401400208620073
1543.0,0.00401400208620073
1542.0,0.0038825238627120395
1541.0,0.0037510854308679953
1540.0,0.0036634819042162814
1539.0,0.0035321097382827737
1538.0,0.003488327845821315
1537.0,0.0035758960449088217
1536.0,0.0035321097382827737
1535.0,0.003488327845821315
1534.0,0.0034445503666347133
1533.0,0.0034445503666347133
1532.0,0.0034445503666347133
1531.0,0.0034007772998332353
1530.0,0.0033570086445275926
1529.0,0.0033132443998284966
1528.0,0.0032257291386954545
1527.0,0.0031819781204844855
1526.0,0.0031819781204844855
1525.0,0.0031819781204844855
1524.0,0.0031382315093266833
1523.0,0.0030944893043338695
1522.0,0.003050751504618754
1521.0,0.0029632891174733444
1520.0,0.0028758443407954637
1519.0,0.0027884171674950053
1518.0,0.0027447101798967477
1517.0,0.002701007590486082
1516.0,0.0026573093983774942
1515.0,0.002613615602686581
1514.0,0.002613615602686581
1513.0,0.0026573093983774942
1512.0,0.0028321285541661467
1511.0,0.0031382315093266833
1510.0,0.0036634819042162814
1509.0,0.004408675747646695
1508.0,0.006167133386013823
1507.0,0.008951223547323472
1506.0,0.010817248744452446
1505.0,0.011039929609661936
1504.0,0.010594681998483901
1503.0,0.00974996707218323
1502.0,0.008552401996197112
1501.0,0.007225635744644521
1500.0,0.005946936412324799
1499.0,0.004759798137184523
1498.0,0.003794893821675638
1497.0,0.003050751504618754
1496.0,0.0024388843664115978
1495.0,0.0020459959305969555
1494.0,0.0017406615763013722
1493.0,0.0015226969634936083
1492.0,0.001348404001626502
1491.0,0.0011741809597138886
1490.0,0.0010870956412141197
1489.0,0.0010000277816797354
1488.0,0.0009129773741116676
1487.0,0.0007824344698965646
1486.0,0.0007389288868995258
1485.0,0.0007824344698965646
1484.0,0.0008259444115150671
1483.0,0.0009129773741116676
1482.0,0.0010000277816797354
1481.0,0.0010870956412141197
1480.0,0.0012177301682640973
1479.0,0.001304841688344327
1478.0,0.0013919706849057079
1477.0,0.0014791171649619628
1476.0,0.001609869681952425
1475.0,0.0016970599014589638
1474.0,0.0017406615763013722
1473.0,0.0018714928717336043
1472.0,0.0020023635919956817
1471.0,0.0020459959305969555
1470.0,0.0021769192542746563
1469.0,0.002395212539545666
1468.0,0.002613615602686581
1467.0,0.0029195645282691363
1466.0,0.0034007772998332353
1465.0,0.004145520125434121
1464.0,0.004979393875242044
1463.0,0.005726851026829571
1462.0,0.006343371384537999
1461.0,0.006916639301937977
1460.0,0.007490664932224611
1459.0,0.008198201155356077
1458.0,0.009306039320248427
1457.0,0.010639186223752484
1456.0,0.011530229790124524
1455.0,0.011842527443247208
1454.0,0.012021084124518078
1453.0,0.012110390002254778
1452.0,0.012065734767841452
1451.0,0.011931796607364653
1450.0,0.011797899741219142
1449.0,0.011664044143949504
1448.0,0.011574829993696856
1447.0,0.011530229790124524
1446.0,0.011485634166333858
1445.0,0.011441043121384498
1444.0,0.011351874764248926
1443.0,0.011262724711199823
1442.0,0.011084479487313281
1441.0,0.010906307389674463
1440.0,0.010683695010048622
1439.0,0.01037222925484893
1438.0,0.009927665307847056
1437.0,0.009306039320248427
1436.0,0.008552401996197112
1435.0,0.007844288957383316
1434.0,0.007137328610972382
1433.0,0.006343371384537999
1432.0,0.005462895701502157
1431.0,0.004540313378935901
1430.0,0.0036634819042162814
1429.0,0.0029195645282691363
1428.0,0.002351545103793873
1427.0,0.0019587356365717845
1426.0,0.0016534626036355249
1425.0,0.0013919706849057079
1424.0,0.0012612837441823288
1423.0,0.001304841688344327
1422.0,0.0015226969634936083
1421.0,0.0018714928717336043
1420.0,0.0026573093983774942
1419.0,0.00401400208620073
1418.0,0.00577085918230158
1417.0,0.007800070204414977
1416.0,0.010194349063173958
1415.0,0.013138729709955221
1414.0,0.01677978535189717
1413.0,0.021043834782408455
1412.0,0.02558042614771394
1411.0,0.029746130405213123
1410.0,0.03273290844021437
1409.0,0.03428102975577918
1408.0,0.03432802877989327
1407.0,0.0329671178412978
1406.0,0.03058408764601861
1405.0,0.027750864037404455
1404.0,0.025074013910237447
1403.0,0.02277955336461468
1402.0,0.02081596632558158
1401.0,0.019133445417920836
1400.0,0.017547848615010242
1399.0,0.016103208673694303
1398.0,0.014932966849499074
1397.0,0.013945219230304673
1396.0,0.013049212141483357
1395.0,0.012110390002254778
1394.0,0.01117359295472431
1393.0,0.010416710688994968
1392.0,0.00974996707218323
1391.0,0.00908424549391551
1390.0,0.00850811108984062
1389.0,0.008065450281052211
1388.0,0.007711646202907652
1387.0,0.007402303897961815
1386.0,0.007181479933320523
1385.0,0.007004901568658406
1384.0,0.006916639301937977
1383.0,0.007004901568658406
1382.0,0.007269796045857202
1381.0,0.007755855953228474
1380.0,0.008375265465994541
1379.0,0.00908424549391551
1378.0,0.009794384815193347
1377.0,0.010594681998483901
1376.0,0.011441043121384498
1375.0,0.012467797270160563
1374.0,0.013407393177789162
1373.0,0.014124642691606404
1372.0,0.01452861671041239
1371.0,0.014708281407112
1370.0,0.014663358264387139
1369.0,0.014259258949925524
1368.0,0.013541787262693505
1367.0,0.012467797270160563
1366.0,0.011129033935354915
1365.0,0.00966114521239847
1364.0,0.008065450281052211
1363.0,0.006475596832934416
1362.0,0.005067263269958211
1361.0,0.003970171588923321
1360.0,0.0031819781204844855
1359.0,0.002613615602686581
1358.0,0.0021769192542746563
1357.0,0.0018278780605593958
1356.0,0.001609869681952425
1355.0,0.0014791171649619628
1354.0,0.0014791171649619628
1353.0,0.0015662811355310335
1352.0,0.0018278780605593958
1351.0,0.0022205691343961664
1350.0,0.002701007590486082
1349.0,0.0033132443998284966
1348.0,0.00401400208620073
1347.0,0.004759798137184523
1346.0,0.005594853310833647
1345.0,0.006475596832934416
1344.0,0.007402303897961815
1343.0,0.008198201155356077
1342.0,0.008906891951112605
1341.0,0.009439170005980158
1340.0,0.009705553871561357
1339.0,0.009572341514736404
1338.0,0.009039900317800775
1337.0,0.008153946355103248
1336.0,0.007137328610972382
1335.0,0.00612308505878878
1334.0,0.005155150446602086
1333.0,0.004408675747646695
1332.0,0.003926345514724705
1331.0,0.0036634819042162814
1330.0,0.003619686766589858
1329.0,0.0037510854308679953
1328.0,0.0040578370074493275
1327.0,0.0044964297349936455
1326.0,0.005067263269958211
1325.0,0.00577085918230158
1324.0,0.006519680930003435
1323.0,0.007269796045857202
1322.0,0.007976972236149349
1321.0,0.0087296108049002
1320.0,0.009572341514736404
1319.0,0.01037222925484893
1318.0,0.011218156546359825
1317.0,0.012065734767841452
1316.0,0.012870232340102872
1315.0,0.013676222949234651
1314.0,0.014573525916998342
1313.0,0.015562705203923999
1312.0,0.016644385668211692
1311.0,0.017774008325325275
1310.0,0.018861217359339655
1309.0,0.02004210665933459
1308.0,0.021271822861508305
1307.0,0.022505030926963654
1306.0,0.023741750742954926
1305.0,0.02498200236711723
1304.0,0.02636422658259252
1303.0,0.027843464140506313
1302.0,0.029560137048236124
1301.0,0.031563752288295444
1300.0,0.03385826726096752
1299.0,0.036401037402758574
1298.0,0.03910132267333921
1297.0,0.04196198390166317
1296.0,0.044793462458058375
1295.0,0.047643522676209304
1294.0,0.05036607620073763
1293.0,0.05300765925162776
1292.0,0.05561604235915585
1291.0,0.05809122563440061
1290.0,0.06038092104330195
1289.0,0.06253226035662252
1288.0,0.06449273417528723
1287.0,0.0663102910421054
1286.0,0.06788152797087754
1285.0,0.06935655895783555
1284.0,0.07063217075990047
1283.0,0.07175781684269089
1282.0,0.07268097504034388
1281.0,0.0734517753643813
1280.0,0.07417242537525759
1279.0,0.0748426728241014
1278.0,0.07551395626608493
1277.0,0.07628980560343712
1276.0,0.0772226580712021
1275.0,0.07841755960658348
1274.0,0.07998108397108505
1273.0,0.08202211740709164
1272.0,0.08454739831152125
1271.0,0.08745911720936239
1270.0,0.0905509530187334
1269.0,0.09382663635595145
1268.0,0.09712721455392082
1267.0,0.10028890542885538
1266.0,0.10325338439259446
1265.0,0.10601643278815298
1264.0,0.10857405715200596
1263.0,0.11075433910702048
1262.0,0.1125514997500463
1261.0,0.11396072443355765
1260.0,0.11509140583739286
1259.0,0.1157145376603248
1258.0,0.11599807523121286
1257.0,0.11611154211151953
1256.0,0.11628179803604044
1255.0,0.1165089098110701
1254.0,0.1169634899723202
1253.0,0.11764625361128611
1252.0,0.11861534322942724
1251.0,0.11975822410451964
1250.0,0.12101887660626365
1249.0,0.12251347193039863
1248.0,0.12424442074194553
1247.0,0.12604034525664676
1246.0,0.12778543660241448
1245.0,0.1295960947209729
1244.0,0.13141433344123432
1243.0,0.13306318226836056
1242.0,0.13442229258007088
1241.0,0.13560759484941132
1240.0,0.13661765155921235
1239.0,0.13721290176465573
1238.0,0.13739163603505822
1237.0,0.13709378643700187
1236.0,0.13626089265478303
1235.0,0.13489602535887202
1234.0,0.13288622016802298
1233.0,0.13053358991913355
1232.0,0.12790202572577325
1231.0,0.1248808345374317
1230.0,0.12153565465853111
1229.0,0.11815903167507247
1228.0,0.1148084593931522
1227.0,0.11137127461477392
1226.0,0.10784972209863586
1225.0,0.10435649517592083
1224.0,0.10094593200182911
1223.0,0.09750757884139638
1222.0,0.09409623378338305
1221.0,0.0908185240221473
1220.0,0.08767164203958999
1219.0,0.08454739831152125
1218.0,0.08149786036382611
1217.0,0.07862570458152551
1216.0,0.07587584681417514
1215.0,0.0732460948102629
1214.0,0.07073438174693436
1213.0,0.06833876031551878
1212.0,0.06615853710127872
1211.0,0.06403953101083348
1210.0,0.06208109735221967
1209.0,0.060231224546650086
1208.0,0.05843887976392925
1207.0,0.0567528748621382
1206.0,0.05507339001378431
1205.0,0.053449489430144714
1204.0,0.05188057561946402
1203.0,0.050317309204795935
1202.0,0.04885683989244738
1201.0,0.04744970610179822
1200.0,0.04609540658654021
1199.0,0.04474531717982
1198.0,0.0433514207947967
1197.0,0.04196198390166317
1196.0,0.04057697805689475
1195.0,0.03929144831144349
1194.0,0.03800971255993524
1193.0,0.036779013477011624
1192.0,0.03559892883726867
1191.0,0.03442204208947208
1190.0,0.033295223342125535
1189.0,0.03226486821611996
1188.0,0.03133029827960798
1187.0,0.030490901403433135
1186.0,0.029746130405213123
1185.0,0.029188389127482228
1184.0,0.028770552723758724
1183.0,0.02858497661500481
1182.0,0.028538594975413334
1181.0,0.028677754757187035
1180.0,0.029002634427514717
1179.0,0.029467170231675777
1178.0,0.029885677714903025
1177.0,0.03030458888152676
1176.0,0.03063068826647264
1175.0,0.03081714076773867
1174.0,0.030770520137356927
1173.0,0.030444315779156517
1172.0,0.029746130405213123
1171.0,0.028770552723758724
1170.0,0.02747318213414429
1169.0,0.025995203102585407
1168.0,0.024522236834125355
1167.0,0.023100049017062307
1166.0,0.021773818325474092
1165.0,0.02058821736556471
1164.0,0.01949668180660491
1163.0,0.01858915983411169
1162.0,0.01781925440359733
1161.0,0.017186237868137555
1160.0,0.016689514205884493
1159.0,0.01632861713980338
1158.0,0.016058141016111804
1157.0,0.016013078034810446
1156.0,0.016103208673694303
1155.0,0.01646391839700767
1154.0,0.017050711425501408
1153.0,0.017864505196230507
1152.0,0.018861217359339655
1151.0,0.020087589665283012
1150.0,0.021499930688540836
1149.0,0.023191662661933732
1148.0,0.025074013910237447
1147.0,0.027149444152769986
1146.0,0.029374223311705583
1145.0,0.03170388495374454
1144.0,0.034046110897937076
1143.0,0.03644826642590382
1142.0,0.03876880295533702
1141.0,0.041006334969674096
1140.0,0.0431115453499229
1139.0,0.04508244626504121
1138.0,0.0469171560879138
1137.0,0.0486139051197072
1136.0,0.05026854768429301
1135.0,0.05178270644002936
1134.0,0.05330216275425803
1133.0,0.05477768336465916
1132.0,0.05635711724787096
1131.0,0.05799194697768684
1130.0,0.05978244440026481
1129.0,0.061830653609679764
1128.0,0.06424089625468832
1127.0,0.06686717627326577
1126.0,0.06966236426227002
1125.0,0.07268097504034388
1124.0,0.07587584681417514
1123.0,0.079094395835976
1122.0,0.08223199755224364
1121.0,0.08507535179485148
1120.0,0.08751223866767632
1119.0,0.0892689019566193
1118.0,0.09028354676565531
1117.0,0.09060445403289452
1116.0,0.09028354676565531
1115.0,0.08937559511079884
1114.0,0.0880970039559672
1113.0,0.08682216600953208
1112.0,0.08586848736910624
1111.0,0.08549817717268593
1110.0,0.08608023504853413
1109.0,0.08767164203958999
1108.0,0.09023008526723086
1107.0,0.0935033402006471
1106.0,0.09734452478207412
1105.0,0.10154908080162528
1104.0,0.1061827760325369
1103.0,0.11086644403327606
1102.0,0.11543118508166672
1101.0,0.11975822410451964
1100.0,0.12378215940835768
1099.0,0.12749410065407507
1098.0,0.1308269726783169
1097.0,0.1337717526203528
1096.0,0.13626089265478303
1095.0,0.13816700234205515
1094.0,0.13948232253825377
1093.0,0.14038142122781938
1092.0,0.14086170270546927
1091.0,0.1410419452819942
1090.0,0.1408016384661226
1089.0,0.14026143380285316
1088.0,0.13936258322624528
1087.0,0.1381073096085541
1086.0,0.13655817138629134
1085.0,0.13501453934020602
1084.0,0.13341732293645103
1083.0,0.1316495003520317
1082.0,0.12953756841108
1081.0,0.12720296001040166
1080.0,0.12453358413361437
1079.0,0.12153565465853111
1078.0,0.11827306462358211
1077.0,0.114865033936566
1076.0,0.11131515334030118
1075.0,0.10757145305477
1074.0,0.10374943753836186
1073.0,0.10007011727213588
1072.0,0.09653017149282994
1071.0,0.09318028453345462
1070.0,0.08996287644694911
1069.0,0.08698131625203986
1068.0,0.08417821237960132
1067.0,0.08139308485501817
1066.0,0.07872981449018734
1065.0,0.07618627890881036
1064.0,0.07381195089279391
1063.0,0.07155293679081787
1062.0,0.06956040523329987
1061.0,0.0678307540792078
1060.0,0.0663102910421054
1059.0,0.06489597884855036
1058.0,0.0636873663378068
1057.0,0.06268275223750575
1056.0,0.06208109735221967
1055.0,0.061780582187257016
1054.0,0.06173051653708872
1053.0,0.06198090252378963
1052.0,0.06253226035662252
1051.0,0.06328524178879635
1050.0,0.06429125215733666
1049.0,0.0654005617819271
1048.0,0.0665127121512945
1047.0,0.0675769736232612
1046.0,0.0685421293109949
1045.0,0.06950943469373039
1044.0,0.07042782092345012
1043.0,0.07114346641808922
1042.0,0.07155293679081787
1041.0,0.0718090519612431
1040.0,0.07175781684269089
1039.0,0.07150173187630915
1038.0,0.07109230975604719
1037.0,0.07058107428570715
1036.0,0.06996838504902692
1035.0,0.06925467168888666
1034.0,0.0685421293109949
1033.0,0.0678307540792078
1032.0,0.06706985716921054
1031.0,0.06620911585658007
1030.0,0.06529959828457499
1029.0,0.06434161389936577
1028.0,0.06338573802478864
1027.0,0.06248210798265341
1026.0,0.061780582187257016
1025.0,0.061680456657844385
1024.0,0.06258241852286206
1023.0,0.06489597884855036
1022.0,0.06905096883247697
1021.0,0.07510073598571654
1020.0,0.08280969148843575
1019.0,0.09124698081546634
1018.0,0.09914149529800831
1017.0,0.10518567091669917
1016.0,0.10835105612944096
1015.0,0.10801676914803293
1014.0,0.1047432468551055
1013.0,0.09952362861074304
1012.0,0.0937727369476411
1011.0,0.08836306687055773
1010.0,0.08359869639612438
1009.0,0.07956359344924135
1008.0,0.0760310351245288
1007.0,0.07288638806623937
1006.0,0.07012147634321675
1005.0,0.06772922410050963
1004.0,0.06570359318059427
1003.0,0.06393888339001164
1002.0,0.062331685600995
1001.0,0.06098022355133348
1000.0,0.05983228596592505
999.0,0.05868737463933793
998.0,0.0575950591438934
997.0,0.05655495097496965
996.0,0.055566682299785564
995.0,0.054728418492290265
994.0,0.054088483180726676
993.0,0.05354773498692689
992.0,0.05305672930217464
991.0,0.05256627811294923
990.0,0.052027420754219955
989.0,0.05148923116234294
988.0,0.05100054597304693
987.0,0.0506099933550872
986.0,0.050317309204795935
985.0,0.050171041064686284
984.0,0.05002482217034632
983.0,0.04978123335813667
982.0,0.04953778109440221
981.0,0.04934311749548925
980.0,0.049245818406496555
979.0,0.04919717703534143
978.0,0.04909991063361274
977.0,0.04905128560059957
976.0,0.048954051864180226
975.0,0.048808242065293994
974.0,0.04871106272232795
973.0,0.0486139051197072
972.0,0.048468209457651845
971.0,0.04832256265669943
970.0,0.04803141550708934
969.0,0.047643522676209304
968.0,0.04715914332429838
967.0,0.04657860031896477
966.0,0.04595055323640551
965.0,0.04527520902093718
964.0,0.04469717723830824
963.0,0.044071843103049346
962.0,0.043495409683302455
961.0,0.04291974034210022
960.0,0.04229695845116854
959.0,0.041627267521392675
958.0,0.041006334969674096
957.0,0.040481623027001756
956.0,0.040005161671583744
955.0,0.03962436858984186
954.0,0.039338992729018196
953.0,0.03910132267333921
952.0,0.03886378261277468
951.0,0.03857890593355173
950.0,0.038199360808321536
949.0,0.03786753070176463
948.0,0.03753595394209874
947.0,0.037251946641359446
946.0,0.03692083935817303
945.0,0.03663723389626394
944.0,0.03630659476198117
943.0,0.03597620715996652
942.0,0.035646070707806565
941.0,0.03531618502395939
940.0,0.03498654972775217
939.0,0.03475124903287918
938.0,0.03461012978487776
937.0,0.034516075754861264
936.0,0.034469056377139484
935.0,0.03428102975577918
934.0,0.03399914237121604
933.0,0.03376437590141812
932.0,0.03357665405630694
931.0,0.03343591590268957
930.0,0.0332483359486222
929.0,0.0329671178412978
928.0,0.03263926003405038
927.0,0.03226486821611996
926.0,0.03189079887180224
925.0,0.031657169041054534
924.0,0.03151705144606498
923.0,0.03137697904301118
922.0,0.031143625385307683
921.0,0.030863766403287585
920.0,0.030490901403433135
919.0,0.030164906924202484
918.0,0.029885677714903025
917.0,0.029746130405213123
916.0,0.02969962459782227
915.0,0.029653123769906697
914.0,0.02969962459782227
913.0,0.029792641193145286
912.0,0.029978734171634214
911.0,0.03030458888152676
910.0,0.030770520137356927
909.0,0.03151705144606498
908.0,0.03240522732811035
907.0,0.03343591590268957
906.0,0.034516075754861264
905.0,0.03559892883726867
904.0,0.036779013477011624
903.0,0.03791491948264003
902.0,0.038911280232103884
901.0,0.03986232513620536
900.0,0.04072004986906119
899.0,0.041483896576958834
898.0,0.04210551278710151
897.0,0.04253638427006878
896.0,0.04282386959515394
895.0,0.04287180232318688
894.0,0.04282386959515394
893.0,0.04272802000705722
892.0,0.04268010314465909
891.0,0.042584285277331047
890.0,0.042584285277331047
889.0,0.04272802000705722
888.0,0.04301563225723992
887.0,0.04344740808260106
886.0,0.04397571771932274
885.0,0.04469717723830824
884.0,0.045612749855485024
883.0,0.04672366333269573
882.0,0.04807992647970649
881.0,0.04987865248862655
880.0,0.05207638016827354
879.0,0.05458065739693696
878.0,0.05724807957018618
877.0,0.060081579630943294
876.0,0.06298389253518577
875.0,0.06560255921901192
874.0,0.06767846801070698
873.0,0.0690000580438479
872.0,0.06945847013556561
871.0,0.0690000580438479
870.0,0.06772922410050963
869.0,0.06580465065211571
868.0,0.06343599486473406
867.0,0.06083032037482261
866.0,0.05824018618530458
865.0,0.05581353871631256
864.0,0.05369514500652506
863.0,0.05197846685889629
862.0,0.0506099933550872
861.0,0.04948910701400333
860.0,0.048565334467987054
859.0,0.0478374257855374
858.0,0.04725597598510167
857.0,0.04686877481655505
856.0,0.04657860031896477
855.0,0.04628861957244457
854.0,0.046047116768076934
853.0,0.04599883231842972
852.0,0.04609540658654021
851.0,0.04628861957244457
850.0,0.04643358574299339
849.0,0.046481918555007384
848.0,0.04643358574299339
847.0,0.04628861957244457
846.0,0.04609540658654021
845.0,0.046047116768076934
844.0,0.04609540658654021
843.0,0.046192002334692894
842.0,0.04628861957244457
841.0,0.046481918555007384
840.0,0.04657860031896477
839.0,0.046481918555007384
838.0,0.04624030826677128
837.0,0.04585401117045196
836.0,0.0454680573730859
835.0,0.04503426894157925
834.0,0.04455278942230456
833.0,0.04397571771932274
832.0,0.0433514207947967
831.0,0.04268010314465909
830.0,0.042057664554595586
829.0,0.04167506835594681
828.0,0.04138834223512067
827.0,0.041101805289228244
826.0,0.04072004986906119
825.0,0.040338629726504704
824.0,0.039909932095080425
823.0,0.03948165721929198
822.0,0.03914884628031379
821.0,0.03886378261277468
820.0,0.03862637240519895
819.0,0.038436537637930535
818.0,0.038199360808321536
817.0,0.03800971255993524
816.0,0.03786753070176463
815.0,0.03786753070176463
814.0,0.03800971255993524
813.0,0.038151940981675736
812.0,0.038199360808321536
811.0,0.03810452633214956
810.0,0.03791491948264003
809.0,0.03782014709123227
808.0,0.03786753070176463
807.0,0.03791491948264003
806.0,0.03782014709123227
805.0,0.03763066432997886
804.0,0.037346595106788616
803.0,0.03701541568300293
802.0,0.03663723389626394
801.0,0.03630659476198117
800.0,0.03616496929785207
799.0,0.036401037402758574
798.0,0.037251946641359446
797.0,0.038911280232103884
796.0,0.041149548320321694
795.0,0.0435434165901003
794.0,0.04537162249272897
793.0,0.04624030826677128
792.0,0.04609540658654021
791.0,0.04503426894157925
790.0,0.04344740808260106
789.0,0.04167506835594681
788.0,0.03995754427315856
787.0,0.038341651362284734
786.0,0.036873558918095295
785.0,0.03550466044490741
784.0,0.034187046963396917
783.0,0.032873418923587305
782.0,0.03161045815293173
781.0,0.030444315779156517
780.0,0.02932775731028059
779.0,0.028306761050139073
778.0,0.02738066094037661
777.0,0.02664120011360227
776.0,0.025995203102585407
775.0,0.025350165561278004
774.0,0.02461415101053266
773.0,0.023833499868024743
772.0,0.023054249440757957
771.0,0.02245929405346514
770.0,0.021956506090037076
769.0,0.021545566634771474
768.0,0.020907099361673565
767.0,0.02013307743509718
766.0,0.019360432556262852
765.0,0.018679826740892747
764.0,0.018045555530026514
763.0,0.017321806616515723
762.0,0.016509028184833463
761.0,0.015832872853011715
760.0,0.015292705517326866
759.0,0.014708281407112
758.0,0.014169510141607944
757.0,0.013631406429727155
756.0,0.013138729709955221
755.0,0.012512493866907004
754.0,0.011887159731648111
753.0,0.011351874764248926
752.0,0.010906307389674463
751.0,0.01046119667949763
750.0,0.009927665307847056
749.0,0.009527946474380489
748.0,0.00939478857608056
747.0,0.009572341514736404
746.0,0.010283280051895272
745.0,0.011619434777991433
744.0,0.013765869865004277
743.0,0.016824927962187042
742.0,0.021043834782408455
741.0,0.026733563891471412
740.0,0.03399914237121604
739.0,0.04272802000705722
738.0,0.05271335532220167
737.0,0.06378795567975115
736.0,0.07546228222451012
735.0,0.08719360733870762
734.0,0.09870518283443275
733.0,0.11025022473596224
732.0,0.12211057462851604
731.0,0.13436311230037123
730.0,0.1472151313194523
729.0,0.1607105439938532
728.0,0.17431429197824166
727.0,0.1871534630329288
726.0,0.1981162928747604
725.0,0.20600019901552957
724.0,0.20971483596675822
723.0,0.2081690523251638
722.0,0.20141840527145227
721.0,0.19064232978889417
720.0,0.1775703762206431
719.0,0.16399254087446846
718.0,0.15131834597604965
717.0,0.14014147951900724
716.0,0.1304749371427727
715.0,0.12211057462851604
714.0,0.11503480179926728
713.0,0.10946720807225518
712.0,0.10546241500425357
711.0,0.10237290870955862
710.0,0.09968750301627338
709.0,0.09718153191774648
708.0,0.09485199814398393
707.0,0.09274991711867164
706.0,0.09087205801073917
705.0,0.08900228368935714
704.0,0.0870343792958963
703.0,0.08470571697731355
702.0,0.0823369756726251
701.0,0.08034671768963575
700.0,0.07862570458152551
699.0,0.07665234350217442
698.0,0.07386342893255127
697.0,0.07058107428570715
696.0,0.06772922410050963
695.0,0.06565307326174441
694.0,0.06403953101083348
693.0,0.062331685600995
692.0,0.06063052992534024
691.0,0.05973260855398799
690.0,0.060081579630943294
689.0,0.06103020277710969
688.0,0.061380218497318895
687.0,0.06068046892176193
686.0,0.05943371350990989
685.0,0.0582898510583536
684.0,0.05734718830678798
683.0,0.05665390164340933
682.0,0.05630767289398331
681.0,0.056456022846545606
680.0,0.05665390164340933
679.0,0.05655495097496965
678.0,0.056406567231630955
677.0,0.05650548409389744
676.0,0.05650548409389744
675.0,0.05586292684190197
674.0,0.05462990550969615
673.0,0.05330216275425803
672.0,0.052468254304406825
671.0,0.05212534510230182
670.0,0.05222329153526162
669.0,0.05271335532220167
668.0,0.052027420754219955
667.0,0.04982994019179987
666.0,0.047934409814949674
665.0,0.04667530361081473
664.0,0.04570923829887308
663.0,0.044793462458058375
662.0,0.04411991377462465
661.0,0.04402377775167454
660.0,0.044456557540257124
659.0,0.044986096961949995
658.0,0.04513062893352182
657.0,0.044793462458058375
656.0,0.04387961360698034
655.0,0.04253638427006878
654.0,0.041149548320321694
653.0,0.0402909757535701
652.0,0.04010041213405646
651.0,0.04014804520039483
650.0,0.0400527842915015
649.0,0.039767126871487646
648.0,0.03952922246570112
647.0,0.039338992729018196
646.0,0.03910132267333921
645.0,0.038721320914956836
644.0,0.038199360808321536
643.0,0.03772539537668518
642.0,0.03744126420403626
641.0,0.03744126420403626
640.0,0.03763066432997886
639.0,0.03786753070176463
638.0,0.038341651362284734
637.0,0.03910132267333921
636.0,0.0402909757535701
635.0,0.04181850243505214
634.0,0.0437835307566099
633.0,0.045612749855485024
632.0,0.04628861957244457
631.0,0.045323413081356456
630.0,0.04359142880416744
629.0,0.04229695845116854
628.0,0.04196198390166317
627.0,0.04244059810252043
626.0,0.04344740808260106
625.0,0.044312249686494276
624.0,0.04440844959427559
623.0,0.0435434165901003
622.0,0.04224908912272074
621.0,0.04129280891271536
620.0,0.04057697805689475
619.0,0.03986232513620536
618.0,0.03919637508823026
617.0,0.03886378261277468
616.0,0.038721320914956836
615.0,0.03857890593355173
614.0,0.03862637240519895
613.0,0.039338992729018196
612.0,0.040243327009005014
611.0,0.04043395336207234
610.0,0.039719535563357944
609.0,0.03862637240519895
608.0,0.03753595394209874
607.0,0.03616496929785207
606.0,0.034469056377139484
605.0,0.032920265855503006
604.0,0.03184406285002961
603.0,0.03137697904301118
602.0,0.031563752288295444
601.0,0.03249882527715853
600.0,0.03362357691107709
