cm-1,A
4000.0,-0.001733712809000476
3999.0,-0.001733712809000476
3998.0,-0.001733712809000476
3997.0,-0.0016904542321527494
3996.0,-0.0016039241497978196
3995.0,-0.0015173768235041685
3994.0,-0.001474096691732818
3993.0,-0.001474096691732818
3992.0,-0.001474096691732818
3991.0,-0.0015173768235041685
3990.0,-0.0015606526425728795
3989.0,-0.0016471913460383014
3988.0,-0.0016904542321527494
3987.0,-0.0016904542321527494
3986.0,-0.0016471913460383014
3985.0,-0.0015173768235041685
3984.0,-0.0014308122463981832
3983.0,-0.001474096691732818
3982.0,-0.0015606526425728795
3981.0,-0.0016471913460383014
3980.0,-0.0016904542321527494
3979.0,-0.0016039241497978196
3978.0,-0.001474096691732818
3977.0,-0.001344230411601366
3976.0,-0.001257631312230778
3975.0,-0.00121432528617893
3974.0,-0.00121432528617893
3973.0,-0.001257631312230778
3972.0,-0.0013875234866409514
3971.0,-0.0015173768235041685
3970.0,-0.0016471913460383014
3969.0,-0.0016904542321527494
3968.0,-0.0016904542321527494
3967.0,-0.0016904542321527494
3966.0,-0.0016904542321527494
3965.0,-0.0016904542321527494
3964.0,-0.0016904542321527494
3963.0,-0.0016471913460383014
3962.0,-0.0016039241497978196
3961.0,-0.0015606526425728795
3960.0,-0.001474096691732818
3959.0,-0.0013875234866409514
3958.0,-0.001344230411601366
3957.0,-0.0013009330204178937
3956.0,-0.001344230411601366
3955.0,-0.0013875234866409514
3954.0,-0.0014308122463981832
3953.0,-0.0013875234866409514
3952.0,-0.0014308122463981832
3951.0,-0.0015173768235041685
3950.0,-0.0016471913460383014
3949.0,-0.001733712809000476
3948.0,-0.001776967077439462
3947.0,-0.001776967077439462
3946.0,-0.001733712809000476
3945.0,-0.001733712809000476
3944.0,-0.0016904542321527494
3943.0,-0.0016039241497978196
3942.0,-0.0015606526425728795
3941.0,-0.0015606526425728795
3940.0,-0.0015173768235041685
3939.0,-0.001474096691732818
3938.0,-0.001344230411601366
3937.0,-0.00121432528617893
3936.0,-0.0011710149414008164
3935.0,-0.00121432528617893
3934.0,-0.0014308122463981832
3933.0,-0.0016904542321527494
3932.0,-0.0018634626925240205
3931.0,-0.0019067040408846658
3930.0,-0.001776967077439462
3929.0,-0.0016039241497978196
3928.0,-0.001474096691732818
3927.0,-0.0014308122463981832
3926.0,-0.0015173768235041685
3925.0,-0.0016039241497978196
3924.0,-0.0016471913460383014
3923.0,-0.0016904542321527494
3922.0,-0.0016904542321527494
3921.0,-0.001733712809000476
3920.0,-0.001776967077439462
3919.0,-0.0018634626925240205
3918.0,-0.0019499410842680476
3917.0,-0.0019931738235303698
3916.0,-0.0019499410842680476
3915.0,-0.0018634626925240205
3914.0,-0.001776967077439462
3913.0,-0.0016904542321527494
3912.0,-0.0016039241497978196
3911.0,-0.0015606526425728795
3910.0,-0.0015173768235041685
3909.0,-0.0015606526425728795
3908.0,-0.0016039241497978196
3907.0,-0.001733712809000476
3906.0,-0.0018202170383281313
3905.0,-0.0019499410842680476
3904.0,-0.0021660617565077978
3903.0,-0.002338880892056583
3902.0,-0.0024252646779014952
3901.0,-0.0023820749327607693
3900.0,-0.0021660617565077978
3899.0,-0.0019067040408846658
3898.0,-0.001733712809000476
3897.0,-0.0016039241497978196
3896.0,-0.0015606526425728795
3895.0,-0.0016039241497978196
3894.0,-0.001733712809000476
3893.0,-0.0018634626925240205
3892.0,-0.0019499410842680476
3891.0,-0.0019931738235303698
3890.0,-0.0019931738235303698
3889.0,-0.0019499410842680476
3888.0,-0.0019499410842680476
3887.0,-0.0019931738235303698
3886.0,-0.0019931738235303698
3885.0,-0.0019931738235303698
3884.0,-0.0020364022595291686
3883.0,-0.0019931738235303698
3882.0,-0.0019067040408846658
3881.0,-0.0018202170383281313
3880.0,-0.0016904542321527494
3879.0,-0.0016471913460383014
3878.0,-0.0016039241497978196
3877.0,-0.0016039241497978196
3876.0,-0.0016471913460383014
3875.0,-0.001776967077439462
3874.0,-0.0019067040408846658
3873.0,-0.0020796263931210923
3872.0,-0.0021660617565077978
3871.0,-0.0021660617565077978
3870.0,-0.0021228462251614566
3869.0,-0.0021228462251614566
3868.0,-0.0021228462251614566
3867.0,-0.0021228462251614566
3866.0,-0.0020796263931210923
3865.0,-0.0020364022595291686
3864.0,-0.0019499410842680476
3863.0,-0.0019499410842680476
3862.0,-0.0019499410842680476
3861.0,-0.0019499410842680476
3860.0,-0.0019499410842680476
3859.0,-0.0019499410842680476
3858.0,-0.0020796263931210923
3857.0,-0.002338880892056583
3856.0,-0.0026411490000399773
3855.0,-0.0027274726898296464
3854.0,-0.0025548081484823015
3853.0,-0.0024252646779014952
3852.0,-0.002338880892056583
3851.0,-0.0021660617565077978
3850.0,-0.0019499410842680476
3849.0,-0.001776967077439462
3848.0,-0.0016471913460383014
3847.0,-0.0016471913460383014
3846.0,-0.0016471913460383014
3845.0,-0.0016904542321527494
3844.0,-0.0016904542321527494
3843.0,-0.0016471913460383014
3842.0,-0.0016471913460383014
3841.0,-0.0016904542321527494
3840.0,-0.001733712809000476
3839.0,-0.001776967077439462
3838.0,-0.0018202170383281313
3837.0,-0.0019067040408846658
3836.0,-0.0019931738235303698
3835.0,-0.0020796263931210923
3834.0,-0.0022092729880145434
3833.0,-0.0022956825549340643
3832.0,-0.0022092729880145434
3831.0,-0.0020364022595291686
3830.0,-0.0018634626925240205
3829.0,-0.001776967077439462
3828.0,-0.001733712809000476
3827.0,-0.0016904542321527494
3826.0,-0.0016039241497978196
3825.0,-0.0015173768235041685
3824.0,-0.0015173768235041685
3823.0,-0.0016039241497978196
3822.0,-0.0018202170383281313
3821.0,-0.0020364022595291686
3820.0,-0.0021228462251614566
3819.0,-0.0020364022595291686
3818.0,-0.0018634626925240205
3817.0,-0.0016471913460383014
3816.0,-0.0015606526425728795
3815.0,-0.0016039241497978196
3814.0,-0.0016471913460383014
3813.0,-0.0016904542321527494
3812.0,-0.0016904542321527494
3811.0,-0.0016904542321527494
3810.0,-0.001733712809000476
3809.0,-0.001776967077439462
3808.0,-0.0018634626925240205
3807.0,-0.0018634626925240205
3806.0,-0.0019067040408846658
3805.0,-0.0019067040408846658
3804.0,-0.0019067040408846658
3803.0,-0.0019067040408846658
3802.0,-0.0018634626925240205
3801.0,-0.0018202170383281313
3800.0,-0.001776967077439462
3799.0,-0.001733712809000476
3798.0,-0.0016471913460383014
3797.0,-0.0016039241497978196
3796.0,-0.0015606526425728795
3795.0,-0.0015606526425728795
3794.0,-0.0016039241497978196
3793.0,-0.0016471913460383014
3792.0,-0.0016904542321527494
3791.0,-0.001733712809000476
3790.0,-0.0016904542321527494
3789.0,-0.0016039241497978196
3788.0,-0.0015606526425728795
3787.0,-0.0015606526425728795
3786.0,-0.0015606526425728795
3785.0,-0.0015606526425728795
3784.0,-0.0015606526425728795
3783.0,-0.0015173768235041685
3782.0,-0.0015173768235041685
3781.0,-0.0015173768235041685
3780.0,-0.0014308122463981832
3779.0,-0.001344230411601366
3778.0,-0.001257631312230778
3777.0,-0.00121432528617893
3776.0,-0.00121432528617893
3775.0,-0.0013009330204178937
3774.0,-0.0013875234866409514
3773.0,-0.0015173768235041685
3772.0,-0.0016039241497978196
3771.0,-0.0016471913460383014
3770.0,-0.0016904542321527494
3769.0,-0.001776967077439462
3768.0,-0.0018634626925240205
3767.0,-0.0018634626925240205
3766.0,-0.001776967077439462
3765.0,-0.0016039241497978196
3764.0,-0.001474096691732818
3763.0,-0.0013875234866409514
3762.0,-0.001344230411601366
3761.0,-0.0013875234866409514
3760.0,-0.0015173768235041685
3759.0,-0.001733712809000476
3758.0,-0.0019067040408846658
3757.0,-0.0020364022595291686
3756.0,-0.0020364022595291686
3755.0,-0.0020364022595291686
3754.0,-0.0019067040408846658
3753.0,-0.001733712809000476
3752.0,-0.0015606526425728795
3751.0,-0.0015606526425728795
3750.0,-0.001776967077439462
3749.0,-0.0019499410842680476
3748.0,-0.0020364022595291686
3747.0,-0.0021228462251614566
3746.0,-0.0021228462251614566
3745.0,-0.0020796263931210923
3744.0,-0.0019931738235303698
3743.0,-0.0019499410842680476
3742.0,-0.0018634626925240205
3741.0,-0.0018634626925240205
3740.0,-0.0018634626925240205
3739.0,-0.0019067040408846658
3738.0,-0.0019499410842680476
3737.0,-0.0019499410842680476
3736.0,-0.0019931738235303698
3735.0,-0.0021228462251614566
3734.0,-0.0022092729880145434
3733.0,-0.0021660617565077978
3732.0,-0.0019499410842680476
3731.0,-0.0016904542321527494
3730.0,-0.001474096691732818
3729.0,-0.0013009330204178937
3728.0,-0.00121432528617893
3727.0,-0.00121432528617893
3726.0,-0.001344230411601366
3725.0,-0.0015173768235041685
3724.0,-0.0016039241497978196
3723.0,-0.0015173768235041685
3722.0,-0.0013009330204178937
3721.0,-0.0010843812922201046
3720.0,-0.0009110621312231615
3719.0,-0.0008677215312267172
3718.0,-0.0008243766056055257
3717.0,-0.0008243766056055257
3716.0,-0.0007810273534953893
3715.0,-0.0007810273534953893
3714.0,-0.0008243766056055257
3713.0,-0.0007810273534953893
3712.0,-0.0007376737740329986
3711.0,-0.0006943158663546001
3710.0,-0.0006509536295951079
3709.0,-0.0006509536295951079
3708.0,-0.0005642161653756084
3707.0,-0.0004774613744551459
3706.0,-0.0003472966853634851
3705.0,-0.00021709297223004853
3704.0,-8.685021164911433e-05
3703.0,0.0
3702.0,8.686758342868472e-05
3701.0,0.0001303078917322953
3700.0,0.00021720154586435392
3699.0,0.00030411258916074324
3698.0,0.00043451177401765406
3697.0,0.000521466320689834
3696.0,0.0006084382809090627
3695.0,0.0006954276616513155
3694.0,0.000869458712629001
3693.0,0.0010870956412141197
3692.0,0.001304841688344327
3691.0,0.0014791171649619628
3690.0,0.001609869681952425
3689.0,0.0016970599014589638
3688.0,0.0017842676290416026
3687.0,0.0018714928717336043
3686.0,0.0020023635919956817
3685.0,0.002089632653256679
3684.0,0.0022205691343961664
3683.0,0.002395212539545666
3682.0,0.002569926202528716
3681.0,0.002701007590486082
3680.0,0.0027884171674950053
3679.0,0.0027884171674950053
3678.0,0.0027884171674950053
3677.0,0.0029195645282691363
3676.0,0.0032257291386954545
3675.0,0.0035321097382827737
3674.0,0.003707281458678491
3673.0,0.003970171588923321
3672.0,0.004277078004534696
3671.0,0.004759798137184523
3670.0,0.005155150446602086
3669.0,0.005330978174470591
3668.0,0.005462895701502157
3667.0,0.005638848091999105
3666.0,0.005858888873877532
3665.0,0.006079041198713275
3664.0,0.006343371384537999
3663.0,0.00656376950238835
3662.0,0.006872514894289861
3661.0,0.007137328610972382
3660.0,0.007402303897961815
3659.0,0.007667440952535687
3658.0,0.007976972236149349
3657.0,0.008375265465994541
3656.0,0.008862564879688284
3655.0,0.009217308196862062
3654.0,0.009350411681145587
3653.0,0.009306039320248427
3652.0,0.009217308196862062
3651.0,0.009306039320248427
3650.0,0.00974996707218323
3649.0,0.01046119667949763
3648.0,0.01117359295472431
3647.0,0.011797899741219142
3646.0,0.012378417874516323
3645.0,0.012870232340102872
3644.0,0.013362604389846044
3643.0,0.01385553528947936
3642.0,0.014393916947563534
3641.0,0.014932966849499074
3640.0,0.01538268676325183
3639.0,0.01578783323856614
3638.0,0.016148281008528276
3637.0,0.01646391839700767
3636.0,0.016870075265299933
3635.0,0.017321806616515723
3634.0,0.01768353030793479
3633.0,0.017909760704207134
3632.0,0.017909760704207134
3631.0,0.01809082990920774
3630.0,0.018861217359339655
3629.0,0.02026956933771462
3628.0,0.02140867317992523
3627.0,0.02204787879853809
3626.0,0.02245929405346514
3625.0,0.02277955336461468
3624.0,0.023054249440757957
3623.0,0.023191662661933732
3622.0,0.023329119375188556
3621.0,0.023695883447997224
3620.0,0.024430342106337877
3619.0,0.025350165561278004
3618.0,0.02613355016462182
3617.0,0.02654885597506529
3616.0,0.026872146400301444
3615.0,0.02724191609646076
3614.0,0.027889771597169544
3613.0,0.02863136320857662
3612.0,0.02932775731028059
3611.0,0.029885677714903025
3610.0,0.030537492025363155
3609.0,0.03142366482450232
3608.0,0.03245202378113787
3607.0,0.033295223342125535
3606.0,0.03371743783253667
3605.0,0.033905220553829274
3604.0,0.03409308450480819
3603.0,0.03442204208947208
3602.0,0.03498654972775217
3601.0,0.03578752703018084
3600.0,0.03658998431977123
3599.0,0.03720463014276687
3598.0,0.03767802727041558
3597.0,0.038151940981675736
3596.0,0.03886378261277468
3595.0,0.03967194946985697
3594.0,0.040481623027001756
3593.0,0.040958607678906356
3592.0,0.041101805289228244
3591.0,0.041006334969674096
3590.0,0.04105406750606355
3589.0,0.04172287445230238
3588.0,0.0431115453499229
3587.0,0.04450467081587295
3586.0,0.04541983725624266
3585.0,0.04585401117045196
3584.0,0.046192002334692894
3583.0,0.04653025674659861
3582.0,0.04696554274964315
3581.0,0.04754660357696672
3580.0,0.048128442871635535
3579.0,0.04875964967565971
3578.0,0.04934311749548925
3577.0,0.049927370249842395
3576.0,0.050463626623857394
3575.0,0.05095170768433621
3574.0,0.05144033789103841
3573.0,0.05178270644002936
3572.0,0.05192951848105887
3571.0,0.0518316382728683
3570.0,0.051684859310652254
3569.0,0.05207638016827354
3568.0,0.053351266093323746
3567.0,0.05522131887649295
3566.0,0.05680236993107379
3565.0,0.05769424710410598
3564.0,0.05809122563440061
3563.0,0.0583891978463662
3562.0,0.058737090681050264
3561.0,0.05933412752417122
3560.0,0.06003170944866376
3559.0,0.06063052992534024
3558.0,0.06103020277710969
3557.0,0.06123017721688262
3556.0,0.06148027482350815
3555.0,0.06193081377661436
3554.0,0.06268275223750575
3553.0,0.06373765809652254
3552.0,0.06464390705442691
3551.0,0.06514819703433927
3550.0,0.06524912533642091
3549.0,0.06529959828457499
3548.0,0.06570359318059427
3547.0,0.06661395809694559
3546.0,0.06798309356579857
3545.0,0.06935655895783555
3544.0,0.07032568205141221
3543.0,0.07088774334533943
3542.0,0.07124579782334672
3541.0,0.07145053299833615
3540.0,0.07175781684269089
3539.0,0.07211658966929302
3538.0,0.07273231918911849
3537.0,0.07350321072677968
3536.0,0.07432700607875953
3535.0,0.07494587968815725
3534.0,0.07530729697981409
3533.0,0.07556563645676939
3532.0,0.07587584681417514
3531.0,0.0763933569825408
3530.0,0.0772226580712021
3529.0,0.0781575185941421
3528.0,0.079094395835976
3527.0,0.07987667370927598
3526.0,0.08045124103115198
3525.0,0.08102656950704579
3524.0,0.08175990977858505
3523.0,0.08259953204474924
3522.0,0.08328292240118751
3521.0,0.0838620168928248
3520.0,0.08438913733853282
3519.0,0.08502252755566908
3518.0,0.08576265223225898
3517.0,0.08655704514060414
3516.0,0.0872466963286771
3515.0,0.08788427092114603
3514.0,0.08841629901892434
3513.0,0.08884239126002336
3512.0,0.0892155652071629
3511.0,0.08969583193143116
3510.0,0.09039048950983108
3509.0,0.09130056764777605
3508.0,0.09215885741705532
3507.0,0.09269615116603047
3506.0,0.09307265269104414
3505.0,0.09361107884716913
3504.0,0.09452793807529569
3503.0,0.09571734235437201
3502.0,0.09680145295702158
3501.0,0.09750757884139638
3500.0,0.09794268919153337
3499.0,0.09832376867362447
3498.0,0.09886874864462802
3497.0,0.09968750301627338
3496.0,0.10067205012234592
3495.0,0.10154908080162528
3494.0,0.10226297465457268
3493.0,0.1028679566179056
3492.0,0.10341867249426717
3491.0,0.10408045468998406
3490.0,0.10479852522110678
3489.0,0.10557316203581202
3488.0,0.1063491830140364
3487.0,0.10718217569042365
3486.0,0.10784972209863586
3485.0,0.10835105612944096
3484.0,0.10890877353227624
3483.0,0.10969078310005154
3482.0,0.11069829749368965
3481.0,0.11182050608167504
3480.0,0.11277666863747693
3479.0,0.11345287660889425
3478.0,0.11390426756225258
3477.0,0.11441264381034388
3476.0,0.11509140583739286
3475.0,0.11599807523121286
3474.0,0.11690664142431006
3473.0,0.11781711236973003
3472.0,0.11872949607064243
3471.0,0.11952940719622163
3470.0,0.1202162199095842
3469.0,0.12090412049992727
3468.0,0.12165057778222454
3467.0,0.12234075588839133
3466.0,0.12303203256741524
3465.0,0.1236666709136196
3464.0,0.12430223801979201
3463.0,0.1251124891538875
3462.0,0.12604034525664676
3461.0,0.12697018793895576
3460.0,0.12784372725170723
3459.0,0.12866061890013913
3458.0,0.12953756841108
3457.0,0.13035765534840538
3456.0,0.1311205537629121
3455.0,0.13182595914036166
3454.0,0.13247358880025661
3453.0,0.13318119707395182
3452.0,0.13388996015562338
3451.0,0.1345998818206986
3450.0,0.13519237097385295
3449.0,0.13596381727422502
3448.0,0.13715334001706125
3447.0,0.13846558914096208
3446.0,0.13960209487268727
3445.0,0.14038142122781938
3444.0,0.1409217752530305
3443.0,0.1414628024303608
3442.0,0.14218522202899342
3441.0,0.14302956651750764
3440.0,0.1438755557576996
3439.0,0.14472319616990825
3438.0,0.1456332219591303
3437.0,0.1465451586319333
3436.0,0.14745901423020125
3435.0,0.14831368455757254
3434.0,0.1491088158640761
3433.0,0.1499667423102311
3432.0,0.15082636690117335
3431.0,0.15168769637271562
3430.0,0.15255073750082726
3429.0,0.15347733158371324
3428.0,0.15434394001645568
3427.0,0.15508812608785938
3426.0,0.15570925674565683
3425.0,0.1562068016740874
3424.0,0.15682953548010214
3423.0,0.15751557558842988
3422.0,0.15851539066460685
3421.0,0.15970566838856382
3420.0,0.16083631708534996
3419.0,0.1619068615544017
3418.0,0.16272729749769965
3417.0,0.16354928627984533
3416.0,0.16430942850757435
3415.0,0.16513442009996204
3414.0,0.16602462872009371
3413.0,0.16691666582165698
3412.0,0.16787445746599094
3411.0,0.16870625562299035
3410.0,0.16947548590274142
3409.0,0.17024608107502504
3408.0,0.17095366314681737
3407.0,0.17159792150840691
3406.0,0.17224313702138327
3405.0,0.17288931253398876
3404.0,0.17360121781238225
3403.0,0.1745089701205691
3402.0,0.17535358528164813
3401.0,0.17619984625012197
3400.0,0.1769172034671962
3399.0,0.17763574755845046
3398.0,0.17842097208799124
3397.0,0.17907641211868253
3396.0,0.17966715510059017
3395.0,0.18019293540924397
3394.0,0.18091692425629735
3393.0,0.18190613085336405
3392.0,0.18309616062433975
3391.0,0.1840903491132253
3390.0,0.18482086986058133
3389.0,0.18541948398968144
3388.0,0.18601892436352818
3387.0,0.18668594105416525
3386.0,0.18735398376688117
3385.0,0.188023055663046
3384.0,0.18869315991866387
3383.0,0.18936429972446267
3382.0,0.19003647828598602
3381.0,0.19070969882368427
3380.0,0.19131649087103075
3379.0,0.1920592787845008
3378.0,0.19273564472389304
3377.0,0.19341306567219707
3376.0,0.19395576425191186
3375.0,0.19456711186786002
3374.0,0.19517932127883775
3373.0,0.19586056766464965
3372.0,0.19654288435158618
3371.0,0.19708951058096025
3370.0,0.1976368256904526
3369.0,0.1981162928747604
3368.0,0.19866490432545336
3367.0,0.19928292171761486
3366.0,0.19983300979863605
3365.0,0.200246033588114
3364.0,0.20065945054641832
3363.0,0.20107326142279858
3362.0,0.20141840527145227
3361.0,0.20190206793751408
3360.0,0.20224787134928923
3359.0,0.20266319922465015
3358.0,0.20307892466983124
3357.0,0.2036338450224786
3356.0,0.20425897913075608
3355.0,0.20481541031757589
3354.0,0.20523320205917894
3353.0,0.2054422487452383
3352.0,0.20565139610391725
3351.0,0.20600019901552957
3350.0,0.20648899420714217
3349.0,0.20697834015401684
3348.0,0.20732821085843267
3347.0,0.20753826865304936
3346.0,0.2076783636484265
3345.0,0.20788859091283163
3344.0,0.20809891999042884
3343.0,0.20844969497266996
3342.0,0.2087305190897315
3341.0,0.20901152491118413
3340.0,0.2092927126723203
3339.0,0.20943337485392344
3338.0,0.20950372303289044
3337.0,0.20964445358561346
3336.0,0.20971483596675822
3335.0,0.20985563495709947
3334.0,0.20992605157369537
3333.0,0.20992605157369537
3332.0,0.20985563495709947
3331.0,0.20978522975602076
3330.0,0.20978522975602076
3329.0,0.20985563495709947
3328.0,0.20999647960951062
3327.0,0.2101373699536182
3326.0,0.21034879120659045
3325.0,0.2104897959097456
3324.0,0.21056031543282083
3323.0,0.21056031543282083
3322.0,0.21041928783557462
3321.0,0.21027830601907826
3320.0,0.2100669190682496
3319.0,0.20985563495709947
3318.0,0.20964445358561346
3317.0,0.20950372303289044
3316.0,0.20943337485392344
3315.0,0.20943337485392344
3314.0,0.20943337485392344
3313.0,0.20943337485392344
3312.0,0.2093630380682967
3311.0,0.2092223986623063
3310.0,0.2090818047854217
3309.0,0.2090818047854217
3308.0,0.2090818047854217
3307.0,0.2089412564081745
3306.0,0.2087305190897315
3305.0,0.20844969497266996
3304.0,0.2081690523251638
3303.0,0.20795868928791772
3302.0,0.20774842809673588
3301.0,0.2074682380986923
3300.0,0.20725821416525125
3299.0,0.20704829174986794
3298.0,0.2069083998234198
3297.0,0.20676855294347907
3296.0,0.2065588670223364
3295.0,0.206349282292827
3294.0,0.20606999322731534
3293.0,0.20586064423222616
3292.0,0.20572113427860006
3291.0,0.20558166912585896
3290.0,0.2054422487452383
3289.0,0.20523320205917894
3288.0,0.20502425594886842
3287.0,0.20481541031757589
3286.0,0.20453710560962013
3285.0,0.20425897913075608
3284.0,0.2040505010971967
3283.0,0.20384212309308558
3282.0,0.20370325994820848
3281.0,0.20342566678957041
3280.0,0.20314825095011302
3279.0,0.20280173016104097
3278.0,0.20252471246266568
3277.0,0.20231706508510094
3276.0,0.20210951694165114
3275.0,0.20197120659592693
3274.0,0.20183294028406085
3273.0,0.2016256233184388
3272.0,0.2014874669686484
3271.0,0.20128031481499375
3270.0,0.20107326142279858
3269.0,0.2009352806489919
3268.0,0.20072839165012724
3267.0,0.20059052038487324
3266.0,0.20045269287438483
3265.0,0.20038379551850105
3264.0,0.200246033588114
3263.0,0.20010831534313467
3262.0,0.19990181982522426
3261.0,0.19983300979863605
3260.0,0.19976421067264605
3259.0,0.19969542244380145
3258.0,0.19955787866374353
3257.0,0.19935164463601196
3256.0,0.19914550849643908
3255.0,0.19893947015214453
3254.0,0.19887081242029603
3253.0,0.19887081242029603
3252.0,0.19880216554085117
3251.0,0.198596289982645
3250.0,0.1983905119726812
3249.0,0.1981162928747604
3248.0,0.19784224681303852
3247.0,0.1977052886025361
3246.0,0.19777376230892996
3245.0,0.1979107421182673
3244.0,0.19797924822802404
3243.0,0.19784224681303852
3242.0,0.19756837356927637
3241.0,0.19722627470802445
3240.0,0.1969527895088714
3239.0,0.196747788569543
3238.0,0.19654288435158618
3237.0,0.19640633522865558
3236.0,0.1962698290254561
3235.0,0.1960651501361581
3234.0,0.19579239491795852
3233.0,0.19551981089400727
3232.0,0.19531548509305963
3231.0,0.19511125537760865
3230.0,0.19477108579657387
3229.0,0.19436323369406505
3228.0,0.19395576425191186
3227.0,0.1935486767527379
3226.0,0.1930742231162681
3225.0,0.19246497193114664
3224.0,0.19178902707577805
3223.0,0.1912490276504053
3222.0,0.19077707831057822
3221.0,0.19050762306265812
3220.0,0.19030564128307614
3219.0,0.19003647828598602
3218.0,0.1894986522334703
3217.0,0.18889439298206967
3216.0,0.188357978546849
3215.0,0.1878891587969005
3214.0,0.18748771571001743
3213.0,0.18681946741398825
3212.0,0.18608557995139652
3211.0,0.18541948398968144
3210.0,0.18482086986058133
3209.0,0.1842894602110372
3208.0,0.18369240056806024
3207.0,0.18302996224270052
3206.0,0.18230244523697592
3205.0,0.18170810920000413
3204.0,0.18111458540599013
3203.0,0.18052187163787736
3202.0,0.17979854051435984
3201.0,0.17907641211868253
3200.0,0.1784864715952268
3199.0,0.1778973313530796
3198.0,0.17737432122585917
3197.0,0.17685194018930606
3196.0,0.17619984625012197
3195.0,0.1755487299633871
3194.0,0.17483362774345035
3193.0,0.17405485679615196
3192.0,0.173212761183708
3191.0,0.17237229523256659
3190.0,0.1714689933548985
3189.0,0.1706318920111798
3188.0,0.16986061257465734
3187.0,0.16921892439363884
3186.0,0.16870625562299035
3185.0,0.16825816635436186
3184.0,0.16774662980299215
3183.0,0.16704424939540163
3182.0,0.1660882849286216
3181.0,0.16507090353942422
3180.0,0.16411926818260536
3179.0,0.16323295260579473
3178.0,0.1624115617644888
3177.0,0.16165473122400909
3176.0,0.16083631708534996
3175.0,0.1600194423216572
3174.0,0.15914144595812063
3173.0,0.15826522102525642
3172.0,0.157390760389438
3171.0,0.15645578805436489
3170.0,0.15552282425431851
3169.0,0.15471587365200845
3168.0,0.15391041964201602
3167.0,0.15310645668337486
3166.0,0.15224231160766877
3165.0,0.1513798825658661
3164.0,0.15058058620310066
3163.0,0.14978275820161047
3162.0,0.1489251947711132
3161.0,0.1480693213597324
3160.0,0.1472151313194523
3159.0,0.1463626180414057
3158.0,0.1456332219591303
3157.0,0.14490504884137811
3156.0,0.1441175699639643
3155.0,0.14333151638846497
3154.0,0.14248658522331015
3153.0,0.1415831222765116
3152.0,0.1407415825326932
3151.0,0.13984173868172167
3150.0,0.13894375542312654
3149.0,0.1380476250785483
3148.0,0.13709378643700187
3147.0,0.13620146131949973
3146.0,0.13531096586314884
3145.0,0.13442229258007088
3144.0,0.13365357725039817
3143.0,0.13294519952329842
3142.0,0.1322379753497993
3141.0,0.1314731132317961
3140.0,0.1306509192409071
3139.0,0.12977172098820566
3138.0,0.12889429901441463
3137.0,0.12796033202671375
3136.0,0.12714475529518965
3135.0,0.1263307072932056
3134.0,0.12569216687196105
3133.0,0.12517042212027807
3132.0,0.12459143992293642
3131.0,0.12389767862220635
3130.0,0.12303203256741524
3129.0,0.12211057462851604
3128.0,0.12119106764079435
3127.0,0.1203880929341492
3126.0,0.11958660012208333
3125.0,0.11878658374498086
3124.0,0.11804502866039956
3123.0,0.11730473761840288
3122.0,0.11662251025166115
3121.0,0.11582793047608719
3120.0,0.11503480179926728
3119.0,0.11424311893073247
3118.0,0.11339648571328764
3117.0,0.11260778102815316
3116.0,0.11182050608167504
3115.0,0.11109074073646874
3114.0,0.11041819785037621
3113.0,0.10974669484546551
3112.0,0.10907622851098608
3111.0,0.10840679565103484
3110.0,0.10768273927751948
3109.0,0.10701544928928342
3108.0,0.10623823794205656
3107.0,0.10540705207704448
3106.0,0.10457745396059215
3105.0,0.1038045895457893
3104.0,0.10308815917397474
3103.0,0.10242788617426934
3102.0,0.1017686154869033
3101.0,0.1012199867101744
3100.0,0.1005625457138224
3099.0,0.09990609845660159
3098.0,0.0990869322623309
3097.0,0.09832376867362447
3096.0,0.09767069414168117
3095.0,0.09707290398273716
3094.0,0.09653017149282994
3093.0,0.09593394808549704
3092.0,0.09533854208447545
3091.0,0.09463593123310776
3090.0,0.09393445524476318
3089.0,0.09323411045927221
3088.0,0.09248115389337075
3087.0,0.09183679994445204
3086.0,0.09124698081546634
3085.0,0.09065796163869155
3084.0,0.09012318200960712
3083.0,0.08953568400438638
3082.0,0.08889568219596411
3081.0,0.08820340956274775
3080.0,0.08761850108119962
3079.0,0.0870343792958963
3078.0,0.08655704514060414
3077.0,0.08608023504853413
3076.0,0.08555105930144569
3075.0,0.08491689834879956
3074.0,0.08423093401631587
3073.0,0.08354605145007499
3072.0,0.08291480935943274
3071.0,0.08228448344050654
3070.0,0.08170748724464438
3069.0,0.0812359689720008
3068.0,0.08076496207674921
3067.0,0.08024221949810584
3066.0,0.07966792846041071
3065.0,0.07904229404455076
3064.0,0.07841755960658348
3063.0,0.07784567476894111
3062.0,0.07732643214144574
3061.0,0.07675598136972361
3060.0,0.07623803917129979
3059.0,0.07572071393811841
3058.0,0.07520400420208784
3057.0,0.07473949048056472
3056.0,0.07432700607875953
3055.0,0.07381195089279391
3054.0,0.07329750581735506
3053.0,0.07268097504034388
3052.0,0.07211658966929302
3051.0,0.07160414774328627
3050.0,0.07109230975604719
3049.0,0.07058107428570715
3048.0,0.07001940948448526
3047.0,0.06945847013556561
3046.0,0.06879647454924775
3045.0,0.0681862960408608
3044.0,0.0675769736232612
3043.0,0.06706985716921054
3042.0,0.06656333217371957
3041.0,0.06605739725873905
3040.0,0.06550154875643233
3039.0,0.06489597884855036
3038.0,0.06429125215733666
3037.0,0.06373765809652254
3036.0,0.06323500239005853
3035.0,0.06283329628496737
3034.0,0.06243196139961715
3033.0,0.06203099704854709
3032.0,0.06163040254819374
3031.0,0.06128018521761747
3030.0,0.06093025007657582
3029.0,0.060530669156469985
3028.0,0.060081579630943294
3027.0,0.05963295401433477
3026.0,0.05918479134919874
3025.0,0.058786812414678646
3024.0,0.0583891978463662
3023.0,0.05794231615860479
3022.0,0.05754547365752294
3021.0,0.0571489934456626
3020.0,0.05680236993107379
3019.0,0.05655495097496965
3018.0,0.05635711724787096
3017.0,0.056159373598738904
3016.0,0.055912320584565744
3015.0,0.05561604235915585
3014.0,0.055270639696704205
3013.0,0.0549255115212699
3012.0,0.054679159207724926
3011.0,0.05443294655761144
3010.0,0.05423607688882637
3009.0,0.05403929642243144
3008.0,0.05374429280060267
3007.0,0.0534986094304124
3006.0,0.05325306496641513
3005.0,0.05300765925162776
3004.0,0.05286048235717078
3003.0,0.05266432405126009
3002.0,0.05237025261564554
3001.0,0.05207638016827354
3000.0,0.05178270644002936
2999.0,0.05144033789103841
2998.0,0.05114709380028648
2997.0,0.050805225762017736
2996.0,0.05056119896349576
2995.0,0.050317309204795935
2994.0,0.050073556332087765
2993.0,0.049927370249842395
2992.0,0.04982994019179987
2991.0,0.04978123335813667
2990.0,0.04963514562387683
2989.0,0.04939177521576932
2988.0,0.04909991063361274
2987.0,0.048808242065293994
2986.0,0.048565334467987054
2985.0,0.04832256265669943
2984.0,0.04807992647970649
2983.0,0.047885915093007325
2982.0,0.04774046340917959
2981.0,0.047595060422975566
2980.0,0.04740126547022694
2979.0,0.04715914332429838
2978.0,0.0469171560879138
2977.0,0.04677202844014605
2976.0,0.04677202844014605
2975.0,0.04682039893436585
2974.0,0.04686877481655505
2973.0,0.04686877481655505
2972.0,0.04677202844014605
2971.0,0.04667530361081473
2970.0,0.04657860031896477
2969.0,0.046481918555007384
2968.0,0.04638525830935958
2967.0,0.04624030826677128
2966.0,0.046143701775014145
2965.0,0.046143701775014145
2964.0,0.046192002334692894
2963.0,0.04628861957244457
2962.0,0.04624030826677128
2961.0,0.04609540658654021
2960.0,0.045902279520810385
2959.0,0.04570923829887308
2958.0,0.045516282844447975
2957.0,0.04537162249272897
2956.0,0.0451788169482068
2955.0,0.04488976902944808
2954.0,0.04455278942230456
2953.0,0.04426415772233416
2952.0,0.04402377775167454
2951.0,0.043735497301724546
2950.0,0.04339941178682327
2949.0,0.043063586155803746
2948.0,0.04272802000705722
2947.0,0.042392712939904875
2946.0,0.04200982159316968
2945.0,0.041579471947481794
2944.0,0.041101805289228244
2943.0,0.04062466342415694
2942.0,0.04014804520039483
2941.0,0.039719535563357944
2940.0,0.039338992729018196
2939.0,0.039006291057664066
2938.0,0.038673844065289176
2937.0,0.038341651362284734
2936.0,0.03800971255993524
2935.0,0.03772539537668518
2934.0,0.03753595394209874
2933.0,0.037299268295658994
2932.0,0.0371100126082089
2931.0,0.036873558918095295
2930.0,0.03663723389626394
2929.0,0.03635381351515665
2928.0,0.036117771071222604
2927.0,0.03592902944204468
2926.0,0.03578752703018084
2925.0,0.03559892883726867
2924.0,0.03541041251009669
2923.0,0.03517488211661135
2922.0,0.0349394793888016
2921.0,0.03465716443937783
2920.0,0.03442204208947208
2919.0,0.03414006319292828
2918.0,0.033905220553829274
2917.0,0.03371743783253667
2916.0,0.033482823553208085
2915.0,0.0332483359486222
2914.0,0.03301397488206215
2913.0,0.03282657704446046
2912.0,0.03263926003405038
2911.0,0.03249882527715853
2910.0,0.032311649546687526
2909.0,0.032124554451966825
2908.0,0.031984286006358165
2907.0,0.03184406285002961
2906.0,0.03170388495374454
2905.0,0.031563752288295444
2904.0,0.03142366482450232
2903.0,0.03128362253321426
2902.0,0.031096969696171817
2901.0,0.030910397045078586
2900.0,0.0307239045110681
2899.0,0.030490901403433135
2898.0,0.03025802323714588
2897.0,0.03002526987828502
2896.0,0.029885677714903025
2895.0,0.029839156962686353
2894.0,0.029792641193145286
2893.0,0.029746130405213123
2892.0,0.02969962459782227
2891.0,0.029560137048236124
2890.0,0.029374223311705583
2889.0,0.029188389127482228
2888.0,0.029002634427514717
2887.0,0.028863370523193765
2886.0,0.02872415126189476
2885.0,0.02863136320857662
2884.0,0.02849221828874393
2883.0,0.028353117935693284
2882.0,0.02812138297373412
2881.0,0.027843464140506313
2880.0,0.027565723042634938
2879.0,0.02738066094037661
2878.0,0.027149444152769986
2877.0,0.02696455931306696
2876.0,0.026733563891471412
2875.0,0.026502691267936695
2874.0,0.026318081496016443
2873.0,0.02613355016462182
2872.0,0.025995203102585407
2871.0,0.025949097207122573
2870.0,0.025856900097785074
2869.0,0.025764722556973707
2868.0,0.02558042614771394
2867.0,0.025350165561278004
2866.0,0.02516604495145991
2865.0,0.02498200236711723
2864.0,0.02484402159331056
2863.0,0.024798037742147727
2862.0,0.024660115394541604
2861.0,0.024568191490736968
2860.0,0.024476287039668643
2859.0,0.024338466818941473
2858.0,0.024200690320592466
2857.0,0.02406295751688936
2856.0,0.023971159908874107
2855.0,0.023879381700184332
2854.0,0.023787622882622816
2853.0,0.023695883447997224
2852.0,0.02351246269481
2851.0,0.023283295636617574
2850.0,0.023054249440757957
2849.0,0.02282532397981263
2848.0,0.02259651912656535
2847.0,0.022367834754000393
2846.0,0.022093572362881675
2845.0,0.021819483062586187
2844.0,0.021545566634771474
2843.0,0.021317434843055594
2842.0,0.021135015652343103
2841.0,0.0209982515252789
2840.0,0.02081596632558158
2839.0,0.02058821736556471
2838.0,0.02036058777709271
2837.0,0.020087589665283012
2836.0,0.019860222254245663
2835.0,0.019678413991243593
2834.0,0.01949668180660491
2833.0,0.019315025636685412
2832.0,0.019178833355664393
2831.0,0.019042683770379876
2830.0,0.01899731005860028
2829.0,0.018951941086827073
2828.0,0.018861217359339655
2827.0,0.018725167293411005
2826.0,0.018543833477873584
2825.0,0.018362575344230914
2824.0,0.018226681372252695
2823.0,0.018181392829336396
2822.0,0.01809082990920774
2821.0,0.01800028587012159
2820.0,0.017864505196230507
2819.0,0.01768353030793479
2818.0,0.017502630802287644
2817.0,0.017367005605150476
2816.0,0.01727661233145472
2815.0,0.01727661233145472
2814.0,0.01727661233145472
2813.0,0.017231422748988034
2812.0,0.017186237868137555
2811.0,0.017141057687924732
2810.0,0.017141057687924732
2809.0,0.017050711425501408
2808.0,0.016960383953898095
2807.0,0.01677978535189717
2806.0,0.016599261819461697
2805.0,0.016509028184833463
2804.0,0.016509028184833463
2803.0,0.016509028184833463
2802.0,0.016509028184833463
2801.0,0.016418813294209356
2800.0,0.016373712875465518
2799.0,0.016238439713835096
2798.0,0.016103208673694303
2797.0,0.015922966097169144
2796.0,0.01578783323856614
2795.0,0.015742798294583915
2794.0,0.015697768020096703
2793.0,0.015697768020096703
2792.0,0.015697768020096703
2791.0,0.015652742414136167
2790.0,0.015652742414136167
2789.0,0.015607721475734415
2788.0,0.015562705203923999
2787.0,0.015562705203923999
2786.0,0.015517693597737248
2785.0,0.01547268665620738
2784.0,0.015337693809893471
2783.0,0.015202742910707112
2782.0,0.015022873584506602
2781.0,0.014977917890464765
2780.0,0.014888020460646079
2779.0,0.014843078722943437
2778.0,0.014753209197138295
2777.0,0.014663358264387139
2776.0,0.014573525916998342
2775.0,0.01452861671041239
2774.0,0.0144837121472845
2773.0,0.0144837121472845
2772.0,0.014438812226654996
2771.0,0.014438812226654996
2770.0,0.014438812226654996
2769.0,0.0144837121472845
2768.0,0.0144837121472845
2767.0,0.014438812226654996
2766.0,0.014259258949925524
2765.0,0.014124642691606404
2764.0,0.013990068146738865
2763.0,0.013900374944870508
2762.0,0.013900374944870508
2761.0,0.013900374944870508
2760.0,0.013900374944870508
2759.0,0.01385553528947936
2758.0,0.013765869865004277
2757.0,0.013631406429727155
2756.0,0.013496984613259544
2755.0,0.013362604389846044
2754.0,0.013317820220494436
2753.0,0.013362604389846044
2752.0,0.013452186585275916
2751.0,0.013541787262693505
2750.0,0.013586594534531482
2749.0,0.013541787262693505
2748.0,0.013452186585275916
2747.0,0.013362604389846044
2746.0,0.01322826573375524
2745.0,0.013138729709955221
2744.0,0.013049212141483357
2743.0,0.012959713020733288
2742.0,0.012914970375878188
2741.0,0.012914970375878188
2740.0,0.012914970375878188
2739.0,0.012959713020733288
2738.0,0.013049212141483357
2737.0,0.013049212141483357
2736.0,0.013004460275618523
2735.0,0.012959713020733288
2734.0,0.012870232340102872
2733.0,0.012780770091995297
2732.0,0.012691326268817527
2731.0,0.012557195064198723
2730.0,0.012423105273012602
2729.0,0.012289056869694281
2728.0,0.012199714248127602
2727.0,0.01215504982870197
2726.0,0.01215504982870197
2725.0,0.012199714248127602
2724.0,0.012199714248127602
2723.0,0.01215504982870197
2722.0,0.012110390002254778
2721.0,0.012065734767841452
2720.0,0.0119764380713403
2719.0,0.011887159731648111
2718.0,0.011797899741219142
2717.0,0.011753276624621556
2716.0,0.011753276624621556
2715.0,0.011797899741219142
2714.0,0.011842527443247208
2713.0,0.011842527443247208
2712.0,0.011842527443247208
2711.0,0.011797899741219142
2710.0,0.011708658092512314
2709.0,0.011619434777991433
2708.0,0.011574829993696856
2707.0,0.011485634166333858
2706.0,0.011441043121384498
2705.0,0.011396456654336085
2704.0,0.011351874764248926
2703.0,0.011351874764248926
2702.0,0.011351874764248926
2701.0,0.011262724711199823
2700.0,0.01117359295472431
2699.0,0.011084479487313281
2698.0,0.010995384301463185
2697.0,0.010995384301463185
2696.0,0.010950843561779777
2695.0,0.010906307389674463
2694.0,0.010817248744452446
2693.0,0.01077272626946324
2692.0,0.01077272626946324
2691.0,0.010817248744452446
2690.0,0.010817248744452446
2689.0,0.01077272626946324
2688.0,0.010683695010048622
2687.0,0.010594681998483901
2686.0,0.010594681998483901
2685.0,0.010639186223752484
2684.0,0.010728208358306901
2683.0,0.010728208358306901
2682.0,0.010683695010048622
2681.0,0.010683695010048622
2680.0,0.010639186223752484
2679.0,0.010550182333308289
2678.0,0.01046119667949763
2677.0,0.01037222925484893
2676.0,0.010327752376126709
2675.0,0.010327752376126709
2674.0,0.010327752376126709
2673.0,0.010283280051895272
2672.0,0.010194349063173958
2671.0,0.010149890396819572
2670.0,0.010149890396819572
2669.0,0.010194349063173958
2668.0,0.01023881228122181
2667.0,0.01023881228122181
2666.0,0.010194349063173958
2665.0,0.010105436281226954
2664.0,0.010060986715464404
2663.0,0.01001654169860089
2662.0,0.009972101229705377
2661.0,0.009927665307847056
2660.0,0.009883233932095559
2659.0,0.009838807101520963
2658.0,0.009794384815193347
2657.0,0.009794384815193347
2656.0,0.009794384815193347
2655.0,0.009794384815193347
2654.0,0.009794384815193347
2653.0,0.00974996707218323
2652.0,0.009705553871561357
2651.0,0.00966114521239847
2650.0,0.00966114521239847
2649.0,0.009705553871561357
2648.0,0.009794384815193347
2647.0,0.009838807101520963
2646.0,0.009794384815193347
2645.0,0.009705553871561357
2644.0,0.009616741093766423
2643.0,0.009572341514736404
2642.0,0.009527946474380489
2641.0,0.009616741093766423
2640.0,0.009705553871561357
2639.0,0.009794384815193347
2638.0,0.009838807101520963
2637.0,0.00974996707218323
2636.0,0.00966114521239847
2635.0,0.009616741093766423
2634.0,0.009527946474380489
2633.0,0.009483555971770974
2632.0,0.009483555971770974
2631.0,0.009527946474380489
2630.0,0.009572341514736404
2629.0,0.009616741093766423
2628.0,0.009616741093766423
2627.0,0.009572341514736404
2626.0,0.009483555971770974
2625.0,0.00939478857608056
2624.0,0.009306039320248427
2623.0,0.009350411681145587
2622.0,0.009439170005980158
2621.0,0.009572341514736404
2620.0,0.00966114521239847
2619.0,0.009705553871561357
2618.0,0.009616741093766423
2617.0,0.009527946474380489
2616.0,0.009439170005980158
2615.0,0.009350411681145587
2614.0,0.009261671492462709
2613.0,0.009172949432521227
2612.0,0.009172949432521227
2611.0,0.009128595198514056
2610.0,0.009128595198514056
2609.0,0.009128595198514056
2608.0,0.009128595198514056
2607.0,0.009128595198514056
2606.0,0.009172949432521227
2605.0,0.009172949432521227
2604.0,0.009217308196862062
2603.0,0.009217308196862062
2602.0,0.009217308196862062
2601.0,0.009172949432521227
2600.0,0.009172949432521227
2599.0,0.009172949432521227
2598.0,0.009172949432521227
2597.0,0.009172949432521227
2596.0,0.009217308196862062
2595.0,0.009217308196862062
2594.0,0.009261671492462709
2593.0,0.009217308196862062
2592.0,0.009172949432521227
2591.0,0.00908424549391551
2590.0,0.008995559669244813
2589.0,0.008995559669244813
2588.0,0.009039900317800775
2587.0,0.00908424549391551
2586.0,0.009128595198514056
2585.0,0.009128595198514056
2584.0,0.009039900317800775
2583.0,0.008995559669244813
2582.0,0.008951223547323472
2581.0,0.008951223547323472
2580.0,0.008995559669244813
2579.0,0.008995559669244813
2578.0,0.008995559669244813
2577.0,0.008995559669244813
2576.0,0.008995559669244813
2575.0,0.008995559669244813
2574.0,0.008995559669244813
2573.0,0.008995559669244813
2572.0,0.009039900317800775
2571.0,0.009128595198514056
2570.0,0.009217308196862062
2569.0,0.009261671492462709
2568.0,0.009217308196862062
2567.0,0.009172949432521227
2566.0,0.00908424549391551
2565.0,0.009039900317800775
2564.0,0.008995559669244813
2563.0,0.008995559669244813
2562.0,0.009039900317800775
2561.0,0.00908424549391551
2560.0,0.009128595198514056
2559.0,0.009128595198514056
2558.0,0.00908424549391551
2557.0,0.009039900317800775
2556.0,0.008995559669244813
2555.0,0.009039900317800775
2554.0,0.00908424549391551
2553.0,0.009172949432521227
2552.0,0.009217308196862062
2551.0,0.009217308196862062
2550.0,0.009128595198514056
2549.0,0.00908424549391551
2548.0,0.00908424549391551
2547.0,0.00908424549391551
2546.0,0.009128595198514056
2545.0,0.009128595198514056
2544.0,0.009172949432521227
2543.0,0.009128595198514056
2542.0,0.009128595198514056
2541.0,0.00908424549391551
2540.0,0.009128595198514056
2539.0,0.009128595198514056
2538.0,0.009128595198514056
2537.0,0.009128595198514056
2536.0,0.009128595198514056
2535.0,0.00908424549391551
2534.0,0.00908424549391551
2533.0,0.009172949432521227
2532.0,0.009261671492462709
2531.0,0.009306039320248427
2530.0,0.009261671492462709
2529.0,0.009172949432521227
2528.0,0.00908424549391551
2527.0,0.009039900317800775
2526.0,0.009039900317800775
2525.0,0.009128595198514056
2524.0,0.009172949432521227
2523.0,0.009261671492462709
2522.0,0.009306039320248427
2521.0,0.009306039320248427
2520.0,0.009306039320248427
2519.0,0.009217308196862062
2518.0,0.009172949432521227
2517.0,0.00908424549391551
2516.0,0.009039900317800775
2515.0,0.009039900317800775
2514.0,0.009128595198514056
2513.0,0.009217308196862062
2512.0,0.009350411681145587
2511.0,0.009483555971770974
2510.0,0.009616741093766423
2509.0,0.00966114521239847
2508.0,0.009616741093766423
2507.0,0.009572341514736404
2506.0,0.009483555971770974
2505.0,0.00939478857608056
2504.0,0.00939478857608056
2503.0,0.009439170005980158
2502.0,0.009483555971770974
2501.0,0.009527946474380489
2500.0,0.009527946474380489
2499.0,0.009483555971770974
2498.0,0.009439170005980158
2497.0,0.009439170005980158
2496.0,0.009439170005980158
2495.0,0.009483555971770974
2494.0,0.009572341514736404
2493.0,0.009616741093766423
2492.0,0.009705553871561357
2491.0,0.009705553871561357
2490.0,0.009616741093766423
2489.0,0.009527946474380489
2488.0,0.009439170005980158
2487.0,0.009439170005980158
2486.0,0.009483555971770974
2485.0,0.009527946474380489
2484.0,0.009572341514736404
2483.0,0.009527946474380489
2482.0,0.009483555971770974
2481.0,0.009439170005980158
2480.0,0.009439170005980158
2479.0,0.009439170005980158
2478.0,0.009483555971770974
2477.0,0.009527946474380489
2476.0,0.009527946474380489
2475.0,0.009527946474380489
2474.0,0.009483555971770974
2473.0,0.009483555971770974
2472.0,0.009483555971770974
2471.0,0.009527946474380489
2470.0,0.009616741093766423
2469.0,0.009705553871561357
2468.0,0.009838807101520963
2467.0,0.009927665307847056
2466.0,0.009927665307847056
2465.0,0.009927665307847056
2464.0,0.009927665307847056
2463.0,0.009883233932095559
2462.0,0.009883233932095559
2461.0,0.009838807101520963
2460.0,0.009794384815193347
2459.0,0.009705553871561357
2458.0,0.009705553871561357
2457.0,0.009794384815193347
2456.0,0.009883233932095559
2455.0,0.009972101229705377
2454.0,0.01001654169860089
2453.0,0.009972101229705377
2452.0,0.009972101229705377
2451.0,0.009927665307847056
2450.0,0.009927665307847056
2449.0,0.009927665307847056
2448.0,0.01001654169860089
2447.0,0.010060986715464404
2446.0,0.010105436281226954
2445.0,0.010105436281226954
2444.0,0.010149890396819572
2443.0,0.010149890396819572
2442.0,0.010105436281226954
2441.0,0.010149890396819572
2440.0,0.01023881228122181
2439.0,0.01037222925484893
2438.0,0.010416710688994968
2437.0,0.010416710688994968
2436.0,0.010416710688994968
2435.0,0.010416710688994968
2434.0,0.010416710688994968
2433.0,0.010416710688994968
2432.0,0.010416710688994968
2431.0,0.01046119667949763
2430.0,0.01046119667949763
2429.0,0.010505687227290839
2428.0,0.010550182333308289
2427.0,0.010594681998483901
2426.0,0.010594681998483901
2425.0,0.010594681998483901
2424.0,0.010639186223752484
2423.0,0.01077272626946324
2422.0,0.010906307389674463
2421.0,0.011039929609661936
2420.0,0.01117359295472431
2419.0,0.011218156546359825
2418.0,0.011218156546359825
2417.0,0.011218156546359825
2416.0,0.01117359295472431
2415.0,0.011129033935354915
2414.0,0.011084479487313281
2413.0,0.011084479487313281
2412.0,0.011129033935354915
2411.0,0.011129033935354915
2410.0,0.01117359295472431
2409.0,0.011262724711199823
2408.0,0.011351874764248926
2407.0,0.011485634166333858
2406.0,0.011530229790124524
2405.0,0.011619434777991433
2404.0,0.011664044143949504
2403.0,0.011664044143949504
2402.0,0.011574829993696856
2401.0,0.011530229790124524
2400.0,0.011530229790124524
2399.0,0.011619434777991433
2398.0,0.011753276624621556
2397.0,0.0119764380713403
2396.0,0.012110390002254778
2395.0,0.012199714248127602
2394.0,0.012199714248127602
2393.0,0.012199714248127602
2392.0,0.01215504982870197
2391.0,0.01215504982870197
2390.0,0.012110390002254778
2389.0,0.012065734767841452
2388.0,0.012021084124518078
2387.0,0.0119764380713403
2386.0,0.011931796607364653
2385.0,0.011931796607364653
2384.0,0.011931796607364653
2383.0,0.011842527443247208
2382.0,0.011619434777991433
2381.0,0.011307297450183107
2380.0,0.010950843561779777
2379.0,0.010683695010048622
2378.0,0.010639186223752484
2377.0,0.01077272626946324
2376.0,0.011039929609661936
2375.0,0.011351874764248926
2374.0,0.011530229790124524
2373.0,0.011619434777991433
2372.0,0.011530229790124524
2371.0,0.01117359295472431
2370.0,0.010550182333308289
2369.0,0.009927665307847056
2368.0,0.009838807101520963
2367.0,0.010683695010048622
2366.0,0.012199714248127602
2365.0,0.013452186585275916
2364.0,0.013765869865004277
2363.0,0.013049212141483357
2362.0,0.012021084124518078
2361.0,0.011262724711199823
2360.0,0.01077272626946324
2359.0,0.010594681998483901
2358.0,0.010683695010048622
2357.0,0.010995384301463185
2356.0,0.011218156546359825
2355.0,0.011218156546359825
2354.0,0.011129033935354915
2353.0,0.011129033935354915
2352.0,0.011262724711199823
2351.0,0.011351874764248926
2350.0,0.011351874764248926
2349.0,0.011307297450183107
2348.0,0.011396456654336085
2347.0,0.011708658092512314
2346.0,0.01215504982870197
2345.0,0.012378417874516323
2344.0,0.01215504982870197
2343.0,0.011842527443247208
2342.0,0.011797899741219142
2341.0,0.011842527443247208
2340.0,0.011530229790124524
2339.0,0.01086177578421088
2338.0,0.010060986715464404
2337.0,0.009572341514736404
2336.0,0.00939478857608056
2335.0,0.009483555971770974
2334.0,0.009572341514736404
2333.0,0.009705553871561357
2332.0,0.009838807101520963
2331.0,0.010194349063173958
2330.0,0.010817248744452446
2329.0,0.011753276624621556
2328.0,0.012557195064198723
2327.0,0.013004460275618523
2326.0,0.013049212141483357
2325.0,0.013004460275618523
2324.0,0.013049212141483357
2323.0,0.013138729709955221
2322.0,0.01318349541446362
2321.0,0.013273040668781544
2320.0,0.013407393177789162
2319.0,0.013541787262693505
2318.0,0.013631406429727155
2317.0,0.013676222949234651
2316.0,0.013631406429727155
2315.0,0.013541787262693505
2314.0,0.013452186585275916
2313.0,0.013317820220494436
2312.0,0.01322826573375524
2311.0,0.013138729709955221
2310.0,0.013093968619278806
2309.0,0.01318349541446362
2308.0,0.013273040668781544
2307.0,0.013317820220494436
2306.0,0.013273040668781544
2305.0,0.01322826573375524
2304.0,0.01322826573375524
2303.0,0.013362604389846044
2302.0,0.013496984613259544
2301.0,0.013586594534531482
2300.0,0.013631406429727155
2299.0,0.013676222949234651
2298.0,0.013676222949234651
2297.0,0.01372104409400876
2296.0,0.013765869865004277
2295.0,0.01372104409400876
2294.0,0.013676222949234651
2293.0,0.013676222949234651
2292.0,0.013676222949234651
2291.0,0.013676222949234651
2290.0,0.013676222949234651
2289.0,0.013676222949234651
2288.0,0.013631406429727155
2287.0,0.013676222949234651
2286.0,0.01372104409400876
2285.0,0.013765869865004277
2284.0,0.01372104409400876
2283.0,0.013676222949234651
2282.0,0.013631406429727155
2281.0,0.013631406429727155
2280.0,0.013676222949234651
2279.0,0.01372104409400876
2278.0,0.013765869865004277
2277.0,0.013765869865004277
2276.0,0.01372104409400876
2275.0,0.013676222949234651
2274.0,0.013541787262693505
2273.0,0.013407393177789162
2272.0,0.013362604389846044
2271.0,0.013317820220494436
2270.0,0.013362604389846044
2269.0,0.013452186585275916
2268.0,0.013541787262693505
2267.0,0.013586594534531482
2266.0,0.013631406429727155
2265.0,0.013631406429727155
2264.0,0.013631406429727155
2263.0,0.013631406429727155
2262.0,0.013631406429727155
2261.0,0.013631406429727155
2260.0,0.013631406429727155
2259.0,0.013631406429727155
2258.0,0.013631406429727155
2257.0,0.013586594534531482
2256.0,0.013496984613259544
2255.0,0.013407393177789162
2254.0,0.013317820220494436
2253.0,0.013317820220494436
2252.0,0.013317820220494436
2251.0,0.013317820220494436
2250.0,0.013317820220494436
2249.0,0.013362604389846044
2248.0,0.013407393177789162
2247.0,0.013407393177789162
2246.0,0.013452186585275916
2245.0,0.013452186585275916
2244.0,0.013452186585275916
2243.0,0.013407393177789162
2242.0,0.013362604389846044
2241.0,0.01322826573375524
2240.0,0.013138729709955221
2239.0,0.013093968619278806
2238.0,0.013138729709955221
2237.0,0.01318349541446362
2236.0,0.01322826573375524
2235.0,0.01322826573375524
2234.0,0.01318349541446362
2233.0,0.01318349541446362
2232.0,0.01318349541446362
2231.0,0.01322826573375524
2230.0,0.01322826573375524
2229.0,0.013273040668781544
2228.0,0.013317820220494436
2227.0,0.013273040668781544
2226.0,0.01322826573375524
2225.0,0.01318349541446362
2224.0,0.013138729709955221
2223.0,0.013049212141483357
2222.0,0.012959713020733288
2221.0,0.012870232340102872
2220.0,0.012914970375878188
2219.0,0.012959713020733288
2218.0,0.013049212141483357
2217.0,0.013049212141483357
2216.0,0.013004460275618523
2215.0,0.012914970375878188
2214.0,0.012780770091995297
2213.0,0.01264661126420652
2212.0,0.012512493866907004
2211.0,0.012423105273012602
2210.0,0.012333735073725371
2209.0,0.012333735073725371
2208.0,0.012333735073725371
2207.0,0.012333735073725371
2206.0,0.012378417874516323
2205.0,0.012378417874516323
2204.0,0.012423105273012602
2203.0,0.012423105273012602
2202.0,0.012423105273012602
2201.0,0.012378417874516323
2200.0,0.012333735073725371
2199.0,0.012289056869694281
2198.0,0.012244383261476699
2197.0,0.012244383261476699
2196.0,0.012199714248127602
2195.0,0.012110390002254778
2194.0,0.012021084124518078
2193.0,0.011931796607364653
2192.0,0.011887159731648111
2191.0,0.011887159731648111
2190.0,0.011931796607364653
2189.0,0.012021084124518078
2188.0,0.012021084124518078
2187.0,0.012021084124518078
2186.0,0.0119764380713403
2185.0,0.0119764380713403
2184.0,0.0119764380713403
2183.0,0.012021084124518078
2182.0,0.012021084124518078
2181.0,0.0119764380713403
2180.0,0.011931796607364653
2179.0,0.011887159731648111
2178.0,0.011887159731648111
2177.0,0.011887159731648111
2176.0,0.011931796607364653
2175.0,0.0119764380713403
2174.0,0.012021084124518078
2173.0,0.012021084124518078
2172.0,0.0119764380713403
2171.0,0.0119764380713403
2170.0,0.011931796607364653
2169.0,0.011842527443247208
2168.0,0.011842527443247208
2167.0,0.011842527443247208
2166.0,0.011842527443247208
2165.0,0.011842527443247208
2164.0,0.011797899741219142
2163.0,0.011753276624621556
2162.0,0.011708658092512314
2161.0,0.011708658092512314
2160.0,0.011708658092512314
2159.0,0.011708658092512314
2158.0,0.011664044143949504
2157.0,0.011619434777991433
2156.0,0.011574829993696856
2155.0,0.011619434777991433
2154.0,0.011708658092512314
2153.0,0.011797899741219142
2152.0,0.011842527443247208
2151.0,0.011842527443247208
2150.0,0.011797899741219142
2149.0,0.011797899741219142
2148.0,0.011753276624621556
2147.0,0.011708658092512314
2146.0,0.011664044143949504
2145.0,0.011664044143949504
2144.0,0.011664044143949504
2143.0,0.011664044143949504
2142.0,0.011619434777991433
2141.0,0.011574829993696856
2140.0,0.011619434777991433
2139.0,0.011619434777991433
2138.0,0.011619434777991433
2137.0,0.011619434777991433
2136.0,0.011530229790124524
2135.0,0.011485634166333858
2134.0,0.011441043121384498
2133.0,0.011396456654336085
2132.0,0.011396456654336085
2131.0,0.011396456654336085
2130.0,0.011351874764248926
2129.0,0.011351874764248926
2128.0,0.011351874764248926
2127.0,0.011351874764248926
2126.0,0.011351874764248926
2125.0,0.011441043121384498
2124.0,0.011530229790124524
2123.0,0.011574829993696856
2122.0,0.011619434777991433
2121.0,0.011619434777991433
2120.0,0.011664044143949504
2119.0,0.011619434777991433
2118.0,0.011619434777991433
2117.0,0.011574829993696856
2116.0,0.011485634166333858
2115.0,0.011441043121384498
2114.0,0.011396456654336085
2113.0,0.011351874764248926
2112.0,0.011351874764248926
2111.0,0.011351874764248926
2110.0,0.011351874764248926
2109.0,0.011307297450183107
2108.0,0.011307297450183107
2107.0,0.011262724711199823
2106.0,0.011262724711199823
2105.0,0.011218156546359825
2104.0,0.011218156546359825
2103.0,0.011262724711199823
2102.0,0.011307297450183107
2101.0,0.011351874764248926
2100.0,0.011441043121384498
2099.0,0.011485634166333858
2098.0,0.011530229790124524
2097.0,0.011485634166333858
2096.0,0.011307297450183107
2095.0,0.011129033935354915
2094.0,0.010950843561779777
2093.0,0.01086177578421088
2092.0,0.010906307389674463
2091.0,0.010995384301463185
2090.0,0.011084479487313281
2089.0,0.011129033935354915
2088.0,0.011218156546359825
2087.0,0.011218156546359825
2086.0,0.011218156546359825
2085.0,0.011218156546359825
2084.0,0.01117359295472431
2083.0,0.011084479487313281
2082.0,0.010995384301463185
2081.0,0.010906307389674463
2080.0,0.010906307389674463
2079.0,0.010906307389674463
2078.0,0.010906307389674463
2077.0,0.01086177578421088
2076.0,0.01077272626946324
2075.0,0.010683695010048622
2074.0,0.010639186223752484
2073.0,0.010550182333308289
2072.0,0.010505687227290839
2071.0,0.01046119667949763
2070.0,0.01046119667949763
2069.0,0.010416710688994968
2068.0,0.010416710688994968
2067.0,0.01046119667949763
2066.0,0.010505687227290839
2065.0,0.010505687227290839
2064.0,0.01037222925484893
2063.0,0.01023881228122181
2062.0,0.010105436281226954
2061.0,0.01001654169860089
2060.0,0.009972101229705377
2059.0,0.01001654169860089
2058.0,0.01001654169860089
2057.0,0.01001654169860089
2056.0,0.01001654169860089
2055.0,0.009972101229705377
2054.0,0.009883233932095559
2053.0,0.009794384815193347
2052.0,0.00974996707218323
2051.0,0.009705553871561357
2050.0,0.00966114521239847
2049.0,0.009616741093766423
2048.0,0.009572341514736404
2047.0,0.009483555971770974
2046.0,0.00939478857608056
2045.0,0.009350411681145587
2044.0,0.009350411681145587
2043.0,0.009306039320248427
2042.0,0.009217308196862062
2041.0,0.009128595198514056
2040.0,0.009039900317800775
2039.0,0.008995559669244813
2038.0,0.008906891951112605
2037.0,0.008818242332126802
2036.0,0.008773924307505121
2035.0,0.008773924307505121
2034.0,0.0087296108049002
2033.0,0.008685301823389224
2032.0,0.008596697419959609
2031.0,0.00850811108984062
2030.0,0.008463824699968647
2029.0,0.00850811108984062
2028.0,0.008596697419959609
2027.0,0.008685301823389224
2026.0,0.008685301823389224
2025.0,0.008685301823389224
2024.0,0.008640997362049818
2023.0,0.008552401996197112
2022.0,0.008463824699968647
2021.0,0.008375265465994541
2020.0,0.008330992620051436
2019.0,0.008242460465651913
2018.0,0.008198201155356077
2017.0,0.008109696063975047
2016.0,0.008065450281052211
2015.0,0.007976972236149349
2014.0,0.007932739972333236
2013.0,0.007976972236149349
2012.0,0.007976972236149349
2011.0,0.007976972236149349
2010.0,0.007932739972333236
2009.0,0.007800070204414977
2008.0,0.007711646202907652
2007.0,0.00762324020119709
2006.0,0.0075790439479759275
2005.0,0.0075790439479759275
2004.0,0.0075790439479759275
2003.0,0.007534852191956709
2002.0,0.0074464821678643656
2001.0,0.007358130121602358
2000.0,0.007358130121602358
1999.0,0.007313960837872058
1998.0,0.007269796045857202
1997.0,0.007181479933320523
1996.0,0.007181479933320523
1995.0,0.007225635744644521
1994.0,0.007269796045857202
1993.0,0.007269796045857202
1992.0,0.007225635744644521
1991.0,0.007225635744644521
1990.0,0.007225635744644521
1989.0,0.007269796045857202
1988.0,0.007313960837872058
1987.0,0.007269796045857202
1986.0,0.007137328610972382
1985.0,0.007093181776687496
1984.0,0.007004901568658406
1983.0,0.006916639301937977
1982.0,0.006784279525863024
1981.0,0.006740168563263094
1980.0,0.006696062080525422
1979.0,0.006696062080525422
1978.0,0.006651960076740071
1977.0,0.006607862550997545
1976.0,0.00656376950238835
1975.0,0.00656376950238835
1974.0,0.00656376950238835
1973.0,0.006519680930003435
1972.0,0.006519680930003435
1971.0,0.00656376950238835
1970.0,0.006651960076740071
1969.0,0.006696062080525422
1968.0,0.006740168563263094
1967.0,0.006696062080525422
1966.0,0.006651960076740071
1965.0,0.00656376950238835
1964.0,0.006519680930003435
1963.0,0.00656376950238835
1962.0,0.006607862550997545
1961.0,0.006651960076740071
1960.0,0.006696062080525422
1959.0,0.006740168563263094
1958.0,0.006784279525863024
1957.0,0.006784279525863024
1956.0,0.006828394969235152
1955.0,0.006784279525863024
1954.0,0.006740168563263094
1953.0,0.006696062080525422
1952.0,0.006651960076740071
1951.0,0.006607862550997545
1950.0,0.006607862550997545
1949.0,0.006607862550997545
1948.0,0.006651960076740071
1947.0,0.006696062080525422
1946.0,0.006696062080525422
1945.0,0.006696062080525422
1944.0,0.006696062080525422
1943.0,0.006607862550997545
1942.0,0.006343371384537999
1941.0,0.006079041198713275
1940.0,0.00590291041179003
1939.0,0.005814871797682919
1938.0,0.005814871797682919
1937.0,0.00577085918230158
1936.0,0.005726851026829571
1935.0,0.005594853310833647
1934.0,0.005462895701502157
1933.0,0.005330978174470591
1932.0,0.005199100705396198
1931.0,0.005067263269958211
1930.0,0.00489154225525934
1929.0,0.004715892310740433
1928.0,0.004671990922590297
1927.0,0.004671990922590297
1926.0,0.004715892310740433
1925.0,0.004759798137184523
1924.0,0.004759798137184523
1923.0,0.004715892310740433
1922.0,0.004628093971837721
1921.0,0.00458420145758498
1920.0,0.004540313378935901
1919.0,0.0043648054024501
1918.0,0.004101676353562844
1917.0,0.0038387066319929275
1916.0,0.0037510854308679953
1915.0,0.0037510854308679953
1914.0,0.0037510854308679953
1913.0,0.003707281458678491
1912.0,0.0036634819042162814
1911.0,0.0036634819042162814
1910.0,0.0036634819042162814
1909.0,0.003619686766589858
1908.0,0.0035321097382827737
1907.0,0.0034007772998332353
1906.0,0.0032694845648473247
1905.0,0.0031382315093266833
1904.0,0.0030944893043338695
1903.0,0.003050751504618754
1902.0,0.0029632891174733444
1901.0,0.0028758443407954637
1900.0,0.0028321285541661467
1899.0,0.0027884171674950053
1898.0,0.0027447101798967477
1897.0,0.0026573093983774942
1896.0,0.002613615602686581
1895.0,0.002482560585275184
1894.0,0.002395212539545666
1893.0,0.002395212539545666
1892.0,0.0024388843664115978
1891.0,0.002395212539545666
1890.0,0.0022642234021015284
1889.0,0.0020459959305969555
1888.0,0.0019587356365717845
1887.0,0.001915112063444413
1886.0,0.001915112063444413
1885.0,0.0018278780605593958
1884.0,0.0016970599014589638
1883.0,0.001609869681952425
1882.0,0.0015226969634936083
1881.0,0.0014791171649619628
1880.0,0.0014355417390583547
1879.0,0.0013919706849057079
1878.0,0.001348404001626502
1877.0,0.0012612837441823288
1876.0,0.0012612837441823288
1875.0,0.0011741809597138886
1874.0,0.0011306361176557367
1873.0,0.0011306361176557367
1872.0,0.0011741809597138886
1871.0,0.0012177301682640973
1870.0,0.0011306361176557367
1869.0,0.0009565003968372565
1868.0,0.0007824344698965646
1867.0,0.0006519307932786322
1866.0,0.0006084382809090627
1865.0,0.0005649501236701937
1864.0,0.000521466320689834
1863.0,0.000521466320689834
1862.0,0.0005649501236701937
1861.0,0.0005649501236701937
1860.0,0.0005649501236701937
1859.0,0.000521466320689834
1858.0,0.00043451177401765406
1857.0,0.0003910410285830057
1856.0,0.0003475746339209884
1855.0,0.0003475746339209884
1854.0,0.0003475746339209884
1853.0,0.0003475746339209884
1852.0,0.0003475746339209884
1851.0,0.0003910410285830057
1850.0,0.0003910410285830057
1849.0,0.0003910410285830057
1848.0,0.0004779868710962365
1847.0,0.0006954276616513155
1846.0,0.0007389288868995258
1845.0,0.0004779868710962365
1844.0,4.343161980746579e-05
1843.0,-0.0002604985473904087
1842.0,-0.00021709297223004853
1841.0,4.343161980746579e-05
1840.0,0.00021720154586435392
1839.0,0.00026065489343207737
1838.0,0.00026065489343207737
1837.0,0.00021720154586435392
1836.0,0.00017375254558760211
1835.0,0.0001303078917322953
1834.0,0.00017375254558760211
1833.0,0.0003475746339209884
1832.0,0.0004779868710962365
1831.0,0.00043451177401765406
1830.0,0.00017375254558760211
1829.0,0.0
1828.0,8.686758342868472e-05
1827.0,0.00026065489343207737
1826.0,0.00021720154586435392
1825.0,-4.3427276862573194e-05
1824.0,-0.00021709297223004853
1823.0,-0.0002604985473904087
1822.0,-0.0002604985473904087
1821.0,-0.0003472966853634851
1820.0,-0.0003906892499099257
1819.0,-0.0004774613744551459
1818.0,-0.0005642161653756084
1817.0,-0.0006509536295951079
1816.0,-0.0006509536295951079
1815.0,-0.0006075870628903246
1814.0,-0.0005642161653756084
1813.0,-0.0006075870628903246
1812.0,-0.0007376737740329986
1811.0,-0.0009110621312231615
1810.0,-0.0011277002770349043
1809.0,-0.001257631312230778
1808.0,-0.001257631312230778
1807.0,-0.001257631312230778
1806.0,-0.0013009330204178937
1805.0,-0.001344230411601366
1804.0,-0.001344230411601366
1803.0,-0.0013009330204178937
1802.0,-0.001344230411601366
1801.0,-0.001474096691732818
1800.0,-0.0016904542321527494
1799.0,-0.0018634626925240205
1798.0,-0.0019067040408846658
1797.0,-0.001733712809000476
1796.0,-0.001474096691732818
1795.0,-0.001257631312230778
1794.0,-0.001257631312230778
1793.0,-0.0016039241497978196
1792.0,-0.0020796263931210923
1791.0,-0.0023820749327607693
1790.0,-0.0024252646779014952
1789.0,-0.0022524799205383417
1788.0,-0.0020364022595291686
1787.0,-0.0019499410842680476
1786.0,-0.0021228462251614566
1785.0,-0.0022092729880145434
1784.0,-0.0021660617565077978
1783.0,-0.0021660617565077978
1782.0,-0.0022092729880145434
1781.0,-0.0022956825549340643
1780.0,-0.002338880892056583
1779.0,-0.0023820749327607693
1778.0,-0.0023820749327607693
1777.0,-0.0023820749327607693
1776.0,-0.002338880892056583
1775.0,-0.0022524799205383417
1774.0,-0.0022092729880145434
1773.0,-0.0021228462251614566
1772.0,-0.0019931738235303698
1771.0,-0.0019499410842680476
1770.0,-0.0020364022595291686
1769.0,-0.0020796263931210923
1768.0,-0.0020364022595291686
1767.0,-0.0019067040408846658
1766.0,-0.0019499410842680476
1765.0,-0.0016904542321527494
1764.0,-0.0013009330204178937
1763.0,-0.001257631312230778
1762.0,-0.0013875234866409514
1761.0,-0.0014308122463981832
1760.0,-0.001041057986093552
1759.0,-0.00043407747931878404
1758.0,-4.3427276862573194e-05
1757.0,8.686758342868472e-05
1756.0,0.0003475746339209884
1755.0,0.0009129773741116676
1754.0,0.0016970599014589638
1753.0,0.002351545103793873
1752.0,0.0030070181092942683
1751.0,0.003970171588923321
1750.0,0.0052870145684298375
1749.0,0.006828394969235152
1748.0,0.008596697419959609
1747.0,0.010550182333308289
1746.0,0.012691326268817527
1745.0,0.015157768594724175
1744.0,0.01809082990920774
1743.0,0.02122621566987748
1742.0,0.024430342106337877
1741.0,0.02812138297373412
1740.0,0.032686081712916426
1739.0,0.03744126420403626
1738.0,0.04138834223512067
1737.0,0.04455278942230456
1736.0,0.04778894189133087
1735.0,0.05300765925162776
1734.0,0.06028111764589528
1733.0,0.06661395809694559
1732.0,0.07145053299833615
1731.0,0.07618627890881036
1730.0,0.08113125661901543
1729.0,0.08592141461088798
1728.0,0.09033701484598189
1727.0,0.09431203228814788
1726.0,0.09826930827078129
1725.0,0.10253786198693682
1724.0,0.10729336219433439
1723.0,0.1117081546434846
1722.0,0.11509140583739286
1721.0,0.1174754620451195
1720.0,0.11935787359571504
1719.0,0.12222565000860186
1718.0,0.12726117252733116
1717.0,0.13270933014511588
1716.0,0.13649869935854997
1715.0,0.13894375542312654
1714.0,0.1405014418122239
1713.0,0.1409818561111058
1712.0,0.14056146454494378
1711.0,0.13948232253825377
1710.0,0.13792828062000573
1709.0,0.13590442657575252
1708.0,0.13335827943396006
1707.0,0.13035765534840538
1706.0,0.12720296001040166
1705.0,0.12412880927263426
1704.0,0.12119106764079435
1703.0,0.11793105556385153
1702.0,0.11396072443355765
1701.0,0.11008231656379408
1700.0,0.10723776538418317
1699.0,0.10529634739076998
1698.0,0.10358402352687701
1697.0,0.10187842445889239
1696.0,0.10007011727213588
1695.0,0.09837823590664274
1694.0,0.09718153191774648
1693.0,0.0964759355287379
1692.0,0.09587978652380036
1691.0,0.09523037409340485
1690.0,0.09485199814398393
1689.0,0.09485199814398393
1688.0,0.09463593123310776
1687.0,0.0937727369476411
1686.0,0.09258863922541383
1685.0,0.09323411045927221
1684.0,0.096150661903319
1683.0,0.09799710864927058
1682.0,0.09843270997155007
1681.0,0.09881421986284966
1680.0,0.09925064193892053
1679.0,0.09952362861074304
1678.0,0.09935981601739963
1677.0,0.09930522554760213
1676.0,0.10007011727213588
1675.0,0.10165883427249067
1674.0,0.10281292341984649
1673.0,0.1033635694704158
1672.0,0.10369429253391926
1671.0,0.10452220372428545
1670.0,0.1062937069352865
1669.0,0.10835105612944096
1668.0,0.10974669484546551
1667.0,0.11025022473596224
1666.0,0.11019424813191447
1665.0,0.11019424813191447
1664.0,0.11097857790477517
1663.0,0.1128329791052256
1662.0,0.1148084593931522
1661.0,0.11605480496572018
1660.0,0.11679296664760996
1659.0,0.11724784438692004
1658.0,0.1174754620451195
1657.0,0.11719095860756013
1656.0,0.11645212073195621
1655.0,0.11554450392951199
1654.0,0.11821604440661537
1653.0,0.12436006299583169
1652.0,0.12691201440971422
1651.0,0.1267375405612734
1650.0,0.12638880300353272
1649.0,0.12592425477696523
1648.0,0.12685384867174432
1647.0,0.12965462891904034
1646.0,0.13170831198214428
1645.0,0.13170831198214428
1644.0,0.13106182166708868
1643.0,0.13041629228657614
1642.0,0.12965462891904034
1641.0,0.12883586719705065
1640.0,0.12796033202671375
1639.0,0.12685384867174432
1638.0,0.12551818230053358
1637.0,0.12482294018529605
1636.0,0.12575017722159698
1635.0,0.12638880300353272
1634.0,0.12551818230053358
1633.0,0.12407101507707297
1632.0,0.12257105921178035
1631.0,0.12084675381575383
1630.0,0.11912926746757657
1629.0,0.11770319906234805
1628.0,0.11667932161702477
1627.0,0.11560117444331386
1626.0,0.1141301390960936
1625.0,0.11232644754555254
1624.0,0.11081038795292675
1623.0,0.10957898119908571
1622.0,0.10823959854332843
1621.0,0.10651565378151395
1620.0,0.10468797552421272
1619.0,0.10275789719463457
1618.0,0.10100072911021085
1617.0,0.09990609845660159
1616.0,0.09914149529800831
1615.0,0.09832376867362447
1614.0,0.09729018703012282
1613.0,0.09582563171583658
1612.0,0.09409623378338305
1611.0,0.09231997575758011
1610.0,0.09060445403289452
1609.0,0.08889568219596411
1608.0,0.08708744882390307
1607.0,0.08523386307414738
1606.0,0.08333553545860273
1605.0,0.08134070657817682
1604.0,0.07935499859321249
1603.0,0.07748213975538865
1602.0,0.0756173227980268
1601.0,0.07381195089279391
1600.0,0.07206531825882068
1599.0,0.07037674848475972
1598.0,0.06874559358358656
1597.0,0.06712054217620067
1596.0,0.0655520510510299
1595.0,0.06414020196211956
1594.0,0.06283329628496737
1593.0,0.06153031163235467
1592.0,0.060231224546650086
1591.0,0.059035506507200575
1590.0,0.05789269101064454
1589.0,0.05680236993107379
1588.0,0.055764156206519866
1587.0,0.054876229877880656
1586.0,0.05423607688882637
1585.0,0.05394093961487645
1584.0,0.05389176956309405
1583.0,0.05428528594013993
1582.0,0.054876229877880656
1581.0,0.05551732784983132
1580.0,0.05606053552778367
1579.0,0.05630767289398331
1578.0,0.05601112492622806
1577.0,0.055172003656783764
1576.0,0.05389176956309405
1575.0,0.05266432405126009
1574.0,0.05178270644002936
1573.0,0.051049389754451946
1572.0,0.049927370249842395
1571.0,0.04851676924770687
1570.0,0.04715914332429838
1569.0,0.04599883231842972
1568.0,0.04503426894157925
1567.0,0.04426415772233416
1566.0,0.04344740808260106
1565.0,0.04263219156847242
1564.0,0.041914151478914974
1563.0,0.041340572947066834
1562.0,0.04057697805689475
1561.0,0.03919637508823026
1560.0,0.03800971255993524
1559.0,0.03800971255993524
1558.0,0.03767802727041558
1557.0,0.0371573187987575
1556.0,0.03701541568300293
1555.0,0.036731748473764814
1554.0,0.03621217265444465
1553.0,0.035693217696063595
1552.0,0.03545753392086315
1551.0,0.03526907894637077
1550.0,0.03489241415094413
1549.0,0.03437503289075727
1548.0,0.03385826726096752
1547.0,0.03338901331806565
1546.0,0.0329671178412978
1545.0,0.03263926003405038
1544.0,0.03240522732811035
1543.0,0.03217132066984485
1542.0,0.03179733185715028
1541.0,0.03128362253321426
1540.0,0.030351159519274695
1539.0,0.02904906565457588
1538.0,0.02849221828874393
1537.0,0.028863370523193765
1536.0,0.029281296279810798
1535.0,0.02932775731028059
1534.0,0.029095501846216454
1533.0,0.02890978686288448
1532.0,0.028770552723758724
1531.0,0.028677754757187035
1530.0,0.02863136320857662
1529.0,0.02849221828874393
1528.0,0.028353117935693284
1527.0,0.02812138297373412
1526.0,0.027889771597169544
1525.0,0.027658283674251827
1524.0,0.027334407733889066
1523.0,0.02677975314776626
1522.0,0.02617967564731627
1521.0,0.025488307262671706
1520.0,0.02512002699306959
1519.0,0.02512002699306959
1518.0,0.02516604495145991
1517.0,0.02498200236711723
1516.0,0.024660115394541604
1515.0,0.024338466818941473
1514.0,0.024200690320592466
1513.0,0.024200690320592466
1512.0,0.02438440203310499
1511.0,0.024936003904763915
1510.0,0.025902996205869
1509.0,0.027056991894431892
1508.0,0.02932775731028059
1507.0,0.03310770413286357
1506.0,0.03545753392086315
1505.0,0.03555179208333925
1504.0,0.03522197797762394
1503.0,0.03456310022373987
1502.0,0.033295223342125535
1501.0,0.03142366482450232
1500.0,0.02932775731028059
1499.0,0.02738066094037661
1498.0,0.02558042614771394
1497.0,0.023925268380126097
1496.0,0.02255077261765881
1495.0,0.021636852916117055
1494.0,0.021317434843055594
1493.0,0.02122621566987748
1492.0,0.021135015652343103
1491.0,0.020952673052035298
1490.0,0.020861530453190058
1489.0,0.02081596632558158
1488.0,0.020542681902151694
1487.0,0.020178569969774962
1486.0,0.01990568621470623
1485.0,0.019860222254245663
1484.0,0.01995115493504329
1483.0,0.02013307743509718
1482.0,0.020315076172974234
1481.0,0.020497151212598652
1480.0,0.02067930261797568
1479.0,0.020861530453190058
1478.0,0.021043834782408455
1477.0,0.021271822861508305
1476.0,0.0214542995372613
1475.0,0.021499930688540836
1474.0,0.0214542995372613
1473.0,0.021317434843055594
1472.0,0.021135015652343103
1471.0,0.021043834782408455
1470.0,0.021271822861508305
1469.0,0.021728158389364705
1468.0,0.022139270735302752
1467.0,0.022642270454698687
1466.0,0.023329119375188556
1465.0,0.02438440203310499
1464.0,0.02558042614771394
1463.0,0.026595025589939425
1462.0,0.027612000892527133
1461.0,0.02863136320857662
1460.0,0.029653123769906697
1459.0,0.03063068826647264
1458.0,0.03207779326948268
1457.0,0.03376437590141812
1456.0,0.03470420418834386
1455.0,0.03526907894637077
1454.0,0.03597620715996652
1453.0,0.036401037402758574
1452.0,0.03644826642590382
1451.0,0.03625938114211591
1450.0,0.036117771071222604
1449.0,0.03597620715996652
1448.0,0.03583468937826462
1447.0,0.035693217696063595
1446.0,0.03555179208333925
1445.0,0.03545753392086315
1444.0,0.03541041251009669
1443.0,0.03531618502395939
1442.0,0.03526907894637077
1441.0,0.03522197797762394
1440.0,0.03512779136222477
1439.0,0.03470420418834386
1438.0,0.033952178923546183
1437.0,0.032920265855503006
1436.0,0.03175060589208267
1435.0,0.0307239045110681
1434.0,0.029792641193145286
1433.0,0.02872415126189476
1432.0,0.027334407733889066
1431.0,0.025810808881832736
1430.0,0.024292536462819925
1429.0,0.02296266477531872
1428.0,0.021819483062586187
1427.0,0.0209982515252789
1426.0,0.02036058777709271
1425.0,0.019723858922159776
1424.0,0.019315025636685412
1423.0,0.0192242260373785
1422.0,0.0192242260373785
1421.0,0.019269623464054586
1420.0,0.019632973815224997
1419.0,0.020861530453190058
1418.0,0.02282532397981263
1417.0,0.02539620791296726
1416.0,0.02863136320857662
1415.0,0.032545631817259224
1414.0,0.037488606492403154
1413.0,0.043495409683302455
1412.0,0.050317309204795935
1411.0,0.056950888991593285
1410.0,0.062131203436140536
1409.0,0.0654005617819271
1408.0,0.0665127121512945
1407.0,0.0655520510510299
1406.0,0.06293368798257193
1405.0,0.05943371350990989
1404.0,0.055912320584565744
1403.0,0.052762392129333646
1402.0,0.050073556332087765
1401.0,0.047691990337874746
1400.0,0.04537162249272897
1399.0,0.043303435105349175
1398.0,0.041579471947481794
1397.0,0.0402909757535701
1396.0,0.039006291057664066
1395.0,0.03763066432997886
1394.0,0.0360705779734416
1393.0,0.03465716443937783
1392.0,0.03343591590268957
1391.0,0.03240522732811035
1390.0,0.03151705144606498
1389.0,0.03067729388779794
1388.0,0.029978734171634214
1387.0,0.02942069428514915
1386.0,0.02904906565457588
1385.0,0.028863370523193765
1384.0,0.02890978686288448
1383.0,0.029095501846216454
1382.0,0.029467170231675777
1381.0,0.030118356253500123
1380.0,0.030910397045078586
1379.0,0.03189079887180224
1378.0,0.0329671178412978
1377.0,0.03409308450480819
1376.0,0.03522197797762394
1375.0,0.03649550058570927
1374.0,0.03777276864991497
1373.0,0.03876880295533702
1372.0,0.039338992729018196
1371.0,0.03952922246570112
1370.0,0.03943409718180235
1369.0,0.03886378261277468
1368.0,0.03772539537668518
1367.0,0.03616496929785207
1366.0,0.03432802877989327
1365.0,0.032218091924200776
1364.0,0.029839156962686353
1363.0,0.027288159452933503
1362.0,0.02484402159331056
1361.0,0.02277955336461468
1360.0,0.021135015652343103
1359.0,0.019814763052665052
1358.0,0.018770512579999288
1357.0,0.017955020928509757
1356.0,0.01727661233145472
1355.0,0.016734647433454652
1354.0,0.01632861713980338
1353.0,0.016103208673694303
1352.0,0.016103208673694303
1351.0,0.016238439713835096
1350.0,0.016599261819461697
1349.0,0.017141057687924732
1348.0,0.01781925440359733
1347.0,0.018634490921455527
1346.0,0.01958753839310856
1345.0,0.020633757603838898
1344.0,0.021728158389364705
1343.0,0.022871099419317753
1342.0,0.024017056287453542
1341.0,0.02498200236711723
1340.0,0.025488307262671706
1339.0,0.02539620791296726
1338.0,0.024568191490736968
1337.0,0.023283295636617574
1336.0,0.02168250325324883
1335.0,0.01995115493504329
1334.0,0.018362575344230914
1333.0,0.017050711425501408
1332.0,0.016058141016111804
1331.0,0.01538268676325183
1330.0,0.015022873584506602
1329.0,0.014932966849499074
1328.0,0.015022873584506602
1327.0,0.015337693809893471
1326.0,0.015832872853011715
1325.0,0.016373712875465518
1324.0,0.017095882207371904
1323.0,0.017864505196230507
1322.0,0.018725167293411005
1321.0,0.019632973815224997
1320.0,0.02058821736556471
1319.0,0.021545566634771474
1318.0,0.02245929405346514
1317.0,0.023329119375188556
1316.0,0.024200690320592466
1315.0,0.025074013910237447
1314.0,0.025995203102585407
1313.0,0.027010773144651168
1312.0,0.02812138297373412
1311.0,0.029234840219232394
1310.0,0.030397735151460825
1309.0,0.031657169041054534
1308.0,0.03301397488206215
1307.0,0.03437503289075727
1306.0,0.035693217696063595
1305.0,0.0369681249461018
1304.0,0.03829421599749461
1303.0,0.039767126871487646
1302.0,0.041579471947481794
1301.0,0.04368746915880539
1300.0,0.04624030826677128
1299.0,0.049148541111453614
1298.0,0.05232126006306337
1297.0,0.05571477931124735
1296.0,0.05918479134919874
1295.0,0.06263258248271053
1294.0,0.06605739725873905
1293.0,0.06940751155740177
1292.0,0.07268097504034388
1291.0,0.07587584681417514
1290.0,0.07893810920972144
1289.0,0.08191721535781271
1288.0,0.08481129482684358
1287.0,0.08751223866767632
1286.0,0.08985603893548699
1285.0,0.0919977988274463
1284.0,0.09388054245443844
1283.0,0.0955549589230904
1282.0,0.09701860020249709
1281.0,0.09821485469640057
1280.0,0.09930522554760213
1279.0,0.10023419805561384
1278.0,0.10100072911021085
1277.0,0.10182351650232357
1276.0,0.10281292341984649
1275.0,0.10402526764093545
1274.0,0.10557316203581202
1273.0,0.10773839308446487
1272.0,0.11058623595729111
1271.0,0.11401718864502697
1270.0,0.11787408022996826
1269.0,0.12222565000860186
1268.0,0.12679569072295926
1267.0,0.13141433344123432
1266.0,0.13590442657575252
1265.0,0.14014147951900724
1264.0,0.1441175699639643
1263.0,0.14776406058811253
1262.0,0.1509493094304879
1261.0,0.1537866361206126
1260.0,0.15614457737683884
1259.0,0.15795271149036205
1258.0,0.1590787998012282
1257.0,0.15983115075924403
1256.0,0.16045910703103106
1255.0,0.16121385505340546
1254.0,0.16203298163134527
1253.0,0.16316971351112097
1252.0,0.16475346000368907
1251.0,0.16659787076814148
1250.0,0.16877030613293664
1249.0,0.17121125181504682
1248.0,0.17392519729917355
1247.0,0.17678668671733244
1246.0,0.17979854051435984
1245.0,0.18302996224270052
1244.0,0.18641901143180806
1243.0,0.18970025895983111
1242.0,0.19273564472389304
1241.0,0.19558794086228604
1240.0,0.19825338078053978
1239.0,0.200521601162019
1238.0,0.20224787134928923
1237.0,0.20342566678957041
1236.0,0.20398103065285067
1235.0,0.2037726859705613
1234.0,0.20273245916928362
1233.0,0.20107326142279858
1232.0,0.19887081242029603
1231.0,0.19620159201032594
1230.0,0.19300648631789286
1229.0,0.18963304631837485
1228.0,0.1862189218259176
1227.0,0.1827652695745019
1226.0,0.17907641211868253
1225.0,0.1754836719927908
1224.0,0.17192040944325404
1223.0,0.1683221508085333
1222.0,0.1646899991309374
1221.0,0.16121385505340546
1220.0,0.15782777061438424
1219.0,0.15452986701832638
1218.0,0.15131834597604965
1217.0,0.14831368455757254
1216.0,0.1456332219591303
1215.0,0.14296920172737604
1214.0,0.14032142337155173
1213.0,0.13786862068696282
1212.0,0.13554825284181704
1211.0,0.13335827943396006
1210.0,0.1312967977214634
1209.0,0.12942053944731513
1208.0,0.1276688787697493
1207.0,0.12592425477696523
1206.0,0.12418661116024232
1205.0,0.12257105921178035
1204.0,0.12107626603243293
1203.0,0.11964380058076385
1202.0,0.11827306462358211
1201.0,0.11702034596270106
1200.0,0.11588463798833115
1199.0,0.11469533241103202
1198.0,0.11345287660889425
1197.0,0.11210151190312767
1196.0,0.11075433910702048
1195.0,0.10946720807225518
1194.0,0.1081838804751396
1193.0,0.10701544928928342
1192.0,0.10596099919539115
1191.0,0.10496440254767725
1190.0,0.10391491457671487
1189.0,0.10292299679057959
1188.0,0.10198826120249849
1187.0,0.10111034407341357
1186.0,0.10028890542885538
1185.0,0.09968750301627338
1184.0,0.09935981601739963
1183.0,0.09925064193892053
1182.0,0.09930522554760213
1181.0,0.09957824654226233
1180.0,0.10001543745060903
1179.0,0.1005078038618683
1178.0,0.10111034407341357
1177.0,0.10160395406999112
1176.0,0.10209812573177213
1175.0,0.10242788617426934
1174.0,0.10242788617426934
1173.0,0.10226297465457268
1172.0,0.10171372141087698
1171.0,0.10078158214862709
1170.0,0.09935981601739963
1169.0,0.09761631556752848
1168.0,0.09560907998763835
1167.0,0.0935033402006471
1166.0,0.09151498112135026
1165.0,0.08969583193143116
1164.0,0.0880970039559672
1163.0,0.08666307406737683
1162.0,0.08528671302637614
1161.0,0.08396738981143059
1160.0,0.08280969148843575
1159.0,0.08175990977858505
1158.0,0.08081727095749947
1157.0,0.08003329851661278
1156.0,0.0794071379151915
1155.0,0.07904229404455076
1154.0,0.07893810920972144
1153.0,0.079094395835976
1152.0,0.0794592834975203
1151.0,0.08003329851661278
1150.0,0.08081727095749947
1149.0,0.08181233864107451
1148.0,0.08312512146131668
1147.0,0.08470571697731355
1146.0,0.08655704514060414
1145.0,0.08862929288386212
1144.0,0.0908185240221473
1143.0,0.09307265269104414
1142.0,0.09533854208447545
1141.0,0.09750757884139638
1140.0,0.09963287134352972
1139.0,0.10165883427249067
1138.0,0.10358402352687701
1137.0,0.10546241500425357
1136.0,0.10729336219433439
1135.0,0.10896458468468917
1134.0,0.11053021603049262
1133.0,0.1120452961911984
1132.0,0.1136220932414278
1131.0,0.11526126223036814
1130.0,0.1170772093974013
1129.0,0.11912926746757657
1128.0,0.12153565465853111
1127.0,0.12424442074194553
1126.0,0.12720296001040166
1125.0,0.13053358991913355
1124.0,0.13418561983203192
1123.0,0.1380476250785483
1122.0,0.1419442819496357
1121.0,0.14575470293388149
1120.0,0.14929251462546267
1119.0,0.15218065270476067
1118.0,0.15428198203334142
1117.0,0.15552282425431851
1116.0,0.15589576930248672
1115.0,0.15533647175976073
1114.0,0.15391041964201602
1113.0,0.15205736115477642
1112.0,0.15033494452126717
1111.0,0.1490476002065071
1110.0,0.14868048735125483
1109.0,0.1494762911210057
1108.0,0.15162611615539823
1107.0,0.15496400648658493
1106.0,0.15920410115290617
1105.0,0.16411926818260536
1104.0,0.16960382351653092
1103.0,0.1754836719927908
1102.0,0.18157614490792118
1101.0,0.1878891587969005
1100.0,0.19409154492580294
1099.0,0.19997064075586568
1098.0,0.20551195334083028
1097.0,0.21077194273266486
1096.0,0.21566805197785177
1095.0,0.21975471613464737
1094.0,0.2230809971579535
1093.0,0.2258481410452895
1092.0,0.22819212100089437
1091.0,0.2298847052128985
1090.0,0.23077041826340627
1089.0,0.23106605781321843
1088.0,0.23084430928560118
1087.0,0.2302535328205466
1086.0,0.22922160383085233
1085.0,0.22797183467514515
1084.0,0.22643295107394135
1083.0,0.22453519065426075
1082.0,0.22206595116222072
1081.0,0.21903497039168318
1080.0,0.21552535623748348
1079.0,0.21133678687914248
1078.0,0.2065588670223364
1077.0,0.2014874669686484
1076.0,0.1962698290254561
1075.0,0.19091186865365373
1074.0,0.18535293054814383
1073.0,0.17979854051435984
1072.0,0.17431429197824166
1071.0,0.16896251435997467
1070.0,0.1637391971415132
1069.0,0.1588909155318461
1068.0,0.15440590683997568
1067.0,0.1500894416985039
1066.0,0.14581545616639335
1065.0,0.14170347546611461
1064.0,0.13786862068696282
1063.0,0.13424477592854833
1062.0,0.1308856730206247
1061.0,0.12790202572577325
1060.0,0.1252863112422209
1059.0,0.12303203256741524
1058.0,0.12107626603243293
1057.0,0.11947222180119477
1056.0,0.11833009232793867
1055.0,0.11764625361128611
1054.0,0.11736163830396129
1053.0,0.1175323851046286
1052.0,0.11804502866039956
1051.0,0.11890078161098283
1050.0,0.1199871616332282
1049.0,0.12124847982699793
1048.0,0.12251347193039863
1047.0,0.12372441132212098
1046.0,0.12476505354983503
1045.0,0.12575017722159698
1044.0,0.12667939818460128
1043.0,0.12737762097471172
1042.0,0.12784372725170723
1041.0,0.1280186461566306
1040.0,0.12784372725170723
1039.0,0.12743585690934855
1038.0,0.12667939818460128
1037.0,0.12563416426995122
1036.0,0.1244757360506914
1035.0,0.12314735239865637
1034.0,0.12170805075020397
1033.0,0.12033079436794658
1032.0,0.11895789180659433
1031.0,0.11758931562603192
1030.0,0.11616828667054757
1029.0,0.1148084593931522
1028.0,0.11339648571328764
1027.0,0.11193288659256306
1026.0,0.11053021603049262
1025.0,0.10963487855187593
1024.0,0.10991447328367476
1023.0,0.11187669270209155
1022.0,0.11622503864474187
1021.0,0.12320502379929943
1020.0,0.1325325121409484
1019.0,0.14333151638846497
1018.0,0.15391041964201602
1017.0,0.16266413198498508
1016.0,0.16800232276410365
1015.0,0.16909070045355667
1014.0,0.1660882849286216
1013.0,0.1602706247936121
1012.0,0.15310645668337486
1011.0,0.1459369881335788
1010.0,0.13930272594796111
1009.0,0.13353543402825974
1008.0,0.1286022185125162
1007.0,0.12436006299583169
1006.0,0.12061736282565727
1005.0,0.11741854644554883
1004.0,0.11463877996848804
1003.0,0.11221396516162851
1002.0,0.10997041383658313
1001.0,0.10790539730951965
1000.0,0.1060718734573931
999.0,0.10452220372428545
998.0,0.10314322726279568
997.0,0.10198826120249849
996.0,0.10089114180660053
995.0,0.09985143928065598
994.0,0.09881421986284966
993.0,0.0978882765519955
992.0,0.09707290398273716
991.0,0.09636748391576244
990.0,0.09571734235437201
989.0,0.09512223303659528
988.0,0.09463593123310776
987.0,0.09436599867304518
986.0,0.09415017335768128
985.0,0.09398837472858723
984.0,0.09388054245443844
983.0,0.09371884422784693
982.0,0.09366495819490939
981.0,0.0935572061829677
980.0,0.0935572061829677
979.0,0.0935033402006471
978.0,0.0935572061829677
977.0,0.09366495819490939
976.0,0.0937727369476411
975.0,0.0937727369476411
974.0,0.09371884422784693
973.0,0.09361107884716913
972.0,0.09344948089854999
971.0,0.09312646527792956
970.0,0.09269615116603047
969.0,0.09226626300234453
968.0,0.09183679994445204
967.0,0.09124698081546634
966.0,0.09049745859458458
965.0,0.08974922769985194
964.0,0.08900228368935714
963.0,0.08825662214406838
962.0,0.08740600224789441
961.0,0.08666307406737683
960.0,0.08602728844902896
959.0,0.08555105930144569
958.0,0.08523386307414738
957.0,0.08496970974083906
956.0,0.08470571697731355
955.0,0.08428366205400617
954.0,0.0838620168928248
953.0,0.08333553545860273
952.0,0.08280969148843575
951.0,0.08223199755224364
950.0,0.08170748724464438
949.0,0.08139308485501817
948.0,0.08118360963962057
947.0,0.08102656950704579
946.0,0.08086958613938555
945.0,0.08066036321258663
944.0,0.08045124103115198
943.0,0.08029446545087904
942.0,0.08024221949810584
941.0,0.08018997982980403
940.0,0.08018997982980403
939.0,0.08013774644446192
938.0,0.08008551934056851
937.0,0.07992887570247587
936.0,0.07977228854307139
935.0,0.07956359344924135
934.0,0.07935499859321249
933.0,0.07925073872429178
932.0,0.07925073872429178
931.0,0.07930286553008004
930.0,0.0794592834975203
929.0,0.07956359344924135
928.0,0.07956359344924135
927.0,0.07930286553008004
926.0,0.0788860261633193
925.0,0.07846958649875768
924.0,0.07820951434181311
923.0,0.07805354577058976
922.0,0.07789763319239285
921.0,0.07768983678560404
920.0,0.07743023101428781
919.0,0.0772226580712021
918.0,0.07701518429111709
917.0,0.07691148455760066
916.0,0.07691148455760066
915.0,0.07685964397479927
914.0,0.07675598136972361
913.0,0.07670415934449615
912.0,0.07685964397479927
911.0,0.07727454200674
910.0,0.07789763319239285
909.0,0.07867775641617802
908.0,0.07956359344924135
907.0,0.08060807322614072
906.0,0.08181233864107451
905.0,0.08317771540408803
904.0,0.08460016478773014
903.0,0.08602728844902896
902.0,0.0872997918091396
901.0,0.0884695376928375
900.0,0.08942895151874142
899.0,0.09012318200960712
898.0,0.09071147583774919
897.0,0.09108625997902897
896.0,0.09146136782804049
895.0,0.09167586072382083
894.0,0.09183679994445204
893.0,0.0919441259012328
892.0,0.0919977988274463
891.0,0.0919977988274463
890.0,0.0919441259012328
889.0,0.0919977988274463
888.0,0.0922125568893839
887.0,0.09253489323414388
886.0,0.09312646527792956
885.0,0.09393445524476318
884.0,0.09506817260434741
883.0,0.09642170633694569
882.0,0.09794268919153337
881.0,0.09996076451267522
880.0,0.10264786565568684
879.0,0.10579474085791629
878.0,0.10913206118855912
877.0,0.11260778102815316
876.0,0.11616828667054757
875.0,0.11964380058076385
874.0,0.12280148472821018
873.0,0.12522836281570182
872.0,0.12667939818460128
871.0,0.12691201440971422
870.0,0.12604034525664676
869.0,0.12430223801979201
868.0,0.1219955297319748
867.0,0.11930071078129845
866.0,0.1163953390777075
865.0,0.11356568037106163
864.0,0.11109074073646874
863.0,0.10896458468468917
862.0,0.10734896612269962
861.0,0.10612732120491852
860.0,0.1052410056281079
859.0,0.10463271122663809
858.0,0.10413564875270076
857.0,0.1038045895457893
856.0,0.10363915453068362
855.0,0.10363915453068362
854.0,0.10374943753836186
853.0,0.10385974855798041
852.0,0.10408045468998406
851.0,0.10430127304069425
850.0,0.10457745396059215
849.0,0.1047432468551055
848.0,0.10479852522110678
847.0,0.10457745396059215
846.0,0.10435649517592083
845.0,0.10424605792627206
844.0,0.10441172433373724
843.0,0.1047432468551055
842.0,0.10513034325474746
841.0,0.10540705207704448
840.0,0.10551778498990938
839.0,0.10546241500425357
838.0,0.1052410056281079
837.0,0.10507502264045665
836.0,0.10490910306560064
835.0,0.10463271122663809
834.0,0.10424605792627206
833.0,0.10374943753836186
832.0,0.10319830233507843
831.0,0.10264786565568684
830.0,0.10226297465457268
829.0,0.10209812573177213
828.0,0.10215306842042837
827.0,0.1022080180607754
826.0,0.10226297465457268
825.0,0.1022080180607754
824.0,0.1022080180607754
823.0,0.1022080180607754
822.0,0.10215306842042837
821.0,0.10209812573177213
820.0,0.10204318999304807
819.0,0.10204318999304807
818.0,0.1022080180607754
817.0,0.10259286033841963
816.0,0.10303309806684524
815.0,0.10347378251044459
814.0,0.10391491457671487
813.0,0.10430127304069425
812.0,0.10468797552421272
811.0,0.10496440254767725
810.0,0.10540705207704448
809.0,0.10601643278815298
808.0,0.10668218838388821
807.0,0.10734896612269962
806.0,0.10779405402422748
805.0,0.1081838804751396
804.0,0.10851829616048003
803.0,0.10874138309586101
802.0,0.10885296955122903
801.0,0.10907622851098608
800.0,0.10941133229451272
799.0,0.10997041383658313
798.0,0.11103465569966264
797.0,0.1128329791052256
796.0,0.11531789579397489
795.0,0.11787408022996826
794.0,0.11992991593593283
793.0,0.1213058996038916
792.0,0.1219955297319748
791.0,0.12211057462851604
790.0,0.12182301950849372
789.0,0.1213058996038916
788.0,0.1207320431753871
787.0,0.12004441487725082
786.0,0.11918640771920863
785.0,0.11833009232793867
784.0,0.11736163830396129
783.0,0.1165657063169907
782.0,0.11605480496572018
781.0,0.11594135290606156
780.0,0.11588463798833115
779.0,0.1157145376603248
778.0,0.11537453674376552
777.0,0.11520463605101905
776.0,0.11514801725400226
775.0,0.11492161585077598
774.0,0.11441264381034388
773.0,0.11396072443355765
772.0,0.11356568037106163
771.0,0.11322735694556196
770.0,0.112945621949043
769.0,0.11277666863747693
768.0,0.11277666863747693
767.0,0.11272036546997688
766.0,0.1125514997500463
765.0,0.11238269966426384
764.0,0.1120452961911984
763.0,0.11153968196461372
762.0,0.11103465569966264
761.0,0.11092250734993603
760.0,0.11109074073646874
759.0,0.11109074073646874
758.0,0.11058623595729111
757.0,0.1098585399354226
756.0,0.10918790104487552
755.0,0.10874138309586101
754.0,0.10846254232743546
753.0,0.10823959854332843
752.0,0.10796107965870849
751.0,0.10757145305477
750.0,0.10701544928928342
749.0,0.10640466618011679
748.0,0.10573933555301185
747.0,0.10479852522110678
746.0,0.10369429253391926
745.0,0.1028679566179056
744.0,0.10259286033841963
743.0,0.1028679566179056
742.0,0.10402526764093545
741.0,0.10651565378151395
740.0,0.11075433910702048
739.0,0.11645212073195621
738.0,0.12355121312165873
737.0,0.13182595914036166
736.0,0.1410419452819942
735.0,0.15051916275601385
734.0,0.16020781555467067
733.0,0.17056756638240134
732.0,0.18190613085336405
731.0,0.1941594511853273
730.0,0.20732821085843267
729.0,0.22177637323390353
728.0,0.23784680769640532
727.0,0.2546909400591719
726.0,0.2713216331490862
725.0,0.28617357561947543
724.0,0.29739715865957295
723.0,0.3033815407677751
722.0,0.3039932847814546
721.0,0.30068269897861777
720.0,0.2948207551263238
719.0,0.28718199979214987
718.0,0.2784366816425192
717.0,0.26970233790285025
716.0,0.261615876487844
715.0,0.2543787786930616
714.0,0.24818221226312076
713.0,0.24336389175415185
712.0,0.2398037705448659
711.0,0.23679669962922834
710.0,0.23403357521428614
709.0,0.23150989482875484
708.0,0.22944252514900487
707.0,0.22782503917538577
706.0,0.2267256516625462
705.0,0.22628667472297836
704.0,0.22628667472297836
703.0,0.22577509513108107
702.0,0.22453519065426075
701.0,0.22279074185431513
700.0,0.2206199885083442
699.0,0.21774242633669827
698.0,0.21467016498923286
697.0,0.21232703531250707
696.0,0.21126614117229248
695.0,0.21077194273266486
694.0,0.21027830601907826
693.0,0.20985563495709947
692.0,0.20943337485392344
691.0,0.20844969497266996
690.0,0.20697834015401684
689.0,0.20620961530918125
688.0,0.20662875108104428
687.0,0.20739821883503362
686.0,0.2076083105017461
685.0,0.20753826865304936
684.0,0.20844969497266996
683.0,0.2102078322693246
682.0,0.21169018789295002
681.0,0.2121146490590755
680.0,0.21147811277752715
679.0,0.21027830601907826
678.0,0.2092223986623063
677.0,0.2089412564081745
676.0,0.20957408260888943
675.0,0.2107013888405589
674.0,0.2115487929765445
673.0,0.21133678687914248
672.0,0.2092927126723203
671.0,0.20530287310800133
670.0,0.20121128604875071
669.0,0.20169471797802352
668.0,0.20866029603486047
667.0,0.21310667473868428
666.0,0.21133678687914248
665.0,0.2076083105017461
664.0,0.20453710560962013
663.0,0.20217868863597643
662.0,0.20017716900668026
661.0,0.1990081387398286
660.0,0.19880216554085117
659.0,0.1987335295103798
658.0,0.19777376230892996
657.0,0.19640633522865558
656.0,0.19565608152013425
655.0,0.1960651501361581
654.0,0.19708951058096025
653.0,0.1979107421182673
652.0,0.19784224681303852
651.0,0.19681611146465805
650.0,0.19545169161194398
649.0,0.19490712165732704
648.0,0.19531548509305963
647.0,0.19565608152013425
646.0,0.19531548509305963
645.0,0.19490712165732704
644.0,0.19490712165732704
643.0,0.19504320014250842
642.0,0.19551981089400727
641.0,0.19715788726092565
640.0,0.20017716900668026
639.0,0.20342566678957041
638.0,0.20620961530918125
637.0,0.2089412564081745
636.0,0.21204387671606817
635.0,0.21424320003735708
634.0,0.21452779669361166
633.0,0.2141009716156166
632.0,0.21388771628017356
631.0,0.21310667473868428
630.0,0.2108425080885603
629.0,0.2081690523251638
628.0,0.20641913263184408
627.0,0.2054422487452383
626.0,0.20467623567068616
625.0,0.2043980201058202
624.0,0.20488501436963658
623.0,0.2054422487452383
622.0,0.20551195334083028
621.0,0.20537255533549192
620.0,0.2054422487452383
619.0,0.20537255533549192
618.0,0.2043980201058202
617.0,0.2033562962148836
616.0,0.2032175882986922
615.0,0.20384212309308558
614.0,0.20446755728984556
613.0,0.20509389348319607
612.0,0.20558166912585896
611.0,0.20509389348319607
610.0,0.2032175882986922
609.0,0.2010042655561186
608.0,0.19983300979863605
607.0,0.19969542244380145
606.0,0.19921420967223735
605.0,0.19825338078053978
604.0,0.19749993223560658
603.0,0.19702114466473808
602.0,0.1962698290254561
601.0,0.19524739784953948
600.0,0.19409154492580294
