cm-1,A
4000.0,0.005946936412324799
3999.0,0.005990966876386672
3998.0,0.006079041198713275
3997.0,0.00612308505878878
3996.0,0.00621118618129457
3995.0,0.00625524344553785
3994.0,0.006299305179649828
3993.0,0.006387442061109638
3992.0,0.006475596832934416
3991.0,0.00656376950238835
3990.0,0.00656376950238835
3989.0,0.006519680930003435
3988.0,0.006387442061109638
3987.0,0.00625524344553785
3986.0,0.00612308505878878
3985.0,0.006079041198713275
3984.0,0.006079041198713275
3983.0,0.00612308505878878
3982.0,0.006167133386013823
3981.0,0.006167133386013823
3980.0,0.006167133386013823
3979.0,0.006167133386013823
3978.0,0.00612308505878878
3977.0,0.00612308505878878
3976.0,0.00612308505878878
3975.0,0.006167133386013823
3974.0,0.006167133386013823
3973.0,0.006167133386013823
3972.0,0.00612308505878878
3971.0,0.006167133386013823
3970.0,0.00625524344553785
3969.0,0.006387442061109638
3968.0,0.006475596832934416
3967.0,0.006431517210272464
3966.0,0.006343371384537999
3965.0,0.00625524344553785
3964.0,0.00621118618129457
3963.0,0.00621118618129457
3962.0,0.00625524344553785
3961.0,0.006299305179649828
3960.0,0.00621118618129457
3959.0,0.006079041198713275
3958.0,0.005990966876386672
3957.0,0.005990966876386672
3956.0,0.006079041198713275
3955.0,0.006167133386013823
3954.0,0.00625524344553785
3953.0,0.006299305179649828
3952.0,0.006299305179649828
3951.0,0.006299305179649828
3950.0,0.006299305179649828
3949.0,0.00625524344553785
3948.0,0.00612308505878878
3947.0,0.005946936412324799
3946.0,0.005814871797682919
3945.0,0.005814871797682919
3944.0,0.00590291041179003
3943.0,0.006035001804881146
3942.0,0.00612308505878878
3941.0,0.00612308505878878
3940.0,0.006167133386013823
3939.0,0.00625524344553785
3938.0,0.006343371384537999
3937.0,0.006299305179649828
3936.0,0.00621118618129457
3935.0,0.00612308505878878
3934.0,0.006079041198713275
3933.0,0.006035001804881146
3932.0,0.005946936412324799
3931.0,0.005858888873877532
3930.0,0.005814871797682919
3929.0,0.005814871797682919
3928.0,0.005946936412324799
3927.0,0.00612308505878878
3926.0,0.006299305179649828
3925.0,0.006387442061109638
3924.0,0.006343371384537999
3923.0,0.00612308505878878
3922.0,0.00590291041179003
3921.0,0.005682847330363394
3920.0,0.005506877116487674
3919.0,0.005462895701502157
3918.0,0.005550862985963967
3917.0,0.005726851026829571
3916.0,0.005814871797682919
3915.0,0.00590291041179003
3914.0,0.006035001804881146
3913.0,0.00621118618129457
3912.0,0.006299305179649828
3911.0,0.006343371384537999
3910.0,0.00625524344553785
3909.0,0.00612308505878878
3908.0,0.005946936412324799
3907.0,0.005726851026829571
3906.0,0.00541891874010525
3905.0,0.005155150446602086
3904.0,0.004979393875242044
3903.0,0.004935465843858511
3902.0,0.005067263269958211
3901.0,0.00537494623139545
3900.0,0.005550862985963967
3899.0,0.005550862985963967
3898.0,0.005462895701502157
3897.0,0.005506877116487674
3896.0,0.005682847330363394
3895.0,0.00590291041179003
3894.0,0.005946936412324799
3893.0,0.005990966876386672
3892.0,0.005990966876386672
3891.0,0.005858888873877532
3890.0,0.005550862985963967
3889.0,0.00541891874010525
3888.0,0.005506877116487674
3887.0,0.005638848091999105
3886.0,0.005682847330363394
3885.0,0.005506877116487674
3884.0,0.005243055412371911
3883.0,0.005330978174470591
3882.0,0.005638848091999105
3881.0,0.005858888873877532
3880.0,0.005726851026829571
3879.0,0.005462895701502157
3878.0,0.00537494623139545
3877.0,0.005726851026829571
3876.0,0.006167133386013823
3875.0,0.006343371384537999
3874.0,0.006167133386013823
3873.0,0.00577085918230158
3872.0,0.005594853310833647
3871.0,0.005726851026829571
3870.0,0.005814871797682919
3869.0,0.005506877116487674
3868.0,0.005199100705396198
3867.0,0.0052870145684298375
3866.0,0.005594853310833647
3865.0,0.005858888873877532
3864.0,0.00590291041179003
3863.0,0.00590291041179003
3862.0,0.00590291041179003
3861.0,0.00590291041179003
3860.0,0.005858888873877532
3859.0,0.005726851026829571
3858.0,0.005550862985963967
3857.0,0.00537494623139545
3856.0,0.0052870145684298375
3855.0,0.005506877116487674
3854.0,0.00590291041179003
3853.0,0.005814871797682919
3852.0,0.005462895701502157
3851.0,0.005726851026829571
3850.0,0.006475596832934416
3849.0,0.006916639301937977
3848.0,0.006872514894289861
3847.0,0.006475596832934416
3846.0,0.00612308505878878
3845.0,0.005814871797682919
3844.0,0.005594853310833647
3843.0,0.005462895701502157
3842.0,0.00541891874010525
3841.0,0.005462895701502157
3840.0,0.005638848091999105
3839.0,0.005814871797682919
3838.0,0.005814871797682919
3837.0,0.00577085918230158
3836.0,0.005814871797682919
3835.0,0.005946936412324799
3834.0,0.00612308505878878
3833.0,0.00612308505878878
3832.0,0.005990966876386672
3831.0,0.00577085918230158
3830.0,0.005550862985963967
3829.0,0.005506877116487674
3828.0,0.005594853310833647
3827.0,0.005682847330363394
3826.0,0.005594853310833647
3825.0,0.00541891874010525
3824.0,0.0052870145684298375
3823.0,0.005330978174470591
3822.0,0.005506877116487674
3821.0,0.005506877116487674
3820.0,0.005155150446602086
3819.0,0.005023326350308999
3818.0,0.005550862985963967
3817.0,0.006299305179649828
3816.0,0.006784279525863024
3815.0,0.006828394969235152
3814.0,0.006784279525863024
3813.0,0.006916639301937977
3812.0,0.00696076819309055
3811.0,0.006696062080525422
3810.0,0.00625524344553785
3809.0,0.006035001804881146
3808.0,0.006035001804881146
3807.0,0.006035001804881146
3806.0,0.00577085918230158
3805.0,0.005550862985963967
3804.0,0.005594853310833647
3803.0,0.005858888873877532
3802.0,0.006079041198713275
3801.0,0.005858888873877532
3800.0,0.00541891874010525
3799.0,0.005462895701502157
3798.0,0.005946936412324799
3797.0,0.006387442061109638
3796.0,0.006519680930003435
3795.0,0.006387442061109638
3794.0,0.006299305179649828
3793.0,0.006299305179649828
3792.0,0.00625524344553785
3791.0,0.006167133386013823
3790.0,0.006035001804881146
3789.0,0.005990966876386672
3788.0,0.005990966876386672
3787.0,0.005990966876386672
3786.0,0.006035001804881146
3785.0,0.005990966876386672
3784.0,0.005858888873877532
3783.0,0.005726851026829571
3782.0,0.005682847330363394
3781.0,0.005814871797682919
3780.0,0.006035001804881146
3779.0,0.00612308505878878
3778.0,0.006079041198713275
3777.0,0.006079041198713275
3776.0,0.006167133386013823
3775.0,0.00625524344553785
3774.0,0.00621118618129457
3773.0,0.00612308505878878
3772.0,0.006079041198713275
3771.0,0.00612308505878878
3770.0,0.006035001804881146
3769.0,0.005814871797682919
3768.0,0.005638848091999105
3767.0,0.00577085918230158
3766.0,0.005946936412324799
3765.0,0.006035001804881146
3764.0,0.005946936412324799
3763.0,0.00590291041179003
3762.0,0.005946936412324799
3761.0,0.005946936412324799
3760.0,0.005814871797682919
3759.0,0.005682847330363394
3758.0,0.005594853310833647
3757.0,0.005506877116487674
3756.0,0.00541891874010525
3755.0,0.0052870145684298375
3754.0,0.005067263269958211
3753.0,0.004935465843858511
3752.0,0.005111204635089406
3751.0,0.005506877116487674
3750.0,0.005726851026829571
3749.0,0.005594853310833647
3748.0,0.005462895701502157
3747.0,0.005462895701502157
3746.0,0.005814871797682919
3745.0,0.006299305179649828
3744.0,0.006387442061109638
3743.0,0.006035001804881146
3742.0,0.006079041198713275
3741.0,0.006343371384537999
3740.0,0.006167133386013823
3739.0,0.005550862985963967
3738.0,0.005023326350308999
3737.0,0.00489154225525934
3736.0,0.005067263269958211
3735.0,0.005111204635089406
3734.0,0.005023326350308999
3733.0,0.005067263269958211
3732.0,0.005330978174470591
3731.0,0.005550862985963967
3730.0,0.00577085918230158
3729.0,0.005990966876386672
3728.0,0.006167133386013823
3727.0,0.006167133386013823
3726.0,0.005946936412324799
3725.0,0.005638848091999105
3724.0,0.005462895701502157
3723.0,0.00541891874010525
3722.0,0.00541891874010525
3721.0,0.005462895701502157
3720.0,0.005550862985963967
3719.0,0.005682847330363394
3718.0,0.00577085918230158
3717.0,0.005726851026829571
3716.0,0.005594853310833647
3715.0,0.005506877116487674
3714.0,0.005506877116487674
3713.0,0.005594853310833647
3712.0,0.005726851026829571
3711.0,0.00577085918230158
3710.0,0.005726851026829571
3709.0,0.005726851026829571
3708.0,0.00577085918230158
3707.0,0.005726851026829571
3706.0,0.005594853310833647
3705.0,0.005462895701502157
3704.0,0.00541891874010525
3703.0,0.005506877116487674
3702.0,0.005594853310833647
3701.0,0.005594853310833647
3700.0,0.005462895701502157
3699.0,0.005462895701502157
3698.0,0.005550862985963967
3697.0,0.005594853310833647
3696.0,0.005638848091999105
3695.0,0.005594853310833647
3694.0,0.005594853310833647
3693.0,0.005506877116487674
3692.0,0.005330978174470591
3691.0,0.005155150446602086
3690.0,0.005111204635089406
3689.0,0.005155150446602086
3688.0,0.0052870145684298375
3687.0,0.005550862985963967
3686.0,0.005946936412324799
3685.0,0.006431517210272464
3684.0,0.006607862550997545
3683.0,0.006519680930003435
3682.0,0.006299305179649828
3681.0,0.005946936412324799
3680.0,0.005462895701502157
3679.0,0.005023326350308999
3678.0,0.004803708402820517
3677.0,0.005155150446602086
3676.0,0.005682847330363394
3675.0,0.005594853310833647
3674.0,0.005111204635089406
3673.0,0.005023326350308999
3672.0,0.00541891874010525
3671.0,0.00590291041179003
3670.0,0.006079041198713275
3669.0,0.00590291041179003
3668.0,0.005814871797682919
3667.0,0.005990966876386672
3666.0,0.006299305179649828
3665.0,0.006343371384537999
3664.0,0.00625524344553785
3663.0,0.00612308505878878
3662.0,0.006035001804881146
3661.0,0.005946936412324799
3660.0,0.005858888873877532
3659.0,0.005814871797682919
3658.0,0.00590291041179003
3657.0,0.006035001804881146
3656.0,0.005990966876386672
3655.0,0.005682847330363394
3654.0,0.00537494623139545
3653.0,0.005155150446602086
3652.0,0.004935465843858511
3651.0,0.004759798137184523
3650.0,0.004979393875242044
3649.0,0.005330978174470591
3648.0,0.005682847330363394
3647.0,0.005990966876386672
3646.0,0.006299305179649828
3645.0,0.006607862550997545
3644.0,0.006828394969235152
3643.0,0.006872514894289861
3642.0,0.006696062080525422
3641.0,0.006519680930003435
3640.0,0.006343371384537999
3639.0,0.006343371384537999
3638.0,0.006387442061109638
3637.0,0.006431517210272464
3636.0,0.006519680930003435
3635.0,0.006519680930003435
3634.0,0.006343371384537999
3633.0,0.005946936412324799
3632.0,0.005462895701502157
3631.0,0.005199100705396198
3630.0,0.005462895701502157
3629.0,0.005990966876386672
3628.0,0.006079041198713275
3627.0,0.006035001804881146
3626.0,0.006299305179649828
3625.0,0.006696062080525422
3624.0,0.006828394969235152
3623.0,0.006651960076740071
3622.0,0.006343371384537999
3621.0,0.00612308505878878
3620.0,0.005990966876386672
3619.0,0.005814871797682919
3618.0,0.005638848091999105
3617.0,0.005594853310833647
3616.0,0.005814871797682919
3615.0,0.00612308505878878
3614.0,0.006475596832934416
3613.0,0.006696062080525422
3612.0,0.006784279525863024
3611.0,0.006916639301937977
3610.0,0.007049039429553483
3609.0,0.007181479933320523
3608.0,0.007269796045857202
3607.0,0.007269796045857202
3606.0,0.007358130121602358
3605.0,0.007490664932224611
3604.0,0.00762324020119709
3603.0,0.0075790439479759275
3602.0,0.007402303897961815
3601.0,0.007137328610972382
3600.0,0.006872514894289861
3599.0,0.006740168563263094
3598.0,0.006740168563263094
3597.0,0.006916639301937977
3596.0,0.007137328610972382
3595.0,0.007313960837872058
3594.0,0.007313960837872058
3593.0,0.007137328610972382
3592.0,0.006916639301937977
3591.0,0.006696062080525422
3590.0,0.00656376950238835
3589.0,0.006651960076740071
3588.0,0.006872514894289861
3587.0,0.00696076819309055
3586.0,0.00696076819309055
3585.0,0.007004901568658406
3584.0,0.007137328610972382
3583.0,0.007269796045857202
3582.0,0.007313960837872058
3581.0,0.007313960837872058
3580.0,0.007358130121602358
3579.0,0.007402303897961815
3578.0,0.0074464821678643656
3577.0,0.007490664932224611
3576.0,0.007534852191956709
3575.0,0.0075790439479759275
3574.0,0.00762324020119709
3573.0,0.0075790439479759275
3572.0,0.007490664932224611
3571.0,0.007358130121602358
3570.0,0.007181479933320523
3569.0,0.007004901568658406
3568.0,0.006872514894289861
3567.0,0.006740168563263094
3566.0,0.00656376950238835
3565.0,0.006519680930003435
3564.0,0.006651960076740071
3563.0,0.006916639301937977
3562.0,0.007181479933320523
3561.0,0.007313960837872058
3560.0,0.0074464821678643656
3559.0,0.007490664932224611
3558.0,0.007490664932224611
3557.0,0.007490664932224611
3556.0,0.007490664932224611
3555.0,0.0075790439479759275
3554.0,0.007755855953228474
3553.0,0.007844288957383316
3552.0,0.007800070204414977
3551.0,0.00762324020119709
3550.0,0.0074464821678643656
3549.0,0.007402303897961815
3548.0,0.007358130121602358
3547.0,0.007269796045857202
3546.0,0.007225635744644521
3545.0,0.007269796045857202
3544.0,0.0074464821678643656
3543.0,0.007667440952535687
3542.0,0.007844288957383316
3541.0,0.007976972236149349
3540.0,0.007976972236149349
3539.0,0.007932739972333236
3538.0,0.007888512213050314
3537.0,0.007844288957383316
3536.0,0.007755855953228474
3535.0,0.00762324020119709
3534.0,0.0075790439479759275
3533.0,0.00762324020119709
3532.0,0.007755855953228474
3531.0,0.007932739972333236
3530.0,0.008021209005416363
3529.0,0.008021209005416363
3528.0,0.007932739972333236
3527.0,0.007800070204414977
3526.0,0.007755855953228474
3525.0,0.007755855953228474
3524.0,0.007844288957383316
3523.0,0.007932739972333236
3522.0,0.007976972236149349
3521.0,0.007976972236149349
3520.0,0.008065450281052211
3519.0,0.008153946355103248
3518.0,0.008242460465651913
3517.0,0.008286724286910463
3516.0,0.008198201155356077
3515.0,0.008153946355103248
3514.0,0.008065450281052211
3513.0,0.008021209005416363
3512.0,0.008021209005416363
3511.0,0.008109696063975047
3510.0,0.008198201155356077
3509.0,0.008242460465651913
3508.0,0.008242460465651913
3507.0,0.008198201155356077
3506.0,0.008242460465651913
3505.0,0.008330992620051436
3504.0,0.008463824699968647
3503.0,0.008552401996197112
3502.0,0.008596697419959609
3501.0,0.00850811108984062
3500.0,0.008375265465994541
3499.0,0.008242460465651913
3498.0,0.008153946355103248
3497.0,0.008065450281052211
3496.0,0.008065450281052211
3495.0,0.008153946355103248
3494.0,0.008286724286910463
3493.0,0.008419542825660153
3492.0,0.00850811108984062
3491.0,0.00850811108984062
3490.0,0.008419542825660153
3489.0,0.008375265465994541
3488.0,0.008375265465994541
3487.0,0.00850811108984062
3486.0,0.0087296108049002
3485.0,0.008906891951112605
3484.0,0.008995559669244813
3483.0,0.008951223547323472
3482.0,0.008818242332126802
3481.0,0.008685301823389224
3480.0,0.008596697419959609
3479.0,0.00850811108984062
3478.0,0.008463824699968647
3477.0,0.008463824699968647
3476.0,0.008463824699968647
3475.0,0.00850811108984062
3474.0,0.008552401996197112
3473.0,0.008596697419959609
3472.0,0.00850811108984062
3471.0,0.008419542825660153
3470.0,0.008286724286910463
3469.0,0.008286724286910463
3468.0,0.008463824699968647
3467.0,0.008685301823389224
3466.0,0.008906891951112605
3465.0,0.009039900317800775
3464.0,0.008995559669244813
3463.0,0.008862564879688284
3462.0,0.0087296108049002
3461.0,0.008596697419959609
3460.0,0.008552401996197112
3459.0,0.008596697419959609
3458.0,0.008685301823389224
3457.0,0.008773924307505121
3456.0,0.008773924307505121
3455.0,0.0087296108049002
3454.0,0.008596697419959609
3453.0,0.008552401996197112
3452.0,0.008552401996197112
3451.0,0.008640997362049818
3450.0,0.008773924307505121
3449.0,0.008906891951112605
3448.0,0.008995559669244813
3447.0,0.009039900317800775
3446.0,0.009039900317800775
3445.0,0.00908424549391551
3444.0,0.009172949432521227
3443.0,0.009261671492462709
3442.0,0.009350411681145587
3441.0,0.009350411681145587
3440.0,0.009306039320248427
3439.0,0.009306039320248427
3438.0,0.009306039320248427
3437.0,0.009261671492462709
3436.0,0.009172949432521227
3435.0,0.008995559669244813
3434.0,0.008773924307505121
3433.0,0.008640997362049818
3432.0,0.008552401996197112
3431.0,0.008552401996197112
3430.0,0.008552401996197112
3429.0,0.00850811108984062
3428.0,0.008463824699968647
3427.0,0.008463824699968647
3426.0,0.00850811108984062
3425.0,0.008596697419959609
3424.0,0.0087296108049002
3423.0,0.008862564879688284
3422.0,0.008995559669244813
3421.0,0.009039900317800775
3420.0,0.008995559669244813
3419.0,0.008951223547323472
3418.0,0.008818242332126802
3417.0,0.008773924307505121
3416.0,0.008773924307505121
3415.0,0.008773924307505121
3414.0,0.008862564879688284
3413.0,0.008995559669244813
3412.0,0.009172949432521227
3411.0,0.00939478857608056
3410.0,0.009483555971770974
3409.0,0.009527946474380489
3408.0,0.009527946474380489
3407.0,0.00939478857608056
3406.0,0.009306039320248427
3405.0,0.009306039320248427
3404.0,0.009350411681145587
3403.0,0.00939478857608056
3402.0,0.009350411681145587
3401.0,0.009261671492462709
3400.0,0.009172949432521227
3399.0,0.009172949432521227
3398.0,0.009172949432521227
3397.0,0.00908424549391551
3396.0,0.008951223547323472
3395.0,0.008818242332126802
3394.0,0.008818242332126802
3393.0,0.008951223547323472
3392.0,0.009128595198514056
3391.0,0.009261671492462709
3390.0,0.009261671492462709
3389.0,0.009172949432521227
3388.0,0.009128595198514056
3387.0,0.00908424549391551
3386.0,0.009039900317800775
3385.0,0.008995559669244813
3384.0,0.008951223547323472
3383.0,0.008906891951112605
3382.0,0.008906891951112605
3381.0,0.008951223547323472
3380.0,0.009039900317800775
3379.0,0.009128595198514056
3378.0,0.009172949432521227
3377.0,0.009172949432521227
3376.0,0.00908424549391551
3375.0,0.008951223547323472
3374.0,0.008862564879688284
3373.0,0.008862564879688284
3372.0,0.008862564879688284
3371.0,0.008951223547323472
3370.0,0.009039900317800775
3369.0,0.00908424549391551
3368.0,0.009039900317800775
3367.0,0.008951223547323472
3366.0,0.008906891951112605
3365.0,0.008862564879688284
3364.0,0.008906891951112605
3363.0,0.008951223547323472
3362.0,0.008995559669244813
3361.0,0.008951223547323472
3360.0,0.008862564879688284
3359.0,0.008773924307505121
3358.0,0.0087296108049002
3357.0,0.0087296108049002
3356.0,0.008773924307505121
3355.0,0.008818242332126802
3354.0,0.008862564879688284
3353.0,0.008906891951112605
3352.0,0.008951223547323472
3351.0,0.008951223547323472
3350.0,0.008906891951112605
3349.0,0.008906891951112605
3348.0,0.008906891951112605
3347.0,0.008862564879688284
3346.0,0.008818242332126802
3345.0,0.008685301823389224
3344.0,0.008640997362049818
3343.0,0.008596697419959609
3342.0,0.008552401996197112
3341.0,0.008419542825660153
3340.0,0.008242460465651913
3339.0,0.008198201155356077
3338.0,0.008286724286910463
3337.0,0.00850811108984062
3336.0,0.008640997362049818
3335.0,0.0087296108049002
3334.0,0.0087296108049002
3333.0,0.008773924307505121
3332.0,0.008773924307505121
3331.0,0.008862564879688284
3330.0,0.008906891951112605
3329.0,0.008862564879688284
3328.0,0.008773924307505121
3327.0,0.008640997362049818
3326.0,0.00850811108984062
3325.0,0.008419542825660153
3324.0,0.008419542825660153
3323.0,0.008463824699968647
3322.0,0.008552401996197112
3321.0,0.008596697419959609
3320.0,0.008596697419959609
3319.0,0.008552401996197112
3318.0,0.008552401996197112
3317.0,0.00850811108984062
3316.0,0.008463824699968647
3315.0,0.008463824699968647
3314.0,0.008419542825660153
3313.0,0.008419542825660153
3312.0,0.008375265465994541
3311.0,0.008286724286910463
3310.0,0.008198201155356077
3309.0,0.008065450281052211
3308.0,0.008021209005416363
3307.0,0.008065450281052211
3306.0,0.008153946355103248
3305.0,0.008286724286910463
3304.0,0.008375265465994541
3303.0,0.008419542825660153
3302.0,0.008463824699968647
3301.0,0.00850811108984062
3300.0,0.00850811108984062
3299.0,0.008463824699968647
3298.0,0.008419542825660153
3297.0,0.008330992620051436
3296.0,0.008242460465651913
3295.0,0.008153946355103248
3294.0,0.008065450281052211
3293.0,0.008021209005416363
3292.0,0.007976972236149349
3291.0,0.007932739972333236
3290.0,0.007888512213050314
3289.0,0.007844288957383316
3288.0,0.007844288957383316
3287.0,0.007888512213050314
3286.0,0.007888512213050314
3285.0,0.007932739972333236
3284.0,0.007932739972333236
3283.0,0.007976972236149349
3282.0,0.008021209005416363
3281.0,0.008065450281052211
3280.0,0.008065450281052211
3279.0,0.008065450281052211
3278.0,0.008021209005416363
3277.0,0.007888512213050314
3276.0,0.007800070204414977
3275.0,0.007711646202907652
3274.0,0.007667440952535687
3273.0,0.007667440952535687
3272.0,0.007711646202907652
3271.0,0.007711646202907652
3270.0,0.007711646202907652
3269.0,0.007711646202907652
3268.0,0.007711646202907652
3267.0,0.007711646202907652
3266.0,0.007667440952535687
3265.0,0.00762324020119709
3264.0,0.0075790439479759275
3263.0,0.007534852191956709
3262.0,0.007490664932224611
3261.0,0.0074464821678643656
3260.0,0.0074464821678643656
3259.0,0.0074464821678643656
3258.0,0.0074464821678643656
3257.0,0.0074464821678643656
3256.0,0.0074464821678643656
3255.0,0.007402303897961815
3254.0,0.007358130121602358
3253.0,0.007313960837872058
3252.0,0.007269796045857202
3251.0,0.007181479933320523
3250.0,0.007181479933320523
3249.0,0.007225635744644521
3248.0,0.007358130121602358
3247.0,0.007402303897961815
3246.0,0.007402303897961815
3245.0,0.007358130121602358
3244.0,0.007269796045857202
3243.0,0.007181479933320523
3242.0,0.007137328610972382
3241.0,0.007093181776687496
3240.0,0.007049039429553483
3239.0,0.007049039429553483
3238.0,0.007049039429553483
3237.0,0.007004901568658406
3236.0,0.006872514894289861
3235.0,0.006740168563263094
3234.0,0.006651960076740071
3233.0,0.006696062080525422
3232.0,0.006828394969235152
3231.0,0.006916639301937977
3230.0,0.00696076819309055
3229.0,0.007004901568658406
3228.0,0.00696076819309055
3227.0,0.006916639301937977
3226.0,0.00696076819309055
3225.0,0.007004901568658406
3224.0,0.007049039429553483
3223.0,0.007049039429553483
3222.0,0.007049039429553483
3221.0,0.007004901568658406
3220.0,0.007049039429553483
3219.0,0.007093181776687496
3218.0,0.007093181776687496
3217.0,0.007049039429553483
3216.0,0.00696076819309055
3215.0,0.006828394969235152
3214.0,0.006696062080525422
3213.0,0.006607862550997545
3212.0,0.006607862550997545
3211.0,0.006696062080525422
3210.0,0.006784279525863024
3209.0,0.006784279525863024
3208.0,0.006696062080525422
3207.0,0.006607862550997545
3206.0,0.00656376950238835
3205.0,0.00656376950238835
3204.0,0.00656376950238835
3203.0,0.006519680930003435
3202.0,0.006431517210272464
3201.0,0.006299305179649828
3200.0,0.006167133386013823
3199.0,0.006167133386013823
3198.0,0.006299305179649828
3197.0,0.006431517210272464
3196.0,0.006431517210272464
3195.0,0.006343371384537999
3194.0,0.00625524344553785
3193.0,0.00621118618129457
3192.0,0.00621118618129457
3191.0,0.00621118618129457
3190.0,0.006167133386013823
3189.0,0.006079041198713275
3188.0,0.005990966876386672
3187.0,0.005990966876386672
3186.0,0.005990966876386672
3185.0,0.006035001804881146
3184.0,0.006035001804881146
3183.0,0.006035001804881146
3182.0,0.005990966876386672
3181.0,0.005990966876386672
3180.0,0.00612308505878878
3179.0,0.00621118618129457
3178.0,0.006299305179649828
3177.0,0.00625524344553785
3176.0,0.00612308505878878
3175.0,0.005946936412324799
3174.0,0.00590291041179003
3173.0,0.00590291041179003
3172.0,0.00590291041179003
3171.0,0.005946936412324799
3170.0,0.005946936412324799
3169.0,0.005946936412324799
3168.0,0.00590291041179003
3167.0,0.00590291041179003
3166.0,0.005858888873877532
3165.0,0.00577085918230158
3164.0,0.005638848091999105
3163.0,0.005550862985963967
3162.0,0.005550862985963967
3161.0,0.005550862985963967
3160.0,0.005550862985963967
3159.0,0.005550862985963967
3158.0,0.005550862985963967
3157.0,0.005550862985963967
3156.0,0.005594853310833647
3155.0,0.005682847330363394
3154.0,0.005726851026829571
3153.0,0.005726851026829571
3152.0,0.005682847330363394
3151.0,0.005594853310833647
3150.0,0.005462895701502157
3149.0,0.005330978174470591
3148.0,0.005199100705396198
3147.0,0.005155150446602086
3146.0,0.005155150446602086
3145.0,0.005155150446602086
3144.0,0.005155150446602086
3143.0,0.005111204635089406
3142.0,0.005023326350308999
3141.0,0.004979393875242044
3140.0,0.004979393875242044
3139.0,0.005023326350308999
3138.0,0.005155150446602086
3137.0,0.005243055412371911
3136.0,0.005330978174470591
3135.0,0.005330978174470591
3134.0,0.005199100705396198
3133.0,0.005023326350308999
3132.0,0.00484762310854614
3131.0,0.004715892310740433
3130.0,0.004715892310740433
3129.0,0.004715892310740433
3128.0,0.004671990922590297
3127.0,0.004671990922590297
3126.0,0.004671990922590297
3125.0,0.004715892310740433
3124.0,0.004803708402820517
3123.0,0.00484762310854614
3122.0,0.00484762310854614
3121.0,0.00484762310854614
3120.0,0.004803708402820517
3119.0,0.004759798137184523
3118.0,0.004715892310740433
3117.0,0.004715892310740433
3116.0,0.004628093971837721
3115.0,0.00458420145758498
3114.0,0.00458420145758498
3113.0,0.004671990922590297
3112.0,0.004759798137184523
3111.0,0.00484762310854614
3110.0,0.00484762310854614
3109.0,0.004759798137184523
3108.0,0.004671990922590297
3107.0,0.004628093971837721
3106.0,0.004671990922590297
3105.0,0.004715892310740433
3104.0,0.004715892310740433
3103.0,0.004671990922590297
3102.0,0.004671990922590297
3101.0,0.004759798137184523
3100.0,0.00489154225525934
3099.0,0.005023326350308999
3098.0,0.005023326350308999
3097.0,0.005023326350308999
3096.0,0.004935465843858511
3095.0,0.00484762310854614
3094.0,0.004759798137184523
3093.0,0.004715892310740433
3092.0,0.004715892310740433
3091.0,0.004715892310740433
3090.0,0.004715892310740433
3089.0,0.004715892310740433
3088.0,0.004671990922590297
3087.0,0.004540313378935901
3086.0,0.004408675747646695
3085.0,0.004320939488377862
3084.0,0.004277078004534696
3083.0,0.004320939488377862
3082.0,0.004452550524862486
3081.0,0.00458420145758498
3080.0,0.004628093971837721
3079.0,0.00458420145758498
3078.0,0.004452550524862486
3077.0,0.0043648054024501
3076.0,0.0043648054024501
3075.0,0.0043648054024501
3074.0,0.004408675747646695
3073.0,0.004408675747646695
3072.0,0.004408675747646695
3071.0,0.0043648054024501
3070.0,0.004320939488377862
3069.0,0.004320939488377862
3068.0,0.004408675747646695
3067.0,0.0044964297349936455
3066.0,0.004540313378935901
3065.0,0.004540313378935901
3064.0,0.004452550524862486
3063.0,0.0043648054024501
3062.0,0.004320939488377862
3061.0,0.004320939488377862
3060.0,0.004320939488377862
3059.0,0.0043648054024501
3058.0,0.004320939488377862
3057.0,0.004277078004534696
3056.0,0.004189368323957332
3055.0,0.0040578370074493275
3054.0,0.003926345514724705
3053.0,0.003794893821675638
3052.0,0.0038387066319929275
3051.0,0.003926345514724705
3050.0,0.0040578370074493275
3049.0,0.004145520125434121
3048.0,0.004189368323957332
3047.0,0.004233220950025984
3046.0,0.004233220950025984
3045.0,0.004233220950025984
3044.0,0.004233220950025984
3043.0,0.004189368323957332
3042.0,0.004145520125434121
3041.0,0.0040578370074493275
3040.0,0.003970171588923321
3039.0,0.0038825238627120395
3038.0,0.0038825238627120395
3037.0,0.0038825238627120395
3036.0,0.003926345514724705
3035.0,0.003970171588923321
3034.0,0.0040578370074493275
3033.0,0.004101676353562844
3032.0,0.004145520125434121
3031.0,0.004101676353562844
3030.0,0.0040578370074493275
3029.0,0.003970171588923321
3028.0,0.0038387066319929275
3027.0,0.0036634819042162814
3026.0,0.003488327845821315
3025.0,0.0034007772998332353
3024.0,0.0034445503666347133
3023.0,0.0035321097382827737
3022.0,0.0035758960449088217
3021.0,0.0035321097382827737
3020.0,0.0034445503666347133
3019.0,0.0033570086445275926
3018.0,0.0033570086445275926
3017.0,0.0033570086445275926
3016.0,0.0033570086445275926
3015.0,0.0033570086445275926
3014.0,0.0034007772998332353
3013.0,0.0033570086445275926
3012.0,0.0033132443998284966
3011.0,0.0031382315093266833
3010.0,0.0030070181092942683
3009.0,0.0028758443407954637
3008.0,0.0027884171674950053
3007.0,0.0027447101798967477
3006.0,0.0027884171674950053
3005.0,0.0028321285541661467
3004.0,0.0027884171674950053
3003.0,0.002701007590486082
3002.0,0.002569926202528716
3001.0,0.002395212539545666
3000.0,0.0023078820582733695
2999.0,0.0022642234021015284
2998.0,0.0022642234021015284
2997.0,0.002351545103793873
2996.0,0.0024388843664115978
2995.0,0.0024388843664115978
2994.0,0.002351545103793873
2993.0,0.0021769192542746563
2992.0,0.0020459959305969555
2991.0,0.0020023635919956817
2990.0,0.0020459959305969555
2989.0,0.0021769192542746563
2988.0,0.0022642234021015284
2987.0,0.002351545103793873
2986.0,0.002395212539545666
2985.0,0.002482560585275184
2984.0,0.002613615602686581
2983.0,0.0027884171674950053
2982.0,0.0029632891174733444
2981.0,0.003050751504618754
2980.0,0.0031819781204844855
2979.0,0.0033132443998284966
2978.0,0.003488327845821315
2977.0,0.003619686766589858
2976.0,0.0038387066319929275
2975.0,0.0040578370074493275
2974.0,0.004320939488377862
2973.0,0.00458420145758498
2972.0,0.00489154225525934
2971.0,0.0052870145684298375
2970.0,0.00577085918230158
2969.0,0.00621118618129457
2968.0,0.006651960076740071
2967.0,0.007093181776687496
2966.0,0.007534852191956709
2965.0,0.008065450281052211
2964.0,0.008685301823389224
2963.0,0.009217308196862062
2962.0,0.00974996707218323
2961.0,0.01023881228122181
2960.0,0.010728208358306901
2959.0,0.011262724711199823
2958.0,0.011797899741219142
2957.0,0.012289056869694281
2956.0,0.012736045877764557
2955.0,0.013138729709955221
2954.0,0.013631406429727155
2953.0,0.014124642691606404
2952.0,0.014663358264387139
2951.0,0.015247721884586563
2950.0,0.015877917138889863
2949.0,0.016689514205884493
2948.0,0.01768353030793479
2947.0,0.018906576854070378
2946.0,0.02036058777709271
2945.0,0.02204787879853809
2944.0,0.023971159908874107
2943.0,0.02617967564731627
2942.0,0.02872415126189476
2941.0,0.03151705144606498
2940.0,0.034516075754861264
2939.0,0.03777276864991497
2938.0,0.04129280891271536
2937.0,0.04513062893352182
2936.0,0.04919717703534143
2935.0,0.05354773498692689
2934.0,0.0582898510583536
2933.0,0.06343599486473406
2932.0,0.0690000580438479
2931.0,0.07499749231902242
2930.0,0.08134070657817682
2929.0,0.08820340956274775
2928.0,0.0957714836599215
2927.0,0.10430127304069425
2926.0,0.11396072443355765
2925.0,0.12482294018529605
2924.0,0.13685565374733244
2923.0,0.15002808767114995
2922.0,0.16424603248061653
2921.0,0.17927323717616583
2920.0,0.19470308384201496
2919.0,0.20978522975602076
2918.0,0.2230809971579535
2917.0,0.23284413391781955
2916.0,0.2377717157135255
2915.0,0.23747147755300002
2914.0,0.23254728190222673
2913.0,0.22453519065426075
2912.0,0.21495504166845603
2911.0,0.20509389348319607
2910.0,0.19558794086228604
2909.0,0.18668594105416525
2908.0,0.1784864715952268
2907.0,0.1712756728612086
2906.0,0.16488040957545036
2905.0,0.15932943866659088
2904.0,0.15440590683997568
2903.0,0.1499667423102311
2902.0,0.1459369881335788
2901.0,0.1423660148499919
2900.0,0.13924287691845794
2899.0,0.1363797797296844
2898.0,0.13359450162194508
2897.0,0.1308269726783169
2896.0,0.1280769681176266
2895.0,0.1252863112422209
2894.0,0.12245589228405596
2893.0,0.11952940719622163
2892.0,0.1165657063169907
2891.0,0.11356568037106163
2890.0,0.11053021603049262
2889.0,0.10746019534136453
2888.0,0.10424605792627206
2887.0,0.10105553313349058
2886.0,0.09777947172068524
2885.0,0.09447395156495153
2884.0,0.09119340059432579
2883.0,0.08783110394037297
2882.0,0.08438913733853282
2881.0,0.08086958613938555
2880.0,0.07737832847680104
2879.0,0.07391491307485598
2878.0,0.07052998382251041
2877.0,0.06732334137759932
2876.0,0.06434161389936577
2875.0,0.06163040254819374
2874.0,0.05918479134919874
2873.0,0.056950888991593285
2872.0,0.0549747987575373
2871.0,0.05325306496641513
2870.0,0.05178270644002936
2869.0,0.05065879322950262
2868.0,0.049927370249842395
2867.0,0.04968383607539972
2866.0,0.04997609347667353
2865.0,0.05085404758005607
2864.0,0.05227227303668425
2863.0,0.05443294655761144
2862.0,0.05734718830678798
2861.0,0.06118017497378969
2860.0,0.06610796423578891
2859.0,0.07221915065262552
2858.0,0.07966792846041071
2857.0,0.08878910686244668
2856.0,0.09990609845660159
2855.0,0.11328372588352176
2854.0,0.12924505510985984
2853.0,0.1479471913021495
2852.0,0.16896251435997467
2851.0,0.19084446825281964
2850.0,0.21077194273266486
2849.0,0.2251182341812037
2848.0,0.23113999915704286
2847.0,0.22819212100089437
2846.0,0.21802932608744796
2845.0,0.20349504844670374
2844.0,0.18722029299103604
2843.0,0.1711468403233598
2842.0,0.1562068016740874
2841.0,0.1427881576831076
2840.0,0.1311205537629121
2839.0,0.12101887660626365
2838.0,0.11243895906999102
2837.0,0.10496440254767725
2836.0,0.09848719087006019
2835.0,0.09285746899685954
2834.0,0.08793744441149753
2833.0,0.08359869639612438
2832.0,0.07982447798997727
2831.0,0.07644514193245056
2830.0,0.07350321072677968
2829.0,0.07083661679493547
2828.0,0.0684912781333824
2827.0,0.0663102910421054
2826.0,0.06439198148213077
2825.0,0.06258241852286206
2824.0,0.060880282351513104
2823.0,0.05928434309333741
2822.0,0.05769424710410598
2821.0,0.05625823416868636
2820.0,0.0549747987575373
2819.0,0.05389176956309405
2818.0,0.05281143447390635
2817.0,0.05178270644002936
2816.0,0.050707598587974356
2815.0,0.04973253198641148
2814.0,0.04875964967565971
2813.0,0.0478374257855374
2812.0,0.04696554274964315
2811.0,0.046143701775014145
2810.0,0.04541983725624266
2809.0,0.04474531717982
2808.0,0.044167989767578186
2807.0,0.04359142880416744
2806.0,0.042967683653061695
2805.0,0.04229695845116854
2804.0,0.041627267521392675
2803.0,0.040958607678906356
2802.0,0.04038628892895613
2801.0,0.039909932095080425
2800.0,0.03952922246570112
2799.0,0.03919637508823026
2798.0,0.03876880295533702
2797.0,0.038341651362284734
2796.0,0.03777276864991497
2795.0,0.037251946641359446
2794.0,0.03668448861388862
2793.0,0.03616496929785207
2792.0,0.035693217696063595
2791.0,0.03526907894637077
2790.0,0.03489241415094413
2789.0,0.034516075754861264
2788.0,0.03414006319292828
2787.0,0.03371743783253667
2786.0,0.03334211579824231
2785.0,0.032873418923587305
2784.0,0.03235843591698884
2783.0,0.03193753992355086
2782.0,0.031563752288295444
2781.0,0.031236951802751545
2780.0,0.030910397045078586
2779.0,0.03063068826647264
2778.0,0.030351159519274695
2777.0,0.030164906924202484
2776.0,0.029932203450862893
2775.0,0.02960662792039992
2774.0,0.029188389127482228
2773.0,0.028816959143838528
2772.0,0.02849221828874393
2771.0,0.028214062120885508
2770.0,0.028028723600243666
2769.0,0.027843464140506313
2768.0,0.0277045713888604
2767.0,0.02751945012352408
2766.0,0.027334407733889066
2765.0,0.027056991894431892
2764.0,0.02677975314776626
2763.0,0.026502691267936695
2762.0,0.026318081496016443
2761.0,0.02613355016462182
2760.0,0.025949097207122573
2759.0,0.025810808881832736
2758.0,0.025672564576383117
2757.0,0.02553436426275746
2756.0,0.025350165561278004
2755.0,0.02512002699306959
2754.0,0.024936003904763915
2753.0,0.02475205875931885
2752.0,0.02461415101053266
2751.0,0.024522236834125355
2750.0,0.024522236834125355
2749.0,0.02461415101053266
2748.0,0.024660115394541604
2747.0,0.024660115394541604
2746.0,0.024568191490736968
2745.0,0.024476287039668643
2744.0,0.02438440203310499
2743.0,0.024292536462819925
2742.0,0.024154774532432866
2741.0,0.024017056287453542
2740.0,0.023833499868024743
2739.0,0.023695883447997224
2738.0,0.023604163388120325
2737.0,0.02351246269481
2736.0,0.023466619608062178
2735.0,0.023374947949272418
2734.0,0.023237476732539397
2733.0,0.023100049017062307
2732.0,0.02300845469384938
2731.0,0.02291687968414724
2730.0,0.02282532397981263
2729.0,0.022642270454698687
2728.0,0.02245929405346514
2727.0,0.02227639471115217
2726.0,0.022139270735302752
2725.0,0.02204787879853809
2724.0,0.021956506090037076
2723.0,0.021865152601710403
2722.0,0.021819483062586187
2721.0,0.021728158389364705
2720.0,0.02159120737696063
2719.0,0.02140867317992523
2718.0,0.021271822861508305
2717.0,0.0211806132671577
2716.0,0.021135015652343103
2715.0,0.021135015652343103
2714.0,0.0211806132671577
2713.0,0.021135015652343103
2712.0,0.021089422824428272
2711.0,0.021043834782408455
2710.0,0.020952673052035298
2709.0,0.020907099361673565
2708.0,0.02081596632558158
2707.0,0.02067930261797568
2706.0,0.020542681902151694
2705.0,0.020406104151069693
2704.0,0.020315076172974234
2703.0,0.020178569969774962
2702.0,0.02004210665933459
2701.0,0.01995115493504329
2700.0,0.019860222254245663
2699.0,0.019769308608968306
2698.0,0.019678413991243593
2697.0,0.01958753839310856
2696.0,0.01949668180660491
2695.0,0.019360432556262852
2694.0,0.019315025636685412
2693.0,0.019315025636685412
2692.0,0.019360432556262852
2691.0,0.019451260640229506
2690.0,0.01949668180660491
2689.0,0.01949668180660491
2688.0,0.01949668180660491
2687.0,0.019451260640229506
2686.0,0.019360432556262852
2685.0,0.019269623464054586
2684.0,0.019133445417920836
2683.0,0.019042683770379876
2682.0,0.018951941086827073
2681.0,0.018951941086827073
2680.0,0.018906576854070378
2679.0,0.018861217359339655
2678.0,0.018861217359339655
2677.0,0.01899731005860028
2676.0,0.019133445417920836
2675.0,0.019178833355664393
2674.0,0.019178833355664393
2673.0,0.019178833355664393
2672.0,0.019178833355664393
2671.0,0.0192242260373785
2670.0,0.019315025636685412
2669.0,0.01940584422377989
2668.0,0.019451260640229506
2667.0,0.01949668180660491
2666.0,0.01940584422377989
2665.0,0.019269623464054586
2664.0,0.0190880622231564
2663.0,0.018951941086827073
2662.0,0.018951941086827073
2661.0,0.01899731005860028
2660.0,0.01899731005860028
2659.0,0.01899731005860028
2658.0,0.01899731005860028
2657.0,0.018951941086827073
2656.0,0.018951941086827073
2655.0,0.01899731005860028
2654.0,0.01899731005860028
2653.0,0.018951941086827073
2652.0,0.018861217359339655
2651.0,0.018770512579999288
2650.0,0.018725167293411005
2649.0,0.018679826740892747
2648.0,0.01858915983411169
2647.0,0.018498511851753108
2646.0,0.01845319495476394
2645.0,0.01845319495476394
2644.0,0.018498511851753108
2643.0,0.018543833477873584
2642.0,0.01858915983411169
2641.0,0.01858915983411169
2640.0,0.01858915983411169
2639.0,0.018634490921455527
2638.0,0.018634490921455527
2637.0,0.018634490921455527
2636.0,0.01858915983411169
2635.0,0.018543833477873584
2634.0,0.01845319495476394
2633.0,0.018362575344230914
2632.0,0.01831727262871463
2631.0,0.01831727262871463
2630.0,0.018271974638383703
2629.0,0.018226681372252695
2628.0,0.018136109008649592
2627.0,0.01800028587012159
2626.0,0.017909760704207134
2625.0,0.017864505196230507
2624.0,0.017774008325325275
2623.0,0.01768353030793479
2622.0,0.017502630802287644
2621.0,0.017412209298337533
2620.0,0.017321806616515723
2619.0,0.017321806616515723
2618.0,0.01727661233145472
2617.0,0.017141057687924732
2616.0,0.017005545341335804
2615.0,0.016870075265299933
2614.0,0.016824927962187042
2613.0,0.016734647433454652
2612.0,0.016644385668211692
2611.0,0.016554142658660398
2610.0,0.016509028184833463
2609.0,0.016509028184833463
2608.0,0.016509028184833463
2607.0,0.016509028184833463
2606.0,0.016509028184833463
2605.0,0.016509028184833463
2604.0,0.016418813294209356
2603.0,0.01632861713980338
2602.0,0.016193358021584725
2601.0,0.016148281008528276
2600.0,0.016103208673694303
2599.0,0.016103208673694303
2598.0,0.016058141016111804
2597.0,0.016013078034810446
2596.0,0.01596801972881945
2595.0,0.015922966097169144
2594.0,0.015877917138889863
2593.0,0.015832872853011715
2592.0,0.015742798294583915
2591.0,0.015562705203923999
2590.0,0.015427684378367834
2589.0,0.01538268676325183
2588.0,0.01538268676325183
2587.0,0.01538268676325183
2586.0,0.01538268676325183
2585.0,0.015292705517326866
2584.0,0.015157768594724175
2583.0,0.015022873584506602
2582.0,0.014977917890464765
2581.0,0.014977917890464765
2580.0,0.015022873584506602
2579.0,0.015067833932588037
2578.0,0.015067833932588037
2577.0,0.015067833932588037
2576.0,0.015157768594724175
2575.0,0.015157768594724175
2574.0,0.015067833932588037
2573.0,0.014888020460646079
2572.0,0.014798141635428141
2571.0,0.014753209197138295
2570.0,0.014708281407112
2569.0,0.014753209197138295
2568.0,0.014708281407112
2567.0,0.014663358264387139
2566.0,0.014573525916998342
2565.0,0.014438812226654996
2564.0,0.014304140310157809
2563.0,0.014214382227394795
2562.0,0.014169510141607944
2561.0,0.014214382227394795
2560.0,0.014259258949925524
2559.0,0.014349026309051105
2558.0,0.014393916947563534
2557.0,0.014393916947563534
2556.0,0.014393916947563534
2555.0,0.014393916947563534
2554.0,0.014349026309051105
2553.0,0.014349026309051105
2552.0,0.014304140310157809
2551.0,0.014259258949925524
2550.0,0.014169510141607944
2549.0,0.014079779876432497
2548.0,0.01403492169512921
2547.0,0.013990068146738865
2546.0,0.013900374944870508
2545.0,0.01385553528947936
2544.0,0.01372104409400876
2543.0,0.013631406429727155
2542.0,0.013586594534531482
2541.0,0.013631406429727155
2540.0,0.013676222949234651
2539.0,0.013676222949234651
2538.0,0.013586594534531482
2537.0,0.013452186585275916
2536.0,0.013362604389846044
2535.0,0.013317820220494436
2534.0,0.013362604389846044
2533.0,0.013362604389846044
2532.0,0.013407393177789162
2531.0,0.013407393177789162
2530.0,0.013407393177789162
2529.0,0.013362604389846044
2528.0,0.013317820220494436
2527.0,0.013273040668781544
2526.0,0.01322826573375524
2525.0,0.01318349541446362
2524.0,0.013138729709955221
2523.0,0.013138729709955221
2522.0,0.013138729709955221
2521.0,0.013138729709955221
2520.0,0.013138729709955221
2519.0,0.013138729709955221
2518.0,0.013093968619278806
2517.0,0.013049212141483357
2516.0,0.013004460275618523
2515.0,0.012914970375878188
2514.0,0.012825498912458322
2513.0,0.012736045877764557
2512.0,0.01264661126420652
2511.0,0.01260190086298274
2510.0,0.01264661126420652
2509.0,0.01264661126420652
2508.0,0.01264661126420652
2507.0,0.012691326268817527
2506.0,0.012691326268817527
2505.0,0.012691326268817527
2504.0,0.012691326268817527
2503.0,0.01264661126420652
2502.0,0.01260190086298274
2501.0,0.012512493866907004
2500.0,0.012467797270160563
2499.0,0.012378417874516323
2498.0,0.012378417874516323
2497.0,0.012423105273012602
2496.0,0.012423105273012602
2495.0,0.012423105273012602
2494.0,0.012423105273012602
2493.0,0.012378417874516323
2492.0,0.012378417874516323
2491.0,0.012333735073725371
2490.0,0.012333735073725371
2489.0,0.012333735073725371
2488.0,0.012289056869694281
2487.0,0.012289056869694281
2486.0,0.012289056869694281
2485.0,0.012289056869694281
2484.0,0.012244383261476699
2483.0,0.012244383261476699
2482.0,0.012199714248127602
2481.0,0.012244383261476699
2480.0,0.012333735073725371
2479.0,0.012378417874516323
2478.0,0.012378417874516323
2477.0,0.012378417874516323
2476.0,0.012289056869694281
2475.0,0.012289056869694281
2474.0,0.012289056869694281
2473.0,0.012333735073725371
2472.0,0.012378417874516323
2471.0,0.012333735073725371
2470.0,0.012289056869694281
2469.0,0.012199714248127602
2468.0,0.012110390002254778
2467.0,0.012021084124518078
2466.0,0.0119764380713403
2465.0,0.011931796607364653
2464.0,0.011931796607364653
2463.0,0.011931796607364653
2462.0,0.0119764380713403
2461.0,0.011931796607364653
2460.0,0.011887159731648111
2459.0,0.011797899741219142
2458.0,0.011753276624621556
2457.0,0.011797899741219142
2456.0,0.011842527443247208
2455.0,0.011797899741219142
2454.0,0.011708658092512314
2453.0,0.011619434777991433
2452.0,0.011574829993696856
2451.0,0.011619434777991433
2450.0,0.011708658092512314
2449.0,0.011797899741219142
2448.0,0.011797899741219142
2447.0,0.011753276624621556
2446.0,0.011708658092512314
2445.0,0.011664044143949504
2444.0,0.011619434777991433
2443.0,0.011574829993696856
2442.0,0.011530229790124524
2441.0,0.011485634166333858
2440.0,0.011441043121384498
2439.0,0.011396456654336085
2438.0,0.011396456654336085
2437.0,0.011485634166333858
2436.0,0.011530229790124524
2435.0,0.011530229790124524
2434.0,0.011485634166333858
2433.0,0.011441043121384498
2432.0,0.011396456654336085
2431.0,0.011396456654336085
2430.0,0.011396456654336085
2429.0,0.011396456654336085
2428.0,0.011441043121384498
2427.0,0.011441043121384498
2426.0,0.011441043121384498
2425.0,0.011441043121384498
2424.0,0.011441043121384498
2423.0,0.011441043121384498
2422.0,0.011441043121384498
2421.0,0.011441043121384498
2420.0,0.011530229790124524
2419.0,0.011530229790124524
2418.0,0.011574829993696856
2417.0,0.011530229790124524
2416.0,0.011441043121384498
2415.0,0.011307297450183107
2414.0,0.011262724711199823
2413.0,0.011307297450183107
2412.0,0.011396456654336085
2411.0,0.011485634166333858
2410.0,0.011485634166333858
2409.0,0.011396456654336085
2408.0,0.011307297450183107
2407.0,0.011262724711199823
2406.0,0.011218156546359825
2405.0,0.011262724711199823
2404.0,0.011307297450183107
2403.0,0.011396456654336085
2402.0,0.011396456654336085
2401.0,0.011396456654336085
2400.0,0.011441043121384498
2399.0,0.011441043121384498
2398.0,0.011396456654336085
2397.0,0.011307297450183107
2396.0,0.011262724711199823
2395.0,0.011218156546359825
2394.0,0.011218156546359825
2393.0,0.01117359295472431
2392.0,0.01117359295472431
2391.0,0.011129033935354915
2390.0,0.01117359295472431
2389.0,0.01117359295472431
2388.0,0.011129033935354915
2387.0,0.011129033935354915
2386.0,0.011129033935354915
2385.0,0.011129033935354915
2384.0,0.01117359295472431
2383.0,0.011218156546359825
2382.0,0.011262724711199823
2381.0,0.011262724711199823
2380.0,0.011262724711199823
2379.0,0.011262724711199823
2378.0,0.011307297450183107
2377.0,0.011396456654336085
2376.0,0.011396456654336085
2375.0,0.011351874764248926
2374.0,0.011307297450183107
2373.0,0.011218156546359825
2372.0,0.011084479487313281
2371.0,0.01086177578421088
2370.0,0.010683695010048622
2369.0,0.010550182333308289
2368.0,0.01023881228122181
2367.0,0.009616741093766423
2366.0,0.008951223547323472
2365.0,0.009039900317800775
2364.0,0.010105436281226954
2363.0,0.011664044143949504
2362.0,0.012825498912458322
2361.0,0.012691326268817527
2360.0,0.011530229790124524
2359.0,0.010550182333308289
2358.0,0.010683695010048622
2357.0,0.011396456654336085
2356.0,0.011753276624621556
2355.0,0.011441043121384498
2354.0,0.011262724711199823
2353.0,0.011218156546359825
2352.0,0.011039929609661936
2351.0,0.010906307389674463
2350.0,0.011931796607364653
2349.0,0.01452861671041239
2348.0,0.016960383953898095
2347.0,0.017412209298337533
2346.0,0.015427684378367834
2345.0,0.012512493866907004
2344.0,0.010550182333308289
2343.0,0.010283280051895272
2342.0,0.01117359295472431
2341.0,0.011619434777991433
2340.0,0.011530229790124524
2339.0,0.011307297450183107
2338.0,0.011262724711199823
2337.0,0.011351874764248926
2336.0,0.011351874764248926
2335.0,0.011485634166333858
2334.0,0.012021084124518078
2333.0,0.013004460275618523
2332.0,0.013900374944870508
2331.0,0.014259258949925524
2330.0,0.01403492169512921
2329.0,0.013676222949234651
2328.0,0.013138729709955221
2327.0,0.012870232340102872
2326.0,0.012557195064198723
2325.0,0.012378417874516323
2324.0,0.012199714248127602
2323.0,0.011931796607364653
2322.0,0.0119764380713403
2321.0,0.01215504982870197
2320.0,0.012467797270160563
2319.0,0.012736045877764557
2318.0,0.013049212141483357
2317.0,0.013362604389846044
2316.0,0.013496984613259544
2315.0,0.013452186585275916
2314.0,0.013004460275618523
2313.0,0.012512493866907004
2312.0,0.012021084124518078
2311.0,0.011797899741219142
2310.0,0.011708658092512314
2309.0,0.011753276624621556
2308.0,0.011708658092512314
2307.0,0.011619434777991433
2306.0,0.011574829993696856
2305.0,0.011574829993696856
2304.0,0.011530229790124524
2303.0,0.011441043121384498
2302.0,0.011262724711199823
2301.0,0.011084479487313281
2300.0,0.010950843561779777
2299.0,0.010950843561779777
2298.0,0.010950843561779777
2297.0,0.010906307389674463
2296.0,0.01077272626946324
2295.0,0.010639186223752484
2294.0,0.010639186223752484
2293.0,0.010728208358306901
2292.0,0.010817248744452446
2291.0,0.01086177578421088
2290.0,0.010817248744452446
2289.0,0.01077272626946324
2288.0,0.010728208358306901
2287.0,0.010683695010048622
2286.0,0.010683695010048622
2285.0,0.010639186223752484
2284.0,0.010639186223752484
2283.0,0.010639186223752484
2282.0,0.010639186223752484
2281.0,0.010550182333308289
2280.0,0.010505687227290839
2279.0,0.01046119667949763
2278.0,0.010505687227290839
2277.0,0.010505687227290839
2276.0,0.010505687227290839
2275.0,0.01046119667949763
2274.0,0.010416710688994968
2273.0,0.01037222925484893
2272.0,0.01037222925484893
2271.0,0.01037222925484893
2270.0,0.010327752376126709
2269.0,0.01023881228122181
2268.0,0.010149890396819572
2267.0,0.010060986715464404
2266.0,0.010060986715464404
2265.0,0.010149890396819572
2264.0,0.01023881228122181
2263.0,0.010327752376126709
2262.0,0.010327752376126709
2261.0,0.010283280051895272
2260.0,0.01023881228122181
2259.0,0.01023881228122181
2258.0,0.010283280051895272
2257.0,0.010327752376126709
2256.0,0.010416710688994968
2255.0,0.01046119667949763
2254.0,0.010505687227290839
2253.0,0.01046119667949763
2252.0,0.01046119667949763
2251.0,0.010416710688994968
2250.0,0.010416710688994968
2249.0,0.01037222925484893
2248.0,0.01037222925484893
2247.0,0.010327752376126709
2246.0,0.01023881228122181
2245.0,0.010194349063173958
2244.0,0.010105436281226954
2243.0,0.01001654169860089
2242.0,0.009927665307847056
2241.0,0.009927665307847056
2240.0,0.009883233932095559
2239.0,0.009883233932095559
2238.0,0.009883233932095559
2237.0,0.009883233932095559
2236.0,0.009883233932095559
2235.0,0.009883233932095559
2234.0,0.009883233932095559
2233.0,0.009927665307847056
2232.0,0.009972101229705377
2231.0,0.010060986715464404
2230.0,0.010149890396819572
2229.0,0.010194349063173958
2228.0,0.010194349063173958
2227.0,0.010194349063173958
2226.0,0.010149890396819572
2225.0,0.010105436281226954
2224.0,0.010060986715464404
2223.0,0.010060986715464404
2222.0,0.010060986715464404
2221.0,0.010060986715464404
2220.0,0.010060986715464404
2219.0,0.009972101229705377
2218.0,0.009883233932095559
2217.0,0.009838807101520963
2216.0,0.009794384815193347
2215.0,0.009794384815193347
2214.0,0.00974996707218323
2213.0,0.009794384815193347
2212.0,0.009838807101520963
2211.0,0.009883233932095559
2210.0,0.009883233932095559
2209.0,0.009883233932095559
2208.0,0.009883233932095559
2207.0,0.009838807101520963
2206.0,0.00974996707218323
2205.0,0.009705553871561357
2204.0,0.009705553871561357
2203.0,0.00974996707218323
2202.0,0.009794384815193347
2201.0,0.009838807101520963
2200.0,0.009883233932095559
2199.0,0.009883233932095559
2198.0,0.009883233932095559
2197.0,0.009838807101520963
2196.0,0.009794384815193347
2195.0,0.009794384815193347
2194.0,0.009794384815193347
2193.0,0.009794384815193347
2192.0,0.009838807101520963
2191.0,0.009838807101520963
2190.0,0.009794384815193347
2189.0,0.009794384815193347
2188.0,0.009794384815193347
2187.0,0.009794384815193347
2186.0,0.009838807101520963
2185.0,0.009838807101520963
2184.0,0.009794384815193347
2183.0,0.00974996707218323
2182.0,0.00974996707218323
2181.0,0.009794384815193347
2180.0,0.009883233932095559
2179.0,0.009972101229705377
2178.0,0.010060986715464404
2177.0,0.010060986715464404
2176.0,0.01001654169860089
2175.0,0.01001654169860089
2174.0,0.009972101229705377
2173.0,0.009972101229705377
2172.0,0.009927665307847056
2171.0,0.009838807101520963
2170.0,0.00974996707218323
2169.0,0.009705553871561357
2168.0,0.00974996707218323
2167.0,0.009838807101520963
2166.0,0.009883233932095559
2165.0,0.009927665307847056
2164.0,0.009883233932095559
2163.0,0.009838807101520963
2162.0,0.009705553871561357
2161.0,0.009616741093766423
2160.0,0.009572341514736404
2159.0,0.009527946474380489
2158.0,0.009572341514736404
2157.0,0.009616741093766423
2156.0,0.009705553871561357
2155.0,0.009794384815193347
2154.0,0.009883233932095559
2153.0,0.009927665307847056
2152.0,0.009927665307847056
2151.0,0.009838807101520963
2150.0,0.00974996707218323
2149.0,0.00966114521239847
2148.0,0.009616741093766423
2147.0,0.009572341514736404
2146.0,0.009616741093766423
2145.0,0.00966114521239847
2144.0,0.00966114521239847
2143.0,0.00966114521239847
2142.0,0.009616741093766423
2141.0,0.009616741093766423
2140.0,0.00966114521239847
2139.0,0.00966114521239847
2138.0,0.009616741093766423
2137.0,0.009616741093766423
2136.0,0.00966114521239847
2135.0,0.009705553871561357
2134.0,0.009705553871561357
2133.0,0.00966114521239847
2132.0,0.009616741093766423
2131.0,0.009572341514736404
2130.0,0.009527946474380489
2129.0,0.009527946474380489
2128.0,0.009527946474380489
2127.0,0.009572341514736404
2126.0,0.009572341514736404
2125.0,0.009527946474380489
2124.0,0.009439170005980158
2123.0,0.00939478857608056
2122.0,0.009350411681145587
2121.0,0.009350411681145587
2120.0,0.00939478857608056
2119.0,0.009439170005980158
2118.0,0.009439170005980158
2117.0,0.009439170005980158
2116.0,0.00939478857608056
2115.0,0.009306039320248427
2114.0,0.009261671492462709
2113.0,0.009261671492462709
2112.0,0.009350411681145587
2111.0,0.009439170005980158
2110.0,0.009439170005980158
2109.0,0.00939478857608056
2108.0,0.009350411681145587
2107.0,0.009261671492462709
2106.0,0.009217308196862062
2105.0,0.009217308196862062
2104.0,0.009261671492462709
2103.0,0.009261671492462709
2102.0,0.009306039320248427
2101.0,0.009261671492462709
2100.0,0.009217308196862062
2099.0,0.009128595198514056
2098.0,0.00908424549391551
2097.0,0.009039900317800775
2096.0,0.009128595198514056
2095.0,0.009261671492462709
2094.0,0.00939478857608056
2093.0,0.009483555971770974
2092.0,0.009527946474380489
2091.0,0.009483555971770974
2090.0,0.00939478857608056
2089.0,0.009350411681145587
2088.0,0.009306039320248427
2087.0,0.009261671492462709
2086.0,0.009261671492462709
2085.0,0.009261671492462709
2084.0,0.009306039320248427
2083.0,0.009306039320248427
2082.0,0.009261671492462709
2081.0,0.009217308196862062
2080.0,0.009217308196862062
2079.0,0.009217308196862062
2078.0,0.009217308196862062
2077.0,0.009217308196862062
2076.0,0.009172949432521227
2075.0,0.009128595198514056
2074.0,0.009172949432521227
2073.0,0.009172949432521227
2072.0,0.009217308196862062
2071.0,0.009217308196862062
2070.0,0.009217308196862062
2069.0,0.009217308196862062
2068.0,0.009261671492462709
2067.0,0.009306039320248427
2066.0,0.009306039320248427
2065.0,0.009306039320248427
2064.0,0.009261671492462709
2063.0,0.009217308196862062
2062.0,0.009217308196862062
2061.0,0.009261671492462709
2060.0,0.009306039320248427
2059.0,0.009306039320248427
2058.0,0.009350411681145587
2057.0,0.009439170005980158
2056.0,0.009483555971770974
2055.0,0.009527946474380489
2054.0,0.009527946474380489
2053.0,0.009527946474380489
2052.0,0.009439170005980158
2051.0,0.009306039320248427
2050.0,0.009261671492462709
2049.0,0.009261671492462709
2048.0,0.009306039320248427
2047.0,0.009306039320248427
2046.0,0.009350411681145587
2045.0,0.009350411681145587
2044.0,0.00939478857608056
2043.0,0.009439170005980158
2042.0,0.009483555971770974
2041.0,0.009527946474380489
2040.0,0.009483555971770974
2039.0,0.009439170005980158
2038.0,0.009350411681145587
2037.0,0.009306039320248427
2036.0,0.009306039320248427
2035.0,0.009350411681145587
2034.0,0.00939478857608056
2033.0,0.009483555971770974
2032.0,0.009527946474380489
2031.0,0.009527946474380489
2030.0,0.009527946474380489
2029.0,0.009483555971770974
2028.0,0.009439170005980158
2027.0,0.00939478857608056
2026.0,0.009350411681145587
2025.0,0.009350411681145587
2024.0,0.00939478857608056
2023.0,0.00939478857608056
2022.0,0.009439170005980158
2021.0,0.009483555971770974
2020.0,0.009527946474380489
2019.0,0.009572341514736404
2018.0,0.009572341514736404
2017.0,0.009572341514736404
2016.0,0.009527946474380489
2015.0,0.009439170005980158
2014.0,0.00939478857608056
2013.0,0.009306039320248427
2012.0,0.009261671492462709
2011.0,0.009217308196862062
2010.0,0.009217308196862062
2009.0,0.009261671492462709
2008.0,0.009261671492462709
2007.0,0.009172949432521227
2006.0,0.00908424549391551
2005.0,0.009039900317800775
2004.0,0.009039900317800775
2003.0,0.009039900317800775
2002.0,0.009039900317800775
2001.0,0.008995559669244813
2000.0,0.008951223547323472
1999.0,0.008951223547323472
1998.0,0.008951223547323472
1997.0,0.008906891951112605
1996.0,0.008906891951112605
1995.0,0.008862564879688284
1994.0,0.008862564879688284
1993.0,0.008906891951112605
1992.0,0.008995559669244813
1991.0,0.00908424549391551
1990.0,0.009172949432521227
1989.0,0.009261671492462709
1988.0,0.009306039320248427
1987.0,0.009217308196862062
1986.0,0.009128595198514056
1985.0,0.008995559669244813
1984.0,0.008951223547323472
1983.0,0.008906891951112605
1982.0,0.008862564879688284
1981.0,0.008906891951112605
1980.0,0.008995559669244813
1979.0,0.009039900317800775
1978.0,0.009039900317800775
1977.0,0.008995559669244813
1976.0,0.008995559669244813
1975.0,0.008951223547323472
1974.0,0.008995559669244813
1973.0,0.009039900317800775
1972.0,0.009039900317800775
1971.0,0.008995559669244813
1970.0,0.008906891951112605
1969.0,0.008906891951112605
1968.0,0.008951223547323472
1967.0,0.008951223547323472
1966.0,0.008951223547323472
1965.0,0.008951223547323472
1964.0,0.008951223547323472
1963.0,0.008951223547323472
1962.0,0.008906891951112605
1961.0,0.008906891951112605
1960.0,0.008906891951112605
1959.0,0.008906891951112605
1958.0,0.008906891951112605
1957.0,0.008906891951112605
1956.0,0.008906891951112605
1955.0,0.008906891951112605
1954.0,0.008906891951112605
1953.0,0.008862564879688284
1952.0,0.008818242332126802
1951.0,0.0087296108049002
1950.0,0.008640997362049818
1949.0,0.008596697419959609
1948.0,0.008640997362049818
1947.0,0.008685301823389224
1946.0,0.008685301823389224
1945.0,0.0087296108049002
1944.0,0.008818242332126802
1943.0,0.008906891951112605
1942.0,0.008906891951112605
1941.0,0.008862564879688284
1940.0,0.008773924307505121
1939.0,0.008773924307505121
1938.0,0.008685301823389224
1937.0,0.008640997362049818
1936.0,0.008552401996197112
1935.0,0.00850811108984062
1934.0,0.00850811108984062
1933.0,0.00850811108984062
1932.0,0.008552401996197112
1931.0,0.008596697419959609
1930.0,0.008685301823389224
1929.0,0.0087296108049002
1928.0,0.0087296108049002
1927.0,0.0087296108049002
1926.0,0.008773924307505121
1925.0,0.008862564879688284
1924.0,0.008906891951112605
1923.0,0.008951223547323472
1922.0,0.008906891951112605
1921.0,0.008906891951112605
1920.0,0.008818242332126802
1919.0,0.008685301823389224
1918.0,0.008552401996197112
1917.0,0.00850811108984062
1916.0,0.008596697419959609
1915.0,0.008773924307505121
1914.0,0.008906891951112605
1913.0,0.008995559669244813
1912.0,0.008951223547323472
1911.0,0.008906891951112605
1910.0,0.008906891951112605
1909.0,0.008951223547323472
1908.0,0.009039900317800775
1907.0,0.00908424549391551
1906.0,0.009128595198514056
1905.0,0.009128595198514056
1904.0,0.009039900317800775
1903.0,0.008995559669244813
1902.0,0.009039900317800775
1901.0,0.00908424549391551
1900.0,0.009172949432521227
1899.0,0.009217308196862062
1898.0,0.009261671492462709
1897.0,0.009350411681145587
1896.0,0.00939478857608056
1895.0,0.009439170005980158
1894.0,0.009439170005980158
1893.0,0.00939478857608056
1892.0,0.009350411681145587
1891.0,0.009217308196862062
1890.0,0.00908424549391551
1889.0,0.008951223547323472
1888.0,0.008862564879688284
1887.0,0.0087296108049002
1886.0,0.008640997362049818
1885.0,0.008640997362049818
1884.0,0.008640997362049818
1883.0,0.008685301823389224
1882.0,0.0087296108049002
1881.0,0.0087296108049002
1880.0,0.0087296108049002
1879.0,0.008640997362049818
1878.0,0.008596697419959609
1877.0,0.008552401996197112
1876.0,0.008552401996197112
1875.0,0.00850811108984062
1874.0,0.008463824699968647
1873.0,0.008463824699968647
1872.0,0.008419542825660153
1871.0,0.008330992620051436
1870.0,0.008198201155356077
1869.0,0.008153946355103248
1868.0,0.008198201155356077
1867.0,0.008242460465651913
1866.0,0.008330992620051436
1865.0,0.008375265465994541
1864.0,0.008330992620051436
1863.0,0.008330992620051436
1862.0,0.008330992620051436
1861.0,0.008375265465994541
1860.0,0.008375265465994541
1859.0,0.008375265465994541
1858.0,0.008330992620051436
1857.0,0.008330992620051436
1856.0,0.008330992620051436
1855.0,0.008375265465994541
1854.0,0.008419542825660153
1853.0,0.008375265465994541
1852.0,0.008286724286910463
1851.0,0.008286724286910463
1850.0,0.008286724286910463
1849.0,0.008330992620051436
1848.0,0.008330992620051436
1847.0,0.008375265465994541
1846.0,0.008463824699968647
1845.0,0.00850811108984062
1844.0,0.008463824699968647
1843.0,0.008375265465994541
1842.0,0.008330992620051436
1841.0,0.008375265465994541
1840.0,0.008419542825660153
1839.0,0.008419542825660153
1838.0,0.008419542825660153
1837.0,0.00850811108984062
1836.0,0.00850811108984062
1835.0,0.008463824699968647
1834.0,0.008375265465994541
1833.0,0.008242460465651913
1832.0,0.008109696063975047
1831.0,0.008021209005416363
1830.0,0.007976972236149349
1829.0,0.007976972236149349
1828.0,0.008065450281052211
1827.0,0.008198201155356077
1826.0,0.008286724286910463
1825.0,0.008330992620051436
1824.0,0.008330992620051436
1823.0,0.008375265465994541
1822.0,0.008375265465994541
1821.0,0.008330992620051436
1820.0,0.008242460465651913
1819.0,0.008198201155356077
1818.0,0.008242460465651913
1817.0,0.008330992620051436
1816.0,0.008330992620051436
1815.0,0.008286724286910463
1814.0,0.008242460465651913
1813.0,0.008242460465651913
1812.0,0.008286724286910463
1811.0,0.008242460465651913
1810.0,0.008242460465651913
1809.0,0.008242460465651913
1808.0,0.008198201155356077
1807.0,0.008153946355103248
1806.0,0.008065450281052211
1805.0,0.008021209005416363
1804.0,0.008021209005416363
1803.0,0.008021209005416363
1802.0,0.008109696063975047
1801.0,0.008153946355103248
1800.0,0.008198201155356077
1799.0,0.008198201155356077
1798.0,0.008153946355103248
1797.0,0.008198201155356077
1796.0,0.008242460465651913
1795.0,0.008286724286910463
1794.0,0.008330992620051436
1793.0,0.008463824699968647
1792.0,0.008463824699968647
1791.0,0.008375265465994541
1790.0,0.008286724286910463
1789.0,0.008286724286910463
1788.0,0.008330992620051436
1787.0,0.008286724286910463
1786.0,0.008242460465651913
1785.0,0.008242460465651913
1784.0,0.008198201155356077
1783.0,0.008198201155356077
1782.0,0.008242460465651913
1781.0,0.008242460465651913
1780.0,0.008198201155356077
1779.0,0.008198201155356077
1778.0,0.008198201155356077
1777.0,0.008153946355103248
1776.0,0.008109696063975047
1775.0,0.008065450281052211
1774.0,0.008065450281052211
1773.0,0.008198201155356077
1772.0,0.008286724286910463
1771.0,0.008286724286910463
1770.0,0.008375265465994541
1769.0,0.00850811108984062
1768.0,0.008640997362049818
1767.0,0.008640997362049818
1766.0,0.008596697419959609
1765.0,0.008685301823389224
1764.0,0.008818242332126802
1763.0,0.008951223547323472
1762.0,0.009039900317800775
1761.0,0.009128595198514056
1760.0,0.009306039320248427
1759.0,0.009572341514736404
1758.0,0.009927665307847056
1757.0,0.01023881228122181
1756.0,0.010594681998483901
1755.0,0.010906307389674463
1754.0,0.011218156546359825
1753.0,0.011574829993696856
1752.0,0.011931796607364653
1751.0,0.012333735073725371
1750.0,0.012736045877764557
1749.0,0.01318349541446362
1748.0,0.013496984613259544
1747.0,0.01372104409400876
1746.0,0.01381070026317599
1745.0,0.01385553528947936
1744.0,0.01385553528947936
1743.0,0.01381070026317599
1742.0,0.013676222949234651
1741.0,0.013631406429727155
1740.0,0.013496984613259544
1739.0,0.013138729709955221
1738.0,0.012736045877764557
1737.0,0.012423105273012602
1736.0,0.01215504982870197
1735.0,0.011753276624621556
1734.0,0.011307297450183107
1733.0,0.010817248744452446
1732.0,0.010505687227290839
1731.0,0.010416710688994968
1730.0,0.010283280051895272
1729.0,0.010060986715464404
1728.0,0.009883233932095559
1727.0,0.009794384815193347
1726.0,0.009705553871561357
1725.0,0.00966114521239847
1724.0,0.00966114521239847
1723.0,0.009572341514736404
1722.0,0.009527946474380489
1721.0,0.009527946474380489
1720.0,0.009572341514736404
1719.0,0.009572341514736404
1718.0,0.009705553871561357
1717.0,0.009883233932095559
1716.0,0.009927665307847056
1715.0,0.009972101229705377
1714.0,0.010060986715464404
1713.0,0.010105436281226954
1712.0,0.010105436281226954
1711.0,0.01001654169860089
1710.0,0.009883233932095559
1709.0,0.009705553871561357
1708.0,0.009527946474380489
1707.0,0.009439170005980158
1706.0,0.009306039320248427
1705.0,0.009217308196862062
1704.0,0.009128595198514056
1703.0,0.009217308196862062
1702.0,0.009306039320248427
1701.0,0.00939478857608056
1700.0,0.009306039320248427
1699.0,0.009039900317800775
1698.0,0.009128595198514056
1697.0,0.009350411681145587
1696.0,0.009261671492462709
1695.0,0.008818242332126802
1694.0,0.00850811108984062
1693.0,0.008552401996197112
1692.0,0.008596697419959609
1691.0,0.008552401996197112
1690.0,0.00850811108984062
1689.0,0.008552401996197112
1688.0,0.008640997362049818
1687.0,0.008685301823389224
1686.0,0.008596697419959609
1685.0,0.008596697419959609
1684.0,0.008596697419959609
1683.0,0.008419542825660153
1682.0,0.008596697419959609
1681.0,0.008818242332126802
1680.0,0.008862564879688284
1679.0,0.008818242332126802
1678.0,0.008862564879688284
1677.0,0.008995559669244813
1676.0,0.009306039320248427
1675.0,0.009527946474380489
1674.0,0.009527946474380489
1673.0,0.009439170005980158
1672.0,0.009350411681145587
1671.0,0.009261671492462709
1670.0,0.009306039320248427
1669.0,0.009306039320248427
1668.0,0.009350411681145587
1667.0,0.009350411681145587
1666.0,0.009350411681145587
1665.0,0.009306039320248427
1664.0,0.009217308196862062
1663.0,0.009217308196862062
1662.0,0.009172949432521227
1661.0,0.009217308196862062
1660.0,0.009261671492462709
1659.0,0.009306039320248427
1658.0,0.009261671492462709
1657.0,0.009261671492462709
1656.0,0.009261671492462709
1655.0,0.009261671492462709
1654.0,0.009439170005980158
1653.0,0.009439170005980158
1652.0,0.008862564879688284
1651.0,0.008773924307505121
1650.0,0.009039900317800775
1649.0,0.009217308196862062
1648.0,0.00939478857608056
1647.0,0.009572341514736404
1646.0,0.009527946474380489
1645.0,0.009439170005980158
1644.0,0.009439170005980158
1643.0,0.009439170005980158
1642.0,0.009350411681145587
1641.0,0.009261671492462709
1640.0,0.00908424549391551
1639.0,0.008906891951112605
1638.0,0.008818242332126802
1637.0,0.008906891951112605
1636.0,0.009217308196862062
1635.0,0.009261671492462709
1634.0,0.009172949432521227
1633.0,0.009128595198514056
1632.0,0.009128595198514056
1631.0,0.00908424549391551
1630.0,0.00908424549391551
1629.0,0.009039900317800775
1628.0,0.008995559669244813
1627.0,0.008818242332126802
1626.0,0.008773924307505121
1625.0,0.008818242332126802
1624.0,0.008995559669244813
1623.0,0.00908424549391551
1622.0,0.00908424549391551
1621.0,0.008995559669244813
1620.0,0.008906891951112605
1619.0,0.008818242332126802
1618.0,0.008773924307505121
1617.0,0.008862564879688284
1616.0,0.008995559669244813
1615.0,0.008995559669244813
1614.0,0.00908424549391551
1613.0,0.00908424549391551
1612.0,0.008951223547323472
1611.0,0.008862564879688284
1610.0,0.008862564879688284
1609.0,0.008906891951112605
1608.0,0.008951223547323472
1607.0,0.008906891951112605
1606.0,0.008862564879688284
1605.0,0.008773924307505121
1604.0,0.0087296108049002
1603.0,0.0087296108049002
1602.0,0.008685301823389224
1601.0,0.008685301823389224
1600.0,0.008640997362049818
1599.0,0.008640997362049818
1598.0,0.008640997362049818
1597.0,0.008596697419959609
1596.0,0.00850811108984062
1595.0,0.008419542825660153
1594.0,0.008330992620051436
1593.0,0.008242460465651913
1592.0,0.008198201155356077
1591.0,0.008242460465651913
1590.0,0.008286724286910463
1589.0,0.008419542825660153
1588.0,0.008463824699968647
1587.0,0.008463824699968647
1586.0,0.008375265465994541
1585.0,0.008286724286910463
1584.0,0.008198201155356077
1583.0,0.008109696063975047
1582.0,0.008021209005416363
1581.0,0.007932739972333236
1580.0,0.007932739972333236
1579.0,0.007932739972333236
1578.0,0.007932739972333236
1577.0,0.007932739972333236
1576.0,0.007932739972333236
1575.0,0.007844288957383316
1574.0,0.007800070204414977
1573.0,0.007888512213050314
1572.0,0.007976972236149349
1571.0,0.007976972236149349
1570.0,0.007976972236149349
1569.0,0.007888512213050314
1568.0,0.007800070204414977
1567.0,0.007755855953228474
1566.0,0.007755855953228474
1565.0,0.007711646202907652
1564.0,0.007711646202907652
1563.0,0.007755855953228474
1562.0,0.007800070204414977
1561.0,0.007667440952535687
1560.0,0.007711646202907652
1559.0,0.008065450281052211
1558.0,0.007711646202907652
1557.0,0.00762324020119709
1556.0,0.007755855953228474
1555.0,0.007711646202907652
1554.0,0.0075790439479759275
1553.0,0.007490664932224611
1552.0,0.007534852191956709
1551.0,0.0075790439479759275
1550.0,0.007667440952535687
1549.0,0.007711646202907652
1548.0,0.007844288957383316
1547.0,0.007844288957383316
1546.0,0.007755855953228474
1545.0,0.007667440952535687
1544.0,0.007667440952535687
1543.0,0.007667440952535687
1542.0,0.007667440952535687
1541.0,0.007888512213050314
1540.0,0.008109696063975047
1539.0,0.007667440952535687
1538.0,0.007313960837872058
1537.0,0.007313960837872058
1536.0,0.007358130121602358
1535.0,0.007225635744644521
1534.0,0.007093181776687496
1533.0,0.007093181776687496
1532.0,0.007181479933320523
1531.0,0.007181479933320523
1530.0,0.007137328610972382
1529.0,0.007004901568658406
1528.0,0.006872514894289861
1527.0,0.006740168563263094
1526.0,0.006651960076740071
1525.0,0.006607862550997545
1524.0,0.006607862550997545
1523.0,0.006475596832934416
1522.0,0.006431517210272464
1521.0,0.006431517210272464
1520.0,0.006519680930003435
1519.0,0.006607862550997545
1518.0,0.006696062080525422
1517.0,0.006828394969235152
1516.0,0.006872514894289861
1515.0,0.006872514894289861
1514.0,0.006828394969235152
1513.0,0.006784279525863024
1512.0,0.006740168563263094
1511.0,0.006607862550997545
1510.0,0.006519680930003435
1509.0,0.00656376950238835
1508.0,0.006828394969235152
1507.0,0.007093181776687496
1506.0,0.007004901568658406
1505.0,0.007093181776687496
1504.0,0.007313960837872058
1503.0,0.007313960837872058
1502.0,0.007181479933320523
1501.0,0.007093181776687496
1500.0,0.007137328610972382
1499.0,0.007181479933320523
1498.0,0.007225635744644521
1497.0,0.007225635744644521
1496.0,0.007181479933320523
1495.0,0.00696076819309055
1494.0,0.006828394969235152
1493.0,0.006872514894289861
1492.0,0.006916639301937977
1491.0,0.006828394969235152
1490.0,0.006784279525863024
1489.0,0.00696076819309055
1488.0,0.007137328610972382
1487.0,0.007181479933320523
1486.0,0.007225635744644521
1485.0,0.0074464821678643656
1484.0,0.007711646202907652
1483.0,0.008021209005416363
1482.0,0.00850811108984062
1481.0,0.009483555971770974
1480.0,0.010906307389674463
1479.0,0.013004460275618523
1478.0,0.016960383953898095
1477.0,0.02461415101053266
1476.0,0.036542739883292485
1475.0,0.051684859310652254
1474.0,0.06828793294324442
1473.0,0.0812883346176787
1472.0,0.08402008585977572
1471.0,0.07925073872429178
1470.0,0.07381195089279391
1469.0,0.06986635415888243
1468.0,0.06747550294945781
1467.0,0.06722192993944942
1466.0,0.07160414774328627
1465.0,0.08207457793525874
1464.0,0.09382663635595145
1463.0,0.09985143928065598
1462.0,0.09799710864927058
1461.0,0.08990945440593179
1460.0,0.07800156869172903
1459.0,0.06504729218214189
1458.0,0.05374429280060267
1457.0,0.04609540658654021
1456.0,0.041627267521392675
1455.0,0.038816290187564384
1454.0,0.03649550058570927
1453.0,0.03409308450480819
1452.0,0.03179733185715028
1451.0,0.029978734171634214
1450.0,0.02858497661500481
1449.0,0.02747318213414429
1448.0,0.026502691267936695
1447.0,0.025810808881832736
1446.0,0.025258095499050004
1445.0,0.024660115394541604
1444.0,0.02406295751688936
1443.0,0.02351246269481
1442.0,0.023100049017062307
1441.0,0.022688026603074007
1440.0,0.022230681908425698
1439.0,0.021819483062586187
1438.0,0.021545566634771474
1437.0,0.021317434843055594
1436.0,0.020952673052035298
1435.0,0.02045162529590483
1434.0,0.01990568621470623
1433.0,0.0192242260373785
1432.0,0.01845319495476394
1431.0,0.017774008325325275
1430.0,0.017186237868137555
1429.0,0.016554142658660398
1428.0,0.01596801972881945
1427.0,0.01547268665620738
1426.0,0.014977917890464765
1425.0,0.014438812226654996
1424.0,0.013900374944870508
1423.0,0.013496984613259544
1422.0,0.01322826573375524
1421.0,0.012959713020733288
1420.0,0.01264661126420652
1419.0,0.012512493866907004
1418.0,0.012378417874516323
1417.0,0.012244383261476699
1416.0,0.012065734767841452
1415.0,0.011887159731648111
1414.0,0.011664044143949504
1413.0,0.011396456654336085
1412.0,0.01117359295472431
1411.0,0.011039929609661936
1410.0,0.010906307389674463
1409.0,0.010683695010048622
1408.0,0.010416710688994968
1407.0,0.01023881228122181
1406.0,0.010149890396819572
1405.0,0.010105436281226954
1404.0,0.010105436281226954
1403.0,0.010105436281226954
1402.0,0.010105436281226954
1401.0,0.010105436281226954
1400.0,0.010105436281226954
1399.0,0.010194349063173958
1398.0,0.010194349063173958
1397.0,0.010105436281226954
1396.0,0.01001654169860089
1395.0,0.01001654169860089
1394.0,0.010105436281226954
1393.0,0.010149890396819572
1392.0,0.010194349063173958
1391.0,0.010283280051895272
1390.0,0.01037222925484893
1389.0,0.010505687227290839
1388.0,0.010639186223752484
1387.0,0.010728208358306901
1386.0,0.01077272626946324
1385.0,0.01077272626946324
1384.0,0.010817248744452446
1383.0,0.011039929609661936
1382.0,0.011441043121384498
1381.0,0.011887159731648111
1380.0,0.012333735073725371
1379.0,0.012691326268817527
1378.0,0.012870232340102872
1377.0,0.012914970375878188
1376.0,0.012914970375878188
1375.0,0.012959713020733288
1374.0,0.013138729709955221
1373.0,0.013273040668781544
1372.0,0.013407393177789162
1371.0,0.013586594534531482
1370.0,0.01385553528947936
1369.0,0.013990068146738865
1368.0,0.014079779876432497
1367.0,0.01403492169512921
1366.0,0.013900374944870508
1365.0,0.013586594534531482
1364.0,0.013273040668781544
1363.0,0.013004460275618523
1362.0,0.012825498912458322
1361.0,0.01264661126420652
1360.0,0.012467797270160563
1359.0,0.012333735073725371
1358.0,0.012333735073725371
1357.0,0.012333735073725371
1356.0,0.012378417874516323
1355.0,0.012423105273012602
1354.0,0.012512493866907004
1353.0,0.012467797270160563
1352.0,0.012333735073725371
1351.0,0.012199714248127602
1350.0,0.012110390002254778
1349.0,0.0119764380713403
1348.0,0.011887159731648111
1347.0,0.011753276624621556
1346.0,0.011574829993696856
1345.0,0.011396456654336085
1344.0,0.011218156546359825
1343.0,0.011039929609661936
1342.0,0.010950843561779777
1341.0,0.01086177578421088
1340.0,0.01077272626946324
1339.0,0.010683695010048622
1338.0,0.010550182333308289
1337.0,0.010416710688994968
1336.0,0.010283280051895272
1335.0,0.01023881228122181
1334.0,0.010194349063173958
1333.0,0.010105436281226954
1332.0,0.010060986715464404
1331.0,0.01001654169860089
1330.0,0.010060986715464404
1329.0,0.010060986715464404
1328.0,0.010105436281226954
1327.0,0.01023881228122181
1326.0,0.01037222925484893
1325.0,0.010505687227290839
1324.0,0.010550182333308289
1323.0,0.010550182333308289
1322.0,0.010594681998483901
1321.0,0.010639186223752484
1320.0,0.010728208358306901
1319.0,0.01086177578421088
1318.0,0.010950843561779777
1317.0,0.010995384301463185
1316.0,0.011084479487313281
1315.0,0.011218156546359825
1314.0,0.011351874764248926
1313.0,0.011485634166333858
1312.0,0.011530229790124524
1311.0,0.011530229790124524
1310.0,0.011574829993696856
1309.0,0.011574829993696856
1308.0,0.011574829993696856
1307.0,0.011619434777991433
1306.0,0.011664044143949504
1305.0,0.011708658092512314
1304.0,0.011708658092512314
1303.0,0.011708658092512314
1302.0,0.011708658092512314
1301.0,0.011664044143949504
1300.0,0.011619434777991433
1299.0,0.011619434777991433
1298.0,0.011619434777991433
1297.0,0.011574829993696856
1296.0,0.011485634166333858
1295.0,0.011396456654336085
1294.0,0.011262724711199823
1293.0,0.011129033935354915
1292.0,0.011039929609661936
1291.0,0.010995384301463185
1290.0,0.010950843561779777
1289.0,0.010906307389674463
1288.0,0.010817248744452446
1287.0,0.01077272626946324
1286.0,0.010728208358306901
1285.0,0.010683695010048622
1284.0,0.010639186223752484
1283.0,0.010550182333308289
1282.0,0.010505687227290839
1281.0,0.01037222925484893
1280.0,0.010283280051895272
1279.0,0.01023881228122181
1278.0,0.01023881228122181
1277.0,0.01023881228122181
1276.0,0.010194349063173958
1275.0,0.010149890396819572
1274.0,0.010060986715464404
1273.0,0.01001654169860089
1272.0,0.009972101229705377
1271.0,0.009972101229705377
1270.0,0.01001654169860089
1269.0,0.010060986715464404
1268.0,0.010060986715464404
1267.0,0.010149890396819572
1266.0,0.01023881228122181
1265.0,0.010283280051895272
1264.0,0.01023881228122181
1263.0,0.010194349063173958
1262.0,0.010149890396819572
1261.0,0.010149890396819572
1260.0,0.010105436281226954
1259.0,0.010060986715464404
1258.0,0.009972101229705377
1257.0,0.009883233932095559
1256.0,0.009838807101520963
1255.0,0.009794384815193347
1254.0,0.009794384815193347
1253.0,0.00974996707218323
1252.0,0.009705553871561357
1251.0,0.009705553871561357
1250.0,0.00974996707218323
1249.0,0.009794384815193347
1248.0,0.009838807101520963
1247.0,0.009883233932095559
1246.0,0.009883233932095559
1245.0,0.009838807101520963
1244.0,0.00974996707218323
1243.0,0.00966114521239847
1242.0,0.009616741093766423
1241.0,0.009616741093766423
1240.0,0.009616741093766423
1239.0,0.00966114521239847
1238.0,0.009705553871561357
1237.0,0.009794384815193347
1236.0,0.009794384815193347
1235.0,0.009794384815193347
1234.0,0.009705553871561357
1233.0,0.009616741093766423
1232.0,0.009483555971770974
1231.0,0.00939478857608056
1230.0,0.009350411681145587
1229.0,0.009350411681145587
1228.0,0.009350411681145587
1227.0,0.00939478857608056
1226.0,0.00939478857608056
1225.0,0.00939478857608056
1224.0,0.009350411681145587
1223.0,0.009306039320248427
1222.0,0.009261671492462709
1221.0,0.009217308196862062
1220.0,0.009128595198514056
1219.0,0.009128595198514056
1218.0,0.009172949432521227
1217.0,0.009261671492462709
1216.0,0.00939478857608056
1215.0,0.009439170005980158
1214.0,0.009439170005980158
1213.0,0.00939478857608056
1212.0,0.00939478857608056
1211.0,0.009439170005980158
1210.0,0.009616741093766423
1209.0,0.009705553871561357
1208.0,0.00974996707218323
1207.0,0.009794384815193347
1206.0,0.009838807101520963
1205.0,0.009883233932095559
1204.0,0.009883233932095559
1203.0,0.009883233932095559
1202.0,0.009838807101520963
1201.0,0.00974996707218323
1200.0,0.009616741093766423
1199.0,0.009483555971770974
1198.0,0.009439170005980158
1197.0,0.00939478857608056
1196.0,0.009350411681145587
1195.0,0.009350411681145587
1194.0,0.00939478857608056
1193.0,0.009483555971770974
1192.0,0.009483555971770974
1191.0,0.009439170005980158
1190.0,0.009439170005980158
1189.0,0.009439170005980158
1188.0,0.009483555971770974
1187.0,0.009616741093766423
1186.0,0.00974996707218323
1185.0,0.009838807101520963
1184.0,0.009927665307847056
1183.0,0.009972101229705377
1182.0,0.01001654169860089
1181.0,0.010060986715464404
1180.0,0.010194349063173958
1179.0,0.01037222925484893
1178.0,0.010550182333308289
1177.0,0.01077272626946324
1176.0,0.010950843561779777
1175.0,0.011129033935354915
1174.0,0.011307297450183107
1173.0,0.011396456654336085
1172.0,0.011485634166333858
1171.0,0.011619434777991433
1170.0,0.011708658092512314
1169.0,0.011708658092512314
1168.0,0.011708658092512314
1167.0,0.011708658092512314
1166.0,0.011664044143949504
1165.0,0.011530229790124524
1164.0,0.011396456654336085
1163.0,0.011262724711199823
1162.0,0.011218156546359825
1161.0,0.01117359295472431
1160.0,0.011218156546359825
1159.0,0.01117359295472431
1158.0,0.011084479487313281
1157.0,0.010950843561779777
1156.0,0.010817248744452446
1155.0,0.010817248744452446
1154.0,0.010817248744452446
1153.0,0.01077272626946324
1152.0,0.010683695010048622
1151.0,0.010594681998483901
1150.0,0.01046119667949763
1149.0,0.010416710688994968
1148.0,0.01037222925484893
1147.0,0.01037222925484893
1146.0,0.010327752376126709
1145.0,0.01023881228122181
1144.0,0.010149890396819572
1143.0,0.010105436281226954
1142.0,0.010060986715464404
1141.0,0.009883233932095559
1140.0,0.009705553871561357
1139.0,0.009527946474380489
1138.0,0.009350411681145587
1137.0,0.009217308196862062
1136.0,0.009039900317800775
1135.0,0.008951223547323472
1134.0,0.008906891951112605
1133.0,0.008862564879688284
1132.0,0.008906891951112605
1131.0,0.008951223547323472
1130.0,0.009039900317800775
1129.0,0.009039900317800775
1128.0,0.009039900317800775
1127.0,0.00908424549391551
1126.0,0.009172949432521227
1125.0,0.009217308196862062
1124.0,0.009172949432521227
1123.0,0.009217308196862062
1122.0,0.009261671492462709
1121.0,0.009306039320248427
1120.0,0.00939478857608056
1119.0,0.009483555971770974
1118.0,0.009616741093766423
1117.0,0.00966114521239847
1116.0,0.009572341514736404
1115.0,0.009483555971770974
1114.0,0.00939478857608056
1113.0,0.009350411681145587
1112.0,0.009306039320248427
1111.0,0.009306039320248427
1110.0,0.009306039320248427
1109.0,0.009261671492462709
1108.0,0.009128595198514056
1107.0,0.008995559669244813
1106.0,0.008951223547323472
1105.0,0.009039900317800775
1104.0,0.009172949432521227
1103.0,0.009306039320248427
1102.0,0.00939478857608056
1101.0,0.00939478857608056
1100.0,0.009350411681145587
1099.0,0.009350411681145587
1098.0,0.00939478857608056
1097.0,0.00939478857608056
1096.0,0.00939478857608056
1095.0,0.009350411681145587
1094.0,0.00939478857608056
1093.0,0.00939478857608056
1092.0,0.009350411681145587
1091.0,0.009217308196862062
1090.0,0.00908424549391551
1089.0,0.008906891951112605
1088.0,0.008818242332126802
1087.0,0.008773924307505121
1086.0,0.008818242332126802
1085.0,0.0087296108049002
1084.0,0.008596697419959609
1083.0,0.008419542825660153
1082.0,0.008198201155356077
1081.0,0.008021209005416363
1080.0,0.007888512213050314
1079.0,0.007800070204414977
1078.0,0.007800070204414977
1077.0,0.007800070204414977
1076.0,0.007800070204414977
1075.0,0.007800070204414977
1074.0,0.007800070204414977
1073.0,0.007844288957383316
1072.0,0.007888512213050314
1071.0,0.007932739972333236
1070.0,0.007844288957383316
1069.0,0.007667440952535687
1068.0,0.0074464821678643656
1067.0,0.007269796045857202
1066.0,0.007225635744644521
1065.0,0.007225635744644521
1064.0,0.007181479933320523
1063.0,0.007137328610972382
1062.0,0.007137328610972382
1061.0,0.007137328610972382
1060.0,0.007181479933320523
1059.0,0.007225635744644521
1058.0,0.007225635744644521
1057.0,0.007269796045857202
1056.0,0.007313960837872058
1055.0,0.007402303897961815
1054.0,0.007490664932224611
1053.0,0.007490664932224611
1052.0,0.007402303897961815
1051.0,0.007358130121602358
1050.0,0.007269796045857202
1049.0,0.007181479933320523
1048.0,0.007049039429553483
1047.0,0.00696076819309055
1046.0,0.006916639301937977
1045.0,0.00696076819309055
1044.0,0.007004901568658406
1043.0,0.007049039429553483
1042.0,0.007181479933320523
1041.0,0.007269796045857202
1040.0,0.007358130121602358
1039.0,0.007402303897961815
1038.0,0.007402303897961815
1037.0,0.007402303897961815
1036.0,0.0074464821678643656
1035.0,0.007490664932224611
1034.0,0.007534852191956709
1033.0,0.0075790439479759275
1032.0,0.00762324020119709
1031.0,0.00762324020119709
1030.0,0.00762324020119709
1029.0,0.007534852191956709
1028.0,0.0074464821678643656
1027.0,0.007358130121602358
1026.0,0.007313960837872058
1025.0,0.007269796045857202
1024.0,0.007225635744644521
1023.0,0.007225635744644521
1022.0,0.007181479933320523
1021.0,0.007137328610972382
1020.0,0.007093181776687496
1019.0,0.007049039429553483
1018.0,0.007093181776687496
1017.0,0.007137328610972382
1016.0,0.007137328610972382
1015.0,0.007137328610972382
1014.0,0.007137328610972382
1013.0,0.007049039429553483
1012.0,0.006916639301937977
1011.0,0.006828394969235152
1010.0,0.006872514894289861
1009.0,0.007004901568658406
1008.0,0.007137328610972382
1007.0,0.007269796045857202
1006.0,0.007313960837872058
1005.0,0.007313960837872058
1004.0,0.007269796045857202
1003.0,0.007269796045857202
1002.0,0.007225635744644521
1001.0,0.007181479933320523
1000.0,0.007093181776687496
999.0,0.007093181776687496
998.0,0.007181479933320523
997.0,0.007358130121602358
996.0,0.007534852191956709
995.0,0.007667440952535687
994.0,0.007667440952535687
993.0,0.007534852191956709
992.0,0.0074464821678643656
991.0,0.0074464821678643656
990.0,0.0075790439479759275
989.0,0.007755855953228474
988.0,0.007888512213050314
987.0,0.007932739972333236
986.0,0.007888512213050314
985.0,0.007800070204414977
984.0,0.007800070204414977
983.0,0.007800070204414977
982.0,0.007888512213050314
981.0,0.007888512213050314
980.0,0.007932739972333236
979.0,0.007932739972333236
978.0,0.007976972236149349
977.0,0.007932739972333236
976.0,0.007888512213050314
975.0,0.007800070204414977
974.0,0.007755855953228474
973.0,0.007711646202907652
972.0,0.007667440952535687
971.0,0.00762324020119709
970.0,0.0075790439479759275
969.0,0.007490664932224611
968.0,0.007358130121602358
967.0,0.007269796045857202
966.0,0.007225635744644521
965.0,0.007269796045857202
964.0,0.007358130121602358
963.0,0.0074464821678643656
962.0,0.007490664932224611
961.0,0.007490664932224611
960.0,0.007358130121602358
959.0,0.007225635744644521
958.0,0.007181479933320523
957.0,0.007181479933320523
956.0,0.007181479933320523
955.0,0.007137328610972382
954.0,0.007093181776687496
953.0,0.007049039429553483
952.0,0.007049039429553483
951.0,0.007049039429553483
950.0,0.007004901568658406
949.0,0.006828394969235152
948.0,0.006696062080525422
947.0,0.006651960076740071
946.0,0.006696062080525422
945.0,0.006740168563263094
944.0,0.006696062080525422
943.0,0.006651960076740071
942.0,0.00656376950238835
941.0,0.006519680930003435
940.0,0.00656376950238835
939.0,0.006651960076740071
938.0,0.006872514894289861
937.0,0.007093181776687496
936.0,0.007313960837872058
935.0,0.0074464821678643656
934.0,0.0075790439479759275
933.0,0.007711646202907652
932.0,0.007755855953228474
931.0,0.007755855953228474
930.0,0.007711646202907652
929.0,0.0075790439479759275
928.0,0.0075790439479759275
927.0,0.007711646202907652
926.0,0.007932739972333236
925.0,0.008109696063975047
924.0,0.008109696063975047
923.0,0.008065450281052211
922.0,0.008021209005416363
921.0,0.007888512213050314
920.0,0.007755855953228474
919.0,0.007667440952535687
918.0,0.007711646202907652
917.0,0.007800070204414977
916.0,0.007888512213050314
915.0,0.007932739972333236
914.0,0.007932739972333236
913.0,0.007844288957383316
912.0,0.007711646202907652
911.0,0.007534852191956709
910.0,0.007402303897961815
909.0,0.007358130121602358
908.0,0.007225635744644521
907.0,0.007093181776687496
906.0,0.006872514894289861
905.0,0.006696062080525422
904.0,0.00656376950238835
903.0,0.006475596832934416
902.0,0.006475596832934416
901.0,0.006519680930003435
900.0,0.006431517210272464
899.0,0.006343371384537999
898.0,0.00625524344553785
897.0,0.006167133386013823
896.0,0.00612308505878878
895.0,0.00612308505878878
894.0,0.00621118618129457
893.0,0.006343371384537999
892.0,0.006475596832934416
891.0,0.006475596832934416
890.0,0.006475596832934416
889.0,0.006607862550997545
888.0,0.006828394969235152
887.0,0.007049039429553483
886.0,0.007137328610972382
885.0,0.007049039429553483
884.0,0.006872514894289861
883.0,0.006872514894289861
882.0,0.007004901568658406
881.0,0.007093181776687496
880.0,0.007093181776687496
879.0,0.00696076819309055
878.0,0.006872514894289861
877.0,0.006872514894289861
876.0,0.007049039429553483
875.0,0.007313960837872058
874.0,0.00762324020119709
873.0,0.007888512213050314
872.0,0.007976972236149349
871.0,0.007976972236149349
870.0,0.007888512213050314
869.0,0.007800070204414977
868.0,0.007755855953228474
867.0,0.007800070204414977
866.0,0.007888512213050314
865.0,0.008065450281052211
864.0,0.008330992620051436
863.0,0.008596697419959609
862.0,0.0087296108049002
861.0,0.008640997362049818
860.0,0.008419542825660153
859.0,0.008153946355103248
858.0,0.008065450281052211
857.0,0.008021209005416363
856.0,0.008065450281052211
855.0,0.008153946355103248
854.0,0.008330992620051436
853.0,0.008419542825660153
852.0,0.008463824699968647
851.0,0.008463824699968647
850.0,0.008463824699968647
849.0,0.008419542825660153
848.0,0.008286724286910463
847.0,0.008109696063975047
846.0,0.007932739972333236
845.0,0.007844288957383316
844.0,0.007800070204414977
843.0,0.007755855953228474
842.0,0.007711646202907652
841.0,0.007667440952535687
840.0,0.00762324020119709
839.0,0.00762324020119709
838.0,0.00762324020119709
837.0,0.0075790439479759275
836.0,0.007490664932224611
835.0,0.0074464821678643656
834.0,0.007402303897961815
833.0,0.007358130121602358
832.0,0.007313960837872058
831.0,0.007269796045857202
830.0,0.007225635744644521
829.0,0.007137328610972382
828.0,0.007093181776687496
827.0,0.007137328610972382
826.0,0.007225635744644521
825.0,0.007181479933320523
824.0,0.00696076819309055
823.0,0.006784279525863024
822.0,0.006784279525863024
821.0,0.006916639301937977
820.0,0.007093181776687496
819.0,0.007225635744644521
818.0,0.007225635744644521
817.0,0.007181479933320523
816.0,0.007137328610972382
815.0,0.007181479933320523
814.0,0.007313960837872058
813.0,0.007490664932224611
812.0,0.00762324020119709
811.0,0.007755855953228474
810.0,0.007976972236149349
809.0,0.008242460465651913
808.0,0.008463824699968647
807.0,0.008596697419959609
806.0,0.008640997362049818
805.0,0.008640997362049818
804.0,0.008596697419959609
803.0,0.00850811108984062
802.0,0.008419542825660153
801.0,0.008375265465994541
800.0,0.008375265465994541
799.0,0.008419542825660153
798.0,0.008419542825660153
797.0,0.008330992620051436
796.0,0.008242460465651913
795.0,0.008242460465651913
794.0,0.008198201155356077
793.0,0.008065450281052211
792.0,0.007888512213050314
791.0,0.007844288957383316
790.0,0.007932739972333236
789.0,0.008065450281052211
788.0,0.008065450281052211
787.0,0.007932739972333236
786.0,0.007711646202907652
785.0,0.007490664932224611
784.0,0.007313960837872058
783.0,0.007269796045857202
782.0,0.007313960837872058
781.0,0.007225635744644521
780.0,0.00696076819309055
779.0,0.006696062080525422
778.0,0.006651960076740071
777.0,0.006828394969235152
776.0,0.007004901568658406
775.0,0.007093181776687496
774.0,0.007093181776687496
773.0,0.007004901568658406
772.0,0.006872514894289861
771.0,0.006784279525863024
770.0,0.006607862550997545
769.0,0.006475596832934416
768.0,0.006299305179649828
767.0,0.006343371384537999
766.0,0.006519680930003435
765.0,0.006828394969235152
764.0,0.00696076819309055
763.0,0.006916639301937977
762.0,0.006696062080525422
761.0,0.006519680930003435
760.0,0.006475596832934416
759.0,0.006607862550997545
758.0,0.006916639301937977
757.0,0.007225635744644521
756.0,0.0074464821678643656
755.0,0.0074464821678643656
754.0,0.007358130121602358
753.0,0.007181479933320523
752.0,0.007049039429553483
751.0,0.007049039429553483
750.0,0.007225635744644521
749.0,0.007490664932224611
748.0,0.007711646202907652
747.0,0.007755855953228474
746.0,0.007711646202907652
745.0,0.007667440952535687
744.0,0.007667440952535687
743.0,0.007800070204414977
742.0,0.008153946355103248
741.0,0.008818242332126802
740.0,0.009616741093766423
739.0,0.010550182333308289
738.0,0.011931796607364653
737.0,0.014169510141607944
736.0,0.017955020928509757
735.0,0.024522236834125355
734.0,0.03541041251009669
733.0,0.05085404758005607
732.0,0.06823711151882228
731.0,0.08202211740709164
730.0,0.08714052483764512
729.0,0.08312512146131668
728.0,0.07401789967289685
727.0,0.06479513257341862
726.0,0.05848856736559682
725.0,0.05601112492622806
724.0,0.0575950591438934
723.0,0.06398920428479049
722.0,0.07613452481449845
721.0,0.09291125492570451
720.0,0.1082953237608173
719.0,0.11424311893073247
718.0,0.10784972209863586
717.0,0.09344948089854999
716.0,0.07706704344478843
715.0,0.06263258248271053
714.0,0.05148923116234294
713.0,0.04320747962950522
712.0,0.0371573187987575
711.0,0.032873418923587305
710.0,0.029885677714903025
709.0,0.027750864037404455
708.0,0.026225806029419818
707.0,0.024890010313838973
706.0,0.023466619608062178
705.0,0.02200219004126036
704.0,0.020770406977844713
703.0,0.01990568621470623
702.0,0.019133445417920836
701.0,0.018362575344230914
700.0,0.017728766960431575
699.0,0.017321806616515723
698.0,0.016824927962187042
697.0,0.016103208673694303
696.0,0.015337693809893471
695.0,0.015022873584506602
694.0,0.015067833932588037
693.0,0.015292705517326866
692.0,0.01538268676325183
691.0,0.01547268665620738
690.0,0.01547268665620738
689.0,0.015337693809893471
688.0,0.015337693809893471
687.0,0.015427684378367834
686.0,0.015292705517326866
685.0,0.014618439768003144
684.0,0.01385553528947936
683.0,0.013541787262693505
682.0,0.013541787262693505
681.0,0.013004460275618523
680.0,0.011708658092512314
679.0,0.010416710688994968
678.0,0.010060986715464404
677.0,0.010728208358306901
676.0,0.01215504982870197
675.0,0.013541787262693505
674.0,0.013990068146738865
673.0,0.013049212141483357
672.0,0.011441043121384498
671.0,0.010149890396819572
670.0,0.009172949432521227
669.0,0.00850811108984062
668.0,0.008552401996197112
667.0,0.009838807101520963
666.0,0.011084479487313281
665.0,0.010639186223752484
664.0,0.009261671492462709
663.0,0.008286724286910463
662.0,0.008109696063975047
661.0,0.007976972236149349
660.0,0.007358130121602358
659.0,0.00656376950238835
658.0,0.006079041198713275
657.0,0.005858888873877532
656.0,0.005682847330363394
655.0,0.005814871797682919
654.0,0.006343371384537999
653.0,0.006916639301937977
652.0,0.007093181776687496
651.0,0.006916639301937977
650.0,0.006872514894289861
649.0,0.007490664932224611
648.0,0.008685301823389224
647.0,0.01001654169860089
646.0,0.010550182333308289
645.0,0.01001654169860089
644.0,0.008862564879688284
643.0,0.008021209005416363
642.0,0.008242460465651913
641.0,0.00939478857608056
640.0,0.011039929609661936
639.0,0.012780770091995297
638.0,0.014304140310157809
637.0,0.015067833932588037
636.0,0.014708281407112
635.0,0.013138729709955221
634.0,0.010995384301463185
633.0,0.009527946474380489
632.0,0.009483555971770974
631.0,0.010683695010048622
630.0,0.012021084124518078
629.0,0.012557195064198723
628.0,0.012378417874516323
627.0,0.011842527443247208
626.0,0.011262724711199823
625.0,0.010594681998483901
624.0,0.009883233932095559
623.0,0.009439170005980158
622.0,0.009572341514736404
621.0,0.01037222925484893
620.0,0.011619434777991433
619.0,0.012825498912458322
618.0,0.013362604389846044
617.0,0.012870232340102872
616.0,0.012110390002254778
615.0,0.011708658092512314
614.0,0.011485634166333858
613.0,0.010683695010048622
612.0,0.00908424549391551
611.0,0.007313960837872058
610.0,0.006035001804881146
609.0,0.005243055412371911
608.0,0.004671990922590297
607.0,0.004320939488377862
606.0,0.004408675747646695
605.0,0.004979393875242044
604.0,0.005946936412324799
603.0,0.007093181776687496
602.0,0.008242460465651913
601.0,0.00974996707218323
600.0,0.0119764380713403
