cm-1,A
4000.0,0.0126
3999.0,0.0127
3998.0,0.0126
3997.0,0.0125
3996.0,0.0125
3995.0,0.0125
3994.0,0.0126
3993.0,0.0127
3992.0,0.0127
3991.0,0.0127
3990.0,0.0127
3989.0,0.0127
3988.0,0.0126
3987.0,0.0126
3986.0,0.0126
3985.0,0.0126
3984.0,0.0125
3983.0,0.0125
3982.0,0.0125
3981.0,0.0126
3980.0,0.0126
3979.0,0.0126
3978.0,0.0126
3977.0,0.0126
3976.0,0.0126
3975.0,0.0127
3974.0,0.0127
3973.0,0.0128
3972.0,0.0128
3971.0,0.0129
3970.0,0.0129
3969.0,0.0128
3968.0,0.0128
3967.0,0.0128
3966.0,0.0128
3965.0,0.0128
3964.0,0.0128
3963.0,0.0128
3962.0,0.0128
3961.0,0.0129
3960.0,0.0129
3959.0,0.013
3958.0,0.013
3957.0,0.013
3956.0,0.013
3955.0,0.013
3954.0,0.0131
3953.0,0.0132
3952.0,0.0132
3951.0,0.0132
3950.0,0.0133
3949.0,0.0133
3948.0,0.0133
3947.0,0.0134
3946.0,0.0134
3945.0,0.0133
3944.0,0.0132
3943.0,0.0132
3942.0,0.0132
3941.0,0.0131
3940.0,0.0131
3939.0,0.013
3938.0,0.0131
3937.0,0.0132
3936.0,0.0133
3935.0,0.0134
3934.0,0.0134
3933.0,0.0134
3932.0,0.0134
3931.0,0.0134
3930.0,0.0134
3929.0,0.0135
3928.0,0.0136
3927.0,0.0137
3926.0,0.0137
3925.0,0.0137
3924.0,0.0137
3923.0,0.0137
3922.0,0.0137
3921.0,0.0136
3920.0,0.0136
3919.0,0.0136
3918.0,0.0135
3917.0,0.0135
3916.0,0.0134
3915.0,0.0134
3914.0,0.0133
3913.0,0.0132
3912.0,0.0131
3911.0,0.0132
3910.0,0.0134
3909.0,0.0137
3908.0,0.0141
3907.0,0.0143
3906.0,0.0143
3905.0,0.0142
3904.0,0.0142
3903.0,0.0142
3902.0,0.0141
3901.0,0.0139
3900.0,0.0138
3899.0,0.0137
3898.0,0.0137
3897.0,0.0137
3896.0,0.0137
3895.0,0.0136
3894.0,0.0135
3893.0,0.0134
3892.0,0.0133
3891.0,0.0133
3890.0,0.0135
3889.0,0.0137
3888.0,0.0136
3887.0,0.0135
3886.0,0.0135
3885.0,0.0139
3884.0,0.0142
3883.0,0.0143
3882.0,0.0141
3881.0,0.0138
3880.0,0.0137
3879.0,0.0137
3878.0,0.0138
3877.0,0.0138
3876.0,0.0137
3875.0,0.0138
3874.0,0.014
3873.0,0.0143
3872.0,0.0142
3871.0,0.014
3870.0,0.0141
3869.0,0.0144
3868.0,0.0146
3867.0,0.0145
3866.0,0.0143
3865.0,0.0141
3864.0,0.0141
3863.0,0.0141
3862.0,0.014
3861.0,0.0138
3860.0,0.0137
3859.0,0.0136
3858.0,0.0137
3857.0,0.0139
3856.0,0.0139
3855.0,0.0137
3854.0,0.0138
3853.0,0.014
3852.0,0.0141
3851.0,0.014
3850.0,0.0139
3849.0,0.0138
3848.0,0.0139
3847.0,0.014
3846.0,0.0141
3845.0,0.0142
3844.0,0.0144
3843.0,0.0146
3842.0,0.0148
3841.0,0.0148
3840.0,0.0147
3839.0,0.0145
3838.0,0.0144
3837.0,0.0143
3836.0,0.0143
3835.0,0.0143
3834.0,0.0142
3833.0,0.014
3832.0,0.014
3831.0,0.0141
3830.0,0.0142
3829.0,0.0143
3828.0,0.0143
3827.0,0.0143
3826.0,0.0144
3825.0,0.0147
3824.0,0.0148
3823.0,0.0145
3822.0,0.0142
3821.0,0.0142
3820.0,0.0143
3819.0,0.0144
3818.0,0.0141
3817.0,0.0139
3816.0,0.0139
3815.0,0.014
3814.0,0.0141
3813.0,0.014
3812.0,0.0139
3811.0,0.014
3810.0,0.0141
3809.0,0.0142
3808.0,0.0142
3807.0,0.0142
3806.0,0.0144
3805.0,0.0146
3804.0,0.0145
3803.0,0.0142
3802.0,0.0141
3801.0,0.0144
3800.0,0.0146
3799.0,0.0147
3798.0,0.0145
3797.0,0.0143
3796.0,0.0143
3795.0,0.0143
3794.0,0.0142
3793.0,0.0141
3792.0,0.014
3791.0,0.014
3790.0,0.014
3789.0,0.0141
3788.0,0.0141
3787.0,0.0141
3786.0,0.0141
3785.0,0.0141
3784.0,0.0143
3783.0,0.0144
3782.0,0.0144
3781.0,0.0143
3780.0,0.0142
3779.0,0.0142
3778.0,0.0143
3777.0,0.0143
3776.0,0.0142
3775.0,0.0143
3774.0,0.0144
3773.0,0.0144
3772.0,0.0144
3771.0,0.0145
3770.0,0.0146
3769.0,0.0148
3768.0,0.0149
3767.0,0.0149
3766.0,0.0148
3765.0,0.0148
3764.0,0.0149
3763.0,0.015
3762.0,0.0149
3761.0,0.0148
3760.0,0.0147
3759.0,0.0147
3758.0,0.0148
3757.0,0.0148
3756.0,0.0149
3755.0,0.015
3754.0,0.0151
3753.0,0.0151
3752.0,0.0151
3751.0,0.0153
3750.0,0.0153
3749.0,0.0153
3748.0,0.0155
3747.0,0.0155
3746.0,0.0151
3745.0,0.0149
3744.0,0.015
3743.0,0.0151
3742.0,0.0151
3741.0,0.0151
3740.0,0.0151
3739.0,0.0151
3738.0,0.015
3737.0,0.0149
3736.0,0.015
3735.0,0.015
3734.0,0.0148
3733.0,0.0145
3732.0,0.0143
3731.0,0.0143
3730.0,0.0144
3729.0,0.0145
3728.0,0.0145
3727.0,0.0145
3726.0,0.0146
3725.0,0.0147
3724.0,0.0146
3723.0,0.0146
3722.0,0.0146
3721.0,0.0147
3720.0,0.0147
3719.0,0.0147
3718.0,0.0147
3717.0,0.0148
3716.0,0.015
3715.0,0.0151
3714.0,0.0152
3713.0,0.0153
3712.0,0.0154
3711.0,0.0155
3710.0,0.0154
3709.0,0.0152
3708.0,0.0151
3707.0,0.0151
3706.0,0.0152
3705.0,0.0152
3704.0,0.0152
3703.0,0.0152
3702.0,0.0153
3701.0,0.0154
3700.0,0.0156
3699.0,0.0157
3698.0,0.0157
3697.0,0.0157
3696.0,0.0158
3695.0,0.0159
3694.0,0.0161
3693.0,0.0163
3692.0,0.0164
3691.0,0.0166
3690.0,0.0168
3689.0,0.0169
3688.0,0.017
3687.0,0.017
3686.0,0.0169
3685.0,0.0169
3684.0,0.0169
3683.0,0.017
3682.0,0.0172
3681.0,0.0173
3680.0,0.0176
3679.0,0.018
3678.0,0.0183
3677.0,0.0184
3676.0,0.0187
3675.0,0.019
3674.0,0.0192
3673.0,0.0192
3672.0,0.0189
3671.0,0.0186
3670.0,0.0187
3669.0,0.019
3668.0,0.019
3667.0,0.019
3666.0,0.019
3665.0,0.0189
3664.0,0.019
3663.0,0.019
3662.0,0.0191
3661.0,0.0193
3660.0,0.0195
3659.0,0.0197
3658.0,0.0198
3657.0,0.0198
3656.0,0.02
3655.0,0.0202
3654.0,0.0205
3653.0,0.0208
3652.0,0.0209
3651.0,0.0211
3650.0,0.0216
3649.0,0.022
3648.0,0.0222
3647.0,0.0222
3646.0,0.0221
3645.0,0.022
3644.0,0.0219
3643.0,0.0219
3642.0,0.022
3641.0,0.0222
3640.0,0.0222
3639.0,0.0223
3638.0,0.0223
3637.0,0.0224
3636.0,0.0224
3635.0,0.0224
3634.0,0.0226
3633.0,0.0229
3632.0,0.0232
3631.0,0.0231
3630.0,0.023
3629.0,0.0234
3628.0,0.0239
3627.0,0.0242
3626.0,0.0242
3625.0,0.0243
3624.0,0.0246
3623.0,0.0249
3622.0,0.0252
3621.0,0.0255
3620.0,0.0257
3619.0,0.026
3618.0,0.0262
3617.0,0.0264
3616.0,0.0265
3615.0,0.0265
3614.0,0.0265
3613.0,0.0266
3612.0,0.0266
3611.0,0.0266
3610.0,0.0266
3609.0,0.0266
3608.0,0.0269
3607.0,0.0272
3606.0,0.0273
3605.0,0.0273
3604.0,0.0274
3603.0,0.0275
3602.0,0.0277
3601.0,0.028
3600.0,0.0283
3599.0,0.0285
3598.0,0.0287
3597.0,0.0289
3596.0,0.0291
3595.0,0.0293
3594.0,0.0295
3593.0,0.0297
3592.0,0.0299
3591.0,0.0301
3590.0,0.0303
3589.0,0.0306
3588.0,0.031
3587.0,0.0313
3586.0,0.0315
3585.0,0.0316
3584.0,0.0316
3583.0,0.0316
3582.0,0.0317
3581.0,0.0318
3580.0,0.0319
3579.0,0.032
3578.0,0.0321
3577.0,0.0323
3576.0,0.0326
3575.0,0.0329
3574.0,0.0332
3573.0,0.0335
3572.0,0.0338
3571.0,0.0341
3570.0,0.0344
3569.0,0.0347
3568.0,0.0351
3567.0,0.0356
3566.0,0.0359
3565.0,0.0359
3564.0,0.0359
3563.0,0.0359
3562.0,0.0359
3561.0,0.0359
3560.0,0.036
3559.0,0.0361
3558.0,0.0362
3557.0,0.0363
3556.0,0.0364
3555.0,0.0366
3554.0,0.0369
3553.0,0.0372
3552.0,0.0375
3551.0,0.0378
3550.0,0.038
3549.0,0.0382
3548.0,0.0383
3547.0,0.0384
3546.0,0.0386
3545.0,0.0388
3544.0,0.0388
3543.0,0.0388
3542.0,0.0388
3541.0,0.0389
3540.0,0.039
3539.0,0.0392
3538.0,0.0394
3537.0,0.0396
3536.0,0.0399
3535.0,0.0401
3534.0,0.0402
3533.0,0.0404
3532.0,0.0405
3531.0,0.0406
3530.0,0.0408
3529.0,0.0411
3528.0,0.0414
3527.0,0.0416
3526.0,0.0418
3525.0,0.0419
3524.0,0.0419
3523.0,0.042
3522.0,0.0421
3521.0,0.0423
3520.0,0.0424
3519.0,0.0425
3518.0,0.0426
3517.0,0.0428
3516.0,0.0429
3515.0,0.0431
3514.0,0.0433
3513.0,0.0434
3512.0,0.0435
3511.0,0.0436
3510.0,0.0438
3509.0,0.044
3508.0,0.0443
3507.0,0.0446
3506.0,0.0448
3505.0,0.045
3504.0,0.0452
3503.0,0.0453
3502.0,0.0455
3501.0,0.0456
3500.0,0.0457
3499.0,0.0458
3498.0,0.0459
3497.0,0.0461
3496.0,0.0463
3495.0,0.0465
3494.0,0.0466
3493.0,0.0467
3492.0,0.0468
3491.0,0.047
3490.0,0.0472
3489.0,0.0473
3488.0,0.0475
3487.0,0.0477
3486.0,0.048
3485.0,0.0482
3484.0,0.0484
3483.0,0.0485
3482.0,0.0487
3481.0,0.0489
3480.0,0.049
3479.0,0.0492
3478.0,0.0493
3477.0,0.0494
3476.0,0.0496
3475.0,0.0498
3474.0,0.0501
3473.0,0.0503
3472.0,0.0504
3471.0,0.0505
3470.0,0.0506
3469.0,0.0507
3468.0,0.0509
3467.0,0.051
3466.0,0.0512
3465.0,0.0515
3464.0,0.0517
3463.0,0.052
3462.0,0.0523
3461.0,0.0526
3460.0,0.0528
3459.0,0.0529
3458.0,0.053
3457.0,0.0531
3456.0,0.0532
3455.0,0.0534
3454.0,0.0535
3453.0,0.0537
3452.0,0.0539
3451.0,0.0542
3450.0,0.0544
3449.0,0.0547
3448.0,0.055
3447.0,0.0553
3446.0,0.0556
3445.0,0.0557
3444.0,0.0558
3443.0,0.056
3442.0,0.0562
3441.0,0.0564
3440.0,0.0566
3439.0,0.0568
3438.0,0.0571
3437.0,0.0573
3436.0,0.0575
3435.0,0.0577
3434.0,0.0579
3433.0,0.058
3432.0,0.0581
3431.0,0.0582
3430.0,0.0583
3429.0,0.0584
3428.0,0.0586
3427.0,0.0586
3426.0,0.0587
3425.0,0.0588
3424.0,0.059
3423.0,0.059
3422.0,0.059
3421.0,0.0589
3420.0,0.0588
3419.0,0.0587
3418.0,0.0587
3417.0,0.0586
3416.0,0.0586
3415.0,0.0584
3414.0,0.0583
3413.0,0.0582
3412.0,0.0582
3411.0,0.0581
3410.0,0.058
3409.0,0.0579
3408.0,0.0578
3407.0,0.0578
3406.0,0.0578
3405.0,0.0579
3404.0,0.0579
3403.0,0.0578
3402.0,0.0578
3401.0,0.0577
3400.0,0.0577
3399.0,0.0578
3398.0,0.0578
3397.0,0.0579
3396.0,0.0579
3395.0,0.0579
3394.0,0.0579
3393.0,0.0578
3392.0,0.0577
3391.0,0.0576
3390.0,0.0575
3389.0,0.0574
3388.0,0.0573
3387.0,0.0571
3386.0,0.0569
3385.0,0.0568
3384.0,0.0568
3383.0,0.0568
3382.0,0.0567
3381.0,0.0567
3380.0,0.0566
3379.0,0.0565
3378.0,0.0565
3377.0,0.0565
3376.0,0.0565
3375.0,0.0564
3374.0,0.0563
3373.0,0.0562
3372.0,0.056
3371.0,0.0558
3370.0,0.0555
3369.0,0.0553
3368.0,0.0551
3367.0,0.0551
3366.0,0.055
3365.0,0.055
3364.0,0.0549
3363.0,0.0547
3362.0,0.0545
3361.0,0.0543
3360.0,0.0542
3359.0,0.0541
3358.0,0.054
3357.0,0.0539
3356.0,0.0538
3355.0,0.0537
3354.0,0.0537
3353.0,0.0536
3352.0,0.0535
3351.0,0.0534
3350.0,0.0533
3349.0,0.0532
3348.0,0.053
3347.0,0.0529
3346.0,0.0528
3345.0,0.0527
3344.0,0.0526
3343.0,0.0525
3342.0,0.0523
3341.0,0.0522
3340.0,0.0521
3339.0,0.0519
3338.0,0.0517
3337.0,0.0516
3336.0,0.0515
3335.0,0.0514
3334.0,0.0513
3333.0,0.0511
3332.0,0.0508
3331.0,0.0505
3330.0,0.0502
3329.0,0.05
3328.0,0.0498
3327.0,0.0497
3326.0,0.0496
3325.0,0.0495
3324.0,0.0494
3323.0,0.0493
3322.0,0.0491
3321.0,0.049
3320.0,0.0489
3319.0,0.0487
3318.0,0.0486
3317.0,0.0485
3316.0,0.0484
3315.0,0.0482
3314.0,0.048
3313.0,0.0477
3312.0,0.0476
3311.0,0.0474
3310.0,0.0473
3309.0,0.0472
3308.0,0.0471
3307.0,0.047
3306.0,0.0467
3305.0,0.0465
3304.0,0.0463
3303.0,0.0461
3302.0,0.046
3301.0,0.0459
3300.0,0.0459
3299.0,0.0457
3298.0,0.0455
3297.0,0.0453
3296.0,0.0451
3295.0,0.045
3294.0,0.045
3293.0,0.045
3292.0,0.0448
3291.0,0.0446
3290.0,0.0444
3289.0,0.0443
3288.0,0.0441
3287.0,0.044
3286.0,0.0439
3285.0,0.0438
3284.0,0.0437
3283.0,0.0437
3282.0,0.0436
3281.0,0.0435
3280.0,0.0433
3279.0,0.0431
3278.0,0.043
3277.0,0.043
3276.0,0.0429
3275.0,0.0428
3274.0,0.0426
3273.0,0.0424
3272.0,0.0423
3271.0,0.0421
3270.0,0.042
3269.0,0.0419
3268.0,0.0418
3267.0,0.0418
3266.0,0.0417
3265.0,0.0416
3264.0,0.0415
3263.0,0.0414
3262.0,0.0413
3261.0,0.0413
3260.0,0.0413
3259.0,0.0413
3258.0,0.0412
3257.0,0.041
3256.0,0.0409
3255.0,0.0407
3254.0,0.0406
3253.0,0.0405
3252.0,0.0403
3251.0,0.0401
3250.0,0.0399
3249.0,0.0399
3248.0,0.0398
3247.0,0.0399
3246.0,0.0398
3245.0,0.0397
3244.0,0.0395
3243.0,0.0393
3242.0,0.0391
3241.0,0.039
3240.0,0.039
3239.0,0.039
3238.0,0.0389
3237.0,0.0388
3236.0,0.0386
3235.0,0.0384
3234.0,0.0383
3233.0,0.0382
3232.0,0.0381
3231.0,0.0379
3230.0,0.0377
3229.0,0.0375
3228.0,0.0373
3227.0,0.0372
3226.0,0.0371
3225.0,0.0369
3224.0,0.0368
3223.0,0.0366
3222.0,0.0364
3221.0,0.0363
3220.0,0.0361
3219.0,0.0359
3218.0,0.0357
3217.0,0.0355
3216.0,0.0353
3215.0,0.0353
3214.0,0.0352
3213.0,0.0351
3212.0,0.035
3211.0,0.0348
3210.0,0.0346
3209.0,0.0345
3208.0,0.0343
3207.0,0.0342
3206.0,0.034
3205.0,0.0339
3204.0,0.0337
3203.0,0.0336
3202.0,0.0335
3201.0,0.0335
3200.0,0.0334
3199.0,0.0332
3198.0,0.0331
3197.0,0.0329
3196.0,0.0327
3195.0,0.0326
3194.0,0.0324
3193.0,0.0323
3192.0,0.0321
3191.0,0.032
3190.0,0.0319
3189.0,0.0318
3188.0,0.0317
3187.0,0.0316
3186.0,0.0315
3185.0,0.0313
3184.0,0.0311
3183.0,0.0308
3182.0,0.0305
3181.0,0.0303
3180.0,0.0302
3179.0,0.0301
3178.0,0.03
3177.0,0.0299
3176.0,0.0298
3175.0,0.0297
3174.0,0.0296
3173.0,0.0295
3172.0,0.0293
3171.0,0.0291
3170.0,0.0289
3169.0,0.0287
3168.0,0.0285
3167.0,0.0284
3166.0,0.0283
3165.0,0.0282
3164.0,0.028
3163.0,0.0279
3162.0,0.0278
3161.0,0.0278
3160.0,0.0277
3159.0,0.0277
3158.0,0.0276
3157.0,0.0274
3156.0,0.0273
3155.0,0.0271
3154.0,0.027
3153.0,0.0268
3152.0,0.0267
3151.0,0.0267
3150.0,0.0266
3149.0,0.0266
3148.0,0.0265
3147.0,0.0264
3146.0,0.0262
3145.0,0.0261
3144.0,0.026
3143.0,0.0261
3142.0,0.0261
3141.0,0.026
3140.0,0.0259
3139.0,0.0258
3138.0,0.0257
3137.0,0.0256
3136.0,0.0256
3135.0,0.0255
3134.0,0.0255
3133.0,0.0254
3132.0,0.0253
3131.0,0.0252
3130.0,0.0251
3129.0,0.0251
3128.0,0.0251
3127.0,0.0251
3126.0,0.025
3125.0,0.0249
3124.0,0.0248
3123.0,0.0246
3122.0,0.0246
3121.0,0.0246
3120.0,0.0247
3119.0,0.0247
3118.0,0.0246
3117.0,0.0244
3116.0,0.0243
3115.0,0.0243
3114.0,0.0243
3113.0,0.0243
3112.0,0.0244
3111.0,0.0244
3110.0,0.0245
3109.0,0.0246
3108.0,0.0246
3107.0,0.0247
3106.0,0.0247
3105.0,0.0247
3104.0,0.0246
3103.0,0.0245
3102.0,0.0245
3101.0,0.0243
3100.0,0.0242
3099.0,0.0241
3098.0,0.0239
3097.0,0.0237
3096.0,0.0236
3095.0,0.0234
3094.0,0.0234
3093.0,0.0233
3092.0,0.0233
3091.0,0.0233
3090.0,0.0233
3089.0,0.0234
3088.0,0.0235
3087.0,0.0235
3086.0,0.0236
3085.0,0.0236
3084.0,0.0237
3083.0,0.0237
3082.0,0.0238
3081.0,0.0238
3080.0,0.0238
3079.0,0.0238
3078.0,0.0237
3077.0,0.0236
3076.0,0.0235
3075.0,0.0234
3074.0,0.0233
3073.0,0.0232
3072.0,0.0231
3071.0,0.0231
3070.0,0.023
3069.0,0.023
3068.0,0.0231
3067.0,0.0231
3066.0,0.023
3065.0,0.0229
3064.0,0.0228
3063.0,0.0227
3062.0,0.0226
3061.0,0.0225
3060.0,0.0224
3059.0,0.0224
3058.0,0.0224
3057.0,0.0225
3056.0,0.0225
3055.0,0.0225
3054.0,0.0224
3053.0,0.0223
3052.0,0.0221
3051.0,0.0219
3050.0,0.0217
3049.0,0.0214
3048.0,0.0211
3047.0,0.0207
3046.0,0.0204
3045.0,0.0201
3044.0,0.0199
3043.0,0.0197
3042.0,0.0195
3041.0,0.0194
3040.0,0.0193
3039.0,0.0193
3038.0,0.0192
3037.0,0.0192
3036.0,0.0191
3035.0,0.0191
3034.0,0.019
3033.0,0.019
3032.0,0.0189
3031.0,0.0188
3030.0,0.0188
3029.0,0.0188
3028.0,0.0189
3027.0,0.0189
3026.0,0.019
3025.0,0.019
3024.0,0.0191
3023.0,0.0193
3022.0,0.0194
3021.0,0.0195
3020.0,0.0197
3019.0,0.0198
3018.0,0.0199
3017.0,0.02
3016.0,0.0202
3015.0,0.0204
3014.0,0.0207
3013.0,0.0209
3012.0,0.0211
3011.0,0.0213
3010.0,0.0213
3009.0,0.0214
3008.0,0.0215
3007.0,0.0217
3006.0,0.0218
3005.0,0.022
3004.0,0.0223
3003.0,0.0224
3002.0,0.0225
3001.0,0.0226
3000.0,0.0228
2999.0,0.0229
2998.0,0.023
2997.0,0.0232
2996.0,0.0233
2995.0,0.0235
2994.0,0.0236
2993.0,0.0238
2992.0,0.0239
2991.0,0.024
2990.0,0.0242
2989.0,0.0243
2988.0,0.0245
2987.0,0.0248
2986.0,0.0251
2985.0,0.0254
2984.0,0.0258
2983.0,0.0262
2982.0,0.0265
2981.0,0.0269
2980.0,0.0273
2979.0,0.0277
2978.0,0.0282
2977.0,0.0286
2976.0,0.0291
2975.0,0.0295
2974.0,0.03
2973.0,0.0305
2972.0,0.0308
2971.0,0.0312
2970.0,0.0315
2969.0,0.0318
2968.0,0.032
2967.0,0.0322
2966.0,0.0323
2965.0,0.0324
2964.0,0.0325
2963.0,0.0326
2962.0,0.0326
2961.0,0.0325
2960.0,0.0323
2959.0,0.0321
2958.0,0.0318
2957.0,0.0315
2956.0,0.0311
2955.0,0.0308
2954.0,0.0304
2953.0,0.0299
2952.0,0.0294
2951.0,0.0288
2950.0,0.0283
2949.0,0.0278
2948.0,0.0273
2947.0,0.0268
2946.0,0.0263
2945.0,0.0257
2944.0,0.0252
2943.0,0.0246
2942.0,0.0242
2941.0,0.0237
2940.0,0.0234
2939.0,0.0231
2938.0,0.0229
2937.0,0.0227
2936.0,0.0224
2935.0,0.0223
2934.0,0.0221
2933.0,0.022
2932.0,0.0219
2931.0,0.0218
2930.0,0.0217
2929.0,0.0217
2928.0,0.0216
2927.0,0.0215
2926.0,0.0215
2925.0,0.0214
2924.0,0.0214
2923.0,0.0213
2922.0,0.0212
2921.0,0.0212
2920.0,0.0212
2919.0,0.0213
2918.0,0.0213
2917.0,0.0214
2916.0,0.0215
2915.0,0.0216
2914.0,0.0217
2913.0,0.0219
2912.0,0.0221
2911.0,0.0222
2910.0,0.0224
2909.0,0.0224
2908.0,0.0224
2907.0,0.0223
2906.0,0.0222
2905.0,0.022
2904.0,0.0218
2903.0,0.0217
2902.0,0.0215
2901.0,0.0214
2900.0,0.0212
2899.0,0.021
2898.0,0.0208
2897.0,0.0208
2896.0,0.0207
2895.0,0.0207
2894.0,0.0208
2893.0,0.0208
2892.0,0.0207
2891.0,0.0206
2890.0,0.0205
2889.0,0.0205
2888.0,0.0204
2887.0,0.0202
2886.0,0.02
2885.0,0.0198
2884.0,0.0196
2883.0,0.0195
2882.0,0.0195
2881.0,0.0195
2880.0,0.0195
2879.0,0.0194
2878.0,0.0193
2877.0,0.0192
2876.0,0.019
2875.0,0.0189
2874.0,0.0188
2873.0,0.0188
2872.0,0.0188
2871.0,0.0187
2870.0,0.0186
2869.0,0.0185
2868.0,0.0185
2867.0,0.0184
2866.0,0.0183
2865.0,0.0183
2864.0,0.0182
2863.0,0.0182
2862.0,0.0182
2861.0,0.0182
2860.0,0.0181
2859.0,0.0181
2858.0,0.0181
2857.0,0.0181
2856.0,0.018
2855.0,0.0179
2854.0,0.0179
2853.0,0.0178
2852.0,0.0177
2851.0,0.0176
2850.0,0.0174
2849.0,0.0171
2848.0,0.0169
2847.0,0.0166
2846.0,0.0164
2845.0,0.0162
2844.0,0.0161
2843.0,0.0159
2842.0,0.0159
2841.0,0.0158
2840.0,0.0156
2839.0,0.0155
2838.0,0.0154
2837.0,0.0153
2836.0,0.0152
2835.0,0.0152
2834.0,0.0151
2833.0,0.0151
2832.0,0.015
2831.0,0.0148
2830.0,0.0147
2829.0,0.0147
2828.0,0.0147
2827.0,0.0148
2826.0,0.0147
2825.0,0.0147
2824.0,0.0146
2823.0,0.0145
2822.0,0.0145
2821.0,0.0144
2820.0,0.0144
2819.0,0.0143
2818.0,0.0142
2817.0,0.0142
2816.0,0.0142
2815.0,0.0142
2814.0,0.0143
2813.0,0.0143
2812.0,0.0143
2811.0,0.0143
2810.0,0.0142
2809.0,0.0141
2808.0,0.0141
2807.0,0.0142
2806.0,0.0142
2805.0,0.0142
2804.0,0.0142
2803.0,0.0141
2802.0,0.0141
2801.0,0.0141
2800.0,0.0141
2799.0,0.0141
2798.0,0.014
2797.0,0.0139
2796.0,0.0137
2795.0,0.0136
2794.0,0.0136
2793.0,0.0137
2792.0,0.0137
2791.0,0.0137
2790.0,0.0137
2789.0,0.0137
2788.0,0.0137
2787.0,0.0137
2786.0,0.0136
2785.0,0.0135
2784.0,0.0134
2783.0,0.0134
2782.0,0.0134
2781.0,0.0134
2780.0,0.0134
2779.0,0.0134
2778.0,0.0133
2777.0,0.0133
2776.0,0.0132
2775.0,0.0132
2774.0,0.0132
2773.0,0.0132
2772.0,0.0132
2771.0,0.0132
2770.0,0.0131
2769.0,0.0131
2768.0,0.0131
2767.0,0.0131
2766.0,0.013
2765.0,0.0131
2764.0,0.0131
2763.0,0.013
2762.0,0.013
2761.0,0.013
2760.0,0.013
2759.0,0.0129
2758.0,0.0129
2757.0,0.0129
2756.0,0.0129
2755.0,0.0129
2754.0,0.0128
2753.0,0.0128
2752.0,0.0128
2751.0,0.0128
2750.0,0.0128
2749.0,0.0128
2748.0,0.0128
2747.0,0.0128
2746.0,0.0128
2745.0,0.0127
2744.0,0.0127
2743.0,0.0126
2742.0,0.0126
2741.0,0.0126
2740.0,0.0126
2739.0,0.0126
2738.0,0.0127
2737.0,0.0127
2736.0,0.0127
2735.0,0.0126
2734.0,0.0126
2733.0,0.0125
2732.0,0.0124
2731.0,0.0123
2730.0,0.0123
2729.0,0.0123
2728.0,0.0123
2727.0,0.0123
2726.0,0.0122
2725.0,0.0122
2724.0,0.0122
2723.0,0.0123
2722.0,0.0123
2721.0,0.0123
2720.0,0.0122
2719.0,0.0122
2718.0,0.0121
2717.0,0.0121
2716.0,0.012
2715.0,0.0121
2714.0,0.0121
2713.0,0.0121
2712.0,0.0122
2711.0,0.0122
2710.0,0.0122
2709.0,0.0121
2708.0,0.0121
2707.0,0.012
2706.0,0.012
2705.0,0.012
2704.0,0.012
2703.0,0.012
2702.0,0.0119
2701.0,0.0119
2700.0,0.0119
2699.0,0.0118
2698.0,0.0118
2697.0,0.0117
2696.0,0.0117
2695.0,0.0118
2694.0,0.0118
2693.0,0.0117
2692.0,0.0117
2691.0,0.0116
2690.0,0.0117
2689.0,0.0117
2688.0,0.0117
2687.0,0.0117
2686.0,0.0117
2685.0,0.0116
2684.0,0.0116
2683.0,0.0116
2682.0,0.0116
2681.0,0.0116
2680.0,0.0116
2679.0,0.0116
2678.0,0.0116
2677.0,0.0117
2676.0,0.0117
2675.0,0.0117
2674.0,0.0116
2673.0,0.0115
2672.0,0.0115
2671.0,0.0116
2670.0,0.0116
2669.0,0.0115
2668.0,0.0114
2667.0,0.0113
2666.0,0.0113
2665.0,0.0113
2664.0,0.0114
2663.0,0.0115
2662.0,0.0115
2661.0,0.0114
2660.0,0.0114
2659.0,0.0113
2658.0,0.0113
2657.0,0.0112
2656.0,0.0112
2655.0,0.0112
2654.0,0.0112
2653.0,0.0112
2652.0,0.0112
2651.0,0.0112
2650.0,0.0112
2649.0,0.0112
2648.0,0.0112
2647.0,0.0112
2646.0,0.0112
2645.0,0.0112
2644.0,0.0112
2643.0,0.0112
2642.0,0.0111
2641.0,0.0112
2640.0,0.0112
2639.0,0.0112
2638.0,0.0112
2637.0,0.0112
2636.0,0.0112
2635.0,0.0112
2634.0,0.0113
2633.0,0.0113
2632.0,0.0113
2631.0,0.0113
2630.0,0.0112
2629.0,0.0112
2628.0,0.0112
2627.0,0.0112
2626.0,0.0113
2625.0,0.0113
2624.0,0.0113
2623.0,0.0114
2622.0,0.0114
2621.0,0.0114
2620.0,0.0113
2619.0,0.0113
2618.0,0.0112
2617.0,0.0112
2616.0,0.0112
2615.0,0.0112
2614.0,0.0113
2613.0,0.0113
2612.0,0.0113
2611.0,0.0113
2610.0,0.0113
2609.0,0.0113
2608.0,0.0113
2607.0,0.0113
2606.0,0.0113
2605.0,0.0113
2604.0,0.0113
2603.0,0.0114
2602.0,0.0114
2601.0,0.0114
2600.0,0.0114
2599.0,0.0114
2598.0,0.0113
2597.0,0.0112
2596.0,0.0112
2595.0,0.0111
2594.0,0.0112
2593.0,0.0112
2592.0,0.0112
2591.0,0.0113
2590.0,0.0113
2589.0,0.0113
2588.0,0.0114
2587.0,0.0114
2586.0,0.0114
2585.0,0.0115
2584.0,0.0115
2583.0,0.0115
2582.0,0.0115
2581.0,0.0115
2580.0,0.0115
2579.0,0.0115
2578.0,0.0115
2577.0,0.0115
2576.0,0.0114
2575.0,0.0114
2574.0,0.0114
2573.0,0.0114
2572.0,0.0114
2571.0,0.0114
2570.0,0.0114
2569.0,0.0113
2568.0,0.0113
2567.0,0.0113
2566.0,0.0113
2565.0,0.0114
2564.0,0.0114
2563.0,0.0114
2562.0,0.0115
2561.0,0.0115
2560.0,0.0115
2559.0,0.0115
2558.0,0.0115
2557.0,0.0115
2556.0,0.0115
2555.0,0.0114
2554.0,0.0114
2553.0,0.0114
2552.0,0.0114
2551.0,0.0114
2550.0,0.0113
2549.0,0.0113
2548.0,0.0112
2547.0,0.0112
2546.0,0.0112
2545.0,0.0112
2544.0,0.0112
2543.0,0.0112
2542.0,0.0112
2541.0,0.0112
2540.0,0.0112
2539.0,0.0112
2538.0,0.0112
2537.0,0.0112
2536.0,0.0112
2535.0,0.0112
2534.0,0.0112
2533.0,0.0112
2532.0,0.0112
2531.0,0.0112
2530.0,0.0112
2529.0,0.0111
2528.0,0.0111
2527.0,0.011
2526.0,0.011
2525.0,0.011
2524.0,0.011
2523.0,0.011
2522.0,0.011
2521.0,0.011
2520.0,0.011
2519.0,0.0111
2518.0,0.0111
2517.0,0.0111
2516.0,0.0111
2515.0,0.0111
2514.0,0.011
2513.0,0.011
2512.0,0.0109
2511.0,0.0109
2510.0,0.0109
2509.0,0.0108
2508.0,0.0108
2507.0,0.0108
2506.0,0.0108
2505.0,0.0108
2504.0,0.0108
2503.0,0.0108
2502.0,0.0108
2501.0,0.0107
2500.0,0.0107
2499.0,0.0107
2498.0,0.0107
2497.0,0.0106
2496.0,0.0106
2495.0,0.0106
2494.0,0.0106
2493.0,0.0105
2492.0,0.0105
2491.0,0.0105
2490.0,0.0104
2489.0,0.0104
2488.0,0.0104
2487.0,0.0104
2486.0,0.0104
2485.0,0.0104
2484.0,0.0104
2483.0,0.0104
2482.0,0.0104
2481.0,0.0104
2480.0,0.0103
2479.0,0.0102
2478.0,0.0102
2477.0,0.0101
2476.0,0.0101
2475.0,0.0101
2474.0,0.0101
2473.0,0.0101
2472.0,0.01
2471.0,0.0099
2470.0,0.0099
2469.0,0.0098
2468.0,0.0098
2467.0,0.0098
2466.0,0.0099
2465.0,0.0099
2464.0,0.0099
2463.0,0.0099
2462.0,0.0099
2461.0,0.0099
2460.0,0.0099
2459.0,0.0099
2458.0,0.0098
2457.0,0.0097
2456.0,0.0097
2455.0,0.0097
2454.0,0.0097
2453.0,0.0098
2452.0,0.0098
2451.0,0.0097
2450.0,0.0097
2449.0,0.0096
2448.0,0.0096
2447.0,0.0097
2446.0,0.0098
2445.0,0.0098
2444.0,0.0098
2443.0,0.0098
2442.0,0.0098
2441.0,0.0097
2440.0,0.0097
2439.0,0.0098
2438.0,0.0098
2437.0,0.0098
2436.0,0.0098
2435.0,0.0098
2434.0,0.0097
2433.0,0.0097
2432.0,0.0097
2431.0,0.0097
2430.0,0.0097
2429.0,0.0097
2428.0,0.0097
2427.0,0.0097
2426.0,0.0097
2425.0,0.0098
2424.0,0.0098
2423.0,0.0098
2422.0,0.0099
2421.0,0.0099
2420.0,0.01
2419.0,0.01
2418.0,0.01
2417.0,0.0101
2416.0,0.0101
2415.0,0.0101
2414.0,0.0102
2413.0,0.0102
2412.0,0.0102
2411.0,0.0102
2410.0,0.0102
2409.0,0.0102
2408.0,0.0102
2407.0,0.0102
2406.0,0.0103
2405.0,0.0103
2404.0,0.0103
2403.0,0.0103
2402.0,0.0103
2401.0,0.0103
2400.0,0.0104
2399.0,0.0104
2398.0,0.0104
2397.0,0.0104
2396.0,0.0104
2395.0,0.0104
2394.0,0.0104
2393.0,0.0104
2392.0,0.0104
2391.0,0.0103
2390.0,0.0103
2389.0,0.0102
2388.0,0.0102
2387.0,0.0101
2386.0,0.01
2385.0,0.0098
2384.0,0.0096
2383.0,0.0093
2382.0,0.009
2381.0,0.0086
2380.0,0.0083
2379.0,0.0081
2378.0,0.008
2377.0,0.0078
2376.0,0.0077
2375.0,0.0076
2374.0,0.0075
2373.0,0.0074
2372.0,0.0073
2371.0,0.0071
2370.0,0.0065
2369.0,0.0057
2368.0,0.0048
2367.0,0.0045
2366.0,0.0048
2365.0,0.0054
2364.0,0.0062
2363.0,0.0067
2362.0,0.0065
2361.0,0.0057
2360.0,0.005
2359.0,0.005
2358.0,0.0056
2357.0,0.0061
2356.0,0.0062
2355.0,0.0058
2354.0,0.0053
2353.0,0.005
2352.0,0.005
2351.0,0.005
2350.0,0.0048
2349.0,0.0045
2348.0,0.0043
2347.0,0.0041
2346.0,0.0041
2345.0,0.004
2344.0,0.0039
2343.0,0.0037
2342.0,0.0037
2341.0,0.0038
2340.0,0.0041
2339.0,0.0043
2338.0,0.0044
2337.0,0.0045
2336.0,0.0047
2335.0,0.005
2334.0,0.0051
2333.0,0.005
2332.0,0.0048
2331.0,0.0047
2330.0,0.0046
2329.0,0.0046
2328.0,0.0048
2327.0,0.0052
2326.0,0.0057
2325.0,0.006
2324.0,0.0062
2323.0,0.0063
2322.0,0.0063
2321.0,0.0064
2320.0,0.0066
2319.0,0.0069
2318.0,0.0074
2317.0,0.0077
2316.0,0.0076
2315.0,0.0073
2314.0,0.0069
2313.0,0.0066
2312.0,0.0064
2311.0,0.0064
2310.0,0.0065
2309.0,0.0067
2308.0,0.0069
2307.0,0.007
2306.0,0.0071
2305.0,0.0071
2304.0,0.0071
2303.0,0.0071
2302.0,0.0072
2301.0,0.0073
2300.0,0.0074
2299.0,0.0075
2298.0,0.0076
2297.0,0.0077
2296.0,0.0077
2295.0,0.0078
2294.0,0.0079
2293.0,0.0081
2292.0,0.0083
2291.0,0.0085
2290.0,0.0086
2289.0,0.0087
2288.0,0.0087
2287.0,0.0088
2286.0,0.0089
2285.0,0.0089
2284.0,0.009
2283.0,0.009
2282.0,0.009
2281.0,0.0089
2280.0,0.0088
2279.0,0.0087
2278.0,0.0085
2277.0,0.0084
2276.0,0.0084
2275.0,0.0084
2274.0,0.0084
2273.0,0.0084
2272.0,0.0084
2271.0,0.0084
2270.0,0.0083
2269.0,0.0083
2268.0,0.0083
2267.0,0.0083
2266.0,0.0083
2265.0,0.0083
2264.0,0.0083
2263.0,0.0083
2262.0,0.0083
2261.0,0.0082
2260.0,0.0081
2259.0,0.0081
2258.0,0.0081
2257.0,0.0082
2256.0,0.0082
2255.0,0.0082
2254.0,0.0082
2253.0,0.0083
2252.0,0.0083
2251.0,0.0083
2250.0,0.0083
2249.0,0.0083
2248.0,0.0082
2247.0,0.0082
2246.0,0.0081
2245.0,0.0081
2244.0,0.008
2243.0,0.008
2242.0,0.008
2241.0,0.008
2240.0,0.008
2239.0,0.008
2238.0,0.008
2237.0,0.008
2236.0,0.0081
2235.0,0.0081
2234.0,0.008
2233.0,0.008
2232.0,0.008
2231.0,0.0079
2230.0,0.0079
2229.0,0.0079
2228.0,0.0078
2227.0,0.0078
2226.0,0.0077
2225.0,0.0077
2224.0,0.0076
2223.0,0.0076
2222.0,0.0075
2221.0,0.0075
2220.0,0.0075
2219.0,0.0075
2218.0,0.0075
2217.0,0.0075
2216.0,0.0075
2215.0,0.0075
2214.0,0.0074
2213.0,0.0074
2212.0,0.0073
2211.0,0.0073
2210.0,0.0073
2209.0,0.0073
2208.0,0.0073
2207.0,0.0073
2206.0,0.0072
2205.0,0.0072
2204.0,0.0071
2203.0,0.007
2202.0,0.007
2201.0,0.0069
2200.0,0.0069
2199.0,0.0068
2198.0,0.0068
2197.0,0.0068
2196.0,0.0068
2195.0,0.0068
2194.0,0.0067
2193.0,0.0067
2192.0,0.0067
2191.0,0.0066
2190.0,0.0066
2189.0,0.0066
2188.0,0.0066
2187.0,0.0066
2186.0,0.0066
2185.0,0.0066
2184.0,0.0065
2183.0,0.0065
2182.0,0.0065
2181.0,0.0065
2180.0,0.0066
2179.0,0.0066
2178.0,0.0066
2177.0,0.0065
2176.0,0.0065
2175.0,0.0065
2174.0,0.0064
2173.0,0.0064
2172.0,0.0064
2171.0,0.0064
2170.0,0.0064
2169.0,0.0064
2168.0,0.0064
2167.0,0.0064
2166.0,0.0064
2165.0,0.0065
2164.0,0.0065
2163.0,0.0065
2162.0,0.0066
2161.0,0.0066
2160.0,0.0066
2159.0,0.0066
2158.0,0.0066
2157.0,0.0066
2156.0,0.0066
2155.0,0.0066
2154.0,0.0066
2153.0,0.0066
2152.0,0.0066
2151.0,0.0066
2150.0,0.0065
2149.0,0.0065
2148.0,0.0065
2147.0,0.0066
2146.0,0.0066
2145.0,0.0066
2144.0,0.0066
2143.0,0.0067
2142.0,0.0067
2141.0,0.0068
2140.0,0.0068
2139.0,0.0068
2138.0,0.0068
2137.0,0.0068
2136.0,0.0068
2135.0,0.0068
2134.0,0.0068
2133.0,0.0067
2132.0,0.0067
2131.0,0.0067
2130.0,0.0067
2129.0,0.0068
2128.0,0.0068
2127.0,0.0067
2126.0,0.0067
2125.0,0.0068
2124.0,0.0068
2123.0,0.0068
2122.0,0.0068
2121.0,0.0068
2120.0,0.0068
2119.0,0.0068
2118.0,0.0068
2117.0,0.0068
2116.0,0.0068
2115.0,0.0067
2114.0,0.0066
2113.0,0.0066
2112.0,0.0066
2111.0,0.0066
2110.0,0.0066
2109.0,0.0067
2108.0,0.0067
2107.0,0.0067
2106.0,0.0067
2105.0,0.0067
2104.0,0.0067
2103.0,0.0067
2102.0,0.0067
2101.0,0.0067
2100.0,0.0066
2099.0,0.0066
2098.0,0.0065
2097.0,0.0066
2096.0,0.0066
2095.0,0.0066
2094.0,0.0065
2093.0,0.0065
2092.0,0.0064
2091.0,0.0063
2090.0,0.0063
2089.0,0.0062
2088.0,0.0062
2087.0,0.0062
2086.0,0.0062
2085.0,0.0062
2084.0,0.0062
2083.0,0.0061
2082.0,0.0061
2081.0,0.0061
2080.0,0.006
2079.0,0.006
2078.0,0.0059
2077.0,0.0059
2076.0,0.0058
2075.0,0.0058
2074.0,0.0057
2073.0,0.0056
2072.0,0.0056
2071.0,0.0055
2070.0,0.0055
2069.0,0.0054
2068.0,0.0053
2067.0,0.0053
2066.0,0.0052
2065.0,0.0051
2064.0,0.0051
2063.0,0.005
2062.0,0.0049
2061.0,0.0049
2060.0,0.0048
2059.0,0.0047
2058.0,0.0046
2057.0,0.0046
2056.0,0.0045
2055.0,0.0044
2054.0,0.0044
2053.0,0.0043
2052.0,0.0043
2051.0,0.0042
2050.0,0.0042
2049.0,0.0041
2048.0,0.0041
2047.0,0.0041
2046.0,0.004
2045.0,0.004
2044.0,0.0039
2043.0,0.0038
2042.0,0.0038
2041.0,0.0038
2040.0,0.0038
2039.0,0.0038
2038.0,0.0037
2037.0,0.0037
2036.0,0.0036
2035.0,0.0036
2034.0,0.0036
2033.0,0.0036
2032.0,0.0036
2031.0,0.0035
2030.0,0.0035
2029.0,0.0035
2028.0,0.0034
2027.0,0.0034
2026.0,0.0034
2025.0,0.0034
2024.0,0.0034
2023.0,0.0034
2022.0,0.0034
2021.0,0.0035
2020.0,0.0035
2019.0,0.0035
2018.0,0.0034
2017.0,0.0034
2016.0,0.0033
2015.0,0.0033
2014.0,0.0032
2013.0,0.0033
2012.0,0.0033
2011.0,0.0033
2010.0,0.0033
2009.0,0.0033
2008.0,0.0034
2007.0,0.0033
2006.0,0.0033
2005.0,0.0034
2004.0,0.0034
2003.0,0.0034
2002.0,0.0035
2001.0,0.0035
2000.0,0.0035
1999.0,0.0035
1998.0,0.0035
1997.0,0.0036
1996.0,0.0036
1995.0,0.0037
1994.0,0.0037
1993.0,0.0038
1992.0,0.0038
1991.0,0.0039
1990.0,0.0039
1989.0,0.0039
1988.0,0.0039
1987.0,0.0038
1986.0,0.0038
1985.0,0.0038
1984.0,0.0039
1983.0,0.0039
1982.0,0.004
1981.0,0.004
1980.0,0.004
1979.0,0.004
1978.0,0.004
1977.0,0.004
1976.0,0.0041
1975.0,0.0041
1974.0,0.0042
1973.0,0.0042
1972.0,0.0043
1971.0,0.0044
1970.0,0.0045
1969.0,0.0046
1968.0,0.0047
1967.0,0.0048
1966.0,0.0049
1965.0,0.005
1964.0,0.0051
1963.0,0.0053
1962.0,0.0054
1961.0,0.0056
1960.0,0.0057
1959.0,0.0058
1958.0,0.0059
1957.0,0.006
1956.0,0.006
1955.0,0.006
1954.0,0.0061
1953.0,0.0062
1952.0,0.0062
1951.0,0.0062
1950.0,0.0062
1949.0,0.0061
1948.0,0.006
1947.0,0.0059
1946.0,0.0058
1945.0,0.0057
1944.0,0.0056
1943.0,0.0054
1942.0,0.0051
1941.0,0.0049
1940.0,0.0048
1939.0,0.0046
1938.0,0.0044
1937.0,0.0042
1936.0,0.004
1935.0,0.0038
1934.0,0.0036
1933.0,0.0034
1932.0,0.0032
1931.0,0.003
1930.0,0.0028
1929.0,0.0026
1928.0,0.0025
1927.0,0.0024
1926.0,0.0023
1925.0,0.0022
1924.0,0.0021
1923.0,0.002
1922.0,0.0018
1921.0,0.0017
1920.0,0.0016
1919.0,0.0015
1918.0,0.0013
1917.0,0.0011
1916.0,0.001
1915.0,0.001
1914.0,0.0009
1913.0,0.0009
1912.0,0.0008
1911.0,0.0007
1910.0,0.0006
1909.0,0.0004
1908.0,0.0002
1907.0,0.0
1906.0,-0.0
1905.0,-0.0001
1904.0,-0.0002
1903.0,-0.0002
1902.0,-0.0003
1901.0,-0.0004
1900.0,-0.0005
1899.0,-0.0005
1898.0,-0.0006
1897.0,-0.0007
1896.0,-0.0008
1895.0,-0.0009
1894.0,-0.0009
1893.0,-0.001
1892.0,-0.001
1891.0,-0.0011
1890.0,-0.0012
1889.0,-0.0013
1888.0,-0.0015
1887.0,-0.0016
1886.0,-0.0017
1885.0,-0.0018
1884.0,-0.0019
1883.0,-0.002
1882.0,-0.002
1881.0,-0.0021
1880.0,-0.0022
1879.0,-0.0022
1878.0,-0.0023
1877.0,-0.0023
1876.0,-0.0024
1875.0,-0.0024
1874.0,-0.0025
1873.0,-0.0025
1872.0,-0.0025
1871.0,-0.0025
1870.0,-0.0026
1869.0,-0.0027
1868.0,-0.0029
1867.0,-0.0029
1866.0,-0.003
1865.0,-0.0031
1864.0,-0.0031
1863.0,-0.0032
1862.0,-0.0032
1861.0,-0.0032
1860.0,-0.0033
1859.0,-0.0032
1858.0,-0.0032
1857.0,-0.0033
1856.0,-0.0033
1855.0,-0.0033
1854.0,-0.0033
1853.0,-0.0032
1852.0,-0.0032
1851.0,-0.0031
1850.0,-0.003
1849.0,-0.003
1848.0,-0.0029
1847.0,-0.0029
1846.0,-0.0027
1845.0,-0.0027
1844.0,-0.0028
1843.0,-0.0028
1842.0,-0.0028
1841.0,-0.0027
1840.0,-0.0027
1839.0,-0.0026
1838.0,-0.0026
1837.0,-0.0026
1836.0,-0.0026
1835.0,-0.0025
1834.0,-0.0024
1833.0,-0.0023
1832.0,-0.0021
1831.0,-0.002
1830.0,-0.002
1829.0,-0.0021
1828.0,-0.0021
1827.0,-0.0019
1826.0,-0.0018
1825.0,-0.002
1824.0,-0.0021
1823.0,-0.0021
1822.0,-0.0021
1821.0,-0.0022
1820.0,-0.0023
1819.0,-0.0023
1818.0,-0.0024
1817.0,-0.0026
1816.0,-0.0028
1815.0,-0.0028
1814.0,-0.0028
1813.0,-0.0029
1812.0,-0.0031
1811.0,-0.0032
1810.0,-0.0033
1809.0,-0.0035
1808.0,-0.0037
1807.0,-0.0038
1806.0,-0.0039
1805.0,-0.004
1804.0,-0.004
1803.0,-0.0041
1802.0,-0.0042
1801.0,-0.0044
1800.0,-0.0047
1799.0,-0.0049
1798.0,-0.0049
1797.0,-0.005
1796.0,-0.0051
1795.0,-0.005
1794.0,-0.0049
1793.0,-0.0052
1792.0,-0.0055
1791.0,-0.0058
1790.0,-0.0059
1789.0,-0.006
1788.0,-0.006
1787.0,-0.006
1786.0,-0.006
1785.0,-0.0062
1784.0,-0.0064
1783.0,-0.0063
1782.0,-0.0063
1781.0,-0.0065
1780.0,-0.0067
1779.0,-0.0067
1778.0,-0.0066
1777.0,-0.0067
1776.0,-0.0067
1775.0,-0.0065
1774.0,-0.0063
1773.0,-0.0065
1772.0,-0.0066
1771.0,-0.0063
1770.0,-0.0059
1769.0,-0.0058
1768.0,-0.0057
1767.0,-0.0055
1766.0,-0.0052
1765.0,-0.0048
1764.0,-0.0043
1763.0,-0.0037
1762.0,-0.003
1761.0,-0.0024
1760.0,-0.0018
1759.0,-0.0008
1758.0,0.0004
1757.0,0.0015
1756.0,0.0027
1755.0,0.0042
1754.0,0.0059
1753.0,0.0078
1752.0,0.0101
1751.0,0.0135
1750.0,0.0177
1749.0,0.0222
1748.0,0.0272
1747.0,0.0329
1746.0,0.0391
1745.0,0.0461
1744.0,0.0545
1743.0,0.0638
1742.0,0.0735
1741.0,0.0846
1740.0,0.0981
1739.0,0.1119
1738.0,0.1229
1737.0,0.1312
1736.0,0.1406
1735.0,0.1575
1734.0,0.1816
1733.0,0.2019
1732.0,0.2162
1731.0,0.2307
1730.0,0.2477
1729.0,0.2659
1728.0,0.2835
1727.0,0.3007
1726.0,0.3187
1725.0,0.3389
1724.0,0.3613
1723.0,0.3838
1722.0,0.4034
1721.0,0.4187
1720.0,0.4323
1719.0,0.4504
1718.0,0.4767
1717.0,0.5003
1716.0,0.5101
1715.0,0.5098
1714.0,0.503
1713.0,0.4888
1712.0,0.4676
1711.0,0.4417
1710.0,0.4138
1709.0,0.3856
1708.0,0.3573
1707.0,0.3272
1706.0,0.2964
1705.0,0.2704
1704.0,0.252
1703.0,0.2381
1702.0,0.2239
1701.0,0.2059
1700.0,0.1882
1699.0,0.1768
1698.0,0.1694
1697.0,0.1621
1696.0,0.1537
1695.0,0.1463
1694.0,0.1414
1693.0,0.1378
1692.0,0.1343
1691.0,0.1305
1690.0,0.1266
1689.0,0.1236
1688.0,0.1212
1687.0,0.1188
1686.0,0.1163
1685.0,0.1137
1684.0,0.1118
1683.0,0.11
1682.0,0.108
1681.0,0.106
1680.0,0.1038
1679.0,0.1015
1678.0,0.0993
1677.0,0.0973
1676.0,0.0951
1675.0,0.093
1674.0,0.0911
1673.0,0.0897
1672.0,0.0884
1671.0,0.0868
1670.0,0.0852
1669.0,0.0838
1668.0,0.0824
1667.0,0.0809
1666.0,0.0794
1665.0,0.078
1664.0,0.0764
1663.0,0.0749
1662.0,0.0736
1661.0,0.0725
1660.0,0.0715
1659.0,0.0704
1658.0,0.0693
1657.0,0.0681
1656.0,0.0669
1655.0,0.0655
1654.0,0.0642
1653.0,0.0641
1652.0,0.0642
1651.0,0.064
1650.0,0.0636
1649.0,0.0631
1648.0,0.0623
1647.0,0.0616
1646.0,0.061
1645.0,0.0604
1644.0,0.0599
1643.0,0.0593
1642.0,0.0587
1641.0,0.058
1640.0,0.0573
1639.0,0.0565
1638.0,0.0556
1637.0,0.0547
1636.0,0.0541
1635.0,0.0536
1634.0,0.053
1633.0,0.0524
1632.0,0.0517
1631.0,0.0509
1630.0,0.0501
1629.0,0.0494
1628.0,0.0488
1627.0,0.0482
1626.0,0.0476
1625.0,0.0471
1624.0,0.0466
1623.0,0.0462
1622.0,0.0458
1621.0,0.0455
1620.0,0.0452
1619.0,0.045
1618.0,0.0454
1617.0,0.0464
1616.0,0.0475
1615.0,0.048
1614.0,0.0479
1613.0,0.0474
1612.0,0.0467
1611.0,0.0457
1610.0,0.0448
1609.0,0.0437
1608.0,0.0426
1607.0,0.0415
1606.0,0.0403
1605.0,0.0392
1604.0,0.0382
1603.0,0.0372
1602.0,0.0362
1601.0,0.0353
1600.0,0.0344
1599.0,0.0336
1598.0,0.0329
1597.0,0.0323
1596.0,0.0318
1595.0,0.0313
1594.0,0.031
1593.0,0.0308
1592.0,0.0306
1591.0,0.0304
1590.0,0.0303
1589.0,0.0303
1588.0,0.0303
1587.0,0.0306
1586.0,0.0312
1585.0,0.0323
1584.0,0.0338
1583.0,0.0357
1582.0,0.0378
1581.0,0.0398
1580.0,0.0414
1579.0,0.0423
1578.0,0.0425
1577.0,0.0415
1576.0,0.0398
1575.0,0.0379
1574.0,0.0363
1573.0,0.0349
1572.0,0.0334
1571.0,0.0318
1570.0,0.0302
1569.0,0.0288
1568.0,0.0278
1567.0,0.0271
1566.0,0.0264
1565.0,0.0257
1564.0,0.0249
1563.0,0.0243
1562.0,0.0239
1561.0,0.0237
1560.0,0.0233
1559.0,0.0231
1558.0,0.0228
1557.0,0.0224
1556.0,0.0221
1555.0,0.0218
1554.0,0.0216
1553.0,0.0213
1552.0,0.0211
1551.0,0.0209
1550.0,0.0206
1549.0,0.0203
1548.0,0.0199
1547.0,0.0198
1546.0,0.0197
1545.0,0.0194
1544.0,0.0191
1543.0,0.0188
1542.0,0.0186
1541.0,0.0186
1540.0,0.0185
1539.0,0.0183
1538.0,0.0182
1537.0,0.0182
1536.0,0.0183
1535.0,0.0185
1534.0,0.0188
1533.0,0.019
1532.0,0.0191
1531.0,0.0191
1530.0,0.0191
1529.0,0.0192
1528.0,0.0191
1527.0,0.0191
1526.0,0.019
1525.0,0.0187
1524.0,0.0185
1523.0,0.0182
1522.0,0.0179
1521.0,0.0175
1520.0,0.0171
1519.0,0.0171
1518.0,0.0171
1517.0,0.017
1516.0,0.0169
1515.0,0.0168
1514.0,0.0172
1513.0,0.0178
1512.0,0.019
1511.0,0.0205
1510.0,0.0224
1509.0,0.0253
1508.0,0.0314
1507.0,0.0413
1506.0,0.0475
1505.0,0.0479
1504.0,0.0455
1503.0,0.0417
1502.0,0.0372
1501.0,0.0324
1500.0,0.028
1499.0,0.0242
1498.0,0.0211
1497.0,0.0187
1496.0,0.017
1495.0,0.0159
1494.0,0.0153
1493.0,0.015
1492.0,0.015
1491.0,0.0149
1490.0,0.015
1489.0,0.0154
1488.0,0.0159
1487.0,0.0165
1486.0,0.0172
1485.0,0.0181
1484.0,0.0191
1483.0,0.0204
1482.0,0.0218
1481.0,0.0234
1480.0,0.0248
1479.0,0.026
1478.0,0.0272
1477.0,0.0284
1476.0,0.0296
1475.0,0.0306
1474.0,0.0314
1473.0,0.0323
1472.0,0.0328
1471.0,0.033
1470.0,0.0331
1469.0,0.0332
1468.0,0.0334
1467.0,0.0339
1466.0,0.035
1465.0,0.0367
1464.0,0.0385
1463.0,0.0401
1462.0,0.0414
1461.0,0.0427
1460.0,0.044
1459.0,0.0455
1458.0,0.0477
1457.0,0.0502
1456.0,0.0516
1455.0,0.052
1454.0,0.052
1453.0,0.0517
1452.0,0.0512
1451.0,0.0505
1450.0,0.0498
1449.0,0.049
1448.0,0.0481
1447.0,0.0472
1446.0,0.0465
1445.0,0.0459
1444.0,0.0454
1443.0,0.0449
1442.0,0.0445
1441.0,0.0439
1440.0,0.0433
1439.0,0.0426
1438.0,0.0414
1437.0,0.0394
1436.0,0.037
1435.0,0.0349
1434.0,0.033
1433.0,0.031
1432.0,0.0288
1431.0,0.0265
1430.0,0.0243
1429.0,0.0224
1428.0,0.0209
1427.0,0.0199
1426.0,0.0193
1425.0,0.0188
1424.0,0.0186
1423.0,0.0189
1422.0,0.0195
1421.0,0.0208
1420.0,0.0236
1419.0,0.0285
1418.0,0.0348
1417.0,0.0418
1416.0,0.0502
1415.0,0.0604
1414.0,0.0728
1413.0,0.0874
1412.0,0.1031
1411.0,0.1176
1410.0,0.1282
1409.0,0.1338
1408.0,0.1341
1407.0,0.1293
1406.0,0.1201
1405.0,0.1085
1404.0,0.0974
1403.0,0.0882
1402.0,0.0809
1401.0,0.0745
1400.0,0.0682
1399.0,0.0623
1398.0,0.0576
1397.0,0.0539
1396.0,0.0505
1395.0,0.0472
1394.0,0.0441
1393.0,0.0418
1392.0,0.04
1391.0,0.0385
1390.0,0.0372
1389.0,0.0361
1388.0,0.0352
1387.0,0.0345
1386.0,0.0342
1385.0,0.0342
1384.0,0.0344
1383.0,0.0348
1382.0,0.0355
1381.0,0.0364
1380.0,0.0376
1379.0,0.0389
1378.0,0.0403
1377.0,0.0418
1376.0,0.0434
1375.0,0.0451
1374.0,0.0467
1373.0,0.0478
1372.0,0.0483
1371.0,0.0483
1370.0,0.0477
1369.0,0.0463
1368.0,0.0442
1367.0,0.0416
1366.0,0.0389
1365.0,0.0359
1364.0,0.0328
1363.0,0.0295
1362.0,0.0267
1361.0,0.0246
1360.0,0.0232
1359.0,0.0223
1358.0,0.0218
1357.0,0.0217
1356.0,0.0219
1355.0,0.0226
1354.0,0.0236
1353.0,0.0252
1352.0,0.0273
1351.0,0.0301
1350.0,0.0336
1349.0,0.038
1348.0,0.0434
1347.0,0.0498
1346.0,0.0574
1345.0,0.066
1344.0,0.0752
1343.0,0.0845
1342.0,0.0934
1341.0,0.1013
1340.0,0.1071
1339.0,0.109
1338.0,0.1059
1337.0,0.0987
1336.0,0.0887
1335.0,0.0772
1334.0,0.0655
1333.0,0.0547
1332.0,0.0454
1331.0,0.0381
1330.0,0.0328
1329.0,0.0292
1328.0,0.027
1327.0,0.0259
1326.0,0.0257
1325.0,0.0261
1324.0,0.0269
1323.0,0.0281
1322.0,0.0294
1321.0,0.031
1320.0,0.0326
1319.0,0.0343
1318.0,0.0362
1317.0,0.038
1316.0,0.0399
1315.0,0.042
1314.0,0.0444
1313.0,0.0469
1312.0,0.0496
1311.0,0.0525
1310.0,0.0554
1309.0,0.0585
1308.0,0.0617
1307.0,0.0648
1306.0,0.0678
1305.0,0.0707
1304.0,0.0738
1303.0,0.0773
1302.0,0.0814
1301.0,0.0861
1300.0,0.0917
1299.0,0.0979
1298.0,0.1047
1297.0,0.1117
1296.0,0.1191
1295.0,0.1265
1294.0,0.1338
1293.0,0.1409
1292.0,0.1479
1291.0,0.1547
1290.0,0.1613
1289.0,0.1677
1288.0,0.1739
1287.0,0.1798
1286.0,0.1852
1285.0,0.1903
1284.0,0.1951
1283.0,0.1997
1282.0,0.204
1281.0,0.2081
1280.0,0.212
1279.0,0.2161
1278.0,0.2204
1277.0,0.225
1276.0,0.2304
1275.0,0.2368
1274.0,0.2444
1273.0,0.2533
1272.0,0.2639
1271.0,0.2763
1270.0,0.2901
1269.0,0.3051
1268.0,0.3212
1267.0,0.3381
1266.0,0.3553
1265.0,0.3722
1264.0,0.3886
1263.0,0.404
1262.0,0.4178
1261.0,0.4296
1260.0,0.4394
1259.0,0.4472
1258.0,0.453
1257.0,0.4577
1256.0,0.4623
1255.0,0.4678
1254.0,0.4744
1253.0,0.4825
1252.0,0.4925
1251.0,0.5044
1250.0,0.5178
1249.0,0.5321
1248.0,0.5471
1247.0,0.5622
1246.0,0.5764
1245.0,0.5886
1244.0,0.5983
1243.0,0.6046
1242.0,0.6063
1241.0,0.6026
1240.0,0.594
1239.0,0.5809
1238.0,0.5634
1237.0,0.5422
1236.0,0.5187
1235.0,0.4939
1234.0,0.4686
1233.0,0.4435
1232.0,0.4194
1231.0,0.3968
1230.0,0.3754
1229.0,0.3554
1228.0,0.3366
1227.0,0.3192
1226.0,0.3028
1225.0,0.2872
1224.0,0.2726
1223.0,0.2589
1222.0,0.246
1221.0,0.2337
1220.0,0.2221
1219.0,0.2113
1218.0,0.2011
1217.0,0.1917
1216.0,0.183
1215.0,0.175
1214.0,0.1677
1213.0,0.1609
1212.0,0.1546
1211.0,0.1489
1210.0,0.1436
1209.0,0.1386
1208.0,0.1339
1207.0,0.1295
1206.0,0.1253
1205.0,0.1214
1204.0,0.1176
1203.0,0.114
1202.0,0.1105
1201.0,0.1072
1200.0,0.1039
1199.0,0.1008
1198.0,0.0977
1197.0,0.0948
1196.0,0.0919
1195.0,0.0893
1194.0,0.0867
1193.0,0.0843
1192.0,0.082
1191.0,0.08
1190.0,0.0782
1189.0,0.0766
1188.0,0.0753
1187.0,0.0744
1186.0,0.0738
1185.0,0.0737
1184.0,0.074
1183.0,0.0748
1182.0,0.076
1181.0,0.0775
1180.0,0.0793
1179.0,0.0813
1178.0,0.0832
1177.0,0.0848
1176.0,0.086
1175.0,0.0867
1174.0,0.0865
1173.0,0.0855
1172.0,0.0837
1171.0,0.0811
1170.0,0.078
1169.0,0.0747
1168.0,0.0715
1167.0,0.0686
1166.0,0.0664
1165.0,0.0647
1164.0,0.0636
1163.0,0.0629
1162.0,0.0624
1161.0,0.0622
1160.0,0.0621
1159.0,0.0622
1158.0,0.0625
1157.0,0.0632
1156.0,0.0643
1155.0,0.0658
1154.0,0.0676
1153.0,0.0697
1152.0,0.0723
1151.0,0.0751
1150.0,0.0784
1149.0,0.0819
1148.0,0.0858
1147.0,0.0901
1146.0,0.0947
1145.0,0.0996
1144.0,0.1048
1143.0,0.1103
1142.0,0.1159
1141.0,0.1216
1140.0,0.1275
1139.0,0.1335
1138.0,0.1397
1137.0,0.1461
1136.0,0.1529
1135.0,0.16
1134.0,0.1677
1133.0,0.1758
1132.0,0.1845
1131.0,0.1938
1130.0,0.2039
1129.0,0.2147
1128.0,0.2261
1127.0,0.2382
1126.0,0.2507
1125.0,0.2637
1124.0,0.2768
1123.0,0.2897
1122.0,0.3022
1121.0,0.3137
1120.0,0.3239
1119.0,0.3321
1118.0,0.3379
1117.0,0.3407
1116.0,0.3405
1115.0,0.3379
1114.0,0.3339
1113.0,0.3299
1112.0,0.3275
1111.0,0.3281
1110.0,0.3327
1109.0,0.3418
1108.0,0.3551
1107.0,0.3719
1106.0,0.3913
1105.0,0.412
1104.0,0.4331
1103.0,0.4538
1102.0,0.4737
1101.0,0.4918
1100.0,0.5078
1099.0,0.5212
1098.0,0.5314
1097.0,0.538
1096.0,0.541
1095.0,0.5403
1094.0,0.5361
1093.0,0.5288
1092.0,0.5188
1091.0,0.5068
1090.0,0.4935
1089.0,0.4794
1088.0,0.4652
1087.0,0.4511
1086.0,0.4371
1085.0,0.4232
1084.0,0.409
1083.0,0.3943
1082.0,0.3788
1081.0,0.3626
1080.0,0.3458
1079.0,0.3287
1078.0,0.3114
1077.0,0.2945
1076.0,0.2782
1075.0,0.2628
1074.0,0.2485
1073.0,0.2354
1072.0,0.2236
1071.0,0.2129
1070.0,0.2033
1069.0,0.1947
1068.0,0.187
1067.0,0.1801
1066.0,0.1738
1065.0,0.168
1064.0,0.1629
1063.0,0.1581
1062.0,0.1539
1061.0,0.1503
1060.0,0.1472
1059.0,0.1447
1058.0,0.1427
1057.0,0.1415
1056.0,0.141
1055.0,0.141
1054.0,0.1415
1053.0,0.1426
1052.0,0.144
1051.0,0.1456
1050.0,0.1474
1049.0,0.1493
1048.0,0.1512
1047.0,0.1529
1046.0,0.1544
1045.0,0.1555
1044.0,0.1561
1043.0,0.1561
1042.0,0.1555
1041.0,0.1543
1040.0,0.1526
1039.0,0.1506
1038.0,0.1483
1037.0,0.1459
1036.0,0.1435
1035.0,0.141
1034.0,0.1386
1033.0,0.1364
1032.0,0.1343
1031.0,0.1325
1030.0,0.131
1029.0,0.1305
1028.0,0.1315
1027.0,0.1348
1026.0,0.1413
1025.0,0.1519
1024.0,0.1671
1023.0,0.1871
1022.0,0.2117
1021.0,0.2398
1020.0,0.269
1019.0,0.2948
1018.0,0.3117
1017.0,0.315
1016.0,0.3035
1015.0,0.2805
1014.0,0.2523
1013.0,0.2243
1012.0,0.2002
1011.0,0.1808
1010.0,0.1656
1009.0,0.1539
1008.0,0.1446
1007.0,0.1372
1006.0,0.1312
1005.0,0.1265
1004.0,0.1227
1003.0,0.1196
1002.0,0.1168
1001.0,0.1144
1000.0,0.1122
999.0,0.1101
998.0,0.1083
997.0,0.1067
996.0,0.1052
995.0,0.104
994.0,0.1029
993.0,0.1019
992.0,0.1011
991.0,0.1005
990.0,0.1001
989.0,0.0998
988.0,0.0997
987.0,0.0998
986.0,0.1001
985.0,0.1006
984.0,0.1014
983.0,0.1025
982.0,0.1038
981.0,0.1054
980.0,0.1072
979.0,0.109
978.0,0.1109
977.0,0.1127
976.0,0.1143
975.0,0.1157
974.0,0.1166
973.0,0.1171
972.0,0.1171
971.0,0.1164
970.0,0.1153
969.0,0.1139
968.0,0.112
967.0,0.1099
966.0,0.1075
965.0,0.105
964.0,0.1025
963.0,0.1001
962.0,0.0977
961.0,0.0954
960.0,0.0931
959.0,0.091
958.0,0.089
957.0,0.0873
956.0,0.0857
955.0,0.0842
954.0,0.0828
953.0,0.0816
952.0,0.0805
951.0,0.0794
950.0,0.0784
949.0,0.0774
948.0,0.0765
947.0,0.0757
946.0,0.075
945.0,0.0744
944.0,0.0739
943.0,0.0733
942.0,0.0727
941.0,0.0722
940.0,0.0718
939.0,0.0714
938.0,0.071
937.0,0.0706
936.0,0.0702
935.0,0.0697
934.0,0.0692
933.0,0.0687
932.0,0.0682
931.0,0.0677
930.0,0.0672
929.0,0.0668
928.0,0.0663
927.0,0.0658
926.0,0.0652
925.0,0.0646
924.0,0.0641
923.0,0.0637
922.0,0.0633
921.0,0.063
920.0,0.0627
919.0,0.0625
918.0,0.0624
917.0,0.0623
916.0,0.0623
915.0,0.0625
914.0,0.0628
913.0,0.0633
912.0,0.064
911.0,0.0649
910.0,0.066
909.0,0.0675
908.0,0.0691
907.0,0.071
906.0,0.0729
905.0,0.075
904.0,0.077
903.0,0.0789
902.0,0.0806
901.0,0.082
900.0,0.0831
899.0,0.0839
898.0,0.0845
897.0,0.0848
896.0,0.0848
895.0,0.0847
894.0,0.0844
893.0,0.084
892.0,0.0838
891.0,0.0837
890.0,0.0839
889.0,0.0845
888.0,0.0854
887.0,0.0869
886.0,0.089
885.0,0.092
884.0,0.0959
883.0,0.101
882.0,0.1072
881.0,0.1147
880.0,0.1232
879.0,0.1327
878.0,0.1431
877.0,0.1541
876.0,0.1656
875.0,0.1766
874.0,0.1857
873.0,0.1908
872.0,0.1902
871.0,0.184
870.0,0.1738
869.0,0.1622
868.0,0.151
867.0,0.1414
866.0,0.1337
865.0,0.1277
864.0,0.1231
863.0,0.1195
862.0,0.1168
861.0,0.1147
860.0,0.1132
859.0,0.1121
858.0,0.1113
857.0,0.1108
856.0,0.1105
855.0,0.1103
854.0,0.1103
853.0,0.1105
852.0,0.1109
851.0,0.1115
850.0,0.1122
849.0,0.1129
848.0,0.1134
847.0,0.1136
846.0,0.1134
845.0,0.1129
844.0,0.1122
843.0,0.1113
842.0,0.1102
841.0,0.1091
840.0,0.1078
839.0,0.1065
838.0,0.1051
837.0,0.1035
836.0,0.1018
835.0,0.1
834.0,0.0981
833.0,0.0963
832.0,0.0946
831.0,0.0929
830.0,0.0914
829.0,0.09
828.0,0.0888
827.0,0.0875
826.0,0.0863
825.0,0.0853
824.0,0.0844
823.0,0.0838
822.0,0.0834
821.0,0.0831
820.0,0.0827
819.0,0.0824
818.0,0.082
817.0,0.0817
816.0,0.0813
815.0,0.081
814.0,0.0808
813.0,0.0806
812.0,0.0803
811.0,0.08
810.0,0.0797
809.0,0.0794
808.0,0.0791
807.0,0.0788
806.0,0.0784
805.0,0.0779
804.0,0.0773
803.0,0.0765
802.0,0.0758
801.0,0.0753
800.0,0.0752
799.0,0.0761
798.0,0.0785
797.0,0.0823
796.0,0.0869
795.0,0.0912
794.0,0.0942
793.0,0.0951
792.0,0.0941
791.0,0.0916
790.0,0.0884
789.0,0.0849
788.0,0.0816
787.0,0.0787
786.0,0.0762
785.0,0.0741
784.0,0.0721
783.0,0.0704
782.0,0.0687
781.0,0.0672
780.0,0.0657
779.0,0.0642
778.0,0.0628
777.0,0.0614
776.0,0.0601
775.0,0.0589
774.0,0.0577
773.0,0.0564
772.0,0.0552
771.0,0.0539
770.0,0.0525
769.0,0.0511
768.0,0.0498
767.0,0.0484
766.0,0.0471
765.0,0.0458
764.0,0.0444
763.0,0.043
762.0,0.0418
761.0,0.0405
760.0,0.0394
759.0,0.0382
758.0,0.0371
757.0,0.036
756.0,0.035
755.0,0.034
754.0,0.0331
753.0,0.0322
752.0,0.0315
751.0,0.0309
750.0,0.0306
749.0,0.0304
748.0,0.0305
747.0,0.0309
746.0,0.0318
745.0,0.0337
744.0,0.0368
743.0,0.0416
742.0,0.0486
741.0,0.0584
740.0,0.0712
739.0,0.0872
738.0,0.1061
737.0,0.1275
736.0,0.1507
735.0,0.1753
734.0,0.2012
733.0,0.2286
732.0,0.2576
731.0,0.2891
730.0,0.324
729.0,0.363
728.0,0.4058
727.0,0.45
726.0,0.4907
725.0,0.5204
724.0,0.5335
723.0,0.5296
722.0,0.5125
721.0,0.4862
720.0,0.4556
719.0,0.4247
718.0,0.3954
717.0,0.3678
716.0,0.3424
715.0,0.3204
714.0,0.3023
713.0,0.2872
712.0,0.2744
711.0,0.2635
710.0,0.2542
709.0,0.2455
708.0,0.2371
707.0,0.2294
706.0,0.2225
705.0,0.2162
704.0,0.2101
703.0,0.2042
702.0,0.1979
701.0,0.1908
700.0,0.1833
699.0,0.1759
698.0,0.1692
697.0,0.163
696.0,0.1575
695.0,0.1531
694.0,0.1498
693.0,0.1468
692.0,0.1439
691.0,0.1412
690.0,0.1389
689.0,0.1366
688.0,0.1344
687.0,0.1326
686.0,0.1316
685.0,0.1309
684.0,0.1302
683.0,0.1298
682.0,0.1299
681.0,0.1299
680.0,0.1292
679.0,0.1277
678.0,0.1258
677.0,0.1236
676.0,0.1213
675.0,0.1192
674.0,0.1173
673.0,0.1154
672.0,0.1134
671.0,0.112
670.0,0.1114
669.0,0.1113
668.0,0.1118
667.0,0.112
666.0,0.1102
665.0,0.1073
664.0,0.105
663.0,0.1038
662.0,0.1032
661.0,0.1026
660.0,0.1019
659.0,0.1013
658.0,0.1008
657.0,0.1001
656.0,0.0991
655.0,0.0983
654.0,0.0978
653.0,0.0974
652.0,0.0971
651.0,0.0972
650.0,0.0974
649.0,0.0969
648.0,0.0958
647.0,0.0949
646.0,0.0942
645.0,0.0934
644.0,0.0927
643.0,0.0924
642.0,0.0925
641.0,0.0925
640.0,0.092
639.0,0.0917
638.0,0.0919
637.0,0.0928
636.0,0.0944
635.0,0.0971
634.0,0.1002
633.0,0.1024
632.0,0.1027
631.0,0.1012
630.0,0.0986
629.0,0.0957
628.0,0.0933
627.0,0.0919
626.0,0.0912
625.0,0.0906
624.0,0.0901
623.0,0.0896
622.0,0.0891
621.0,0.0881
620.0,0.0869
619.0,0.086
618.0,0.0857
617.0,0.0856
616.0,0.0856
615.0,0.0858
614.0,0.086
613.0,0.0856
612.0,0.085
611.0,0.0848
610.0,0.0849
609.0,0.0845
608.0,0.0835
607.0,0.0828
606.0,0.0828
605.0,0.0829
604.0,0.0825
603.0,0.0818
602.0,0.0813
601.0,0.0809
600.0,0.0805
