cm-1,A
4000.0,0.00966114521239847
3999.0,0.00966114521239847
3998.0,0.00966114521239847
3997.0,0.009705553871561357
3996.0,0.00974996707218323
3995.0,0.009883233932095559
3994.0,0.009972101229705377
3993.0,0.01001654169860089
3992.0,0.009927665307847056
3991.0,0.009794384815193347
3990.0,0.00966114521239847
3989.0,0.009572341514736404
3988.0,0.009616741093766423
3987.0,0.00974996707218323
3986.0,0.009927665307847056
3985.0,0.010060986715464404
3984.0,0.010105436281226954
3983.0,0.010060986715464404
3982.0,0.009883233932095559
3981.0,0.00974996707218323
3980.0,0.00966114521239847
3979.0,0.00966114521239847
3978.0,0.009705553871561357
3977.0,0.009705553871561357
3976.0,0.00966114521239847
3975.0,0.009616741093766423
3974.0,0.009527946474380489
3973.0,0.009439170005980158
3972.0,0.00939478857608056
3971.0,0.009350411681145587
3970.0,0.009350411681145587
3969.0,0.009439170005980158
3968.0,0.009483555971770974
3967.0,0.009527946474380489
3966.0,0.009527946474380489
3965.0,0.009572341514736404
3964.0,0.009616741093766423
3963.0,0.009705553871561357
3962.0,0.009705553871561357
3961.0,0.009705553871561357
3960.0,0.00966114521239847
3959.0,0.009616741093766423
3958.0,0.00966114521239847
3957.0,0.009705553871561357
3956.0,0.00974996707218323
3955.0,0.009794384815193347
3954.0,0.009794384815193347
3953.0,0.00974996707218323
3952.0,0.00974996707218323
3951.0,0.009705553871561357
3950.0,0.00966114521239847
3949.0,0.009527946474380489
3948.0,0.00939478857608056
3947.0,0.009217308196862062
3946.0,0.009172949432521227
3945.0,0.009217308196862062
3944.0,0.00939478857608056
3943.0,0.009527946474380489
3942.0,0.009572341514736404
3941.0,0.009483555971770974
3940.0,0.009483555971770974
3939.0,0.009616741093766423
3938.0,0.00974996707218323
3937.0,0.009794384815193347
3936.0,0.00974996707218323
3935.0,0.009616741093766423
3934.0,0.009527946474380489
3933.0,0.009483555971770974
3932.0,0.009439170005980158
3931.0,0.00939478857608056
3930.0,0.009217308196862062
3929.0,0.00908424549391551
3928.0,0.009039900317800775
3927.0,0.009039900317800775
3926.0,0.009172949432521227
3925.0,0.009306039320248427
3924.0,0.009350411681145587
3923.0,0.009217308196862062
3922.0,0.009039900317800775
3921.0,0.008951223547323472
3920.0,0.008906891951112605
3919.0,0.008906891951112605
3918.0,0.008951223547323472
3917.0,0.009039900317800775
3916.0,0.009128595198514056
3915.0,0.009261671492462709
3914.0,0.009439170005980158
3913.0,0.009616741093766423
3912.0,0.009705553871561357
3911.0,0.00966114521239847
3910.0,0.009483555971770974
3909.0,0.009172949432521227
3908.0,0.008862564879688284
3907.0,0.008552401996197112
3906.0,0.008419542825660153
3905.0,0.008463824699968647
3904.0,0.008552401996197112
3903.0,0.008552401996197112
3902.0,0.008463824699968647
3901.0,0.00850811108984062
3900.0,0.008685301823389224
3899.0,0.008906891951112605
3898.0,0.009128595198514056
3897.0,0.009261671492462709
3896.0,0.009350411681145587
3895.0,0.009306039320248427
3894.0,0.009217308196862062
3893.0,0.009217308196862062
3892.0,0.009350411681145587
3891.0,0.009306039320248427
3890.0,0.009039900317800775
3889.0,0.008773924307505121
3888.0,0.008773924307505121
3887.0,0.008862564879688284
3886.0,0.008862564879688284
3885.0,0.008685301823389224
3884.0,0.008375265465994541
3883.0,0.008286724286910463
3882.0,0.008552401996197112
3881.0,0.008906891951112605
3880.0,0.00908424549391551
3879.0,0.008906891951112605
3878.0,0.0087296108049002
3877.0,0.008773924307505121
3876.0,0.008906891951112605
3875.0,0.008906891951112605
3874.0,0.008685301823389224
3873.0,0.008330992620051436
3872.0,0.008242460465651913
3871.0,0.008419542825660153
3870.0,0.008596697419959609
3869.0,0.008419542825660153
3868.0,0.008109696063975047
3867.0,0.008109696063975047
3866.0,0.008375265465994541
3865.0,0.008685301823389224
3864.0,0.008818242332126802
3863.0,0.008773924307505121
3862.0,0.008685301823389224
3861.0,0.0087296108049002
3860.0,0.008818242332126802
3859.0,0.008818242332126802
3858.0,0.008596697419959609
3857.0,0.008065450281052211
3856.0,0.007490664932224611
3855.0,0.007358130121602358
3854.0,0.007844288957383316
3853.0,0.008153946355103248
3852.0,0.008021209005416363
3851.0,0.008198201155356077
3850.0,0.008818242332126802
3849.0,0.009261671492462709
3848.0,0.009306039320248427
3847.0,0.009128595198514056
3846.0,0.008951223547323472
3845.0,0.008818242332126802
3844.0,0.008685301823389224
3843.0,0.008419542825660153
3842.0,0.008065450281052211
3841.0,0.007711646202907652
3840.0,0.007490664932224611
3839.0,0.007490664932224611
3838.0,0.00762324020119709
3837.0,0.007755855953228474
3836.0,0.007932739972333236
3835.0,0.008242460465651913
3834.0,0.008596697419959609
3833.0,0.008951223547323472
3832.0,0.009128595198514056
3831.0,0.009172949432521227
3830.0,0.00908424549391551
3829.0,0.009128595198514056
3828.0,0.009261671492462709
3827.0,0.00939478857608056
3826.0,0.009261671492462709
3825.0,0.008906891951112605
3824.0,0.008552401996197112
3823.0,0.008463824699968647
3822.0,0.008685301823389224
3821.0,0.008640997362049818
3820.0,0.008065450281052211
3819.0,0.00762324020119709
3818.0,0.007800070204414977
3817.0,0.008375265465994541
3816.0,0.008951223547323472
3815.0,0.009128595198514056
3814.0,0.009217308196862062
3813.0,0.009483555971770974
3812.0,0.00974996707218323
3811.0,0.009705553871561357
3810.0,0.00939478857608056
3809.0,0.009217308196862062
3808.0,0.009217308196862062
3807.0,0.009261671492462709
3806.0,0.008951223547323472
3805.0,0.00850811108984062
3804.0,0.008286724286910463
3803.0,0.008419542825660153
3802.0,0.008773924307505121
3801.0,0.008818242332126802
3800.0,0.008552401996197112
3799.0,0.008552401996197112
3798.0,0.008995559669244813
3797.0,0.00939478857608056
3796.0,0.009572341514736404
3795.0,0.009527946474380489
3794.0,0.009527946474380489
3793.0,0.009705553871561357
3792.0,0.009927665307847056
3791.0,0.01001654169860089
3790.0,0.009972101229705377
3789.0,0.009883233932095559
3788.0,0.009794384815193347
3787.0,0.009705553871561357
3786.0,0.00966114521239847
3785.0,0.009616741093766423
3784.0,0.009439170005980158
3783.0,0.009172949432521227
3782.0,0.008995559669244813
3781.0,0.009039900317800775
3780.0,0.009217308196862062
3779.0,0.009350411681145587
3778.0,0.00939478857608056
3777.0,0.009483555971770974
3776.0,0.009616741093766423
3775.0,0.009705553871561357
3774.0,0.009616741093766423
3773.0,0.009439170005980158
3772.0,0.009306039320248427
3771.0,0.009350411681145587
3770.0,0.00939478857608056
3769.0,0.009306039320248427
3768.0,0.009172949432521227
3767.0,0.009217308196862062
3766.0,0.009350411681145587
3765.0,0.00939478857608056
3764.0,0.009261671492462709
3763.0,0.009172949432521227
3762.0,0.009172949432521227
3761.0,0.009217308196862062
3760.0,0.009217308196862062
3759.0,0.009039900317800775
3758.0,0.008818242332126802
3757.0,0.008596697419959609
3756.0,0.008463824699968647
3755.0,0.008286724286910463
3754.0,0.007976972236149349
3753.0,0.00762324020119709
3752.0,0.0074464821678643656
3751.0,0.007534852191956709
3750.0,0.007667440952535687
3749.0,0.007711646202907652
3748.0,0.007844288957383316
3747.0,0.008242460465651913
3746.0,0.008818242332126802
3745.0,0.009439170005980158
3744.0,0.009439170005980158
3743.0,0.008951223547323472
3742.0,0.008818242332126802
3741.0,0.009039900317800775
3740.0,0.009039900317800775
3739.0,0.008596697419959609
3738.0,0.008198201155356077
3737.0,0.008109696063975047
3736.0,0.008286724286910463
3735.0,0.008419542825660153
3734.0,0.008330992620051436
3733.0,0.008330992620051436
3732.0,0.00850811108984062
3731.0,0.0087296108049002
3730.0,0.008906891951112605
3729.0,0.00908424549391551
3728.0,0.009217308196862062
3727.0,0.009306039320248427
3726.0,0.009261671492462709
3725.0,0.009128595198514056
3724.0,0.009128595198514056
3723.0,0.009217308196862062
3722.0,0.009306039320248427
3721.0,0.009261671492462709
3720.0,0.009217308196862062
3719.0,0.009261671492462709
3718.0,0.009350411681145587
3717.0,0.009306039320248427
3716.0,0.00908424549391551
3715.0,0.008773924307505121
3714.0,0.00850811108984062
3713.0,0.008419542825660153
3712.0,0.008552401996197112
3711.0,0.008640997362049818
3710.0,0.008640997362049818
3709.0,0.008773924307505121
3708.0,0.009039900317800775
3707.0,0.009350411681145587
3706.0,0.009483555971770974
3705.0,0.009527946474380489
3704.0,0.009527946474380489
3703.0,0.009616741093766423
3702.0,0.009616741093766423
3701.0,0.009483555971770974
3700.0,0.009261671492462709
3699.0,0.009172949432521227
3698.0,0.009261671492462709
3697.0,0.009350411681145587
3696.0,0.009306039320248427
3695.0,0.009128595198514056
3694.0,0.008906891951112605
3693.0,0.008685301823389224
3692.0,0.008596697419959609
3691.0,0.008640997362049818
3690.0,0.008906891951112605
3689.0,0.00908424549391551
3688.0,0.00908424549391551
3687.0,0.009128595198514056
3686.0,0.009439170005980158
3685.0,0.009794384815193347
3684.0,0.009927665307847056
3683.0,0.009794384815193347
3682.0,0.009572341514736404
3681.0,0.009261671492462709
3680.0,0.008862564879688284
3679.0,0.008330992620051436
3678.0,0.007888512213050314
3677.0,0.007888512213050314
3676.0,0.008286724286910463
3675.0,0.008286724286910463
3674.0,0.007800070204414977
3673.0,0.007667440952535687
3672.0,0.008065450281052211
3671.0,0.008685301823389224
3670.0,0.009217308196862062
3669.0,0.009306039320248427
3668.0,0.009217308196862062
3667.0,0.009483555971770974
3666.0,0.009972101229705377
3665.0,0.010416710688994968
3664.0,0.010639186223752484
3663.0,0.010683695010048622
3662.0,0.010594681998483901
3661.0,0.01037222925484893
3660.0,0.010149890396819572
3659.0,0.01001654169860089
3658.0,0.009972101229705377
3657.0,0.010105436281226954
3656.0,0.010060986715464404
3655.0,0.009794384815193347
3654.0,0.00939478857608056
3653.0,0.009039900317800775
3652.0,0.0087296108049002
3651.0,0.008685301823389224
3650.0,0.00908424549391551
3649.0,0.009439170005980158
3648.0,0.00939478857608056
3647.0,0.009439170005980158
3646.0,0.009705553871561357
3645.0,0.010149890396819572
3644.0,0.010639186223752484
3643.0,0.011039929609661936
3642.0,0.011262724711199823
3641.0,0.011351874764248926
3640.0,0.011351874764248926
3639.0,0.011351874764248926
3638.0,0.011307297450183107
3637.0,0.011218156546359825
3636.0,0.011129033935354915
3635.0,0.011039929609661936
3634.0,0.010906307389674463
3633.0,0.010594681998483901
3632.0,0.010149890396819572
3631.0,0.009838807101520963
3630.0,0.010060986715464404
3629.0,0.010639186223752484
3628.0,0.01086177578421088
3627.0,0.010817248744452446
3626.0,0.010950843561779777
3625.0,0.01117359295472431
3624.0,0.011129033935354915
3623.0,0.01086177578421088
3622.0,0.010550182333308289
3621.0,0.01037222925484893
3620.0,0.01037222925484893
3619.0,0.01023881228122181
3618.0,0.009972101229705377
3617.0,0.00974996707218323
3616.0,0.009838807101520963
3615.0,0.010105436281226954
3614.0,0.01046119667949763
3613.0,0.010683695010048622
3612.0,0.01077272626946324
3611.0,0.01086177578421088
3610.0,0.010995384301463185
3609.0,0.01117359295472431
3608.0,0.011262724711199823
3607.0,0.011262724711199823
3606.0,0.011218156546359825
3605.0,0.011307297450183107
3604.0,0.011441043121384498
3603.0,0.011530229790124524
3602.0,0.011530229790124524
3601.0,0.011485634166333858
3600.0,0.011262724711199823
3599.0,0.011039929609661936
3598.0,0.01086177578421088
3597.0,0.010817248744452446
3596.0,0.010906307389674463
3595.0,0.010995384301463185
3594.0,0.010995384301463185
3593.0,0.010906307389674463
3592.0,0.01077272626946324
3591.0,0.010639186223752484
3590.0,0.010550182333308289
3589.0,0.010594681998483901
3588.0,0.010728208358306901
3587.0,0.01077272626946324
3586.0,0.010728208358306901
3585.0,0.010817248744452446
3584.0,0.011129033935354915
3583.0,0.011485634166333858
3582.0,0.011753276624621556
3581.0,0.011887159731648111
3580.0,0.011931796607364653
3579.0,0.011931796607364653
3578.0,0.012021084124518078
3577.0,0.01215504982870197
3576.0,0.012244383261476699
3575.0,0.012199714248127602
3574.0,0.012065734767841452
3573.0,0.011842527443247208
3572.0,0.011664044143949504
3571.0,0.011485634166333858
3570.0,0.011307297450183107
3569.0,0.011262724711199823
3568.0,0.011396456654336085
3567.0,0.011485634166333858
3566.0,0.011396456654336085
3565.0,0.011307297450183107
3564.0,0.011396456654336085
3563.0,0.011708658092512314
3562.0,0.012110390002254778
3561.0,0.012423105273012602
3560.0,0.01260190086298274
3559.0,0.012691326268817527
3558.0,0.01264661126420652
3557.0,0.012557195064198723
3556.0,0.012467797270160563
3555.0,0.012423105273012602
3554.0,0.012423105273012602
3553.0,0.012467797270160563
3552.0,0.012467797270160563
3551.0,0.012333735073725371
3550.0,0.01215504982870197
3549.0,0.012065734767841452
3548.0,0.01215504982870197
3547.0,0.012333735073725371
3546.0,0.012512493866907004
3545.0,0.01264661126420652
3544.0,0.012691326268817527
3543.0,0.012780770091995297
3542.0,0.012825498912458322
3541.0,0.012825498912458322
3540.0,0.012825498912458322
3539.0,0.012780770091995297
3538.0,0.012736045877764557
3537.0,0.012691326268817527
3536.0,0.01264661126420652
3535.0,0.01264661126420652
3534.0,0.01264661126420652
3533.0,0.01260190086298274
3532.0,0.012512493866907004
3531.0,0.012378417874516323
3530.0,0.012244383261476699
3529.0,0.012199714248127602
3528.0,0.012199714248127602
3527.0,0.012199714248127602
3526.0,0.012199714248127602
3525.0,0.012244383261476699
3524.0,0.012333735073725371
3523.0,0.012467797270160563
3522.0,0.012512493866907004
3521.0,0.012467797270160563
3520.0,0.012467797270160563
3519.0,0.012467797270160563
3518.0,0.012423105273012602
3517.0,0.012378417874516323
3516.0,0.012378417874516323
3515.0,0.012423105273012602
3514.0,0.012467797270160563
3513.0,0.012467797270160563
3512.0,0.012378417874516323
3511.0,0.012244383261476699
3510.0,0.012199714248127602
3509.0,0.01215504982870197
3508.0,0.012065734767841452
3507.0,0.012021084124518078
3506.0,0.012021084124518078
3505.0,0.012021084124518078
3504.0,0.012021084124518078
3503.0,0.012021084124518078
3502.0,0.012021084124518078
3501.0,0.012065734767841452
3500.0,0.01215504982870197
3499.0,0.012289056869694281
3498.0,0.012467797270160563
3497.0,0.012691326268817527
3496.0,0.012825498912458322
3495.0,0.012825498912458322
3494.0,0.012691326268817527
3493.0,0.012557195064198723
3492.0,0.012467797270160563
3491.0,0.012467797270160563
3490.0,0.012512493866907004
3489.0,0.012557195064198723
3488.0,0.01260190086298274
3487.0,0.012557195064198723
3486.0,0.012423105273012602
3485.0,0.012333735073725371
3484.0,0.012333735073725371
3483.0,0.012333735073725371
3482.0,0.012378417874516323
3481.0,0.012378417874516323
3480.0,0.012378417874516323
3479.0,0.012423105273012602
3478.0,0.012467797270160563
3477.0,0.01260190086298274
3476.0,0.012691326268817527
3475.0,0.012825498912458322
3474.0,0.012914970375878188
3473.0,0.012914970375878188
3472.0,0.012780770091995297
3471.0,0.01264661126420652
3470.0,0.012557195064198723
3469.0,0.012557195064198723
3468.0,0.012736045877764557
3467.0,0.012914970375878188
3466.0,0.013004460275618523
3465.0,0.013004460275618523
3464.0,0.012959713020733288
3463.0,0.012914970375878188
3462.0,0.012914970375878188
3461.0,0.013004460275618523
3460.0,0.013093968619278806
3459.0,0.013138729709955221
3458.0,0.01318349541446362
3457.0,0.013317820220494436
3456.0,0.013407393177789162
3455.0,0.013541787262693505
3454.0,0.013586594534531482
3453.0,0.013631406429727155
3452.0,0.013586594534531482
3451.0,0.013541787262693505
3450.0,0.013541787262693505
3449.0,0.013631406429727155
3448.0,0.01381070026317599
3447.0,0.01403492169512921
3446.0,0.014169510141607944
3445.0,0.014259258949925524
3444.0,0.014349026309051105
3443.0,0.0144837121472845
3442.0,0.014618439768003144
3441.0,0.014663358264387139
3440.0,0.014753209197138295
3439.0,0.014888020460646079
3438.0,0.015022873584506602
3437.0,0.015067833932588037
3436.0,0.015022873584506602
3435.0,0.014888020460646079
3434.0,0.014843078722943437
3433.0,0.014888020460646079
3432.0,0.014977917890464765
3431.0,0.015157768594724175
3430.0,0.015337693809893471
3429.0,0.01547268665620738
3428.0,0.015517693597737248
3427.0,0.01538268676325183
3426.0,0.015157768594724175
3425.0,0.014932966849499074
3424.0,0.014798141635428141
3423.0,0.014798141635428141
3422.0,0.014798141635428141
3421.0,0.014753209197138295
3420.0,0.01452861671041239
3419.0,0.014304140310157809
3418.0,0.014124642691606404
3417.0,0.01403492169512921
3416.0,0.013990068146738865
3415.0,0.013900374944870508
3414.0,0.01381070026317599
3413.0,0.013676222949234651
3412.0,0.013541787262693505
3411.0,0.013452186585275916
3410.0,0.013407393177789162
3409.0,0.013407393177789162
3408.0,0.013407393177789162
3407.0,0.013362604389846044
3406.0,0.013273040668781544
3405.0,0.013138729709955221
3404.0,0.013049212141483357
3403.0,0.013004460275618523
3402.0,0.013049212141483357
3401.0,0.013093968619278806
3400.0,0.013093968619278806
3399.0,0.013049212141483357
3398.0,0.013004460275618523
3397.0,0.012959713020733288
3396.0,0.012959713020733288
3395.0,0.012959713020733288
3394.0,0.012914970375878188
3393.0,0.012914970375878188
3392.0,0.012914970375878188
3391.0,0.012870232340102872
3390.0,0.012870232340102872
3389.0,0.012780770091995297
3388.0,0.01260190086298274
3387.0,0.012467797270160563
3386.0,0.012378417874516323
3385.0,0.012333735073725371
3384.0,0.012333735073725371
3383.0,0.012378417874516323
3382.0,0.012423105273012602
3381.0,0.012467797270160563
3380.0,0.012467797270160563
3379.0,0.012423105273012602
3378.0,0.012289056869694281
3377.0,0.012199714248127602
3376.0,0.012199714248127602
3375.0,0.012289056869694281
3374.0,0.012378417874516323
3373.0,0.012378417874516323
3372.0,0.012378417874516323
3371.0,0.012467797270160563
3370.0,0.012512493866907004
3369.0,0.012557195064198723
3368.0,0.012557195064198723
3367.0,0.012512493866907004
3366.0,0.012512493866907004
3365.0,0.012512493866907004
3364.0,0.012557195064198723
3363.0,0.01260190086298274
3362.0,0.01264661126420652
3361.0,0.01264661126420652
3360.0,0.01260190086298274
3359.0,0.01260190086298274
3358.0,0.01260190086298274
3357.0,0.01260190086298274
3356.0,0.01260190086298274
3355.0,0.012557195064198723
3354.0,0.012512493866907004
3353.0,0.012423105273012602
3352.0,0.012378417874516323
3351.0,0.012289056869694281
3350.0,0.012244383261476699
3349.0,0.012199714248127602
3348.0,0.01215504982870197
3347.0,0.012110390002254778
3346.0,0.012110390002254778
3345.0,0.012110390002254778
3344.0,0.01215504982870197
3343.0,0.012333735073725371
3342.0,0.012467797270160563
3341.0,0.012557195064198723
3340.0,0.01260190086298274
3339.0,0.01260190086298274
3338.0,0.01260190086298274
3337.0,0.012512493866907004
3336.0,0.012423105273012602
3335.0,0.012378417874516323
3334.0,0.012423105273012602
3333.0,0.012512493866907004
3332.0,0.01264661126420652
3331.0,0.012736045877764557
3330.0,0.012736045877764557
3329.0,0.012736045877764557
3328.0,0.01264661126420652
3327.0,0.012512493866907004
3326.0,0.012378417874516323
3325.0,0.012244383261476699
3324.0,0.012199714248127602
3323.0,0.01215504982870197
3322.0,0.012110390002254778
3321.0,0.012065734767841452
3320.0,0.01215504982870197
3319.0,0.012244383261476699
3318.0,0.012333735073725371
3317.0,0.012289056869694281
3316.0,0.012199714248127602
3315.0,0.01215504982870197
3314.0,0.012199714248127602
3313.0,0.012289056869694281
3312.0,0.012378417874516323
3311.0,0.012423105273012602
3310.0,0.012378417874516323
3309.0,0.012289056869694281
3308.0,0.01215504982870197
3307.0,0.012021084124518078
3306.0,0.011931796607364653
3305.0,0.011887159731648111
3304.0,0.0119764380713403
3303.0,0.012110390002254778
3302.0,0.012244383261476699
3301.0,0.012289056869694281
3300.0,0.012244383261476699
3299.0,0.012110390002254778
3298.0,0.012021084124518078
3297.0,0.012021084124518078
3296.0,0.012110390002254778
3295.0,0.012244383261476699
3294.0,0.012333735073725371
3293.0,0.012333735073725371
3292.0,0.012289056869694281
3291.0,0.01215504982870197
3290.0,0.012065734767841452
3289.0,0.012110390002254778
3288.0,0.01215504982870197
3287.0,0.012244383261476699
3286.0,0.012289056869694281
3285.0,0.012289056869694281
3284.0,0.012244383261476699
3283.0,0.012199714248127602
3282.0,0.012110390002254778
3281.0,0.0119764380713403
3280.0,0.011842527443247208
3279.0,0.011797899741219142
3278.0,0.011842527443247208
3277.0,0.0119764380713403
3276.0,0.012021084124518078
3275.0,0.012065734767841452
3274.0,0.012110390002254778
3273.0,0.01215504982870197
3272.0,0.01215504982870197
3271.0,0.01215504982870197
3270.0,0.012065734767841452
3269.0,0.011931796607364653
3268.0,0.011887159731648111
3267.0,0.011887159731648111
3266.0,0.011887159731648111
3265.0,0.011842527443247208
3264.0,0.011664044143949504
3263.0,0.011530229790124524
3262.0,0.011441043121384498
3261.0,0.011485634166333858
3260.0,0.011574829993696856
3259.0,0.011574829993696856
3258.0,0.011574829993696856
3257.0,0.011530229790124524
3256.0,0.011574829993696856
3255.0,0.011619434777991433
3254.0,0.011664044143949504
3253.0,0.011708658092512314
3252.0,0.011797899741219142
3251.0,0.011931796607364653
3250.0,0.012021084124518078
3249.0,0.012110390002254778
3248.0,0.012110390002254778
3247.0,0.012110390002254778
3246.0,0.012065734767841452
3245.0,0.011931796607364653
3244.0,0.011797899741219142
3243.0,0.011664044143949504
3242.0,0.011619434777991433
3241.0,0.011574829993696856
3240.0,0.011530229790124524
3239.0,0.011485634166333858
3238.0,0.011396456654336085
3237.0,0.011396456654336085
3236.0,0.011396456654336085
3235.0,0.011441043121384498
3234.0,0.011574829993696856
3233.0,0.011664044143949504
3232.0,0.011664044143949504
3231.0,0.011574829993696856
3230.0,0.011530229790124524
3229.0,0.011485634166333858
3228.0,0.011530229790124524
3227.0,0.011530229790124524
3226.0,0.011485634166333858
3225.0,0.011485634166333858
3224.0,0.011530229790124524
3223.0,0.011619434777991433
3222.0,0.011619434777991433
3221.0,0.011530229790124524
3220.0,0.011441043121384498
3219.0,0.011441043121384498
3218.0,0.011530229790124524
3217.0,0.011574829993696856
3216.0,0.011574829993696856
3215.0,0.011574829993696856
3214.0,0.011574829993696856
3213.0,0.011574829993696856
3212.0,0.011574829993696856
3211.0,0.011530229790124524
3210.0,0.011441043121384498
3209.0,0.011307297450183107
3208.0,0.011218156546359825
3207.0,0.011218156546359825
3206.0,0.011307297450183107
3205.0,0.011396456654336085
3204.0,0.011441043121384498
3203.0,0.011485634166333858
3202.0,0.011485634166333858
3201.0,0.011530229790124524
3200.0,0.011574829993696856
3199.0,0.011619434777991433
3198.0,0.011664044143949504
3197.0,0.011708658092512314
3196.0,0.011708658092512314
3195.0,0.011664044143949504
3194.0,0.011574829993696856
3193.0,0.011530229790124524
3192.0,0.011485634166333858
3191.0,0.011441043121384498
3190.0,0.011396456654336085
3189.0,0.011396456654336085
3188.0,0.011441043121384498
3187.0,0.011485634166333858
3186.0,0.011530229790124524
3185.0,0.011530229790124524
3184.0,0.011485634166333858
3183.0,0.011396456654336085
3182.0,0.011307297450183107
3181.0,0.011262724711199823
3180.0,0.011218156546359825
3179.0,0.011218156546359825
3178.0,0.011218156546359825
3177.0,0.01117359295472431
3176.0,0.01117359295472431
3175.0,0.01117359295472431
3174.0,0.01117359295472431
3173.0,0.01117359295472431
3172.0,0.01117359295472431
3171.0,0.01117359295472431
3170.0,0.01117359295472431
3169.0,0.011218156546359825
3168.0,0.011218156546359825
3167.0,0.011218156546359825
3166.0,0.011218156546359825
3165.0,0.011262724711199823
3164.0,0.011351874764248926
3163.0,0.011396456654336085
3162.0,0.011351874764248926
3161.0,0.011262724711199823
3160.0,0.011262724711199823
3159.0,0.011351874764248926
3158.0,0.011441043121384498
3157.0,0.011530229790124524
3156.0,0.011574829993696856
3155.0,0.011485634166333858
3154.0,0.011396456654336085
3153.0,0.011262724711199823
3152.0,0.011218156546359825
3151.0,0.011262724711199823
3150.0,0.011307297450183107
3149.0,0.011351874764248926
3148.0,0.011307297450183107
3147.0,0.011262724711199823
3146.0,0.011129033935354915
3145.0,0.011039929609661936
3144.0,0.011084479487313281
3143.0,0.01117359295472431
3142.0,0.011307297450183107
3141.0,0.011396456654336085
3140.0,0.011485634166333858
3139.0,0.011574829993696856
3138.0,0.011619434777991433
3137.0,0.011574829993696856
3136.0,0.011530229790124524
3135.0,0.011530229790124524
3134.0,0.011619434777991433
3133.0,0.011753276624621556
3132.0,0.011887159731648111
3131.0,0.0119764380713403
3130.0,0.0119764380713403
3129.0,0.0119764380713403
3128.0,0.011931796607364653
3127.0,0.011842527443247208
3126.0,0.011797899741219142
3125.0,0.011797899741219142
3124.0,0.011842527443247208
3123.0,0.011931796607364653
3122.0,0.012021084124518078
3121.0,0.012065734767841452
3120.0,0.012021084124518078
3119.0,0.0119764380713403
3118.0,0.011842527443247208
3117.0,0.011753276624621556
3116.0,0.011708658092512314
3115.0,0.011753276624621556
3114.0,0.011887159731648111
3113.0,0.012110390002254778
3112.0,0.012289056869694281
3111.0,0.012423105273012602
3110.0,0.012467797270160563
3109.0,0.012512493866907004
3108.0,0.01260190086298274
3107.0,0.012691326268817527
3106.0,0.012780770091995297
3105.0,0.012825498912458322
3104.0,0.012736045877764557
3103.0,0.01264661126420652
3102.0,0.012557195064198723
3101.0,0.01260190086298274
3100.0,0.012691326268817527
3099.0,0.012780770091995297
3098.0,0.012825498912458322
3097.0,0.012780770091995297
3096.0,0.012691326268817527
3095.0,0.01260190086298274
3094.0,0.012512493866907004
3093.0,0.012423105273012602
3092.0,0.012423105273012602
3091.0,0.012557195064198723
3090.0,0.012736045877764557
3089.0,0.012959713020733288
3088.0,0.013093968619278806
3087.0,0.013138729709955221
3086.0,0.013138729709955221
3085.0,0.013138729709955221
3084.0,0.01318349541446362
3083.0,0.01322826573375524
3082.0,0.013273040668781544
3081.0,0.013273040668781544
3080.0,0.013317820220494436
3079.0,0.013362604389846044
3078.0,0.013407393177789162
3077.0,0.013496984613259544
3076.0,0.013496984613259544
3075.0,0.013496984613259544
3074.0,0.013496984613259544
3073.0,0.013541787262693505
3072.0,0.013586594534531482
3071.0,0.013676222949234651
3070.0,0.01372104409400876
3069.0,0.01372104409400876
3068.0,0.01372104409400876
3067.0,0.01372104409400876
3066.0,0.013676222949234651
3065.0,0.013631406429727155
3064.0,0.013586594534531482
3063.0,0.013541787262693505
3062.0,0.013541787262693505
3061.0,0.013586594534531482
3060.0,0.013586594534531482
3059.0,0.013541787262693505
3058.0,0.013496984613259544
3057.0,0.013496984613259544
3056.0,0.013541787262693505
3055.0,0.013631406429727155
3054.0,0.01372104409400876
3053.0,0.013765869865004277
3052.0,0.01372104409400876
3051.0,0.013631406429727155
3050.0,0.013362604389846044
3049.0,0.013093968619278806
3048.0,0.012780770091995297
3047.0,0.012467797270160563
3046.0,0.012199714248127602
3045.0,0.0119764380713403
3044.0,0.011887159731648111
3043.0,0.011842527443247208
3042.0,0.011842527443247208
3041.0,0.011797899741219142
3040.0,0.011753276624621556
3039.0,0.011664044143949504
3038.0,0.011574829993696856
3037.0,0.011530229790124524
3036.0,0.011530229790124524
3035.0,0.011574829993696856
3034.0,0.011574829993696856
3033.0,0.011530229790124524
3032.0,0.011441043121384498
3031.0,0.011351874764248926
3030.0,0.011351874764248926
3029.0,0.011396456654336085
3028.0,0.011485634166333858
3027.0,0.011619434777991433
3026.0,0.011753276624621556
3025.0,0.011931796607364653
3024.0,0.012065734767841452
3023.0,0.01215504982870197
3022.0,0.012244383261476699
3021.0,0.012333735073725371
3020.0,0.012512493866907004
3019.0,0.012691326268817527
3018.0,0.012914970375878188
3017.0,0.013049212141483357
3016.0,0.01322826573375524
3015.0,0.013407393177789162
3014.0,0.013586594534531482
3013.0,0.01381070026317599
3012.0,0.014079779876432497
3011.0,0.014393916947563534
3010.0,0.014708281407112
3009.0,0.015022873584506602
3008.0,0.015292705517326866
3007.0,0.01547268665620738
3006.0,0.015562705203923999
3005.0,0.015607721475734415
3004.0,0.015607721475734415
3003.0,0.015607721475734415
3002.0,0.015652742414136167
3001.0,0.015652742414136167
3000.0,0.015697768020096703
2999.0,0.015832872853011715
2998.0,0.01596801972881945
2997.0,0.016103208673694303
2996.0,0.01632861713980338
2995.0,0.016509028184833463
2994.0,0.016734647433454652
2993.0,0.016960383953898095
2992.0,0.017095882207371904
2991.0,0.017186237868137555
2990.0,0.017321806616515723
2989.0,0.017457417697056554
2988.0,0.017728766960431575
2987.0,0.01800028587012159
2986.0,0.01831727262871463
2985.0,0.018679826740892747
2984.0,0.0190880622231564
2983.0,0.01954210772389997
2982.0,0.01995115493504329
2981.0,0.020315076172974234
2980.0,0.02067930261797568
2979.0,0.021089422824428272
2978.0,0.021545566634771474
2977.0,0.02204787879853809
2976.0,0.022505030926963654
2975.0,0.02296266477531872
2974.0,0.023329119375188556
2973.0,0.023695883447997224
2972.0,0.023925268380126097
2971.0,0.024108863598207186
2970.0,0.024200690320592466
2969.0,0.024246610963712723
2968.0,0.024246610963712723
2967.0,0.024246610963712723
2966.0,0.024246610963712723
2965.0,0.024246610963712723
2964.0,0.024154774532432866
2963.0,0.023971159908874107
2962.0,0.023787622882622816
2961.0,0.023604163388120325
2960.0,0.02342078135989012
2959.0,0.023283295636617574
2958.0,0.023054249440757957
2957.0,0.02277955336461468
2956.0,0.022367834754000393
2955.0,0.021956506090037076
2954.0,0.021499930688540836
2953.0,0.021043834782408455
2952.0,0.020633757603838898
2951.0,0.020178569969774962
2950.0,0.019769308608968306
2949.0,0.019315025636685412
2948.0,0.018861217359339655
2947.0,0.018362575344230914
2946.0,0.017864505196230507
2945.0,0.017412209298337533
2944.0,0.017005545341335804
2943.0,0.016644385668211692
2942.0,0.01628352608625061
2941.0,0.01596801972881945
2940.0,0.015742798294583915
2939.0,0.015562705203923999
2938.0,0.01538268676325183
2937.0,0.015247721884586563
2936.0,0.015112798935672522
2935.0,0.015022873584506602
2934.0,0.014888020460646079
2933.0,0.014798141635428141
2932.0,0.014708281407112
2931.0,0.014618439768003144
2930.0,0.014573525916998342
2929.0,0.01452861671041239
2928.0,0.01452861671041239
2927.0,0.014573525916998342
2926.0,0.014573525916998342
2925.0,0.014573525916998342
2924.0,0.014618439768003144
2923.0,0.014798141635428141
2922.0,0.014977917890464765
2921.0,0.015112798935672522
2920.0,0.015202742910707112
2919.0,0.015247721884586563
2918.0,0.015292705517326866
2917.0,0.01538268676325183
2916.0,0.015607721475734415
2915.0,0.015922966097169144
2914.0,0.01628352608625061
2913.0,0.016644385668211692
2912.0,0.016960383953898095
2911.0,0.017231422748988034
2910.0,0.017412209298337533
2909.0,0.017547848615010242
2908.0,0.017547848615010242
2907.0,0.017412209298337533
2906.0,0.017186237868137555
2905.0,0.016960383953898095
2904.0,0.016644385668211692
2903.0,0.01632861713980338
2902.0,0.01596801972881945
2901.0,0.015652742414136167
2900.0,0.01547268665620738
2899.0,0.015337693809893471
2898.0,0.015247721884586563
2897.0,0.015247721884586563
2896.0,0.015202742910707112
2895.0,0.015157768594724175
2894.0,0.015067833932588037
2893.0,0.014977917890464765
2892.0,0.014888020460646079
2891.0,0.014753209197138295
2890.0,0.014708281407112
2889.0,0.014663358264387139
2888.0,0.014618439768003144
2887.0,0.01452861671041239
2886.0,0.014349026309051105
2885.0,0.014169510141607944
2884.0,0.014124642691606404
2883.0,0.014124642691606404
2882.0,0.014214382227394795
2881.0,0.014214382227394795
2880.0,0.014124642691606404
2879.0,0.014079779876432497
2878.0,0.013990068146738865
2877.0,0.013990068146738865
2876.0,0.013990068146738865
2875.0,0.013990068146738865
2874.0,0.013945219230304673
2873.0,0.013945219230304673
2872.0,0.013900374944870508
2871.0,0.01381070026317599
2870.0,0.01372104409400876
2869.0,0.013631406429727155
2868.0,0.013541787262693505
2867.0,0.013496984613259544
2866.0,0.013452186585275916
2865.0,0.013452186585275916
2864.0,0.013452186585275916
2863.0,0.013452186585275916
2862.0,0.013452186585275916
2861.0,0.013452186585275916
2860.0,0.013452186585275916
2859.0,0.013496984613259544
2858.0,0.013496984613259544
2857.0,0.013496984613259544
2856.0,0.013407393177789162
2855.0,0.013362604389846044
2854.0,0.013362604389846044
2853.0,0.013317820220494436
2852.0,0.01322826573375524
2851.0,0.013093968619278806
2850.0,0.012914970375878188
2849.0,0.012780770091995297
2848.0,0.012691326268817527
2847.0,0.01264661126420652
2846.0,0.01260190086298274
2845.0,0.012512493866907004
2844.0,0.012423105273012602
2843.0,0.012289056869694281
2842.0,0.01215504982870197
2841.0,0.012021084124518078
2840.0,0.011931796607364653
2839.0,0.011887159731648111
2838.0,0.011797899741219142
2837.0,0.011753276624621556
2836.0,0.011753276624621556
2835.0,0.011797899741219142
2834.0,0.011753276624621556
2833.0,0.011664044143949504
2832.0,0.011574829993696856
2831.0,0.011485634166333858
2830.0,0.011441043121384498
2829.0,0.011396456654336085
2828.0,0.011396456654336085
2827.0,0.011396456654336085
2826.0,0.011351874764248926
2825.0,0.011307297450183107
2824.0,0.011262724711199823
2823.0,0.011307297450183107
2822.0,0.011351874764248926
2821.0,0.011351874764248926
2820.0,0.011307297450183107
2819.0,0.011218156546359825
2818.0,0.011129033935354915
2817.0,0.011084479487313281
2816.0,0.01117359295472431
2815.0,0.011262724711199823
2814.0,0.011351874764248926
2813.0,0.011441043121384498
2812.0,0.011485634166333858
2811.0,0.011574829993696856
2810.0,0.011619434777991433
2809.0,0.011664044143949504
2808.0,0.011619434777991433
2807.0,0.011530229790124524
2806.0,0.011530229790124524
2805.0,0.011530229790124524
2804.0,0.011530229790124524
2803.0,0.011574829993696856
2802.0,0.011530229790124524
2801.0,0.011441043121384498
2800.0,0.011307297450183107
2799.0,0.01117359295472431
2798.0,0.011084479487313281
2797.0,0.010995384301463185
2796.0,0.010950843561779777
2795.0,0.010995384301463185
2794.0,0.011039929609661936
2793.0,0.011129033935354915
2792.0,0.011084479487313281
2791.0,0.011039929609661936
2790.0,0.010995384301463185
2789.0,0.010995384301463185
2788.0,0.010995384301463185
2787.0,0.010950843561779777
2786.0,0.01086177578421088
2785.0,0.01077272626946324
2784.0,0.01077272626946324
2783.0,0.01077272626946324
2782.0,0.010817248744452446
2781.0,0.01077272626946324
2780.0,0.010728208358306901
2779.0,0.010683695010048622
2778.0,0.010683695010048622
2777.0,0.010639186223752484
2776.0,0.010594681998483901
2775.0,0.010594681998483901
2774.0,0.010594681998483901
2773.0,0.010594681998483901
2772.0,0.010594681998483901
2771.0,0.010505687227290839
2770.0,0.010416710688994968
2769.0,0.01037222925484893
2768.0,0.01037222925484893
2767.0,0.010416710688994968
2766.0,0.010416710688994968
2765.0,0.01046119667949763
2764.0,0.010505687227290839
2763.0,0.010550182333308289
2762.0,0.010550182333308289
2761.0,0.010505687227290839
2760.0,0.01046119667949763
2759.0,0.010416710688994968
2758.0,0.010416710688994968
2757.0,0.01037222925484893
2756.0,0.01037222925484893
2755.0,0.01037222925484893
2754.0,0.010416710688994968
2753.0,0.01046119667949763
2752.0,0.01046119667949763
2751.0,0.01046119667949763
2750.0,0.010416710688994968
2749.0,0.010327752376126709
2748.0,0.010327752376126709
2747.0,0.010416710688994968
2746.0,0.010505687227290839
2745.0,0.010550182333308289
2744.0,0.010505687227290839
2743.0,0.010416710688994968
2742.0,0.010327752376126709
2741.0,0.010327752376126709
2740.0,0.010327752376126709
2739.0,0.010327752376126709
2738.0,0.01037222925484893
2737.0,0.010327752376126709
2736.0,0.010283280051895272
2735.0,0.01023881228122181
2734.0,0.01023881228122181
2733.0,0.01023881228122181
2732.0,0.010283280051895272
2731.0,0.010283280051895272
2730.0,0.01023881228122181
2729.0,0.010194349063173958
2728.0,0.010149890396819572
2727.0,0.010149890396819572
2726.0,0.010105436281226954
2725.0,0.010060986715464404
2724.0,0.009972101229705377
2723.0,0.009883233932095559
2722.0,0.009838807101520963
2721.0,0.009883233932095559
2720.0,0.009972101229705377
2719.0,0.01001654169860089
2718.0,0.010060986715464404
2717.0,0.01001654169860089
2716.0,0.009927665307847056
2715.0,0.009838807101520963
2714.0,0.009794384815193347
2713.0,0.009794384815193347
2712.0,0.009794384815193347
2711.0,0.009794384815193347
2710.0,0.009794384815193347
2709.0,0.009794384815193347
2708.0,0.009794384815193347
2707.0,0.009838807101520963
2706.0,0.009838807101520963
2705.0,0.009838807101520963
2704.0,0.00974996707218323
2703.0,0.00974996707218323
2702.0,0.00974996707218323
2701.0,0.00974996707218323
2700.0,0.009705553871561357
2699.0,0.009705553871561357
2698.0,0.009705553871561357
2697.0,0.00974996707218323
2696.0,0.00974996707218323
2695.0,0.00974996707218323
2694.0,0.00974996707218323
2693.0,0.00966114521239847
2692.0,0.00966114521239847
2691.0,0.009705553871561357
2690.0,0.00974996707218323
2689.0,0.00974996707218323
2688.0,0.009705553871561357
2687.0,0.00966114521239847
2686.0,0.00966114521239847
2685.0,0.009616741093766423
2684.0,0.009616741093766423
2683.0,0.009572341514736404
2682.0,0.009572341514736404
2681.0,0.009527946474380489
2680.0,0.009572341514736404
2679.0,0.009572341514736404
2678.0,0.009572341514736404
2677.0,0.009527946474380489
2676.0,0.009483555971770974
2675.0,0.009439170005980158
2674.0,0.00939478857608056
2673.0,0.009350411681145587
2672.0,0.009350411681145587
2671.0,0.009350411681145587
2670.0,0.009350411681145587
2669.0,0.009439170005980158
2668.0,0.009527946474380489
2667.0,0.009572341514736404
2666.0,0.009572341514736404
2665.0,0.009527946474380489
2664.0,0.009483555971770974
2663.0,0.009439170005980158
2662.0,0.009483555971770974
2661.0,0.009527946474380489
2660.0,0.00966114521239847
2659.0,0.009705553871561357
2658.0,0.009705553871561357
2657.0,0.009572341514736404
2656.0,0.00939478857608056
2655.0,0.009217308196862062
2654.0,0.009128595198514056
2653.0,0.009128595198514056
2652.0,0.009261671492462709
2651.0,0.00939478857608056
2650.0,0.009483555971770974
2649.0,0.009483555971770974
2648.0,0.00939478857608056
2647.0,0.009261671492462709
2646.0,0.009172949432521227
2645.0,0.009128595198514056
2644.0,0.009128595198514056
2643.0,0.009172949432521227
2642.0,0.009217308196862062
2641.0,0.009261671492462709
2640.0,0.009306039320248427
2639.0,0.009306039320248427
2638.0,0.009306039320248427
2637.0,0.009261671492462709
2636.0,0.009261671492462709
2635.0,0.009350411681145587
2634.0,0.00939478857608056
2633.0,0.009439170005980158
2632.0,0.009483555971770974
2631.0,0.009527946474380489
2630.0,0.009527946474380489
2629.0,0.009527946474380489
2628.0,0.009527946474380489
2627.0,0.009483555971770974
2626.0,0.009527946474380489
2625.0,0.009572341514736404
2624.0,0.009527946474380489
2623.0,0.009483555971770974
2622.0,0.00939478857608056
2621.0,0.009350411681145587
2620.0,0.009350411681145587
2619.0,0.00939478857608056
2618.0,0.00939478857608056
2617.0,0.009350411681145587
2616.0,0.009306039320248427
2615.0,0.009261671492462709
2614.0,0.009261671492462709
2613.0,0.009306039320248427
2612.0,0.009350411681145587
2611.0,0.00939478857608056
2610.0,0.009483555971770974
2609.0,0.009527946474380489
2608.0,0.009572341514736404
2607.0,0.009572341514736404
2606.0,0.009572341514736404
2605.0,0.009483555971770974
2604.0,0.009483555971770974
2603.0,0.009439170005980158
2602.0,0.00939478857608056
2601.0,0.009350411681145587
2600.0,0.009350411681145587
2599.0,0.009483555971770974
2598.0,0.009616741093766423
2597.0,0.00974996707218323
2596.0,0.009794384815193347
2595.0,0.00974996707218323
2594.0,0.00966114521239847
2593.0,0.009616741093766423
2592.0,0.009572341514736404
2591.0,0.009527946474380489
2590.0,0.009527946474380489
2589.0,0.009527946474380489
2588.0,0.009527946474380489
2587.0,0.009527946474380489
2586.0,0.009572341514736404
2585.0,0.009572341514736404
2584.0,0.009527946474380489
2583.0,0.009483555971770974
2582.0,0.009439170005980158
2581.0,0.009439170005980158
2580.0,0.009483555971770974
2579.0,0.009616741093766423
2578.0,0.009705553871561357
2577.0,0.009794384815193347
2576.0,0.00974996707218323
2575.0,0.00966114521239847
2574.0,0.009572341514736404
2573.0,0.009439170005980158
2572.0,0.00939478857608056
2571.0,0.00939478857608056
2570.0,0.009483555971770974
2569.0,0.009572341514736404
2568.0,0.00966114521239847
2567.0,0.00966114521239847
2566.0,0.009616741093766423
2565.0,0.009527946474380489
2564.0,0.009483555971770974
2563.0,0.009483555971770974
2562.0,0.009483555971770974
2561.0,0.009439170005980158
2560.0,0.00939478857608056
2559.0,0.00939478857608056
2558.0,0.009439170005980158
2557.0,0.009483555971770974
2556.0,0.009527946474380489
2555.0,0.009572341514736404
2554.0,0.009616741093766423
2553.0,0.009572341514736404
2552.0,0.009572341514736404
2551.0,0.009572341514736404
2550.0,0.009572341514736404
2549.0,0.009527946474380489
2548.0,0.009483555971770974
2547.0,0.00939478857608056
2546.0,0.009350411681145587
2545.0,0.009350411681145587
2544.0,0.009350411681145587
2543.0,0.00939478857608056
2542.0,0.00939478857608056
2541.0,0.00939478857608056
2540.0,0.009350411681145587
2539.0,0.009350411681145587
2538.0,0.00939478857608056
2537.0,0.009439170005980158
2536.0,0.009483555971770974
2535.0,0.009572341514736404
2534.0,0.009616741093766423
2533.0,0.009616741093766423
2532.0,0.009527946474380489
2531.0,0.009483555971770974
2530.0,0.009439170005980158
2529.0,0.009439170005980158
2528.0,0.009439170005980158
2527.0,0.009439170005980158
2526.0,0.009350411681145587
2525.0,0.009306039320248427
2524.0,0.009261671492462709
2523.0,0.009261671492462709
2522.0,0.009261671492462709
2521.0,0.009261671492462709
2520.0,0.009261671492462709
2519.0,0.009306039320248427
2518.0,0.009350411681145587
2517.0,0.009306039320248427
2516.0,0.009217308196862062
2515.0,0.009128595198514056
2514.0,0.009039900317800775
2513.0,0.008951223547323472
2512.0,0.008906891951112605
2511.0,0.008906891951112605
2510.0,0.008862564879688284
2509.0,0.008862564879688284
2508.0,0.008906891951112605
2507.0,0.008906891951112605
2506.0,0.008862564879688284
2505.0,0.008818242332126802
2504.0,0.008818242332126802
2503.0,0.008906891951112605
2502.0,0.008951223547323472
2501.0,0.008995559669244813
2500.0,0.008995559669244813
2499.0,0.008906891951112605
2498.0,0.008818242332126802
2497.0,0.0087296108049002
2496.0,0.008685301823389224
2495.0,0.008685301823389224
2494.0,0.008685301823389224
2493.0,0.008640997362049818
2492.0,0.008552401996197112
2491.0,0.00850811108984062
2490.0,0.00850811108984062
2489.0,0.008552401996197112
2488.0,0.008685301823389224
2487.0,0.0087296108049002
2486.0,0.008685301823389224
2485.0,0.008552401996197112
2484.0,0.008419542825660153
2483.0,0.008330992620051436
2482.0,0.008330992620051436
2481.0,0.008330992620051436
2480.0,0.008375265465994541
2479.0,0.008330992620051436
2478.0,0.008286724286910463
2477.0,0.008286724286910463
2476.0,0.008330992620051436
2475.0,0.008375265465994541
2474.0,0.008330992620051436
2473.0,0.008242460465651913
2472.0,0.008198201155356077
2471.0,0.008198201155356077
2470.0,0.008242460465651913
2469.0,0.008286724286910463
2468.0,0.008286724286910463
2467.0,0.008242460465651913
2466.0,0.008198201155356077
2465.0,0.008153946355103248
2464.0,0.008153946355103248
2463.0,0.008153946355103248
2462.0,0.008153946355103248
2461.0,0.008198201155356077
2460.0,0.008198201155356077
2459.0,0.008153946355103248
2458.0,0.008109696063975047
2457.0,0.008109696063975047
2456.0,0.008153946355103248
2455.0,0.008198201155356077
2454.0,0.008198201155356077
2453.0,0.008065450281052211
2452.0,0.007932739972333236
2451.0,0.007800070204414977
2450.0,0.007755855953228474
2449.0,0.007755855953228474
2448.0,0.007800070204414977
2447.0,0.007844288957383316
2446.0,0.007888512213050314
2445.0,0.007932739972333236
2444.0,0.007932739972333236
2443.0,0.007888512213050314
2442.0,0.007844288957383316
2441.0,0.007844288957383316
2440.0,0.007844288957383316
2439.0,0.007888512213050314
2438.0,0.007976972236149349
2437.0,0.008021209005416363
2436.0,0.008021209005416363
2435.0,0.008021209005416363
2434.0,0.008021209005416363
2433.0,0.007976972236149349
2432.0,0.007976972236149349
2431.0,0.008021209005416363
2430.0,0.008065450281052211
2429.0,0.008153946355103248
2428.0,0.008153946355103248
2427.0,0.008153946355103248
2426.0,0.008109696063975047
2425.0,0.008065450281052211
2424.0,0.008065450281052211
2423.0,0.008021209005416363
2422.0,0.008021209005416363
2421.0,0.008021209005416363
2420.0,0.007976972236149349
2419.0,0.007932739972333236
2418.0,0.007932739972333236
2417.0,0.008021209005416363
2416.0,0.008109696063975047
2415.0,0.008153946355103248
2414.0,0.008153946355103248
2413.0,0.008109696063975047
2412.0,0.008065450281052211
2411.0,0.007976972236149349
2410.0,0.007932739972333236
2409.0,0.007932739972333236
2408.0,0.007976972236149349
2407.0,0.008021209005416363
2406.0,0.008065450281052211
2405.0,0.008153946355103248
2404.0,0.008242460465651913
2403.0,0.008286724286910463
2402.0,0.008286724286910463
2401.0,0.008286724286910463
2400.0,0.008242460465651913
2399.0,0.008198201155356077
2398.0,0.008153946355103248
2397.0,0.008198201155356077
2396.0,0.008286724286910463
2395.0,0.008375265465994541
2394.0,0.008419542825660153
2393.0,0.008419542825660153
2392.0,0.008375265465994541
2391.0,0.008419542825660153
2390.0,0.008463824699968647
2389.0,0.008552401996197112
2388.0,0.008596697419959609
2387.0,0.008640997362049818
2386.0,0.008640997362049818
2385.0,0.008685301823389224
2384.0,0.008640997362049818
2383.0,0.00850811108984062
2382.0,0.008198201155356077
2381.0,0.007800070204414977
2380.0,0.007358130121602358
2379.0,0.007049039429553483
2378.0,0.006872514894289861
2377.0,0.006828394969235152
2376.0,0.006872514894289861
2375.0,0.006916639301937977
2374.0,0.007004901568658406
2373.0,0.007137328610972382
2372.0,0.007313960837872058
2371.0,0.007358130121602358
2370.0,0.007181479933320523
2369.0,0.006696062080525422
2368.0,0.006079041198713275
2367.0,0.005682847330363394
2366.0,0.005550862985963967
2365.0,0.005858888873877532
2364.0,0.006607862550997545
2363.0,0.007534852191956709
2362.0,0.008198201155356077
2361.0,0.008286724286910463
2360.0,0.007844288957383316
2359.0,0.007004901568658406
2358.0,0.006079041198713275
2357.0,0.00537494623139545
2356.0,0.005111204635089406
2355.0,0.005155150446602086
2354.0,0.005199100705396198
2353.0,0.005155150446602086
2352.0,0.005111204635089406
2351.0,0.005111204635089406
2350.0,0.005155150446602086
2349.0,0.005111204635089406
2348.0,0.005023326350308999
2347.0,0.004935465843858511
2346.0,0.004935465843858511
2345.0,0.004935465843858511
2344.0,0.004935465843858511
2343.0,0.004979393875242044
2342.0,0.004979393875242044
2341.0,0.00484762310854614
2340.0,0.004540313378935901
2339.0,0.004145520125434121
2338.0,0.003794893821675638
2337.0,0.003619686766589858
2336.0,0.0036634819042162814
2335.0,0.003707281458678491
2334.0,0.0035321097382827737
2333.0,0.003050751504618754
2332.0,0.002701007590486082
2331.0,0.0027447101798967477
2330.0,0.0030944893043338695
2329.0,0.003619686766589858
2328.0,0.004233220950025984
2327.0,0.004803708402820517
2326.0,0.005199100705396198
2325.0,0.0052870145684298375
2324.0,0.005111204635089406
2323.0,0.004803708402820517
2322.0,0.0044964297349936455
2321.0,0.004408675747646695
2320.0,0.004628093971837721
2319.0,0.005023326350308999
2318.0,0.0052870145684298375
2317.0,0.00541891874010525
2316.0,0.005506877116487674
2315.0,0.005594853310833647
2314.0,0.005682847330363394
2313.0,0.005726851026829571
2312.0,0.00577085918230158
2311.0,0.005858888873877532
2310.0,0.00590291041179003
2309.0,0.005858888873877532
2308.0,0.005858888873877532
2307.0,0.00590291041179003
2306.0,0.005946936412324799
2305.0,0.006035001804881146
2304.0,0.00625524344553785
2303.0,0.006519680930003435
2302.0,0.006784279525863024
2301.0,0.006916639301937977
2300.0,0.00696076819309055
2299.0,0.00696076819309055
2298.0,0.00696076819309055
2297.0,0.00696076819309055
2296.0,0.006916639301937977
2295.0,0.00696076819309055
2294.0,0.007004901568658406
2293.0,0.007093181776687496
2292.0,0.007137328610972382
2291.0,0.007137328610972382
2290.0,0.007137328610972382
2289.0,0.007137328610972382
2288.0,0.007181479933320523
2287.0,0.007313960837872058
2286.0,0.007402303897961815
2285.0,0.007490664932224611
2284.0,0.007534852191956709
2283.0,0.0075790439479759275
2282.0,0.0075790439479759275
2281.0,0.007490664932224611
2280.0,0.0074464821678643656
2279.0,0.007358130121602358
2278.0,0.007269796045857202
2277.0,0.007181479933320523
2276.0,0.007049039429553483
2275.0,0.007004901568658406
2274.0,0.00696076819309055
2273.0,0.00696076819309055
2272.0,0.00696076819309055
2271.0,0.00696076819309055
2270.0,0.007004901568658406
2269.0,0.007004901568658406
2268.0,0.007004901568658406
2267.0,0.00696076819309055
2266.0,0.006916639301937977
2265.0,0.006916639301937977
2264.0,0.00696076819309055
2263.0,0.007049039429553483
2262.0,0.007093181776687496
2261.0,0.007093181776687496
2260.0,0.007093181776687496
2259.0,0.007049039429553483
2258.0,0.007004901568658406
2257.0,0.007004901568658406
2256.0,0.007093181776687496
2255.0,0.007137328610972382
2254.0,0.007181479933320523
2253.0,0.007137328610972382
2252.0,0.007093181776687496
2251.0,0.007049039429553483
2250.0,0.007004901568658406
2249.0,0.007004901568658406
2248.0,0.00696076819309055
2247.0,0.00696076819309055
2246.0,0.006916639301937977
2245.0,0.006828394969235152
2244.0,0.006740168563263094
2243.0,0.006696062080525422
2242.0,0.006651960076740071
2241.0,0.006651960076740071
2240.0,0.006607862550997545
2239.0,0.006519680930003435
2238.0,0.006431517210272464
2237.0,0.006343371384537999
2236.0,0.006343371384537999
2235.0,0.006387442061109638
2234.0,0.006387442061109638
2233.0,0.006387442061109638
2232.0,0.006431517210272464
2231.0,0.006475596832934416
2230.0,0.006519680930003435
2229.0,0.006519680930003435
2228.0,0.006475596832934416
2227.0,0.006387442061109638
2226.0,0.006299305179649828
2225.0,0.00625524344553785
2224.0,0.00621118618129457
2223.0,0.00621118618129457
2222.0,0.006167133386013823
2221.0,0.00612308505878878
2220.0,0.006079041198713275
2219.0,0.006079041198713275
2218.0,0.006079041198713275
2217.0,0.006079041198713275
2216.0,0.005990966876386672
2215.0,0.005946936412324799
2214.0,0.00590291041179003
2213.0,0.005946936412324799
2212.0,0.005990966876386672
2211.0,0.005990966876386672
2210.0,0.005946936412324799
2209.0,0.00590291041179003
2208.0,0.005946936412324799
2207.0,0.005990966876386672
2206.0,0.006035001804881146
2205.0,0.005990966876386672
2204.0,0.005946936412324799
2203.0,0.00590291041179003
2202.0,0.00590291041179003
2201.0,0.00590291041179003
2200.0,0.005858888873877532
2199.0,0.005858888873877532
2198.0,0.00577085918230158
2197.0,0.005682847330363394
2196.0,0.005594853310833647
2195.0,0.005550862985963967
2194.0,0.005550862985963967
2193.0,0.005550862985963967
2192.0,0.005506877116487674
2191.0,0.005506877116487674
2190.0,0.005506877116487674
2189.0,0.005462895701502157
2188.0,0.005462895701502157
2187.0,0.00541891874010525
2186.0,0.00541891874010525
2185.0,0.00541891874010525
2184.0,0.005462895701502157
2183.0,0.005462895701502157
2182.0,0.005462895701502157
2181.0,0.005462895701502157
2180.0,0.00541891874010525
2179.0,0.005462895701502157
2178.0,0.00541891874010525
2177.0,0.00541891874010525
2176.0,0.00541891874010525
2175.0,0.00537494623139545
2174.0,0.00537494623139545
2173.0,0.005330978174470591
2172.0,0.00537494623139545
2171.0,0.005462895701502157
2170.0,0.005506877116487674
2169.0,0.005462895701502157
2168.0,0.00537494623139545
2167.0,0.005330978174470591
2166.0,0.0052870145684298375
2165.0,0.0052870145684298375
2164.0,0.005330978174470591
2163.0,0.005330978174470591
2162.0,0.005330978174470591
2161.0,0.005330978174470591
2160.0,0.00537494623139545
2159.0,0.005462895701502157
2158.0,0.005506877116487674
2157.0,0.005462895701502157
2156.0,0.00541891874010525
2155.0,0.00541891874010525
2154.0,0.005462895701502157
2153.0,0.005506877116487674
2152.0,0.005550862985963967
2151.0,0.005594853310833647
2150.0,0.005594853310833647
2149.0,0.005594853310833647
2148.0,0.005550862985963967
2147.0,0.005462895701502157
2146.0,0.00541891874010525
2145.0,0.00541891874010525
2144.0,0.005506877116487674
2143.0,0.005594853310833647
2142.0,0.005638848091999105
2141.0,0.005682847330363394
2140.0,0.005726851026829571
2139.0,0.00577085918230158
2138.0,0.005726851026829571
2137.0,0.005726851026829571
2136.0,0.005682847330363394
2135.0,0.005726851026829571
2134.0,0.005726851026829571
2133.0,0.005726851026829571
2132.0,0.005682847330363394
2131.0,0.005638848091999105
2130.0,0.005638848091999105
2129.0,0.005726851026829571
2128.0,0.005726851026829571
2127.0,0.005726851026829571
2126.0,0.005726851026829571
2125.0,0.005682847330363394
2124.0,0.005682847330363394
2123.0,0.00577085918230158
2122.0,0.005814871797682919
2121.0,0.005858888873877532
2120.0,0.00590291041179003
2119.0,0.005990966876386672
2118.0,0.006035001804881146
2117.0,0.006035001804881146
2116.0,0.005990966876386672
2115.0,0.00590291041179003
2114.0,0.005858888873877532
2113.0,0.005858888873877532
2112.0,0.00590291041179003
2111.0,0.00590291041179003
2110.0,0.005946936412324799
2109.0,0.00590291041179003
2108.0,0.005858888873877532
2107.0,0.005858888873877532
2106.0,0.005858888873877532
2105.0,0.00590291041179003
2104.0,0.00590291041179003
2103.0,0.005858888873877532
2102.0,0.005814871797682919
2101.0,0.005726851026829571
2100.0,0.005682847330363394
2099.0,0.005638848091999105
2098.0,0.005594853310833647
2097.0,0.005594853310833647
2096.0,0.005594853310833647
2095.0,0.005682847330363394
2094.0,0.005726851026829571
2093.0,0.005682847330363394
2092.0,0.005638848091999105
2091.0,0.005550862985963967
2090.0,0.005506877116487674
2089.0,0.005462895701502157
2088.0,0.005462895701502157
2087.0,0.00541891874010525
2086.0,0.00537494623139545
2085.0,0.005330978174470591
2084.0,0.005330978174470591
2083.0,0.00537494623139545
2082.0,0.00541891874010525
2081.0,0.00537494623139545
2080.0,0.005330978174470591
2079.0,0.005243055412371911
2078.0,0.005155150446602086
2077.0,0.005111204635089406
2076.0,0.005067263269958211
2075.0,0.005067263269958211
2074.0,0.004979393875242044
2073.0,0.004935465843858511
2072.0,0.00484762310854614
2071.0,0.004803708402820517
2070.0,0.004759798137184523
2069.0,0.004628093971837721
2068.0,0.004540313378935901
2067.0,0.0044964297349936455
2066.0,0.0044964297349936455
2065.0,0.0043648054024501
2064.0,0.004189368323957332
2063.0,0.0040578370074493275
2062.0,0.00401400208620073
2061.0,0.0040578370074493275
2060.0,0.0040578370074493275
2059.0,0.0040578370074493275
2058.0,0.00401400208620073
2057.0,0.0038825238627120395
2056.0,0.0037510854308679953
2055.0,0.0036634819042162814
2054.0,0.003619686766589858
2053.0,0.003619686766589858
2052.0,0.0036634819042162814
2051.0,0.0037510854308679953
2050.0,0.0037510854308679953
2049.0,0.003794893821675638
2048.0,0.0037510854308679953
2047.0,0.003707281458678491
2046.0,0.0036634819042162814
2045.0,0.0035321097382827737
2044.0,0.0034445503666347133
2043.0,0.0033570086445275926
2042.0,0.0032694845648473247
2041.0,0.0032257291386954545
2040.0,0.0032694845648473247
2039.0,0.0033132443998284966
2038.0,0.0033132443998284966
2037.0,0.0032694845648473247
2036.0,0.0032257291386954545
2035.0,0.0031382315093266833
2034.0,0.0030944893043338695
2033.0,0.003050751504618754
2032.0,0.0030070181092942683
2031.0,0.0030070181092942683
2030.0,0.0029632891174733444
2029.0,0.0030070181092942683
2028.0,0.0030070181092942683
2027.0,0.003050751504618754
2026.0,0.0030944893043338695
2025.0,0.003050751504618754
2024.0,0.0030070181092942683
2023.0,0.0029632891174733444
2022.0,0.0029195645282691363
2021.0,0.0029195645282691363
2020.0,0.0029195645282691363
2019.0,0.0029195645282691363
2018.0,0.0028321285541661467
2017.0,0.002701007590486082
2016.0,0.0026573093983774942
2015.0,0.0026573093983774942
2014.0,0.0027884171674950053
2013.0,0.0028758443407954637
2012.0,0.0029195645282691363
2011.0,0.0029632891174733444
2010.0,0.0029632891174733444
2009.0,0.0030070181092942683
2008.0,0.0029632891174733444
2007.0,0.0029632891174733444
2006.0,0.0029632891174733444
2005.0,0.0030070181092942683
2004.0,0.003050751504618754
2003.0,0.0031382315093266833
2002.0,0.0031819781204844855
2001.0,0.0032694845648473247
2000.0,0.0033570086445275926
1999.0,0.0033570086445275926
1998.0,0.0033570086445275926
1997.0,0.0033570086445275926
1996.0,0.0033570086445275926
1995.0,0.0033570086445275926
1994.0,0.0034007772998332353
1993.0,0.0033570086445275926
1992.0,0.0033570086445275926
1991.0,0.0033570086445275926
1990.0,0.0033570086445275926
1989.0,0.0034445503666347133
1988.0,0.0035321097382827737
1987.0,0.0035758960449088217
1986.0,0.003619686766589858
1985.0,0.003619686766589858
1984.0,0.003619686766589858
1983.0,0.003619686766589858
1982.0,0.003619686766589858
1981.0,0.003619686766589858
1980.0,0.0036634819042162814
1979.0,0.0037510854308679953
1978.0,0.0038387066319929275
1977.0,0.003926345514724705
1976.0,0.00401400208620073
1975.0,0.0040578370074493275
1974.0,0.004145520125434121
1973.0,0.004189368323957332
1972.0,0.004233220950025984
1971.0,0.004320939488377862
1970.0,0.0043648054024501
1969.0,0.004408675747646695
1968.0,0.004452550524862486
1967.0,0.004540313378935901
1966.0,0.004671990922590297
1965.0,0.004759798137184523
1964.0,0.004979393875242044
1963.0,0.005199100705396198
1962.0,0.00541891874010525
1961.0,0.005506877116487674
1960.0,0.005594853310833647
1959.0,0.005638848091999105
1958.0,0.005726851026829571
1957.0,0.00577085918230158
1956.0,0.005858888873877532
1955.0,0.005858888873877532
1954.0,0.005814871797682919
1953.0,0.005726851026829571
1952.0,0.005682847330363394
1951.0,0.005594853310833647
1950.0,0.005506877116487674
1949.0,0.005330978174470591
1948.0,0.005155150446602086
1947.0,0.004979393875242044
1946.0,0.00484762310854614
1945.0,0.004628093971837721
1944.0,0.004408675747646695
1943.0,0.004189368323957332
1942.0,0.003970171588923321
1941.0,0.003794893821675638
1940.0,0.0037510854308679953
1939.0,0.003707281458678491
1938.0,0.0036634819042162814
1937.0,0.0035758960449088217
1936.0,0.0034445503666347133
1935.0,0.0033132443998284966
1934.0,0.0031819781204844855
1933.0,0.0030070181092942683
1932.0,0.0028321285541661467
1931.0,0.0026573093983774942
1930.0,0.002569926202528716
1929.0,0.0024388843664115978
1928.0,0.002351545103793873
1927.0,0.0022205691343961664
1926.0,0.002089632653256679
1925.0,0.0018714928717336043
1924.0,0.001609869681952425
1923.0,0.0013919706849057079
1922.0,0.0011741809597138886
1921.0,0.0011306361176557367
1920.0,0.0011741809597138886
1919.0,0.001304841688344327
1918.0,0.0012612837441823288
1917.0,0.0010870956412141197
1916.0,0.000869458712629001
1915.0,0.0007824344698965646
1914.0,0.0007824344698965646
1913.0,0.0007389288868995258
1912.0,0.0006519307932786322
1911.0,0.0006084382809090627
1910.0,0.000521466320689834
1909.0,0.0003910410285830057
1908.0,0.00026065489343207737
1907.0,0.00017375254558760211
1906.0,0.0001303078917322953
1905.0,0.0001303078917322953
1904.0,0.0001303078917322953
1903.0,0.00017375254558760211
1902.0,0.0001303078917322953
1901.0,0.0
1900.0,-0.00013026880522692963
1899.0,-0.00021709297223004853
1898.0,-0.00030389978481260016
1897.0,-0.0003472966853634851
1896.0,-0.0003906892499099257
1895.0,-0.00043407747931878404
1894.0,-0.0004774613744551459
1893.0,-0.0005208409361854294
1892.0,-0.0005208409361854294
1891.0,-0.0006075870628903246
1890.0,-0.0007376737740329986
1889.0,-0.0009543984064577238
1888.0,-0.0011277002770349043
1887.0,-0.0010843812922201046
1886.0,-0.0009977303577937136
1885.0,-0.0009543984064577238
1884.0,-0.0009977303577937136
1883.0,-0.0009977303577937136
1882.0,-0.0009977303577937136
1881.0,-0.001041057986093552
1880.0,-0.0010843812922201046
1879.0,-0.0010843812922201046
1878.0,-0.0010843812922201046
1877.0,-0.0010843812922201046
1876.0,-0.0011277002770349043
1875.0,-0.0011277002770349043
1874.0,-0.0011710149414008164
1873.0,-0.00121432528617893
1872.0,-0.001257631312230778
1871.0,-0.00121432528617893
1870.0,-0.0011710149414008164
1869.0,-0.0010843812922201046
1868.0,-0.0010843812922201046
1867.0,-0.0011277002770349043
1866.0,-0.0011710149414008164
1865.0,-0.00121432528617893
1864.0,-0.0013009330204178937
1863.0,-0.0015606526425728795
1862.0,-0.0015606526425728795
1861.0,-0.0016039241497978196
1860.0,-0.0016039241497978196
1859.0,-0.0015173768235041685
1858.0,-0.0014308122463981832
1857.0,-0.001344230411601366
1856.0,-0.001257631312230778
1855.0,-0.0011277002770349043
1854.0,-0.0009977303577937136
1853.0,-0.0009977303577937136
1852.0,-0.001041057986093552
1851.0,-0.001041057986093552
1850.0,-0.0009977303577937136
1849.0,-0.001041057986093552
1848.0,-0.001041057986093552
1847.0,-0.001041057986093552
1846.0,-0.0009110621312231615
1845.0,-0.0007810273534953893
1844.0,-0.0006943158663546001
1843.0,-0.0006943158663546001
1842.0,-0.0006943158663546001
1841.0,-0.0005642161653756084
1840.0,-0.0003906892499099257
1839.0,-0.00017368305846510168
1838.0,-4.3427276862573194e-05
1837.0,-4.3427276862573194e-05
1836.0,4.343161980746579e-05
1835.0,0.00017375254558760211
1834.0,0.00030411258916074324
1833.0,0.0003910410285830057
1832.0,0.000521466320689834
1831.0,0.0006954276616513155
1830.0,0.0007824344698965646
1829.0,0.0006519307932786322
1828.0,0.0005649501236701937
1827.0,0.0006519307932786322
1826.0,0.0008259444115150671
1825.0,0.0009129773741116676
1824.0,0.0009129773741116676
1823.0,0.0009565003968372565
1822.0,0.0010870956412141197
1821.0,0.0012177301682640973
1820.0,0.001304841688344327
1819.0,0.0013919706849057079
1818.0,0.001348404001626502
1817.0,0.001304841688344327
1816.0,0.0012177301682640973
1815.0,0.0012612837441823288
1814.0,0.0012612837441823288
1813.0,0.0012177301682640973
1812.0,0.0010870956412141197
1811.0,0.0009565003968372565
1810.0,0.0009129773741116676
1809.0,0.0008259444115150671
1808.0,0.0007824344698965646
1807.0,0.0008259444115150671
1806.0,0.0009129773741116676
1805.0,0.0009565003968372565
1804.0,0.0009129773741116676
1803.0,0.0007824344698965646
1802.0,0.0005649501236701937
1801.0,0.00026065489343207737
1800.0,4.343161980746579e-05
1799.0,4.343161980746579e-05
1798.0,8.686758342868472e-05
1797.0,8.686758342868472e-05
1796.0,4.343161980746579e-05
1795.0,0.0001303078917322953
1794.0,0.00021720154586435392
1793.0,0.00017375254558760211
1792.0,-4.3427276862573194e-05
1791.0,-0.00021709297223004853
1790.0,-0.00030389978481260016
1789.0,-0.00021709297223004853
1788.0,-0.00013026880522692963
1787.0,4.343161980746579e-05
1786.0,8.686758342868472e-05
1785.0,0.0
1784.0,-0.00013026880522692963
1783.0,-8.685021164911433e-05
1782.0,0.0
1781.0,0.0
1780.0,-8.685021164911433e-05
1779.0,-8.685021164911433e-05
1778.0,4.343161980746579e-05
1777.0,8.686758342868472e-05
1776.0,4.343161980746579e-05
1775.0,0.0001303078917322953
1774.0,0.00026065489343207737
1773.0,0.00030411258916074324
1772.0,0.00026065489343207737
1771.0,0.0003475746339209884
1770.0,0.0004779868710962365
1769.0,0.0006519307932786322
1768.0,0.0009129773741116676
1767.0,0.001348404001626502
1766.0,0.0017842676290416026
1765.0,0.0021332737608552588
1764.0,0.0025262411970197185
1763.0,0.0031382315093266833
1762.0,0.003707281458678491
1761.0,0.003970171588923321
1760.0,0.004277078004534696
1759.0,0.00489154225525934
1758.0,0.005726851026829571
1757.0,0.006696062080525422
1756.0,0.007667440952535687
1755.0,0.008862564879688284
1754.0,0.010060986715464404
1753.0,0.011351874764248926
1752.0,0.013093968619278806
1751.0,0.015652742414136167
1750.0,0.018815862601645694
1749.0,0.022367834754000393
1748.0,0.026595025589939425
1747.0,0.03147035562516054
1746.0,0.036731748473764814
1745.0,0.04253638427006878
1744.0,0.049245818406496555
1743.0,0.05665390164340933
1742.0,0.06439198148213077
1741.0,0.0732460948102629
1740.0,0.08412549714230844
1739.0,0.09506817260434741
1738.0,0.1028679566179056
1737.0,0.10768273927751948
1736.0,0.11345287660889425
1735.0,0.126156466776564
1734.0,0.14581545616639335
1733.0,0.16159172150581314
1732.0,0.17121125181504682
1731.0,0.18065351591954726
1730.0,0.19266796070880954
1729.0,0.20572113427860006
1728.0,0.21788585252092885
1727.0,0.22922160383085233
1726.0,0.24093681183951277
1725.0,0.25422278211024096
1724.0,0.2692177243336109
1723.0,0.2841637248350062
1722.0,0.29576366269121235
1721.0,0.3028578737245404
1720.0,0.3084764778318456
1719.0,0.3203904282202441
1718.0,0.3435184842095014
1717.0,0.3673402867060864
1716.0,0.37840832414078207
1715.0,0.3799681048737027
1714.0,0.3759242688543174
1713.0,0.3658251282373999
1712.0,0.3503731131594705
1711.0,0.3322669474667326
1710.0,0.31345310093699386
1709.0,0.29422178717140235
1708.0,0.2743333396858214
1707.0,0.25391095694379984
1706.0,0.23433144524098592
1705.0,0.21695442788530706
1704.0,0.20204035626280392
1703.0,0.18869315991866387
1702.0,0.17593928258134706
1701.0,0.16386585053462532
1700.0,0.1534154971019539
1699.0,0.14466259553045968
1698.0,0.13685565374733244
1697.0,0.12994741830645506
1696.0,0.1236666709136196
1695.0,0.11804502866039956
1694.0,0.11317099532301778
1693.0,0.10890877353227624
1692.0,0.10485381062400778
1691.0,0.10100072911021085
1690.0,0.0975619438013351
1689.0,0.09468993788391455
1688.0,0.09183679994445204
1687.0,0.08862929288386212
1686.0,0.08549817717268593
1685.0,0.08402008585977572
1684.0,0.08402008585977572
1683.0,0.08259953204474924
1682.0,0.08013774644446192
1681.0,0.07763790321520991
1680.0,0.07530729697981409
1679.0,0.07293775650699996
1678.0,0.07068327324650436
1677.0,0.06864384953207203
1676.0,0.06712054217620067
1675.0,0.06570359318059427
1674.0,0.06388856832514578
1673.0,0.061780582187257016
1672.0,0.05973260855398799
1671.0,0.05799194697768684
1670.0,0.05680236993107379
1669.0,0.05581353871631256
1668.0,0.05443294655761144
1667.0,0.05271335532220167
1666.0,0.050902874887084115
1665.0,0.049148541111453614
1664.0,0.047643522676209304
1663.0,0.04633693625290869
1662.0,0.04508244626504121
1661.0,0.0437835307566099
1660.0,0.042392712939904875
1659.0,0.04105406750606355
1658.0,0.039767126871487646
1657.0,0.03838909190871931
1656.0,0.036873558918095295
1655.0,0.035363296211498474
1654.0,0.0349394793888016
1653.0,0.03555179208333925
1652.0,0.03489241415094413
1651.0,0.03357665405630694
1650.0,0.032545631817259224
1649.0,0.031984286006358165
1648.0,0.03175060589208267
1647.0,0.03175060589208267
1646.0,0.031563752288295444
1645.0,0.031096969696171817
1644.0,0.030537492025363155
1643.0,0.029978734171634214
1642.0,0.029513651152349718
1641.0,0.02904906565457588
1640.0,0.028538594975413334
1639.0,0.027797161620935595
1638.0,0.027010773144651168
1637.0,0.02664120011360227
1636.0,0.02677975314776626
1635.0,0.02677975314776626
1634.0,0.026502691267936695
1633.0,0.026087429580295085
1632.0,0.02562649291857677
1631.0,0.02512002699306959
1630.0,0.024706084643793647
1629.0,0.024430342106337877
1628.0,0.024154774532432866
1627.0,0.023741750742954926
1626.0,0.023283295636617574
1625.0,0.02291687968414724
1624.0,0.022733787572707387
1623.0,0.022642270454698687
1622.0,0.022413561996148967
1621.0,0.0221849739168134
1620.0,0.021956506090037076
1619.0,0.02200219004126036
1618.0,0.022642270454698687
1617.0,0.023925268380126097
1616.0,0.024936003904763915
1615.0,0.02512002699306959
1614.0,0.024936003904763915
1613.0,0.024706084643793647
1612.0,0.024430342106337877
1611.0,0.023925268380126097
1610.0,0.023237476732539397
1609.0,0.022505030926963654
1608.0,0.021636852916117055
1607.0,0.02081596632558158
1606.0,0.019996628416253603
1605.0,0.0192242260373785
1604.0,0.018498511851753108
1603.0,0.017774008325325275
1602.0,0.017095882207371904
1601.0,0.016509028184833463
1600.0,0.016013078034810446
1599.0,0.015562705203923999
1598.0,0.015112798935672522
1597.0,0.014843078722943437
1596.0,0.014573525916998342
1595.0,0.014349026309051105
1594.0,0.014214382227394795
1593.0,0.014124642691606404
1592.0,0.014169510141607944
1591.0,0.014214382227394795
1590.0,0.014393916947563534
1589.0,0.014573525916998342
1588.0,0.014843078722943437
1587.0,0.015157768594724175
1586.0,0.015697768020096703
1585.0,0.016554142658660398
1584.0,0.017774008325325275
1583.0,0.019269623464054586
1582.0,0.020952673052035298
1581.0,0.02245929405346514
1580.0,0.023604163388120325
1579.0,0.024200690320592466
1578.0,0.024246610963712723
1577.0,0.023787622882622816
1576.0,0.022733787572707387
1575.0,0.02122621566987748
1574.0,0.01990568621470623
1573.0,0.018906576854070378
1572.0,0.01800028587012159
1571.0,0.017050711425501408
1570.0,0.016058141016111804
1569.0,0.015022873584506602
1568.0,0.014079779876432497
1567.0,0.013362604389846044
1566.0,0.012914970375878188
1565.0,0.012512493866907004
1564.0,0.012065734767841452
1563.0,0.011485634166333858
1562.0,0.010728208358306901
1561.0,0.009794384815193347
1560.0,0.009261671492462709
1559.0,0.009350411681145587
1558.0,0.008995559669244813
1557.0,0.008818242332126802
1556.0,0.008818242332126802
1555.0,0.008773924307505121
1554.0,0.008685301823389224
1553.0,0.008552401996197112
1552.0,0.008330992620051436
1551.0,0.008021209005416363
1550.0,0.007711646202907652
1549.0,0.007490664932224611
1548.0,0.007402303897961815
1547.0,0.007313960837872058
1546.0,0.007137328610972382
1545.0,0.006740168563263094
1544.0,0.00612308505878878
1543.0,0.005550862985963967
1542.0,0.005330978174470591
1541.0,0.005638848091999105
1540.0,0.00590291041179003
1539.0,0.005638848091999105
1538.0,0.005462895701502157
1537.0,0.005594853310833647
1536.0,0.005858888873877532
1535.0,0.006167133386013823
1534.0,0.006519680930003435
1533.0,0.006784279525863024
1532.0,0.006872514894289861
1531.0,0.007004901568658406
1530.0,0.007225635744644521
1529.0,0.007402303897961815
1528.0,0.0074464821678643656
1527.0,0.007269796045857202
1526.0,0.007049039429553483
1525.0,0.006916639301937977
1524.0,0.006828394969235152
1523.0,0.006651960076740071
1522.0,0.006387442061109638
1521.0,0.005858888873877532
1520.0,0.0052870145684298375
1519.0,0.005023326350308999
1518.0,0.005155150446602086
1517.0,0.005462895701502157
1516.0,0.005726851026829571
1515.0,0.005990966876386672
1514.0,0.00656376950238835
1513.0,0.007534852191956709
1512.0,0.0087296108049002
1511.0,0.01001654169860089
1510.0,0.011485634166333858
1509.0,0.013945219230304673
1508.0,0.019723858922159776
1507.0,0.028956208163971375
1506.0,0.03498654972775217
1505.0,0.035693217696063595
1504.0,0.03343591590268957
1503.0,0.029653123769906697
1502.0,0.025304128090317013
1501.0,0.020952673052035298
1500.0,0.017050711425501408
1499.0,0.013676222949234651
1498.0,0.010906307389674463
1497.0,0.008862564879688284
1496.0,0.007534852191956709
1495.0,0.006651960076740071
1494.0,0.00621118618129457
1493.0,0.006035001804881146
1492.0,0.00590291041179003
1491.0,0.00577085918230158
1490.0,0.005682847330363394
1489.0,0.006035001804881146
1488.0,0.006828394969235152
1487.0,0.007976972236149349
1486.0,0.009306039320248427
1485.0,0.010728208358306901
1484.0,0.01215504982870197
1483.0,0.013586594534531482
1482.0,0.015157768594724175
1481.0,0.01677978535189717
1480.0,0.018226681372252695
1479.0,0.01940584422377989
1478.0,0.020497151212598652
1477.0,0.021636852916117055
1476.0,0.02255077261765881
1475.0,0.02314585342378117
1474.0,0.023741750742954926
1473.0,0.024522236834125355
1472.0,0.02498200236711723
1471.0,0.024890010313838973
1470.0,0.024660115394541604
1469.0,0.024476287039668643
1468.0,0.024246610963712723
1467.0,0.024154774532432866
1466.0,0.024522236834125355
1465.0,0.025488307262671706
1464.0,0.02654885597506529
1463.0,0.027288159452933503
1462.0,0.027750864037404455
1461.0,0.02812138297373412
1460.0,0.028353117935693284
1459.0,0.02863136320857662
1458.0,0.029513651152349718
1457.0,0.030863766403287585
1456.0,0.03151705144606498
1455.0,0.031563752288295444
1454.0,0.03151705144606498
1453.0,0.03142366482450232
1452.0,0.031096969696171817
1451.0,0.03058408764601861
1450.0,0.029885677714903025
1449.0,0.029141943003497595
1448.0,0.02839947976994095
1447.0,0.0277045713888604
1446.0,0.027149444152769986
1445.0,0.02677975314776626
1444.0,0.026502691267936695
1443.0,0.026225806029419818
1442.0,0.025856900097785074
1441.0,0.025350165561278004
1440.0,0.02461415101053266
1439.0,0.023695883447997224
1438.0,0.02255077261765881
1437.0,0.021135015652343103
1436.0,0.01954210772389997
1435.0,0.01800028587012159
1434.0,0.016644385668211692
1433.0,0.015337693809893471
1432.0,0.013990068146738865
1431.0,0.01260190086298274
1430.0,0.011351874764248926
1429.0,0.01037222925484893
1428.0,0.009794384815193347
1427.0,0.009439170005980158
1426.0,0.009261671492462709
1425.0,0.009261671492462709
1424.0,0.009527946474380489
1423.0,0.010060986715464404
1422.0,0.01086177578421088
1421.0,0.012244383261476699
1420.0,0.014977917890464765
1419.0,0.019451260640229506
1418.0,0.024890010313838973
1417.0,0.031096969696171817
1416.0,0.038531444649213764
1415.0,0.047352830241056854
1414.0,0.05744631966579017
1413.0,0.06879647454924775
1412.0,0.08055578953476306
1411.0,0.09097914578884403
1410.0,0.09821485469640057
1409.0,0.10160395406999112
1408.0,0.10105553313349058
1407.0,0.09653017149282994
1406.0,0.08884239126002336
1405.0,0.07972010536705154
1404.0,0.07088774334533943
1403.0,0.06338573802478864
1402.0,0.0571489934456626
1401.0,0.05163594401163074
1400.0,0.04638525830935958
1399.0,0.041483896576958834
1398.0,0.03739392707587297
1397.0,0.034187046963396917
1396.0,0.031563752288295444
1395.0,0.02932775731028059
1394.0,0.0277045713888604
1393.0,0.02664120011360227
1392.0,0.025995203102585407
1391.0,0.02539620791296726
1390.0,0.02475205875931885
1389.0,0.024200690320592466
1388.0,0.023879381700184332
1387.0,0.023879381700184332
1386.0,0.02406295751688936
1385.0,0.024476287039668643
1384.0,0.02498200236711723
1383.0,0.02544225514642018
1382.0,0.025856900097785074
1381.0,0.026271941311972746
1380.0,0.02677975314776626
1379.0,0.027288159452933503
1378.0,0.027797161620935595
1377.0,0.028306761050139073
1376.0,0.02890978686288448
1375.0,0.029653123769906697
1374.0,0.030490901403433135
1373.0,0.031236951802751545
1372.0,0.03179733185715028
1371.0,0.03189079887180224
1370.0,0.03147035562516054
1369.0,0.030537492025363155
1368.0,0.029141943003497595
1367.0,0.02747318213414429
1366.0,0.02558042614771394
1365.0,0.02351246269481
1364.0,0.021271822861508305
1363.0,0.019133445417920836
1362.0,0.017502630802287644
1361.0,0.016689514205884493
1360.0,0.01646391839700767
1359.0,0.016509028184833463
1358.0,0.016644385668211692
1357.0,0.017005545341335804
1356.0,0.017638298366853045
1355.0,0.018634490921455527
1354.0,0.019996628416253603
1353.0,0.021773818325474092
1352.0,0.024108863598207186
1351.0,0.02696455931306696
1350.0,0.03058408764601861
1349.0,0.03508070571335731
1348.0,0.04057697805689475
1347.0,0.04725597598510167
1346.0,0.055270639696704205
1345.0,0.06444235490698613
1344.0,0.07437854520917098
1343.0,0.08417821237960132
1342.0,0.09334178232840018
1341.0,0.10160395406999112
1340.0,0.10790539730951965
1339.0,0.11075433910702048
1338.0,0.10913206118855912
1337.0,0.10369429253391926
1336.0,0.09539263618455207
1335.0,0.08518101955252688
1334.0,0.07406940213152868
1333.0,0.06293368798257193
1332.0,0.05266432405126009
1331.0,0.04402377775167454
1330.0,0.037251946641359446
1329.0,0.03226486821611996
1328.0,0.028816959143838528
1327.0,0.02664120011360227
1326.0,0.02539620791296726
1325.0,0.024890010313838973
1324.0,0.024936003904763915
1323.0,0.02539620791296726
1322.0,0.026041313893296225
1321.0,0.026872146400301444
1320.0,0.027843464140506313
1319.0,0.028956208163971375
1318.0,0.030211462585061133
1317.0,0.031563752288295444
1316.0,0.0329671178412978
1315.0,0.034516075754861264
1314.0,0.03621217265444465
1313.0,0.03810452633214956
1312.0,0.040243327009005014
1311.0,0.04244059810252043
1310.0,0.044793462458058375
1309.0,0.04715914332429838
1308.0,0.04948910701400333
1307.0,0.05178270644002936
1306.0,0.05399011523423525
1305.0,0.05610995175152733
1304.0,0.0583891978463662
1303.0,0.060880282351513104
1302.0,0.06378795567975115
1301.0,0.06712054217620067
1300.0,0.0709900145060387
1299.0,0.07520400420208784
1298.0,0.07972010536705154
1297.0,0.08438913733853282
1296.0,0.0892155652071629
1295.0,0.09398837472858723
1294.0,0.09870518283443275
1293.0,0.1033635694704158
1292.0,0.10784972209863586
1291.0,0.1120452961911984
1290.0,0.11611154211151953
1289.0,0.1201016756699902
1288.0,0.12418661116024232
1287.0,0.1281352979118051
1286.0,0.13176713157753506
1285.0,0.1352516643703412
1284.0,0.13870460647330418
1283.0,0.14206473528057106
1282.0,0.14539036190420496
1281.0,0.14874165128092476
1280.0,0.1523039792658345
1279.0,0.1559579579589836
1278.0,0.15976840504189105
1277.0,0.16405589990615188
1276.0,0.16889843549864048
1275.0,0.17418455501479646
1274.0,0.180127178049454
1273.0,0.18701983396051958
1272.0,0.19497515557019485
1271.0,0.20384212309308558
1270.0,0.2133195468033513
1269.0,0.22337144657984997
1268.0,0.23388471677858602
1267.0,0.2445062715848807
1266.0,0.25500332596143993
1265.0,0.2652801583443203
1264.0,0.2751509123706144
1263.0,0.2841637248350062
1262.0,0.29200425357707105
1261.0,0.29903682184045066
1260.0,0.3051316720175439
1259.0,0.3101585908624953
1258.0,0.3140792078054646
1257.0,0.3177646430974359
1256.0,0.32184596198956283
1255.0,0.32633412375429804
1254.0,0.331334584545508
1253.0,0.3372421683184259
1252.0,0.344093581819785
1251.0,0.3515424057174774
1250.0,0.35922052265514304
1249.0,0.36713795989977016
1248.0,0.3748934245965323
1247.0,0.3818472666214805
1246.0,0.38742804593482383
1245.0,0.39158094868271465
1244.0,0.3941564609419108
1243.0,0.39437177799238143
1242.0,0.3920091414528253
1241.0,0.38753403604685777
1240.0,0.3812199754937853
1239.0,0.37273658343177885
1238.0,0.3623101808815987
1237.0,0.3506651412878581
1236.0,0.33837659077076987
1235.0,0.3255981871547182
1234.0,0.3126494304419727
1233.0,0.30024896831048564
1232.0,0.28853021812567214
1231.0,0.27753061411596924
1230.0,0.2671239586372933
1229.0,0.2576677176428517
1228.0,0.2491060796178748
1227.0,0.24101245313238073
1226.0,0.23336411368973242
1225.0,0.22621355501880647
1224.0,0.2194666746835956
1223.0,0.21282300752944616
1222.0,0.20606999322731534
1221.0,0.19935164463601196
1220.0,0.19253262431572216
1219.0,0.18555262147751228
1218.0,0.17842097208799124
1217.0,0.1713401034646802
1216.0,0.16449967213268124
1215.0,0.1577028656719348
1214.0,0.15113378850522063
1213.0,0.14496568332411575
1212.0,0.13918303613546223
1211.0,0.13383085236622927
1210.0,0.12877744324029283
1209.0,0.12412880927263426
1208.0,0.11975822410451964
1207.0,0.11554450392951199
1206.0,0.11142740314240007
1205.0,0.1075158206353124
1204.0,0.10374943753836186
1203.0,0.10007011727213588
1202.0,0.0964759355287379
1201.0,0.09301884677114591
1200.0,0.08969583193143116
1199.0,0.08639805027084257
1198.0,0.0832303157168639
1197.0,0.08018997982980403
1196.0,0.07727454200674
1195.0,0.07448164182257
1194.0,0.07175781684269089
1193.0,0.0692037370166998
1192.0,0.06681652082538614
1191.0,0.06464390705442691
1190.0,0.06263258248271053
1189.0,0.060880282351513104
1188.0,0.05943371350990989
1187.0,0.05824018618530458
1186.0,0.057396751157843484
1185.0,0.05690137699451481
1184.0,0.05680236993107379
1183.0,0.05709945885970602
1182.0,0.05764465029232335
1181.0,0.05843887976392925
1180.0,0.05948351506743288
1179.0,0.06063052992534024
1178.0,0.061680456657844385
1177.0,0.06263258248271053
1176.0,0.06323500239005853
1175.0,0.06343599486473406
1174.0,0.06303410289212974
1173.0,0.06203099704854709
1172.0,0.06033101647767336
1171.0,0.05809122563440061
1170.0,0.05546797900801881
1169.0,0.05271335532220167
1168.0,0.050171041064686284
1167.0,0.047982909952573705
1166.0,0.04633693625290869
1165.0,0.04513062893352182
1164.0,0.044360346976747955
1163.0,0.0439276630048171
1162.0,0.043735497301724546
1161.0,0.04368746915880539
1160.0,0.04383156952463674
1159.0,0.04411991377462465
1158.0,0.04464904263234004
1157.0,0.04537162249272897
1156.0,0.04638525830935958
1155.0,0.04774046340917959
1154.0,0.049294465226138895
1153.0,0.051098239029786274
1152.0,0.05305672930217464
1151.0,0.055270639696704205
1150.0,0.05784307153250956
1149.0,0.06068046892176193
1148.0,0.06383825908884244
1147.0,0.06712054217620067
1146.0,0.07068327324650436
1145.0,0.07448164182257
1144.0,0.07857365898473456
1143.0,0.08296737783760655
1142.0,0.08756536662442538
1141.0,0.09253489323414388
1140.0,0.0978882765519955
1139.0,0.10352889952072264
1138.0,0.10957898119908571
1137.0,0.11605480496572018
1136.0,0.12314735239865637
1135.0,0.1308269726783169
1134.0,0.1390633792999063
1133.0,0.1478861391502384
1132.0,0.15726598105173029
1131.0,0.16691666582165698
1130.0,0.17665620917935154
1129.0,0.1866191932661443
1128.0,0.19667947642124606
1127.0,0.20662875108104428
1126.0,0.21623930425607596
1125.0,0.22570206150072258
1124.0,0.23477863369501928
1123.0,0.2432878398352285
1122.0,0.2510371387438386
1121.0,0.2578249567763229
1120.0,0.2635238179723034
1119.0,0.2675258227188064
1118.0,0.26970233790285025
1117.0,0.27026840471296465
1116.0,0.26945996352288093
1115.0,0.26736503246080434
1114.0,0.2648004515776867
1113.0,0.26312563835157743
1112.0,0.263046046216854
1111.0,0.26512019720737245
1110.0,0.26937920211271726
1109.0,0.27580608048567035
1108.0,0.2841637248350062
1107.0,0.29362364416030995
1106.0,0.30346888003039285
1105.0,0.31327437892545795
1104.0,0.3228494787265672
1103.0,0.3314277308154421
1102.0,0.3388501427552135
1101.0,0.3452460667470698
1100.0,0.35047043405218115
1099.0,0.3540867249661557
1098.0,0.3557584141562713
1097.0,0.3561526897002858
1096.0,0.3552660725528074
1095.0,0.35291057128344505
1094.0,0.3489159107569886
1093.0,0.3439976793170427
1092.0,0.33818731446273875
1091.0,0.33161408330999986
1090.0,0.324221658325915
1089.0,0.3166827380781174
1088.0,0.3091839420190845
1087.0,0.30172542332563235
1086.0,0.29422178717140235
1085.0,0.28676153845433827
1084.0,0.2795099315499485
1083.0,0.27188981589965944
1082.0,0.2638426247268679
1081.0,0.2553159367231137
1080.0,0.24641694110709333
1079.0,0.23694655970038525
1078.0,0.22723835285596783
1077.0,0.21774242633669827
1076.0,0.20866029603486047
1075.0,0.19990181982522426
1074.0,0.19151894343404896
1073.0,0.18362611124763806
1072.0,0.17639537164484187
1071.0,0.16966800654803826
1070.0,0.16329620091026875
1069.0,0.157390760389438
1068.0,0.15193410459600853
1067.0,0.14684956355215717
1066.0,0.14206473528057106
1065.0,0.13780896894840278
1064.0,0.13406733180681396
1063.0,0.13053358991913355
1062.0,0.12726117252733116
1061.0,0.12418661116024232
1060.0,0.12147820449879343
1059.0,0.11907213473291511
1058.0,0.1170772093974013
1057.0,0.11554450392951199
1056.0,0.11446916681190777
1055.0,0.1137349409702435
1054.0,0.1133401021387972
1053.0,0.11322735694556196
1052.0,0.11339648571328764
1051.0,0.1136220932414278
1050.0,0.11396072443355765
1049.0,0.11441264381034388
1048.0,0.1149782051377024
1047.0,0.11537453674376552
1046.0,0.11560117444331386
1045.0,0.11560117444331386
1044.0,0.11526126223036814
1043.0,0.11441264381034388
1042.0,0.11317099532301778
1041.0,0.11176432672943282
1040.0,0.11013827874181148
1039.0,0.10823959854332843
1038.0,0.1060718734573931
1037.0,0.1038045895457893
1036.0,0.10149421446564144
1035.0,0.09919606518963042
1034.0,0.09691001300805646
1033.0,0.09463593123310776
1032.0,0.09258863922541383
1031.0,0.0908185240221473
1030.0,0.08969583193143116
1029.0,0.08990945440593179
1028.0,0.0922125568893839
1027.0,0.09745322068600859
1026.0,0.10612732120491852
1025.0,0.11833009232793867
1024.0,0.13359450162194508
1023.0,0.1509493094304879
1022.0,0.16953964996903292
1021.0,0.18822397839709626
1020.0,0.20579088365350362
1019.0,0.2196826878598488
1018.0,0.2274582673590566
1017.0,0.22723835285596783
1016.0,0.21917882414652712
1015.0,0.2049546295788751
1014.0,0.1878891587969005
1013.0,0.17088928984470542
1012.0,0.1558335895497993
1011.0,0.14321071124668383
1010.0,0.13294519952329842
1009.0,0.12464930342071079
1008.0,0.11781711236973003
1007.0,0.11210151190312767
1006.0,0.10729336219433439
1005.0,0.10341867249426717
1004.0,0.10023419805561384
1003.0,0.0975619438013351
1002.0,0.09517630019905599
1001.0,0.09307265269104414
1000.0,0.09119340059432579
999.0,0.08953568400438638
998.0,0.0880970039559672
997.0,0.0867691288864394
996.0,0.0854453014823664
995.0,0.08423093401631587
994.0,0.08312512146131668
993.0,0.08228448344050654
992.0,0.08175990977858505
991.0,0.08139308485501817
990.0,0.08113125661901543
989.0,0.08092190762392604
988.0,0.08066036321258663
987.0,0.0805035121369384
986.0,0.08055578953476306
985.0,0.08081727095749947
984.0,0.08139308485501817
983.0,0.08217951800630297
982.0,0.08328292240118751
981.0,0.08470571697731355
980.0,0.08639805027084257
979.0,0.08825662214406838
978.0,0.09017663034908807
977.0,0.09215885741705532
976.0,0.09404230090757282
975.0,0.09566320779750503
974.0,0.09691001300805646
973.0,0.09777947172068524
972.0,0.09816040794877057
971.0,0.09794268919153337
970.0,0.09718153191774648
969.0,0.09593394808549704
968.0,0.09431203228814788
967.0,0.09237369515673355
966.0,0.09017663034908807
965.0,0.08788427092114603
964.0,0.0856568428805593
963.0,0.08344078069888616
962.0,0.0812359689720008
961.0,0.07904229404455076
960.0,0.07696333132921396
959.0,0.07504911108438939
958.0,0.07329750581735506
957.0,0.0716553647351379
956.0,0.07012147634321675
955.0,0.06864384953207203
954.0,0.06727263269847072
953.0,0.06605739725873905
952.0,0.06499684854634524
951.0,0.06408986356949264
950.0,0.06333548699992453
949.0,0.06258241852286206
948.0,0.061880730805688344
947.0,0.06108018775522828
946.0,0.06038092104330195
945.0,0.05968277842578207
944.0,0.05908526241971446
943.0,0.05858795962645047
942.0,0.058190526991161784
941.0,0.05794231615860479
940.0,0.05769424710410598
939.0,0.05729763111133224
938.0,0.05680236993107379
937.0,0.05635711724787096
936.0,0.055961719945581745
935.0,0.05566540802921782
934.0,0.055270639696704205
933.0,0.054876229877880656
932.0,0.05438372077326825
931.0,0.053842605077627725
930.0,0.05330216275425803
929.0,0.052762392129333646
928.0,0.05227227303668425
927.0,0.0518316382728683
926.0,0.05139145012356372
925.0,0.05100054597304693
924.0,0.0506099933550872
923.0,0.050171041064686284
922.0,0.04968383607539972
921.0,0.049245818406496555
920.0,0.048954051864180226
919.0,0.0486139051197072
918.0,0.04832256265669943
917.0,0.04803141550708934
916.0,0.04778894189133087
915.0,0.047643522676209304
914.0,0.04754660357696672
913.0,0.047643522676209304
912.0,0.047885915093007325
911.0,0.04827402457540786
910.0,0.048905443158337114
909.0,0.04982994019179987
908.0,0.050902874887084115
907.0,0.05197846685889629
906.0,0.05300765925162776
905.0,0.054088483180726676
904.0,0.05531996611868961
903.0,0.05660442349104544
902.0,0.05784307153250956
901.0,0.058786812414678646
900.0,0.05948351506743288
899.0,0.05983228596592505
898.0,0.05983228596592505
897.0,0.05973260855398799
896.0,0.05953332233647113
895.0,0.05928434309333741
894.0,0.059035506507200575
893.0,0.058786812414678646
892.0,0.05868737463933793
891.0,0.05868737463933793
890.0,0.058836539841526925
889.0,0.05933412752417122
888.0,0.06033101647767336
887.0,0.061880730805688344
886.0,0.06403953101083348
885.0,0.06701917807680191
884.0,0.0709900145060387
883.0,0.0759792995259323
882.0,0.08181233864107451
881.0,0.08857603462370545
880.0,0.09604229147682952
879.0,0.10419084983086901
878.0,0.11288929687511629
877.0,0.12239832027072817
876.0,0.13300418688935212
875.0,0.1441175699639643
874.0,0.1540961611012175
873.0,0.1603334431175667
872.0,0.16064767110457878
871.0,0.15446788250642451
870.0,0.1438755557576996
869.0,0.1318847946727828
868.0,0.1207893947082408
867.0,0.11153968196461372
866.0,0.10413564875270076
865.0,0.09837823590664274
864.0,0.09409623378338305
863.0,0.09087205801073917
862.0,0.0884695376928375
861.0,0.08682216600953208
860.0,0.08570974433405087
859.0,0.08491689834879956
858.0,0.08444188458847957
857.0,0.08417821237960132
856.0,0.08433639649422697
855.0,0.08475850269380558
854.0,0.08555105930144569
853.0,0.0867160982395816
852.0,0.0881502035005799
851.0,0.08953568400438638
850.0,0.09076499663169257
849.0,0.09167586072382083
848.0,0.09215885741705532
847.0,0.09215885741705532
846.0,0.0917295005042762
845.0,0.09087205801073917
844.0,0.08953568400438638
843.0,0.0877779434675845
842.0,0.08570974433405087
841.0,0.08370400543686918
840.0,0.08175990977858505
839.0,0.07982447798997727
838.0,0.07789763319239285
837.0,0.0760310351245288
836.0,0.07432700607875953
835.0,0.0725783049495814
834.0,0.07078549626260622
833.0,0.0690000580438479
832.0,0.06727263269847072
831.0,0.06560255921901192
830.0,0.06408986356949264
829.0,0.06283329628496737
828.0,0.06173051653708872
827.0,0.06068046892176193
826.0,0.0595831353183347
825.0,0.058538260652670315
824.0,0.05769424710410598
823.0,0.056950888991593285
822.0,0.056456022846545606
821.0,0.056159373598738904
820.0,0.055961719945581745
819.0,0.05581353871631256
818.0,0.055566682299785564
817.0,0.05531996611868961
816.0,0.05507339001378431
815.0,0.054728418492290265
814.0,0.05443294655761144
813.0,0.054186873412661596
812.0,0.05399011523423525
811.0,0.05379344615721715
810.0,0.053449489430144714
809.0,0.053203972728539606
808.0,0.05295859474477971
807.0,0.05271335532220167
806.0,0.05227227303668425
805.0,0.0515870342213991
804.0,0.050805225762017736
803.0,0.049927370249842395
802.0,0.049148541111453614
801.0,0.04851676924770687
800.0,0.04827402457540786
799.0,0.048808242065293994
798.0,0.05051241005349638
797.0,0.053449489430144714
796.0,0.05709945885970602
795.0,0.060430831344098435
794.0,0.06263258248271053
793.0,0.06318476880236723
792.0,0.06218131530164395
791.0,0.06003170944866376
790.0,0.05734718830678798
789.0,0.054728418492290265
788.0,0.05237025261564554
787.0,0.050171041064686284
786.0,0.04817696468408794
785.0,0.04638525830935958
784.0,0.04484161307420642
783.0,0.04339941178682327
782.0,0.04196198390166317
781.0,0.04057697805689475
780.0,0.039338992729018196
779.0,0.03829421599749461
778.0,0.037346595106788616
777.0,0.03663723389626394
776.0,0.0360705779734416
775.0,0.03531618502395939
774.0,0.03442204208947208
773.0,0.033482823553208085
772.0,0.03273290844021437
771.0,0.032031037121307726
770.0,0.031236951802751545
769.0,0.030444315779156517
768.0,0.029560137048236124
767.0,0.028677754757187035
766.0,0.027658283674251827
765.0,0.026733563891471412
764.0,0.026087429580295085
763.0,0.025718641122169483
762.0,0.025488307262671706
761.0,0.02521206778644225
760.0,0.024706084643793647
759.0,0.023971159908874107
758.0,0.02314585342378117
757.0,0.022505030926963654
756.0,0.02204787879853809
755.0,0.021773818325474092
754.0,0.021728158389364705
753.0,0.021910826943857264
752.0,0.022322112326006227
751.0,0.02277955336461468
750.0,0.023100049017062307
749.0,0.023237476732539397
748.0,0.023329119375188556
747.0,0.023695883447997224
746.0,0.024568191490736968
745.0,0.026271941311972746
744.0,0.02890978686288448
743.0,0.032545631817259224
742.0,0.037583306554248797
741.0,0.04455278942230456
740.0,0.05379344615721715
739.0,0.0654005617819271
738.0,0.07925073872429178
737.0,0.09517630019905599
736.0,0.11277666863747693
735.0,0.1312967977214634
734.0,0.1500894416985039
733.0,0.16909070045355667
732.0,0.188357978546849
731.0,0.20795868928791772
730.0,0.2278984307229881
729.0,0.2488749284644165
728.0,0.27083521030723
727.0,0.2918341421444599
726.0,0.3091839420190845
725.0,0.32066296947920603
724.0,0.3252306859845737
723.0,0.3230321857052414
722.0,0.31578320486111955
721.0,0.3064489144040865
720.0,0.2970527538184442
719.0,0.28785558578511417
718.0,0.2783542337102538
717.0,0.26865302445404504
716.0,0.2590849235187176
715.0,0.24949160514865376
714.0,0.2399546720341894
713.0,0.23077041826340627
712.0,0.22199353857649173
711.0,0.21339052735134012
710.0,0.2049546295788751
709.0,0.1969527895088714
708.0,0.1894986522334703
707.0,0.18243463044021913
706.0,0.17593928258134706
705.0,0.17037464664195068
704.0,0.16538857927731287
703.0,0.1602706247936121
702.0,0.15434394001645568
701.0,0.1475810070629986
700.0,0.14026143380285316
699.0,0.13270933014511588
698.0,0.12557616941349803
697.0,0.11947222180119477
696.0,0.11446916681190777
695.0,0.11047420332880886
694.0,0.1071265931112344
693.0,0.10413564875270076
692.0,0.10138450258381404
691.0,0.09881421986284966
690.0,0.09642170633694569
689.0,0.09436599867304518
688.0,0.09258863922541383
687.0,0.09076499663169257
686.0,0.08873582900163002
685.0,0.0867691288864394
684.0,0.08528671302637614
683.0,0.08465293767580806
682.0,0.08460016478773014
681.0,0.08444188458847957
680.0,0.08354605145007499
679.0,0.08175990977858505
678.0,0.07935499859321249
677.0,0.07685964397479927
676.0,0.07432700607875953
675.0,0.07191154033502922
674.0,0.06966236426227002
673.0,0.0678307540792078
672.0,0.06646209802829528
671.0,0.06529959828457499
670.0,0.06434161389936577
669.0,0.0630843190547461
668.0,0.060730413661268745
667.0,0.058936011780097886
666.0,0.05848856736559682
665.0,0.05799194697768684
664.0,0.057198533682059516
663.0,0.05625823416868636
662.0,0.055270639696704205
661.0,0.05443294655761144
660.0,0.05389176956309405
659.0,0.053646002773725554
658.0,0.05354773498692689
657.0,0.05330216275425803
656.0,0.052762392129333646
655.0,0.05197846685889629
654.0,0.05134256785867963
653.0,0.050902874887084115
652.0,0.0506099933550872
651.0,0.05036607620073763
650.0,0.05021979163799939
649.0,0.05036607620073763
648.0,0.0506099933550872
647.0,0.05065879322950262
646.0,0.05056119896349576
645.0,0.05056119896349576
644.0,0.0506099933550872
643.0,0.05036607620073763
642.0,0.04982994019179987
641.0,0.049245818406496555
640.0,0.04900266601119507
639.0,0.04905128560059957
638.0,0.04919717703534143
637.0,0.04958646063061889
636.0,0.0506099933550872
635.0,0.052468254304406825
634.0,0.05462990550969615
633.0,0.056406567231630955
632.0,0.056950888991593285
631.0,0.05620880107069848
630.0,0.05453141486818014
629.0,0.05266432405126009
628.0,0.051098239029786274
627.0,0.050171041064686284
626.0,0.05002482217034632
625.0,0.05051241005349638
624.0,0.051049389754451946
623.0,0.05114709380028648
622.0,0.05065879322950262
621.0,0.04978123335813667
620.0,0.04866248120408234
619.0,0.04744970610179822
618.0,0.04643358574299339
617.0,0.04537162249272897
616.0,0.04368746915880539
615.0,0.041149548320321694
614.0,0.038436537637930535
613.0,0.03658998431977123
612.0,0.03592902944204468
611.0,0.03616496929785207
610.0,0.03668448861388862
609.0,0.03720463014276687
608.0,0.03739392707587297
607.0,0.0369681249461018
606.0,0.03602339000339416
605.0,0.0349394793888016
604.0,0.03423403581731388
603.0,0.03437503289075727
602.0,0.03512779136222477
601.0,0.03578752703018084
600.0,0.03541041251009669
