cm-1,A
4000.0,-0.0003906892499099257
3999.0,-0.00043407747931878404
3998.0,-0.0004774613744551459
3997.0,-0.0005208409361854294
3996.0,-0.0005208409361854294
3995.0,-0.0005642161653756084
3994.0,-0.0005642161653756084
3993.0,-0.0005642161653756084
3992.0,-0.0005208409361854294
3991.0,-0.00043407747931878404
3990.0,-0.0003472966853634851
3989.0,-0.0002604985473904087
3988.0,-0.00017368305846510168
3987.0,-0.00013026880522692963
3986.0,-8.685021164911433e-05
3985.0,-0.00013026880522692963
3984.0,-0.0002604985473904087
3983.0,-0.0003472966853634851
3982.0,-0.00043407747931878404
3981.0,-0.0004774613744551459
3980.0,-0.00043407747931878404
3979.0,-0.0003906892499099257
3978.0,-0.0003906892499099257
3977.0,-0.0003472966853634851
3976.0,-0.0003472966853634851
3975.0,-0.0003472966853634851
3974.0,-0.00030389978481260016
3973.0,-0.0002604985473904087
3972.0,-0.0002604985473904087
3971.0,-0.00021709297223004853
3970.0,-0.00021709297223004853
3969.0,-0.00021709297223004853
3968.0,-0.00021709297223004853
3967.0,-0.0002604985473904087
3966.0,-0.0002604985473904087
3965.0,-0.0002604985473904087
3964.0,-0.00021709297223004853
3963.0,-0.00021709297223004853
3962.0,-0.00017368305846510168
3961.0,-0.00017368305846510168
3960.0,-0.00017368305846510168
3959.0,-0.00017368305846510168
3958.0,-0.00017368305846510168
3957.0,-0.00017368305846510168
3956.0,-0.00017368305846510168
3955.0,-0.00017368305846510168
3954.0,-0.00017368305846510168
3953.0,-0.00021709297223004853
3952.0,-0.0002604985473904087
3951.0,-0.0002604985473904087
3950.0,-0.00030389978481260016
3949.0,-0.0002604985473904087
3948.0,-0.00021709297223004853
3947.0,-0.00017368305846510168
3946.0,-0.00017368305846510168
3945.0,-0.00017368305846510168
3944.0,-0.00017368305846510168
3943.0,-0.00017368305846510168
3942.0,-0.00017368305846510168
3941.0,-0.00021709297223004853
3940.0,-0.0002604985473904087
3939.0,-0.0003472966853634851
3938.0,-0.0003906892499099257
3937.0,-0.0003906892499099257
3936.0,-0.0003906892499099257
3935.0,-0.0003472966853634851
3934.0,-0.0002604985473904087
3933.0,-0.00021709297223004853
3932.0,-0.00021709297223004853
3931.0,-0.00021709297223004853
3930.0,-0.00021709297223004853
3929.0,-0.00017368305846510168
3928.0,-8.685021164911433e-05
3927.0,0.0
3926.0,4.343161980746579e-05
3925.0,4.343161980746579e-05
3924.0,0.0
3923.0,-4.3427276862573194e-05
3922.0,-4.3427276862573194e-05
3921.0,-4.3427276862573194e-05
3920.0,-4.3427276862573194e-05
3919.0,-4.3427276862573194e-05
3918.0,0.0
3917.0,4.343161980746579e-05
3916.0,0.0001303078917322953
3915.0,0.00017375254558760211
3914.0,0.00017375254558760211
3913.0,0.0001303078917322953
3912.0,8.686758342868472e-05
3911.0,8.686758342868472e-05
3910.0,0.0001303078917322953
3909.0,0.00017375254558760211
3908.0,0.00021720154586435392
3907.0,0.00021720154586435392
3906.0,0.0001303078917322953
3905.0,4.343161980746579e-05
3904.0,-4.3427276862573194e-05
3903.0,-0.00013026880522692963
3902.0,-0.00021709297223004853
3901.0,-0.0002604985473904087
3900.0,-0.0002604985473904087
3899.0,-0.0002604985473904087
3898.0,-0.0002604985473904087
3897.0,-0.00021709297223004853
3896.0,-0.00021709297223004853
3895.0,-0.00021709297223004853
3894.0,-0.0002604985473904087
3893.0,-0.0002604985473904087
3892.0,-0.0002604985473904087
3891.0,-0.0002604985473904087
3890.0,-0.00021709297223004853
3889.0,-0.00017368305846510168
3888.0,-0.00013026880522692963
3887.0,-4.3427276862573194e-05
3886.0,0.0
3885.0,-4.3427276862573194e-05
3884.0,-4.3427276862573194e-05
3883.0,-0.00013026880522692963
3882.0,-0.00017368305846510168
3881.0,-0.0002604985473904087
3880.0,-0.0002604985473904087
3879.0,-0.0002604985473904087
3878.0,-0.00017368305846510168
3877.0,-0.00013026880522692963
3876.0,-4.3427276862573194e-05
3875.0,-4.3427276862573194e-05
3874.0,-4.3427276862573194e-05
3873.0,-4.3427276862573194e-05
3872.0,0.0
3871.0,8.686758342868472e-05
3870.0,0.0001303078917322953
3869.0,8.686758342868472e-05
3868.0,-4.3427276862573194e-05
3867.0,-0.00017368305846510168
3866.0,-0.00021709297223004853
3865.0,-0.00017368305846510168
3864.0,-8.685021164911433e-05
3863.0,-4.3427276862573194e-05
3862.0,-8.685021164911433e-05
3861.0,-0.00017368305846510168
3860.0,-0.00021709297223004853
3859.0,-0.00021709297223004853
3858.0,-0.00017368305846510168
3857.0,-0.00013026880522692963
3856.0,-0.00013026880522692963
3855.0,-0.00013026880522692963
3854.0,-4.3427276862573194e-05
3853.0,4.343161980746579e-05
3852.0,8.686758342868472e-05
3851.0,0.0001303078917322953
3850.0,0.00017375254558760211
3849.0,0.00021720154586435392
3848.0,0.00021720154586435392
3847.0,0.00017375254558760211
3846.0,0.00017375254558760211
3845.0,0.00017375254558760211
3844.0,0.0001303078917322953
3843.0,8.686758342868472e-05
3842.0,4.343161980746579e-05
3841.0,0.0
3840.0,-4.3427276862573194e-05
3839.0,-8.685021164911433e-05
3838.0,-0.00013026880522692963
3837.0,-0.00013026880522692963
3836.0,-8.685021164911433e-05
3835.0,-8.685021164911433e-05
3834.0,-4.3427276862573194e-05
3833.0,-8.685021164911433e-05
3832.0,-0.00013026880522692963
3831.0,-0.00017368305846510168
3830.0,-0.00017368305846510168
3829.0,-0.00017368305846510168
3828.0,-0.00013026880522692963
3827.0,-4.3427276862573194e-05
3826.0,4.343161980746579e-05
3825.0,8.686758342868472e-05
3824.0,0.0001303078917322953
3823.0,0.0001303078917322953
3822.0,0.0001303078917322953
3821.0,8.686758342868472e-05
3820.0,-4.3427276862573194e-05
3819.0,-0.00013026880522692963
3818.0,-0.00013026880522692963
3817.0,-0.00013026880522692963
3816.0,-8.685021164911433e-05
3815.0,0.0
3814.0,8.686758342868472e-05
3813.0,0.00017375254558760211
3812.0,0.00021720154586435392
3811.0,0.00021720154586435392
3810.0,0.00017375254558760211
3809.0,0.0001303078917322953
3808.0,0.0
3807.0,-8.685021164911433e-05
3806.0,-8.685021164911433e-05
3805.0,-4.3427276862573194e-05
3804.0,4.343161980746579e-05
3803.0,8.686758342868472e-05
3802.0,0.0001303078917322953
3801.0,8.686758342868472e-05
3800.0,8.686758342868472e-05
3799.0,0.0001303078917322953
3798.0,0.00017375254558760211
3797.0,0.00021720154586435392
3796.0,0.00021720154586435392
3795.0,0.00021720154586435392
3794.0,0.00021720154586435392
3793.0,0.00021720154586435392
3792.0,0.00021720154586435392
3791.0,0.00021720154586435392
3790.0,0.00017375254558760211
3789.0,0.0001303078917322953
3788.0,0.0001303078917322953
3787.0,0.0001303078917322953
3786.0,0.0001303078917322953
3785.0,8.686758342868472e-05
3784.0,8.686758342868472e-05
3783.0,8.686758342868472e-05
3782.0,0.00017375254558760211
3781.0,0.00026065489343207737
3780.0,0.00026065489343207737
3779.0,0.00026065489343207737
3778.0,0.00021720154586435392
3777.0,0.00017375254558760211
3776.0,0.0001303078917322953
3775.0,0.0001303078917322953
3774.0,0.0001303078917322953
3773.0,0.0001303078917322953
3772.0,0.0001303078917322953
3771.0,0.00017375254558760211
3770.0,0.00021720154586435392
3769.0,0.00026065489343207737
3768.0,0.00021720154586435392
3767.0,0.00021720154586435392
3766.0,0.00021720154586435392
3765.0,0.00021720154586435392
3764.0,0.00026065489343207737
3763.0,0.00026065489343207737
3762.0,0.00021720154586435392
3761.0,0.00017375254558760211
3760.0,0.0001303078917322953
3759.0,8.686758342868472e-05
3758.0,0.0001303078917322953
3757.0,0.00021720154586435392
3756.0,0.00026065489343207737
3755.0,0.00030411258916074324
3754.0,0.00030411258916074324
3753.0,0.00026065489343207737
3752.0,0.00026065489343207737
3751.0,0.00030411258916074324
3750.0,0.0003475746339209884
3749.0,0.0003910410285830057
3748.0,0.0004779868710962365
3747.0,0.000521466320689834
3746.0,0.0005649501236701937
3745.0,0.0006084382809090627
3744.0,0.0006519307932786322
3743.0,0.0006084382809090627
3742.0,0.0005649501236701937
3741.0,0.0004779868710962365
3740.0,0.0003475746339209884
3739.0,0.00021720154586435392
3738.0,0.0001303078917322953
3737.0,8.686758342868472e-05
3736.0,4.343161980746579e-05
3735.0,-4.3427276862573194e-05
3734.0,-8.685021164911433e-05
3733.0,-4.3427276862573194e-05
3732.0,4.343161980746579e-05
3731.0,0.0001303078917322953
3730.0,0.00021720154586435392
3729.0,0.00030411258916074324
3728.0,0.0003475746339209884
3727.0,0.00043451177401765406
3726.0,0.0004779868710962365
3725.0,0.000521466320689834
3724.0,0.0004779868710962365
3723.0,0.00043451177401765406
3722.0,0.0003910410285830057
3721.0,0.0003910410285830057
3720.0,0.0003910410285830057
3719.0,0.0003910410285830057
3718.0,0.0003910410285830057
3717.0,0.0003910410285830057
3716.0,0.0003475746339209884
3715.0,0.0003475746339209884
3714.0,0.00030411258916074324
3713.0,0.00021720154586435392
3712.0,8.686758342868472e-05
3711.0,-4.3427276862573194e-05
3710.0,-0.00017368305846510168
3709.0,-0.00017368305846510168
3708.0,-0.00013026880522692963
3707.0,0.0
3706.0,0.0001303078917322953
3705.0,0.00026065489343207737
3704.0,0.00026065489343207737
3703.0,0.00026065489343207737
3702.0,0.00026065489343207737
3701.0,0.00030411258916074324
3700.0,0.0003910410285830057
3699.0,0.0004779868710962365
3698.0,0.0005649501236701937
3697.0,0.0006084382809090627
3696.0,0.0006084382809090627
3695.0,0.0005649501236701937
3694.0,0.000521466320689834
3693.0,0.00043451177401765406
3692.0,0.0003910410285830057
3691.0,0.0003475746339209884
3690.0,0.0003475746339209884
3689.0,0.0003475746339209884
3688.0,0.0003475746339209884
3687.0,0.0003910410285830057
3686.0,0.0003910410285830057
3685.0,0.00043451177401765406
3684.0,0.0004779868710962365
3683.0,0.000521466320689834
3682.0,0.0005649501236701937
3681.0,0.0005649501236701937
3680.0,0.0005649501236701937
3679.0,0.000521466320689834
3678.0,0.00043451177401765406
3677.0,0.00043451177401765406
3676.0,0.00043451177401765406
3675.0,0.0004779868710962365
3674.0,0.0004779868710962365
3673.0,0.000521466320689834
3672.0,0.0006084382809090627
3671.0,0.0007389288868995258
3670.0,0.0008259444115150671
3669.0,0.0008259444115150671
3668.0,0.0007824344698965646
3667.0,0.0006954276616513155
3666.0,0.0006519307932786322
3665.0,0.0006519307932786322
3664.0,0.0006519307932786322
3663.0,0.0006519307932786322
3662.0,0.0007389288868995258
3661.0,0.0008259444115150671
3660.0,0.0009129773741116676
3659.0,0.0009565003968372565
3658.0,0.0009129773741116676
3657.0,0.0008259444115150671
3656.0,0.0007389288868995258
3655.0,0.0007389288868995258
3654.0,0.0007389288868995258
3653.0,0.0007389288868995258
3652.0,0.0007389288868995258
3651.0,0.0007389288868995258
3650.0,0.0007824344698965646
3649.0,0.000869458712629001
3648.0,0.0009129773741116676
3647.0,0.0009565003968372565
3646.0,0.0010000277816797354
3645.0,0.0010435595295137379
3644.0,0.0010870956412141197
3643.0,0.0010870956412141197
3642.0,0.0011306361176557367
3641.0,0.0011306361176557367
3640.0,0.0011741809597138886
3639.0,0.0011741809597138886
3638.0,0.0012177301682640973
3637.0,0.0012612837441823288
3636.0,0.0012612837441823288
3635.0,0.001304841688344327
3634.0,0.001304841688344327
3633.0,0.001348404001626502
3632.0,0.0013919706849057079
3631.0,0.0014791171649619628
3630.0,0.0015662811355310335
3629.0,0.001609869681952425
3628.0,0.0015662811355310335
3627.0,0.001609869681952425
3626.0,0.0016970599014589638
3625.0,0.0018278780605593958
3624.0,0.001915112063444413
3623.0,0.0019587356365717845
3622.0,0.0019587356365717845
3621.0,0.0020459959305969555
3620.0,0.0021769192542746563
3619.0,0.0023078820582733695
3618.0,0.002351545103793873
3617.0,0.002395212539545666
3616.0,0.002395212539545666
3615.0,0.0024388843664115978
3614.0,0.0025262411970197185
3613.0,0.0026573093983774942
3612.0,0.0027884171674950053
3611.0,0.0028758443407954637
3610.0,0.0029632891174733444
3609.0,0.0029632891174733444
3608.0,0.0029632891174733444
3607.0,0.0029632891174733444
3606.0,0.0030070181092942683
3605.0,0.0031382315093266833
3604.0,0.0031819781204844855
3603.0,0.0032257291386954545
3602.0,0.0031819781204844855
3601.0,0.0031382315093266833
3600.0,0.0030944893043338695
3599.0,0.0030944893043338695
3598.0,0.0031382315093266833
3597.0,0.0032257291386954545
3596.0,0.0033570086445275926
3595.0,0.003488327845821315
3594.0,0.003619686766589858
3593.0,0.003707281458678491
3592.0,0.0037510854308679953
3591.0,0.003794893821675638
3590.0,0.0038387066319929275
3589.0,0.0038387066319929275
3588.0,0.0038387066319929275
3587.0,0.0038387066319929275
3586.0,0.0038825238627120395
3585.0,0.0040578370074493275
3584.0,0.004189368323957332
3583.0,0.0043648054024501
3582.0,0.0044964297349936455
3581.0,0.00458420145758498
3580.0,0.004671990922590297
3579.0,0.004715892310740433
3578.0,0.004803708402820517
3577.0,0.00489154225525934
3576.0,0.005023326350308999
3575.0,0.005111204635089406
3574.0,0.005155150446602086
3573.0,0.005243055412371911
3572.0,0.005330978174470591
3571.0,0.00541891874010525
3570.0,0.005594853310833647
3569.0,0.005814871797682919
3568.0,0.005990966876386672
3567.0,0.006167133386013823
3566.0,0.006299305179649828
3565.0,0.006387442061109638
3564.0,0.006387442061109638
3563.0,0.006387442061109638
3562.0,0.006387442061109638
3561.0,0.006475596832934416
3560.0,0.006607862550997545
3559.0,0.006784279525863024
3558.0,0.006872514894289861
3557.0,0.007004901568658406
3556.0,0.007093181776687496
3555.0,0.007181479933320523
3554.0,0.007358130121602358
3553.0,0.007534852191956709
3552.0,0.007667440952535687
3551.0,0.007800070204414977
3550.0,0.007932739972333236
3549.0,0.008065450281052211
3548.0,0.008198201155356077
3547.0,0.008330992620051436
3546.0,0.008463824699968647
3545.0,0.008596697419959609
3544.0,0.0087296108049002
3543.0,0.008862564879688284
3542.0,0.008995559669244813
3541.0,0.009039900317800775
3540.0,0.00908424549391551
3539.0,0.009172949432521227
3538.0,0.009261671492462709
3537.0,0.009350411681145587
3536.0,0.009439170005980158
3535.0,0.009527946474380489
3534.0,0.009572341514736404
3533.0,0.00966114521239847
3532.0,0.00966114521239847
3531.0,0.00966114521239847
3530.0,0.00966114521239847
3529.0,0.00966114521239847
3528.0,0.009705553871561357
3527.0,0.00974996707218323
3526.0,0.009838807101520963
3525.0,0.009972101229705377
3524.0,0.010149890396819572
3523.0,0.010327752376126709
3522.0,0.01046119667949763
3521.0,0.010505687227290839
3520.0,0.01046119667949763
3519.0,0.010416710688994968
3518.0,0.010327752376126709
3517.0,0.010327752376126709
3516.0,0.010327752376126709
3515.0,0.010327752376126709
3514.0,0.010416710688994968
3513.0,0.010505687227290839
3512.0,0.010639186223752484
3511.0,0.010728208358306901
3510.0,0.010817248744452446
3509.0,0.010817248744452446
3508.0,0.01077272626946324
3507.0,0.010683695010048622
3506.0,0.010594681998483901
3505.0,0.010505687227290839
3504.0,0.010416710688994968
3503.0,0.010416710688994968
3502.0,0.01046119667949763
3501.0,0.010594681998483901
3500.0,0.010683695010048622
3499.0,0.01077272626946324
3498.0,0.01086177578421088
3497.0,0.010906307389674463
3496.0,0.01086177578421088
3495.0,0.01077272626946324
3494.0,0.010639186223752484
3493.0,0.010550182333308289
3492.0,0.01046119667949763
3491.0,0.01046119667949763
3490.0,0.010505687227290839
3489.0,0.010594681998483901
3488.0,0.010639186223752484
3487.0,0.010639186223752484
3486.0,0.010594681998483901
3485.0,0.010505687227290839
3484.0,0.010416710688994968
3483.0,0.01037222925484893
3482.0,0.010283280051895272
3481.0,0.01023881228122181
3480.0,0.010194349063173958
3479.0,0.010149890396819572
3478.0,0.010105436281226954
3477.0,0.010060986715464404
3476.0,0.009972101229705377
3475.0,0.009883233932095559
3474.0,0.009838807101520963
3473.0,0.009883233932095559
3472.0,0.009972101229705377
3471.0,0.010060986715464404
3470.0,0.010105436281226954
3469.0,0.010060986715464404
3468.0,0.01001654169860089
3467.0,0.009972101229705377
3466.0,0.009927665307847056
3465.0,0.009972101229705377
3464.0,0.009972101229705377
3463.0,0.009972101229705377
3462.0,0.009972101229705377
3461.0,0.009927665307847056
3460.0,0.009927665307847056
3459.0,0.009927665307847056
3458.0,0.009838807101520963
3457.0,0.00966114521239847
3456.0,0.009527946474380489
3455.0,0.009483555971770974
3454.0,0.009527946474380489
3453.0,0.009572341514736404
3452.0,0.00966114521239847
3451.0,0.00966114521239847
3450.0,0.00966114521239847
3449.0,0.00966114521239847
3448.0,0.009705553871561357
3447.0,0.009794384815193347
3446.0,0.009927665307847056
3445.0,0.01001654169860089
3444.0,0.010060986715464404
3443.0,0.010060986715464404
3442.0,0.010105436281226954
3441.0,0.010149890396819572
3440.0,0.010194349063173958
3439.0,0.010194349063173958
3438.0,0.010194349063173958
3437.0,0.010194349063173958
3436.0,0.01023881228122181
3435.0,0.01037222925484893
3434.0,0.010550182333308289
3433.0,0.010683695010048622
3432.0,0.010817248744452446
3431.0,0.010906307389674463
3430.0,0.010995384301463185
3429.0,0.011039929609661936
3428.0,0.011039929609661936
3427.0,0.011039929609661936
3426.0,0.011084479487313281
3425.0,0.011129033935354915
3424.0,0.011307297450183107
3423.0,0.011485634166333858
3422.0,0.011664044143949504
3421.0,0.011753276624621556
3420.0,0.011887159731648111
3419.0,0.011931796607364653
3418.0,0.012021084124518078
3417.0,0.01215504982870197
3416.0,0.012289056869694281
3415.0,0.012512493866907004
3414.0,0.012780770091995297
3413.0,0.013093968619278806
3412.0,0.013317820220494436
3411.0,0.013496984613259544
3410.0,0.013586594534531482
3409.0,0.013631406429727155
3408.0,0.013765869865004277
3407.0,0.013900374944870508
3406.0,0.014079779876432497
3405.0,0.014214382227394795
3404.0,0.014304140310157809
3403.0,0.014349026309051105
3402.0,0.014393916947563534
3401.0,0.014393916947563534
3400.0,0.014393916947563534
3399.0,0.0144837121472845
3398.0,0.014618439768003144
3397.0,0.014708281407112
3396.0,0.014753209197138295
3395.0,0.014753209197138295
3394.0,0.014753209197138295
3393.0,0.014708281407112
3392.0,0.014753209197138295
3391.0,0.014753209197138295
3390.0,0.014753209197138295
3389.0,0.014663358264387139
3388.0,0.014573525916998342
3387.0,0.01452861671041239
3386.0,0.014438812226654996
3385.0,0.014349026309051105
3384.0,0.014214382227394795
3383.0,0.014079779876432497
3382.0,0.013900374944870508
3381.0,0.013765869865004277
3380.0,0.013676222949234651
3379.0,0.013586594534531482
3378.0,0.013541787262693505
3377.0,0.013452186585275916
3376.0,0.013407393177789162
3375.0,0.013317820220494436
3374.0,0.01322826573375524
3373.0,0.013093968619278806
3372.0,0.013004460275618523
3371.0,0.012914970375878188
3370.0,0.012736045877764557
3369.0,0.012557195064198723
3368.0,0.012423105273012602
3367.0,0.012378417874516323
3366.0,0.012467797270160563
3365.0,0.012557195064198723
3364.0,0.012557195064198723
3363.0,0.012467797270160563
3362.0,0.012289056869694281
3361.0,0.012065734767841452
3360.0,0.011931796607364653
3359.0,0.011842527443247208
3358.0,0.011842527443247208
3357.0,0.011797899741219142
3356.0,0.011797899741219142
3355.0,0.011797899741219142
3354.0,0.011708658092512314
3353.0,0.011664044143949504
3352.0,0.011574829993696856
3351.0,0.011485634166333858
3350.0,0.011485634166333858
3349.0,0.011485634166333858
3348.0,0.011485634166333858
3347.0,0.011530229790124524
3346.0,0.011530229790124524
3345.0,0.011485634166333858
3344.0,0.011396456654336085
3343.0,0.011262724711199823
3342.0,0.011129033935354915
3341.0,0.011084479487313281
3340.0,0.011129033935354915
3339.0,0.011218156546359825
3338.0,0.011218156546359825
3337.0,0.01117359295472431
3336.0,0.011084479487313281
3335.0,0.011039929609661936
3334.0,0.010995384301463185
3333.0,0.010995384301463185
3332.0,0.011039929609661936
3331.0,0.011039929609661936
3330.0,0.011039929609661936
3329.0,0.011084479487313281
3328.0,0.011039929609661936
3327.0,0.010995384301463185
3326.0,0.010906307389674463
3325.0,0.01077272626946324
3324.0,0.010728208358306901
3323.0,0.010683695010048622
3322.0,0.010683695010048622
3321.0,0.010683695010048622
3320.0,0.010683695010048622
3319.0,0.010683695010048622
3318.0,0.010728208358306901
3317.0,0.010728208358306901
3316.0,0.010728208358306901
3315.0,0.010683695010048622
3314.0,0.010639186223752484
3313.0,0.010594681998483901
3312.0,0.010639186223752484
3311.0,0.010728208358306901
3310.0,0.01077272626946324
3309.0,0.010817248744452446
3308.0,0.01077272626946324
3307.0,0.010728208358306901
3306.0,0.010639186223752484
3305.0,0.010550182333308289
3304.0,0.010505687227290839
3303.0,0.010416710688994968
3302.0,0.01037222925484893
3301.0,0.010283280051895272
3300.0,0.01023881228122181
3299.0,0.010194349063173958
3298.0,0.01023881228122181
3297.0,0.010194349063173958
3296.0,0.010194349063173958
3295.0,0.01023881228122181
3294.0,0.010327752376126709
3293.0,0.01046119667949763
3292.0,0.010505687227290839
3291.0,0.010550182333308289
3290.0,0.010505687227290839
3289.0,0.010416710688994968
3288.0,0.010327752376126709
3287.0,0.010283280051895272
3286.0,0.010194349063173958
3285.0,0.010149890396819572
3284.0,0.010060986715464404
3283.0,0.009972101229705377
3282.0,0.009972101229705377
3281.0,0.01001654169860089
3280.0,0.01001654169860089
3279.0,0.009972101229705377
3278.0,0.009927665307847056
3277.0,0.009883233932095559
3276.0,0.009883233932095559
3275.0,0.009927665307847056
3274.0,0.01001654169860089
3273.0,0.010060986715464404
3272.0,0.010149890396819572
3271.0,0.010194349063173958
3270.0,0.010149890396819572
3269.0,0.010060986715464404
3268.0,0.009972101229705377
3267.0,0.009883233932095559
3266.0,0.009883233932095559
3265.0,0.009883233932095559
3264.0,0.009927665307847056
3263.0,0.009927665307847056
3262.0,0.009927665307847056
3261.0,0.009927665307847056
3260.0,0.009883233932095559
3259.0,0.009883233932095559
3258.0,0.009794384815193347
3257.0,0.00974996707218323
3256.0,0.00974996707218323
3255.0,0.009794384815193347
3254.0,0.009838807101520963
3253.0,0.009838807101520963
3252.0,0.00974996707218323
3251.0,0.00966114521239847
3250.0,0.009572341514736404
3249.0,0.009572341514736404
3248.0,0.009616741093766423
3247.0,0.00966114521239847
3246.0,0.00974996707218323
3245.0,0.009838807101520963
3244.0,0.009883233932095559
3243.0,0.009883233932095559
3242.0,0.009927665307847056
3241.0,0.009883233932095559
3240.0,0.009883233932095559
3239.0,0.009838807101520963
3238.0,0.009794384815193347
3237.0,0.00974996707218323
3236.0,0.00966114521239847
3235.0,0.009616741093766423
3234.0,0.009616741093766423
3233.0,0.00966114521239847
3232.0,0.00974996707218323
3231.0,0.009794384815193347
3230.0,0.009705553871561357
3229.0,0.009616741093766423
3228.0,0.009572341514736404
3227.0,0.009527946474380489
3226.0,0.009572341514736404
3225.0,0.009572341514736404
3224.0,0.009616741093766423
3223.0,0.00966114521239847
3222.0,0.00966114521239847
3221.0,0.009572341514736404
3220.0,0.009439170005980158
3219.0,0.009306039320248427
3218.0,0.009261671492462709
3217.0,0.009306039320248427
3216.0,0.009350411681145587
3215.0,0.009439170005980158
3214.0,0.009439170005980158
3213.0,0.009439170005980158
3212.0,0.009439170005980158
3211.0,0.009350411681145587
3210.0,0.009261671492462709
3209.0,0.009217308196862062
3208.0,0.009217308196862062
3207.0,0.009217308196862062
3206.0,0.009217308196862062
3205.0,0.009217308196862062
3204.0,0.009172949432521227
3203.0,0.00908424549391551
3202.0,0.009039900317800775
3201.0,0.008951223547323472
3200.0,0.008906891951112605
3199.0,0.008951223547323472
3198.0,0.008995559669244813
3197.0,0.009039900317800775
3196.0,0.009039900317800775
3195.0,0.008951223547323472
3194.0,0.008862564879688284
3193.0,0.0087296108049002
3192.0,0.008685301823389224
3191.0,0.0087296108049002
3190.0,0.0087296108049002
3189.0,0.0087296108049002
3188.0,0.008685301823389224
3187.0,0.008640997362049818
3186.0,0.008552401996197112
3185.0,0.00850811108984062
3184.0,0.00850811108984062
3183.0,0.008552401996197112
3182.0,0.008596697419959609
3181.0,0.008640997362049818
3180.0,0.008640997362049818
3179.0,0.008596697419959609
3178.0,0.008552401996197112
3177.0,0.00850811108984062
3176.0,0.008463824699968647
3175.0,0.008375265465994541
3174.0,0.008286724286910463
3173.0,0.008242460465651913
3172.0,0.008198201155356077
3171.0,0.008198201155356077
3170.0,0.008286724286910463
3169.0,0.008330992620051436
3168.0,0.008330992620051436
3167.0,0.008286724286910463
3166.0,0.008242460465651913
3165.0,0.008153946355103248
3164.0,0.008109696063975047
3163.0,0.008109696063975047
3162.0,0.008153946355103248
3161.0,0.008153946355103248
3160.0,0.008109696063975047
3159.0,0.008065450281052211
3158.0,0.008065450281052211
3157.0,0.008109696063975047
3156.0,0.008153946355103248
3155.0,0.008109696063975047
3154.0,0.008021209005416363
3153.0,0.007976972236149349
3152.0,0.007932739972333236
3151.0,0.007932739972333236
3150.0,0.007932739972333236
3149.0,0.007888512213050314
3148.0,0.007844288957383316
3147.0,0.007800070204414977
3146.0,0.007755855953228474
3145.0,0.007755855953228474
3144.0,0.007800070204414977
3143.0,0.007800070204414977
3142.0,0.007800070204414977
3141.0,0.007755855953228474
3140.0,0.007711646202907652
3139.0,0.007711646202907652
3138.0,0.007755855953228474
3137.0,0.007800070204414977
3136.0,0.007800070204414977
3135.0,0.007755855953228474
3134.0,0.007711646202907652
3133.0,0.00762324020119709
3132.0,0.0075790439479759275
3131.0,0.007490664932224611
3130.0,0.007490664932224611
3129.0,0.0074464821678643656
3128.0,0.007490664932224611
3127.0,0.007490664932224611
3126.0,0.007490664932224611
3125.0,0.0074464821678643656
3124.0,0.007402303897961815
3123.0,0.007313960837872058
3122.0,0.007269796045857202
3121.0,0.007269796045857202
3120.0,0.007313960837872058
3119.0,0.007358130121602358
3118.0,0.007358130121602358
3117.0,0.007358130121602358
3116.0,0.007358130121602358
3115.0,0.007358130121602358
3114.0,0.007358130121602358
3113.0,0.007358130121602358
3112.0,0.007402303897961815
3111.0,0.0074464821678643656
3110.0,0.007490664932224611
3109.0,0.007490664932224611
3108.0,0.007490664932224611
3107.0,0.007490664932224611
3106.0,0.007490664932224611
3105.0,0.007490664932224611
3104.0,0.0075790439479759275
3103.0,0.007667440952535687
3102.0,0.007667440952535687
3101.0,0.00762324020119709
3100.0,0.007534852191956709
3099.0,0.007402303897961815
3098.0,0.007313960837872058
3097.0,0.007269796045857202
3096.0,0.007269796045857202
3095.0,0.007313960837872058
3094.0,0.007313960837872058
3093.0,0.007358130121602358
3092.0,0.0074464821678643656
3091.0,0.007534852191956709
3090.0,0.00762324020119709
3089.0,0.007755855953228474
3088.0,0.007888512213050314
3087.0,0.008153946355103248
3086.0,0.008375265465994541
3085.0,0.008596697419959609
3084.0,0.0087296108049002
3083.0,0.008773924307505121
3082.0,0.008773924307505121
3081.0,0.008773924307505121
3080.0,0.0087296108049002
3079.0,0.008685301823389224
3078.0,0.008552401996197112
3077.0,0.008419542825660153
3076.0,0.008330992620051436
3075.0,0.008242460465651913
3074.0,0.008198201155356077
3073.0,0.008153946355103248
3072.0,0.008065450281052211
3071.0,0.008021209005416363
3070.0,0.008021209005416363
3069.0,0.008109696063975047
3068.0,0.008198201155356077
3067.0,0.008375265465994541
3066.0,0.008596697419959609
3065.0,0.008818242332126802
3064.0,0.008995559669244813
3063.0,0.009217308196862062
3062.0,0.009439170005980158
3061.0,0.009616741093766423
3060.0,0.009705553871561357
3059.0,0.00966114521239847
3058.0,0.009572341514736404
3057.0,0.009439170005980158
3056.0,0.009350411681145587
3055.0,0.009217308196862062
3054.0,0.009128595198514056
3053.0,0.008995559669244813
3052.0,0.008818242332126802
3051.0,0.008640997362049818
3050.0,0.008463824699968647
3049.0,0.008286724286910463
3048.0,0.008198201155356077
3047.0,0.008153946355103248
3046.0,0.008109696063975047
3045.0,0.008109696063975047
3044.0,0.008021209005416363
3043.0,0.007932739972333236
3042.0,0.007888512213050314
3041.0,0.007888512213050314
3040.0,0.007932739972333236
3039.0,0.008065450281052211
3038.0,0.008242460465651913
3037.0,0.008419542825660153
3036.0,0.008596697419959609
3035.0,0.008862564879688284
3034.0,0.009172949432521227
3033.0,0.009572341514736404
3032.0,0.01001654169860089
3031.0,0.010550182333308289
3030.0,0.011129033935354915
3029.0,0.011753276624621556
3028.0,0.012333735073725371
3027.0,0.012870232340102872
3026.0,0.01318349541446362
3025.0,0.013317820220494436
3024.0,0.01322826573375524
3023.0,0.013004460275618523
3022.0,0.012691326268817527
3021.0,0.012289056869694281
3020.0,0.011797899741219142
3019.0,0.011307297450183107
3018.0,0.01086177578421088
3017.0,0.010505687227290839
3016.0,0.010149890396819572
3015.0,0.009838807101520963
3014.0,0.009572341514736404
3013.0,0.009350411681145587
3012.0,0.009217308196862062
3011.0,0.009128595198514056
3010.0,0.00908424549391551
3009.0,0.00908424549391551
3008.0,0.00908424549391551
3007.0,0.00908424549391551
3006.0,0.00908424549391551
3005.0,0.009128595198514056
3004.0,0.009172949432521227
3003.0,0.009261671492462709
3002.0,0.009306039320248427
3001.0,0.009350411681145587
3000.0,0.009306039320248427
2999.0,0.009217308196862062
2998.0,0.00908424549391551
2997.0,0.008906891951112605
2996.0,0.008773924307505121
2995.0,0.008640997362049818
2994.0,0.00850811108984062
2993.0,0.008463824699968647
2992.0,0.008463824699968647
2991.0,0.008419542825660153
2990.0,0.008375265465994541
2989.0,0.008286724286910463
2988.0,0.008198201155356077
2987.0,0.008109696063975047
2986.0,0.008065450281052211
2985.0,0.008065450281052211
2984.0,0.008065450281052211
2983.0,0.008153946355103248
2982.0,0.008198201155356077
2981.0,0.008198201155356077
2980.0,0.008153946355103248
2979.0,0.008153946355103248
2978.0,0.008153946355103248
2977.0,0.008198201155356077
2976.0,0.008286724286910463
2975.0,0.008375265465994541
2974.0,0.008419542825660153
2973.0,0.008419542825660153
2972.0,0.008463824699968647
2971.0,0.008463824699968647
2970.0,0.00850811108984062
2969.0,0.008552401996197112
2968.0,0.008596697419959609
2967.0,0.008640997362049818
2966.0,0.008773924307505121
2965.0,0.008906891951112605
2964.0,0.009039900317800775
2963.0,0.009128595198514056
2962.0,0.009172949432521227
2961.0,0.009217308196862062
2960.0,0.009306039320248427
2959.0,0.009439170005980158
2958.0,0.009527946474380489
2957.0,0.009616741093766423
2956.0,0.009616741093766423
2955.0,0.009705553871561357
2954.0,0.009794384815193347
2953.0,0.009927665307847056
2952.0,0.010105436281226954
2951.0,0.010194349063173958
2950.0,0.01023881228122181
2949.0,0.010283280051895272
2948.0,0.010283280051895272
2947.0,0.010327752376126709
2946.0,0.010505687227290839
2945.0,0.010683695010048622
2944.0,0.010906307389674463
2943.0,0.011129033935354915
2942.0,0.011307297450183107
2941.0,0.011530229790124524
2940.0,0.011797899741219142
2939.0,0.012199714248127602
2938.0,0.01264661126420652
2937.0,0.013138729709955221
2936.0,0.013676222949234651
2935.0,0.014169510141607944
2934.0,0.014663358264387139
2933.0,0.015202742910707112
2932.0,0.015742798294583915
2931.0,0.01628352608625061
2930.0,0.016824927962187042
2929.0,0.017321806616515723
2928.0,0.017864505196230507
2927.0,0.018362575344230914
2926.0,0.018815862601645694
2925.0,0.0192242260373785
2924.0,0.019451260640229506
2923.0,0.019632973815224997
2922.0,0.019769308608968306
2921.0,0.019814763052665052
2920.0,0.019814763052665052
2919.0,0.019769308608968306
2918.0,0.019678413991243593
2917.0,0.01954210772389997
2916.0,0.019360432556262852
2915.0,0.019133445417920836
2914.0,0.018906576854070378
2913.0,0.018679826740892747
2912.0,0.018498511851753108
2911.0,0.01831727262871463
2910.0,0.01809082990920774
2909.0,0.017864505196230507
2908.0,0.017638298366853045
2907.0,0.017412209298337533
2906.0,0.017186237868137555
2905.0,0.017005545341335804
2904.0,0.01677978535189717
2903.0,0.016554142658660398
2902.0,0.016373712875465518
2901.0,0.016148281008528276
2900.0,0.015877917138889863
2899.0,0.015607721475734415
2898.0,0.015292705517326866
2897.0,0.015067833932588037
2896.0,0.014843078722943437
2895.0,0.014663358264387139
2894.0,0.01452861671041239
2893.0,0.014393916947563534
2892.0,0.014259258949925524
2891.0,0.014124642691606404
2890.0,0.013945219230304673
2889.0,0.013765869865004277
2888.0,0.013631406429727155
2887.0,0.013452186585275916
2886.0,0.013273040668781544
2885.0,0.013093968619278806
2884.0,0.012914970375878188
2883.0,0.012825498912458322
2882.0,0.012780770091995297
2881.0,0.012736045877764557
2880.0,0.01264661126420652
2879.0,0.012557195064198723
2878.0,0.012512493866907004
2877.0,0.012467797270160563
2876.0,0.012423105273012602
2875.0,0.012423105273012602
2874.0,0.012378417874516323
2873.0,0.012423105273012602
2872.0,0.012423105273012602
2871.0,0.012378417874516323
2870.0,0.012378417874516323
2869.0,0.012333735073725371
2868.0,0.012333735073725371
2867.0,0.012333735073725371
2866.0,0.012378417874516323
2865.0,0.012423105273012602
2864.0,0.012467797270160563
2863.0,0.012557195064198723
2862.0,0.012736045877764557
2861.0,0.012914970375878188
2860.0,0.01318349541446362
2859.0,0.013452186585275916
2858.0,0.013765869865004277
2857.0,0.014079779876432497
2856.0,0.014349026309051105
2855.0,0.014618439768003144
2854.0,0.014843078722943437
2853.0,0.014977917890464765
2852.0,0.015022873584506602
2851.0,0.015022873584506602
2850.0,0.014977917890464765
2849.0,0.014843078722943437
2848.0,0.014753209197138295
2847.0,0.014618439768003144
2846.0,0.014438812226654996
2845.0,0.014304140310157809
2844.0,0.014124642691606404
2843.0,0.013900374944870508
2842.0,0.013631406429727155
2841.0,0.013362604389846044
2840.0,0.013138729709955221
2839.0,0.012825498912458322
2838.0,0.012557195064198723
2837.0,0.012289056869694281
2836.0,0.012021084124518078
2835.0,0.011753276624621556
2834.0,0.011574829993696856
2833.0,0.011396456654336085
2832.0,0.011262724711199823
2831.0,0.01117359295472431
2830.0,0.011039929609661936
2829.0,0.010950843561779777
2828.0,0.01086177578421088
2827.0,0.010817248744452446
2826.0,0.01077272626946324
2825.0,0.010728208358306901
2824.0,0.010639186223752484
2823.0,0.010594681998483901
2822.0,0.010550182333308289
2821.0,0.010505687227290839
2820.0,0.01046119667949763
2819.0,0.010416710688994968
2818.0,0.010416710688994968
2817.0,0.010327752376126709
2816.0,0.010283280051895272
2815.0,0.01023881228122181
2814.0,0.010194349063173958
2813.0,0.010149890396819572
2812.0,0.010105436281226954
2811.0,0.010060986715464404
2810.0,0.009972101229705377
2809.0,0.009927665307847056
2808.0,0.009927665307847056
2807.0,0.009927665307847056
2806.0,0.009972101229705377
2805.0,0.01001654169860089
2804.0,0.010060986715464404
2803.0,0.01001654169860089
2802.0,0.009972101229705377
2801.0,0.009883233932095559
2800.0,0.009838807101520963
2799.0,0.009838807101520963
2798.0,0.009838807101520963
2797.0,0.009883233932095559
2796.0,0.009838807101520963
2795.0,0.009838807101520963
2794.0,0.009794384815193347
2793.0,0.00974996707218323
2792.0,0.009705553871561357
2791.0,0.00966114521239847
2790.0,0.009616741093766423
2789.0,0.009616741093766423
2788.0,0.009616741093766423
2787.0,0.00966114521239847
2786.0,0.009705553871561357
2785.0,0.00974996707218323
2784.0,0.00974996707218323
2783.0,0.00974996707218323
2782.0,0.009705553871561357
2781.0,0.00966114521239847
2780.0,0.009616741093766423
2779.0,0.009616741093766423
2778.0,0.009572341514736404
2777.0,0.009527946474380489
2776.0,0.009572341514736404
2775.0,0.009572341514736404
2774.0,0.009572341514736404
2773.0,0.009527946474380489
2772.0,0.009483555971770974
2771.0,0.009527946474380489
2770.0,0.009572341514736404
2769.0,0.009572341514736404
2768.0,0.009527946474380489
2767.0,0.009483555971770974
2766.0,0.009439170005980158
2765.0,0.009483555971770974
2764.0,0.009527946474380489
2763.0,0.009572341514736404
2762.0,0.009572341514736404
2761.0,0.009527946474380489
2760.0,0.009483555971770974
2759.0,0.009439170005980158
2758.0,0.009439170005980158
2757.0,0.009439170005980158
2756.0,0.009483555971770974
2755.0,0.009527946474380489
2754.0,0.009527946474380489
2753.0,0.009483555971770974
2752.0,0.009439170005980158
2751.0,0.009439170005980158
2750.0,0.009439170005980158
2749.0,0.009439170005980158
2748.0,0.009439170005980158
2747.0,0.009439170005980158
2746.0,0.00939478857608056
2745.0,0.00939478857608056
2744.0,0.00939478857608056
2743.0,0.00939478857608056
2742.0,0.00939478857608056
2741.0,0.00939478857608056
2740.0,0.00939478857608056
2739.0,0.009439170005980158
2738.0,0.009439170005980158
2737.0,0.009483555971770974
2736.0,0.009439170005980158
2735.0,0.009439170005980158
2734.0,0.009439170005980158
2733.0,0.009439170005980158
2732.0,0.009439170005980158
2731.0,0.009483555971770974
2730.0,0.009483555971770974
2729.0,0.009483555971770974
2728.0,0.009439170005980158
2727.0,0.00939478857608056
2726.0,0.009350411681145587
2725.0,0.009350411681145587
2724.0,0.009350411681145587
2723.0,0.00939478857608056
2722.0,0.00939478857608056
2721.0,0.009350411681145587
2720.0,0.009350411681145587
2719.0,0.009306039320248427
2718.0,0.009350411681145587
2717.0,0.00939478857608056
2716.0,0.009439170005980158
2715.0,0.009439170005980158
2714.0,0.00939478857608056
2713.0,0.009350411681145587
2712.0,0.009350411681145587
2711.0,0.009306039320248427
2710.0,0.009350411681145587
2709.0,0.009350411681145587
2708.0,0.009350411681145587
2707.0,0.00939478857608056
2706.0,0.00939478857608056
2705.0,0.00939478857608056
2704.0,0.009439170005980158
2703.0,0.009483555971770974
2702.0,0.009527946474380489
2701.0,0.009527946474380489
2700.0,0.009483555971770974
2699.0,0.009439170005980158
2698.0,0.009439170005980158
2697.0,0.00939478857608056
2696.0,0.009439170005980158
2695.0,0.009483555971770974
2694.0,0.009527946474380489
2693.0,0.009572341514736404
2692.0,0.009572341514736404
2691.0,0.009527946474380489
2690.0,0.009483555971770974
2689.0,0.009483555971770974
2688.0,0.009483555971770974
2687.0,0.009483555971770974
2686.0,0.009483555971770974
2685.0,0.009483555971770974
2684.0,0.009439170005980158
2683.0,0.009439170005980158
2682.0,0.00939478857608056
2681.0,0.00939478857608056
2680.0,0.00939478857608056
2679.0,0.009439170005980158
2678.0,0.00939478857608056
2677.0,0.009350411681145587
2676.0,0.009306039320248427
2675.0,0.009306039320248427
2674.0,0.009306039320248427
2673.0,0.009306039320248427
2672.0,0.009306039320248427
2671.0,0.009350411681145587
2670.0,0.00939478857608056
2669.0,0.009439170005980158
2668.0,0.009483555971770974
2667.0,0.009483555971770974
2666.0,0.009483555971770974
2665.0,0.009439170005980158
2664.0,0.009439170005980158
2663.0,0.009439170005980158
2662.0,0.009439170005980158
2661.0,0.009527946474380489
2660.0,0.009572341514736404
2659.0,0.009527946474380489
2658.0,0.009483555971770974
2657.0,0.00939478857608056
2656.0,0.009350411681145587
2655.0,0.009350411681145587
2654.0,0.009350411681145587
2653.0,0.00939478857608056
2652.0,0.009439170005980158
2651.0,0.009483555971770974
2650.0,0.009527946474380489
2649.0,0.009527946474380489
2648.0,0.009527946474380489
2647.0,0.009483555971770974
2646.0,0.009439170005980158
2645.0,0.009439170005980158
2644.0,0.009439170005980158
2643.0,0.009483555971770974
2642.0,0.009527946474380489
2641.0,0.009527946474380489
2640.0,0.009572341514736404
2639.0,0.009572341514736404
2638.0,0.009616741093766423
2637.0,0.009616741093766423
2636.0,0.009616741093766423
2635.0,0.009616741093766423
2634.0,0.009572341514736404
2633.0,0.009572341514736404
2632.0,0.009572341514736404
2631.0,0.009616741093766423
2630.0,0.009705553871561357
2629.0,0.009705553871561357
2628.0,0.009705553871561357
2627.0,0.00966114521239847
2626.0,0.009616741093766423
2625.0,0.009616741093766423
2624.0,0.00966114521239847
2623.0,0.00966114521239847
2622.0,0.00966114521239847
2621.0,0.009616741093766423
2620.0,0.009616741093766423
2619.0,0.009572341514736404
2618.0,0.009527946474380489
2617.0,0.009527946474380489
2616.0,0.009527946474380489
2615.0,0.009572341514736404
2614.0,0.009572341514736404
2613.0,0.009616741093766423
2612.0,0.009616741093766423
2611.0,0.009616741093766423
2610.0,0.009616741093766423
2609.0,0.009572341514736404
2608.0,0.009572341514736404
2607.0,0.009527946474380489
2606.0,0.009572341514736404
2605.0,0.009572341514736404
2604.0,0.009572341514736404
2603.0,0.009616741093766423
2602.0,0.00966114521239847
2601.0,0.009705553871561357
2600.0,0.009705553871561357
2599.0,0.00966114521239847
2598.0,0.009705553871561357
2597.0,0.00974996707218323
2596.0,0.009794384815193347
2595.0,0.009838807101520963
2594.0,0.009794384815193347
2593.0,0.00974996707218323
2592.0,0.009705553871561357
2591.0,0.009705553871561357
2590.0,0.009705553871561357
2589.0,0.00974996707218323
2588.0,0.00974996707218323
2587.0,0.00974996707218323
2586.0,0.00974996707218323
2585.0,0.009705553871561357
2584.0,0.009705553871561357
2583.0,0.009705553871561357
2582.0,0.00974996707218323
2581.0,0.009794384815193347
2580.0,0.00974996707218323
2579.0,0.00974996707218323
2578.0,0.009705553871561357
2577.0,0.009705553871561357
2576.0,0.009705553871561357
2575.0,0.00974996707218323
2574.0,0.00974996707218323
2573.0,0.009794384815193347
2572.0,0.009838807101520963
2571.0,0.009794384815193347
2570.0,0.00974996707218323
2569.0,0.00966114521239847
2568.0,0.00966114521239847
2567.0,0.00966114521239847
2566.0,0.009705553871561357
2565.0,0.00974996707218323
2564.0,0.009794384815193347
2563.0,0.009794384815193347
2562.0,0.009794384815193347
2561.0,0.009794384815193347
2560.0,0.009838807101520963
2559.0,0.009838807101520963
2558.0,0.009838807101520963
2557.0,0.009838807101520963
2556.0,0.009794384815193347
2555.0,0.009794384815193347
2554.0,0.009794384815193347
2553.0,0.009794384815193347
2552.0,0.009794384815193347
2551.0,0.009838807101520963
2550.0,0.009838807101520963
2549.0,0.009838807101520963
2548.0,0.009838807101520963
2547.0,0.009838807101520963
2546.0,0.009794384815193347
2545.0,0.00974996707218323
2544.0,0.00974996707218323
2543.0,0.009794384815193347
2542.0,0.009838807101520963
2541.0,0.009883233932095559
2540.0,0.009927665307847056
2539.0,0.009927665307847056
2538.0,0.009883233932095559
2537.0,0.009838807101520963
2536.0,0.009794384815193347
2535.0,0.009838807101520963
2534.0,0.009883233932095559
2533.0,0.009927665307847056
2532.0,0.009927665307847056
2531.0,0.009927665307847056
2530.0,0.009883233932095559
2529.0,0.009883233932095559
2528.0,0.009838807101520963
2527.0,0.009794384815193347
2526.0,0.009794384815193347
2525.0,0.009794384815193347
2524.0,0.009883233932095559
2523.0,0.009927665307847056
2522.0,0.009972101229705377
2521.0,0.01001654169860089
2520.0,0.009972101229705377
2519.0,0.009972101229705377
2518.0,0.009927665307847056
2517.0,0.009927665307847056
2516.0,0.009972101229705377
2515.0,0.01001654169860089
2514.0,0.010060986715464404
2513.0,0.010105436281226954
2512.0,0.010060986715464404
2511.0,0.010060986715464404
2510.0,0.01001654169860089
2509.0,0.01001654169860089
2508.0,0.01001654169860089
2507.0,0.009972101229705377
2506.0,0.009972101229705377
2505.0,0.009883233932095559
2504.0,0.009838807101520963
2503.0,0.009838807101520963
2502.0,0.009883233932095559
2501.0,0.009927665307847056
2500.0,0.009972101229705377
2499.0,0.009972101229705377
2498.0,0.009972101229705377
2497.0,0.009927665307847056
2496.0,0.009927665307847056
2495.0,0.009883233932095559
2494.0,0.009927665307847056
2493.0,0.009972101229705377
2492.0,0.010060986715464404
2491.0,0.010105436281226954
2490.0,0.010149890396819572
2489.0,0.010105436281226954
2488.0,0.010105436281226954
2487.0,0.010060986715464404
2486.0,0.01001654169860089
2485.0,0.009972101229705377
2484.0,0.009927665307847056
2483.0,0.009927665307847056
2482.0,0.009927665307847056
2481.0,0.009972101229705377
2480.0,0.01001654169860089
2479.0,0.01001654169860089
2478.0,0.01001654169860089
2477.0,0.01001654169860089
2476.0,0.009972101229705377
2475.0,0.01001654169860089
2474.0,0.01001654169860089
2473.0,0.01001654169860089
2472.0,0.010060986715464404
2471.0,0.010105436281226954
2470.0,0.010105436281226954
2469.0,0.010149890396819572
2468.0,0.010149890396819572
2467.0,0.010149890396819572
2466.0,0.010194349063173958
2465.0,0.01023881228122181
2464.0,0.01023881228122181
2463.0,0.01023881228122181
2462.0,0.01023881228122181
2461.0,0.010194349063173958
2460.0,0.010149890396819572
2459.0,0.010105436281226954
2458.0,0.010060986715464404
2457.0,0.010060986715464404
2456.0,0.010060986715464404
2455.0,0.010105436281226954
2454.0,0.010105436281226954
2453.0,0.010105436281226954
2452.0,0.010105436281226954
2451.0,0.010105436281226954
2450.0,0.010105436281226954
2449.0,0.010105436281226954
2448.0,0.010149890396819572
2447.0,0.010105436281226954
2446.0,0.010060986715464404
2445.0,0.01001654169860089
2444.0,0.01001654169860089
2443.0,0.010060986715464404
2442.0,0.010105436281226954
2441.0,0.010149890396819572
2440.0,0.010149890396819572
2439.0,0.010149890396819572
2438.0,0.010149890396819572
2437.0,0.010149890396819572
2436.0,0.010194349063173958
2435.0,0.010194349063173958
2434.0,0.01023881228122181
2433.0,0.01023881228122181
2432.0,0.01023881228122181
2431.0,0.01023881228122181
2430.0,0.010194349063173958
2429.0,0.010194349063173958
2428.0,0.010194349063173958
2427.0,0.01023881228122181
2426.0,0.010283280051895272
2425.0,0.010327752376126709
2424.0,0.01037222925484893
2423.0,0.01037222925484893
2422.0,0.010327752376126709
2421.0,0.010283280051895272
2420.0,0.010283280051895272
2419.0,0.01023881228122181
2418.0,0.01023881228122181
2417.0,0.010283280051895272
2416.0,0.010283280051895272
2415.0,0.01023881228122181
2414.0,0.010194349063173958
2413.0,0.010194349063173958
2412.0,0.010149890396819572
2411.0,0.010194349063173958
2410.0,0.01023881228122181
2409.0,0.010283280051895272
2408.0,0.010327752376126709
2407.0,0.01037222925484893
2406.0,0.01037222925484893
2405.0,0.01037222925484893
2404.0,0.01037222925484893
2403.0,0.010327752376126709
2402.0,0.010327752376126709
2401.0,0.010327752376126709
2400.0,0.010283280051895272
2399.0,0.010283280051895272
2398.0,0.01023881228122181
2397.0,0.01023881228122181
2396.0,0.010283280051895272
2395.0,0.010327752376126709
2394.0,0.010327752376126709
2393.0,0.01037222925484893
2392.0,0.01037222925484893
2391.0,0.01037222925484893
2390.0,0.01037222925484893
2389.0,0.01037222925484893
2388.0,0.010416710688994968
2387.0,0.010416710688994968
2386.0,0.010416710688994968
2385.0,0.010416710688994968
2384.0,0.01037222925484893
2383.0,0.01037222925484893
2382.0,0.010327752376126709
2381.0,0.010283280051895272
2380.0,0.010194349063173958
2379.0,0.010105436281226954
2378.0,0.010105436281226954
2377.0,0.010194349063173958
2376.0,0.01037222925484893
2375.0,0.010594681998483901
2374.0,0.01077272626946324
2373.0,0.010817248744452446
2372.0,0.010683695010048622
2371.0,0.01046119667949763
2370.0,0.01023881228122181
2369.0,0.010194349063173958
2368.0,0.010149890396819572
2367.0,0.010149890396819572
2366.0,0.010327752376126709
2365.0,0.010639186223752484
2364.0,0.010906307389674463
2363.0,0.01086177578421088
2362.0,0.01077272626946324
2361.0,0.01086177578421088
2360.0,0.010995384301463185
2359.0,0.010817248744452446
2358.0,0.01046119667949763
2357.0,0.010060986715464404
2356.0,0.009572341514736404
2355.0,0.00908424549391551
2354.0,0.008862564879688284
2353.0,0.008995559669244813
2352.0,0.009439170005980158
2351.0,0.009838807101520963
2350.0,0.010060986715464404
2349.0,0.010194349063173958
2348.0,0.010283280051895272
2347.0,0.010327752376126709
2346.0,0.010283280051895272
2345.0,0.010194349063173958
2344.0,0.010194349063173958
2343.0,0.010327752376126709
2342.0,0.010594681998483901
2341.0,0.010817248744452446
2340.0,0.010817248744452446
2339.0,0.010639186223752484
2338.0,0.010327752376126709
2337.0,0.010194349063173958
2336.0,0.01023881228122181
2335.0,0.01037222925484893
2334.0,0.010416710688994968
2333.0,0.010416710688994968
2332.0,0.01037222925484893
2331.0,0.01023881228122181
2330.0,0.01001654169860089
2329.0,0.00974996707218323
2328.0,0.009527946474380489
2327.0,0.009527946474380489
2326.0,0.009838807101520963
2325.0,0.010327752376126709
2324.0,0.010728208358306901
2323.0,0.01086177578421088
2322.0,0.01077272626946324
2321.0,0.010683695010048622
2320.0,0.010639186223752484
2319.0,0.010683695010048622
2318.0,0.010728208358306901
2317.0,0.010817248744452446
2316.0,0.010906307389674463
2315.0,0.010995384301463185
2314.0,0.010995384301463185
2313.0,0.011039929609661936
2312.0,0.011084479487313281
2311.0,0.011129033935354915
2310.0,0.01117359295472431
2309.0,0.011218156546359825
2308.0,0.01117359295472431
2307.0,0.011129033935354915
2306.0,0.011039929609661936
2305.0,0.010995384301463185
2304.0,0.010995384301463185
2303.0,0.011039929609661936
2302.0,0.011084479487313281
2301.0,0.011129033935354915
2300.0,0.01117359295472431
2299.0,0.011218156546359825
2298.0,0.011218156546359825
2297.0,0.011218156546359825
2296.0,0.011218156546359825
2295.0,0.011262724711199823
2294.0,0.011218156546359825
2293.0,0.01117359295472431
2292.0,0.011218156546359825
2291.0,0.011262724711199823
2290.0,0.011351874764248926
2289.0,0.011441043121384498
2288.0,0.011441043121384498
2287.0,0.011396456654336085
2286.0,0.011351874764248926
2285.0,0.011307297450183107
2284.0,0.011351874764248926
2283.0,0.011396456654336085
2282.0,0.011441043121384498
2281.0,0.011396456654336085
2280.0,0.011396456654336085
2279.0,0.011396456654336085
2278.0,0.011351874764248926
2277.0,0.011351874764248926
2276.0,0.011351874764248926
2275.0,0.011351874764248926
2274.0,0.011351874764248926
2273.0,0.011441043121384498
2272.0,0.011530229790124524
2271.0,0.011574829993696856
2270.0,0.011574829993696856
2269.0,0.011530229790124524
2268.0,0.011530229790124524
2267.0,0.011530229790124524
2266.0,0.011530229790124524
2265.0,0.011530229790124524
2264.0,0.011530229790124524
2263.0,0.011530229790124524
2262.0,0.011574829993696856
2261.0,0.011619434777991433
2260.0,0.011664044143949504
2259.0,0.011753276624621556
2258.0,0.011797899741219142
2257.0,0.011797899741219142
2256.0,0.011797899741219142
2255.0,0.011797899741219142
2254.0,0.011797899741219142
2253.0,0.011797899741219142
2252.0,0.011842527443247208
2251.0,0.011887159731648111
2250.0,0.011931796607364653
2249.0,0.011931796607364653
2248.0,0.011887159731648111
2247.0,0.011842527443247208
2246.0,0.011797899741219142
2245.0,0.011753276624621556
2244.0,0.011797899741219142
2243.0,0.011842527443247208
2242.0,0.011887159731648111
2241.0,0.011931796607364653
2240.0,0.011887159731648111
2239.0,0.011887159731648111
2238.0,0.011842527443247208
2237.0,0.011842527443247208
2236.0,0.011842527443247208
2235.0,0.011842527443247208
2234.0,0.011887159731648111
2233.0,0.011887159731648111
2232.0,0.011931796607364653
2231.0,0.0119764380713403
2230.0,0.012021084124518078
2229.0,0.012021084124518078
2228.0,0.012021084124518078
2227.0,0.012021084124518078
2226.0,0.0119764380713403
2225.0,0.012021084124518078
2224.0,0.012021084124518078
2223.0,0.012021084124518078
2222.0,0.012021084124518078
2221.0,0.012021084124518078
2220.0,0.012021084124518078
2219.0,0.012021084124518078
2218.0,0.012065734767841452
2217.0,0.012110390002254778
2216.0,0.01215504982870197
2215.0,0.012110390002254778
2214.0,0.012110390002254778
2213.0,0.012110390002254778
2212.0,0.012110390002254778
2211.0,0.01215504982870197
2210.0,0.01215504982870197
2209.0,0.01215504982870197
2208.0,0.01215504982870197
2207.0,0.01215504982870197
2206.0,0.01215504982870197
2205.0,0.01215504982870197
2204.0,0.012199714248127602
2203.0,0.012199714248127602
2202.0,0.012244383261476699
2201.0,0.012244383261476699
2200.0,0.012289056869694281
2199.0,0.012244383261476699
2198.0,0.012199714248127602
2197.0,0.012199714248127602
2196.0,0.012199714248127602
2195.0,0.012199714248127602
2194.0,0.012244383261476699
2193.0,0.012244383261476699
2192.0,0.012289056869694281
2191.0,0.012289056869694281
2190.0,0.012289056869694281
2189.0,0.012289056869694281
2188.0,0.012333735073725371
2187.0,0.012378417874516323
2186.0,0.012378417874516323
2185.0,0.012378417874516323
2184.0,0.012378417874516323
2183.0,0.012333735073725371
2182.0,0.012289056869694281
2181.0,0.012244383261476699
2180.0,0.012199714248127602
2179.0,0.01215504982870197
2178.0,0.01215504982870197
2177.0,0.01215504982870197
2176.0,0.012199714248127602
2175.0,0.012244383261476699
2174.0,0.012244383261476699
2173.0,0.012289056869694281
2172.0,0.012333735073725371
2171.0,0.012378417874516323
2170.0,0.012333735073725371
2169.0,0.012333735073725371
2168.0,0.012289056869694281
2167.0,0.012244383261476699
2166.0,0.012244383261476699
2165.0,0.012244383261476699
2164.0,0.012289056869694281
2163.0,0.012289056869694281
2162.0,0.012289056869694281
2161.0,0.012289056869694281
2160.0,0.012289056869694281
2159.0,0.012289056869694281
2158.0,0.012333735073725371
2157.0,0.012378417874516323
2156.0,0.012423105273012602
2155.0,0.012423105273012602
2154.0,0.012378417874516323
2153.0,0.012378417874516323
2152.0,0.012423105273012602
2151.0,0.012423105273012602
2150.0,0.012423105273012602
2149.0,0.012423105273012602
2148.0,0.012378417874516323
2147.0,0.012423105273012602
2146.0,0.012467797270160563
2145.0,0.012512493866907004
2144.0,0.012512493866907004
2143.0,0.012467797270160563
2142.0,0.012467797270160563
2141.0,0.012512493866907004
2140.0,0.012512493866907004
2139.0,0.012512493866907004
2138.0,0.012512493866907004
2137.0,0.012467797270160563
2136.0,0.012467797270160563
2135.0,0.012467797270160563
2134.0,0.012467797270160563
2133.0,0.012467797270160563
2132.0,0.012467797270160563
2131.0,0.012512493866907004
2130.0,0.012512493866907004
2129.0,0.01260190086298274
2128.0,0.01264661126420652
2127.0,0.012691326268817527
2126.0,0.01264661126420652
2125.0,0.01260190086298274
2124.0,0.012557195064198723
2123.0,0.012512493866907004
2122.0,0.012512493866907004
2121.0,0.012557195064198723
2120.0,0.01260190086298274
2119.0,0.01264661126420652
2118.0,0.01264661126420652
2117.0,0.01260190086298274
2116.0,0.01260190086298274
2115.0,0.01260190086298274
2114.0,0.01260190086298274
2113.0,0.01264661126420652
2112.0,0.012691326268817527
2111.0,0.012691326268817527
2110.0,0.012691326268817527
2109.0,0.012691326268817527
2108.0,0.012691326268817527
2107.0,0.012736045877764557
2106.0,0.012736045877764557
2105.0,0.012736045877764557
2104.0,0.012691326268817527
2103.0,0.012691326268817527
2102.0,0.012691326268817527
2101.0,0.012691326268817527
2100.0,0.012691326268817527
2099.0,0.012691326268817527
2098.0,0.012691326268817527
2097.0,0.012691326268817527
2096.0,0.012691326268817527
2095.0,0.01264661126420652
2094.0,0.01264661126420652
2093.0,0.01264661126420652
2092.0,0.01264661126420652
2091.0,0.01264661126420652
2090.0,0.01264661126420652
2089.0,0.01264661126420652
2088.0,0.01260190086298274
2087.0,0.01260190086298274
2086.0,0.01260190086298274
2085.0,0.012691326268817527
2084.0,0.012736045877764557
2083.0,0.012780770091995297
2082.0,0.012736045877764557
2081.0,0.012691326268817527
2080.0,0.012691326268817527
2079.0,0.01264661126420652
2078.0,0.01260190086298274
2077.0,0.01260190086298274
2076.0,0.01260190086298274
2075.0,0.012691326268817527
2074.0,0.012736045877764557
2073.0,0.012780770091995297
2072.0,0.012736045877764557
2071.0,0.012736045877764557
2070.0,0.012736045877764557
2069.0,0.012780770091995297
2068.0,0.012780770091995297
2067.0,0.012736045877764557
2066.0,0.012691326268817527
2065.0,0.01264661126420652
2064.0,0.01264661126420652
2063.0,0.01264661126420652
2062.0,0.01264661126420652
2061.0,0.012691326268817527
2060.0,0.012736045877764557
2059.0,0.012780770091995297
2058.0,0.012780770091995297
2057.0,0.012780770091995297
2056.0,0.012736045877764557
2055.0,0.012736045877764557
2054.0,0.012736045877764557
2053.0,0.012691326268817527
2052.0,0.012691326268817527
2051.0,0.012691326268817527
2050.0,0.012691326268817527
2049.0,0.012736045877764557
2048.0,0.012736045877764557
2047.0,0.012736045877764557
2046.0,0.012736045877764557
2045.0,0.012736045877764557
2044.0,0.012736045877764557
2043.0,0.012780770091995297
2042.0,0.012780770091995297
2041.0,0.012780770091995297
2040.0,0.012780770091995297
2039.0,0.012780770091995297
2038.0,0.012825498912458322
2037.0,0.012825498912458322
2036.0,0.012870232340102872
2035.0,0.012870232340102872
2034.0,0.012825498912458322
2033.0,0.012825498912458322
2032.0,0.012780770091995297
2031.0,0.012780770091995297
2030.0,0.012780770091995297
2029.0,0.012825498912458322
2028.0,0.012825498912458322
2027.0,0.012825498912458322
2026.0,0.012825498912458322
2025.0,0.012825498912458322
2024.0,0.012825498912458322
2023.0,0.012825498912458322
2022.0,0.012825498912458322
2021.0,0.012825498912458322
2020.0,0.012780770091995297
2019.0,0.012780770091995297
2018.0,0.012780770091995297
2017.0,0.012780770091995297
2016.0,0.012825498912458322
2015.0,0.012870232340102872
2014.0,0.012870232340102872
2013.0,0.012870232340102872
2012.0,0.012825498912458322
2011.0,0.012825498912458322
2010.0,0.012870232340102872
2009.0,0.012870232340102872
2008.0,0.012914970375878188
2007.0,0.012914970375878188
2006.0,0.012914970375878188
2005.0,0.012870232340102872
2004.0,0.012870232340102872
2003.0,0.012870232340102872
2002.0,0.012870232340102872
2001.0,0.012914970375878188
2000.0,0.012959713020733288
1999.0,0.013004460275618523
1998.0,0.013004460275618523
1997.0,0.012959713020733288
1996.0,0.012959713020733288
1995.0,0.012914970375878188
1994.0,0.012959713020733288
1993.0,0.012959713020733288
1992.0,0.013004460275618523
1991.0,0.013049212141483357
1990.0,0.013093968619278806
1989.0,0.013049212141483357
1988.0,0.013049212141483357
1987.0,0.013004460275618523
1986.0,0.013004460275618523
1985.0,0.013049212141483357
1984.0,0.013093968619278806
1983.0,0.013093968619278806
1982.0,0.013093968619278806
1981.0,0.013093968619278806
1980.0,0.013093968619278806
1979.0,0.013093968619278806
1978.0,0.013093968619278806
1977.0,0.013093968619278806
1976.0,0.013093968619278806
1975.0,0.013093968619278806
1974.0,0.013093968619278806
1973.0,0.013093968619278806
1972.0,0.013093968619278806
1971.0,0.013093968619278806
1970.0,0.013138729709955221
1969.0,0.013138729709955221
1968.0,0.01318349541446362
1967.0,0.013273040668781544
1966.0,0.013317820220494436
1965.0,0.013362604389846044
1964.0,0.013362604389846044
1963.0,0.013407393177789162
1962.0,0.013407393177789162
1961.0,0.013452186585275916
1960.0,0.013496984613259544
1959.0,0.013541787262693505
1958.0,0.013586594534531482
1957.0,0.013676222949234651
1956.0,0.01372104409400876
1955.0,0.01372104409400876
1954.0,0.013765869865004277
1953.0,0.013765869865004277
1952.0,0.01381070026317599
1951.0,0.01385553528947936
1950.0,0.013900374944870508
1949.0,0.013945219230304673
1948.0,0.01403492169512921
1947.0,0.014124642691606404
1946.0,0.014214382227394795
1945.0,0.014349026309051105
1944.0,0.014438812226654996
1943.0,0.0144837121472845
1942.0,0.01452861671041239
1941.0,0.01452861671041239
1940.0,0.01452861671041239
1939.0,0.0144837121472845
1938.0,0.014438812226654996
1937.0,0.014393916947563534
1936.0,0.014349026309051105
1935.0,0.014304140310157809
1934.0,0.014259258949925524
1933.0,0.014214382227394795
1932.0,0.014169510141607944
1931.0,0.014124642691606404
1930.0,0.014079779876432497
1929.0,0.01403492169512921
1928.0,0.01403492169512921
1927.0,0.013990068146738865
1926.0,0.013945219230304673
1925.0,0.01385553528947936
1924.0,0.01381070026317599
1923.0,0.013765869865004277
1922.0,0.013765869865004277
1921.0,0.013765869865004277
1920.0,0.013765869865004277
1919.0,0.013765869865004277
1918.0,0.01372104409400876
1917.0,0.01372104409400876
1916.0,0.01372104409400876
1915.0,0.01372104409400876
1914.0,0.01372104409400876
1913.0,0.01372104409400876
1912.0,0.013676222949234651
1911.0,0.013631406429727155
1910.0,0.013586594534531482
1909.0,0.013586594534531482
1908.0,0.013631406429727155
1907.0,0.013631406429727155
1906.0,0.013586594534531482
1905.0,0.013586594534531482
1904.0,0.013586594534531482
1903.0,0.013586594534531482
1902.0,0.013586594534531482
1901.0,0.013586594534531482
1900.0,0.013631406429727155
1899.0,0.013631406429727155
1898.0,0.013676222949234651
1897.0,0.01372104409400876
1896.0,0.013765869865004277
1895.0,0.01381070026317599
1894.0,0.01385553528947936
1893.0,0.013900374944870508
1892.0,0.013900374944870508
1891.0,0.013900374944870508
1890.0,0.013900374944870508
1889.0,0.013945219230304673
1888.0,0.013990068146738865
1887.0,0.013990068146738865
1886.0,0.01403492169512921
1885.0,0.014079779876432497
1884.0,0.014169510141607944
1883.0,0.014259258949925524
1882.0,0.014304140310157809
1881.0,0.014349026309051105
1880.0,0.014393916947563534
1879.0,0.014393916947563534
1878.0,0.014393916947563534
1877.0,0.014393916947563534
1876.0,0.014393916947563534
1875.0,0.014393916947563534
1874.0,0.014438812226654996
1873.0,0.0144837121472845
1872.0,0.0144837121472845
1871.0,0.01452861671041239
1870.0,0.014618439768003144
1869.0,0.014753209197138295
1868.0,0.014843078722943437
1867.0,0.014843078722943437
1866.0,0.014843078722943437
1865.0,0.014798141635428141
1864.0,0.014798141635428141
1863.0,0.014753209197138295
1862.0,0.014708281407112
1861.0,0.014663358264387139
1860.0,0.014618439768003144
1859.0,0.014573525916998342
1858.0,0.0144837121472845
1857.0,0.0144837121472845
1856.0,0.0144837121472845
1855.0,0.014438812226654996
1854.0,0.014393916947563534
1853.0,0.014349026309051105
1852.0,0.014349026309051105
1851.0,0.014304140310157809
1850.0,0.014259258949925524
1849.0,0.014214382227394795
1848.0,0.014169510141607944
1847.0,0.014169510141607944
1846.0,0.014169510141607944
1845.0,0.014214382227394795
1844.0,0.014304140310157809
1843.0,0.014304140310157809
1842.0,0.014259258949925524
1841.0,0.014214382227394795
1840.0,0.014169510141607944
1839.0,0.014124642691606404
1838.0,0.014079779876432497
1837.0,0.014079779876432497
1836.0,0.014124642691606404
1835.0,0.014169510141607944
1834.0,0.014169510141607944
1833.0,0.014169510141607944
1832.0,0.014169510141607944
1831.0,0.014169510141607944
1830.0,0.014169510141607944
1829.0,0.014214382227394795
1828.0,0.014214382227394795
1827.0,0.014259258949925524
1826.0,0.014304140310157809
1825.0,0.014349026309051105
1824.0,0.014393916947563534
1823.0,0.014393916947563534
1822.0,0.014438812226654996
1821.0,0.0144837121472845
1820.0,0.0144837121472845
1819.0,0.0144837121472845
1818.0,0.0144837121472845
1817.0,0.0144837121472845
1816.0,0.01452861671041239
1815.0,0.01452861671041239
1814.0,0.01452861671041239
1813.0,0.014573525916998342
1812.0,0.014618439768003144
1811.0,0.014708281407112
1810.0,0.014798141635428141
1809.0,0.014843078722943437
1808.0,0.014932966849499074
1807.0,0.014977917890464765
1806.0,0.015022873584506602
1805.0,0.015112798935672522
1804.0,0.015157768594724175
1803.0,0.015202742910707112
1802.0,0.015202742910707112
1801.0,0.015247721884586563
1800.0,0.015292705517326866
1799.0,0.015292705517326866
1798.0,0.015292705517326866
1797.0,0.015247721884586563
1796.0,0.015202742910707112
1795.0,0.015157768594724175
1794.0,0.015112798935672522
1793.0,0.015022873584506602
1792.0,0.015022873584506602
1791.0,0.014977917890464765
1790.0,0.014977917890464765
1789.0,0.014932966849499074
1788.0,0.014888020460646079
1787.0,0.014843078722943437
1786.0,0.014753209197138295
1785.0,0.014753209197138295
1784.0,0.014708281407112
1783.0,0.014708281407112
1782.0,0.014663358264387139
1781.0,0.014663358264387139
1780.0,0.014663358264387139
1779.0,0.014663358264387139
1778.0,0.014663358264387139
1777.0,0.014618439768003144
1776.0,0.014618439768003144
1775.0,0.014618439768003144
1774.0,0.014618439768003144
1773.0,0.014618439768003144
1772.0,0.014663358264387139
1771.0,0.014663358264387139
1770.0,0.014618439768003144
1769.0,0.014618439768003144
1768.0,0.014663358264387139
1767.0,0.014708281407112
1766.0,0.014708281407112
1765.0,0.014708281407112
1764.0,0.014753209197138295
1763.0,0.014843078722943437
1762.0,0.014932966849499074
1761.0,0.014977917890464765
1760.0,0.015067833932588037
1759.0,0.015112798935672522
1758.0,0.015202742910707112
1757.0,0.01538268676325183
1756.0,0.015517693597737248
1755.0,0.015652742414136167
1754.0,0.015742798294583915
1753.0,0.015832872853011715
1752.0,0.016013078034810446
1751.0,0.016193358021584725
1750.0,0.01632861713980338
1749.0,0.016418813294209356
1748.0,0.016509028184833463
1747.0,0.016599261819461697
1746.0,0.016689514205884493
1745.0,0.016734647433454652
1744.0,0.01677978535189717
1743.0,0.01677978535189717
1742.0,0.01677978535189717
1741.0,0.016734647433454652
1740.0,0.016689514205884493
1739.0,0.016689514205884493
1738.0,0.016689514205884493
1737.0,0.016644385668211692
1736.0,0.016599261819461697
1735.0,0.016509028184833463
1734.0,0.016418813294209356
1733.0,0.016373712875465518
1732.0,0.01632861713980338
1731.0,0.01628352608625061
1730.0,0.016238439713835096
1729.0,0.016193358021584725
1728.0,0.016193358021584725
1727.0,0.016148281008528276
1726.0,0.016148281008528276
1725.0,0.016148281008528276
1724.0,0.016103208673694303
1723.0,0.016058141016111804
1722.0,0.01596801972881945
1721.0,0.015922966097169144
1720.0,0.015922966097169144
1719.0,0.015877917138889863
1718.0,0.015832872853011715
1717.0,0.01578783323856614
1716.0,0.015742798294583915
1715.0,0.015697768020096703
1714.0,0.01578783323856614
1713.0,0.015832872853011715
1712.0,0.015877917138889863
1711.0,0.015877917138889863
1710.0,0.015877917138889863
1709.0,0.015877917138889863
1708.0,0.015922966097169144
1707.0,0.01596801972881945
1706.0,0.01596801972881945
1705.0,0.016058141016111804
1704.0,0.016103208673694303
1703.0,0.016148281008528276
1702.0,0.016193358021584725
1701.0,0.01628352608625061
1700.0,0.01646391839700767
1699.0,0.016509028184833463
1698.0,0.01646391839700767
1697.0,0.016599261819461697
1696.0,0.016915227262211507
1695.0,0.017141057687924732
1694.0,0.01727661233145472
1693.0,0.017457417697056554
1692.0,0.01768353030793479
1691.0,0.017955020928509757
1690.0,0.01831727262871463
1689.0,0.018679826740892747
1688.0,0.019042683770379876
1687.0,0.0192242260373785
1686.0,0.01940584422377989
1685.0,0.019769308608968306
1684.0,0.02026956933771462
1683.0,0.020542681902151694
1682.0,0.02058821736556471
1681.0,0.020542681902151694
1680.0,0.020497151212598652
1679.0,0.020406104151069693
1678.0,0.020315076172974234
1677.0,0.02026956933771462
1676.0,0.020178569969774962
1675.0,0.02004210665933459
1674.0,0.01990568621470623
1673.0,0.019769308608968306
1672.0,0.019678413991243593
1671.0,0.01958753839310856
1670.0,0.019632973815224997
1669.0,0.019723858922159776
1668.0,0.019769308608968306
1667.0,0.019769308608968306
1666.0,0.019723858922159776
1665.0,0.019678413991243593
1664.0,0.019723858922159776
1663.0,0.019769308608968306
1662.0,0.019860222254245663
1661.0,0.01990568621470623
1660.0,0.01995115493504329
1659.0,0.01995115493504329
1658.0,0.019996628416253603
1657.0,0.019996628416253603
1656.0,0.019996628416253603
1655.0,0.019996628416253603
1654.0,0.019996628416253603
1653.0,0.01990568621470623
1652.0,0.019723858922159776
1651.0,0.01954210772389997
1650.0,0.01949668180660491
1649.0,0.01949668180660491
1648.0,0.01949668180660491
1647.0,0.01958753839310856
1646.0,0.019723858922159776
1645.0,0.019814763052665052
1644.0,0.01990568621470623
1643.0,0.01990568621470623
1642.0,0.01995115493504329
1641.0,0.01995115493504329
1640.0,0.01995115493504329
1639.0,0.01995115493504329
1638.0,0.01995115493504329
1637.0,0.019996628416253603
1636.0,0.02026956933771462
1635.0,0.02058821736556471
1634.0,0.020724852408976924
1633.0,0.02081596632558158
1632.0,0.020907099361673565
1631.0,0.021043834782408455
1630.0,0.0211806132671577
1629.0,0.0214542995372613
1628.0,0.021865152601710403
1627.0,0.022322112326006227
1626.0,0.022733787572707387
1625.0,0.023191662661933732
1624.0,0.023879381700184332
1623.0,0.024706084643793647
1622.0,0.025350165561278004
1621.0,0.025672564576383117
1620.0,0.025810808881832736
1619.0,0.025810808881832736
1618.0,0.02562649291857677
1617.0,0.02521206778644225
1616.0,0.024706084643793647
1615.0,0.024200690320592466
1614.0,0.023787622882622816
1613.0,0.023374947949272418
1612.0,0.02300845469384938
1611.0,0.022688026603074007
1610.0,0.02245929405346514
1609.0,0.02245929405346514
1608.0,0.022688026603074007
1607.0,0.023191662661933732
1606.0,0.023971159908874107
1605.0,0.02498200236711723
1604.0,0.02617967564731627
1603.0,0.027334407733889066
1602.0,0.02826040911222183
1601.0,0.028677754757187035
1600.0,0.02863136320857662
1599.0,0.02812138297373412
1598.0,0.027334407733889066
1597.0,0.02636422658259252
1596.0,0.02544225514642018
1595.0,0.02461415101053266
1594.0,0.024017056287453542
1593.0,0.02351246269481
1592.0,0.023054249440757957
1591.0,0.022688026603074007
1590.0,0.022322112326006227
1589.0,0.02204787879853809
1588.0,0.021910826943857264
1587.0,0.021956506090037076
1586.0,0.022230681908425698
1585.0,0.02255077261765881
1584.0,0.02282532397981263
1583.0,0.02300845469384938
1582.0,0.02291687968414724
1581.0,0.02259651912656535
1580.0,0.0221849739168134
1579.0,0.021773818325474092
1578.0,0.021317434843055594
1577.0,0.020907099361673565
1576.0,0.020633757603838898
1575.0,0.02045162529590483
1574.0,0.02036058777709271
1573.0,0.020315076172974234
1572.0,0.02026956933771462
1571.0,0.020178569969774962
1570.0,0.02013307743509718
1569.0,0.02004210665933459
1568.0,0.019996628416253603
1567.0,0.01990568621470623
1566.0,0.019814763052665052
1565.0,0.019769308608968306
1564.0,0.019723858922159776
1563.0,0.019678413991243593
1562.0,0.019632973815224997
1561.0,0.019451260640229506
1560.0,0.019269623464054586
1559.0,0.019360432556262852
1558.0,0.01954210772389997
1557.0,0.019632973815224997
1556.0,0.019632973815224997
1555.0,0.019632973815224997
1554.0,0.019632973815224997
1553.0,0.019632973815224997
1552.0,0.01958753839310856
1551.0,0.019632973815224997
1550.0,0.019632973815224997
1549.0,0.01958753839310856
1548.0,0.01958753839310856
1547.0,0.01958753839310856
1546.0,0.01958753839310856
1545.0,0.01958753839310856
1544.0,0.01954210772389997
1543.0,0.01949668180660491
1542.0,0.01940584422377989
1541.0,0.019360432556262852
1540.0,0.019360432556262852
1539.0,0.019315025636685412
1538.0,0.019269623464054586
1537.0,0.0192242260373785
1536.0,0.0192242260373785
1535.0,0.019178833355664393
1534.0,0.019042683770379876
1533.0,0.01899731005860028
1532.0,0.018906576854070378
1531.0,0.018861217359339655
1530.0,0.018770512579999288
1529.0,0.018679826740892747
1528.0,0.018634490921455527
1527.0,0.018543833477873584
1526.0,0.01845319495476394
1525.0,0.01831727262871463
1524.0,0.018181392829336396
1523.0,0.018045555530026514
1522.0,0.017909760704207134
1521.0,0.01781925440359733
1520.0,0.01781925440359733
1519.0,0.017864505196230507
1518.0,0.017864505196230507
1517.0,0.01781925440359733
1516.0,0.017728766960431575
1515.0,0.017638298366853045
1514.0,0.017502630802287644
1513.0,0.017412209298337533
1512.0,0.017321806616515723
1511.0,0.017231422748988034
1510.0,0.017050711425501408
1509.0,0.016824927962187042
1508.0,0.016509028184833463
1507.0,0.01628352608625061
1506.0,0.016148281008528276
1505.0,0.016058141016111804
1504.0,0.016013078034810446
1503.0,0.01596801972881945
1502.0,0.01596801972881945
1501.0,0.016058141016111804
1500.0,0.016418813294209356
1499.0,0.01727661233145472
1498.0,0.019360432556262852
1497.0,0.023466619608062178
1496.0,0.029002634427514717
1495.0,0.03432802877989327
1494.0,0.038341651362284734
1493.0,0.04091088563260792
1492.0,0.04172287445230238
1491.0,0.0402909757535701
1490.0,0.03692083935817303
1489.0,0.0332483359486222
1488.0,0.030490901403433135
1487.0,0.02858497661500481
1486.0,0.02710321556345563
1485.0,0.025902996205869
1484.0,0.024936003904763915
1483.0,0.02406295751688936
1482.0,0.023237476732539397
1481.0,0.02259651912656535
1480.0,0.022093572362881675
1479.0,0.02168250325324883
1478.0,0.021317434843055594
1477.0,0.0209982515252789
1476.0,0.020724852408976924
1475.0,0.02045162529590483
1474.0,0.02022406727031445
1473.0,0.02022406727031445
1472.0,0.02026956933771462
1471.0,0.020315076172974234
1470.0,0.02026956933771462
1469.0,0.02026956933771462
1468.0,0.02026956933771462
1467.0,0.02026956933771462
1466.0,0.02013307743509718
1465.0,0.02004210665933459
1464.0,0.01995115493504329
1463.0,0.019814763052665052
1462.0,0.019678413991243593
1461.0,0.01958753839310856
1460.0,0.019678413991243593
1459.0,0.02004210665933459
1458.0,0.021819483062586187
1457.0,0.026041313893296225
1456.0,0.031003673351687855
1455.0,0.03517488211661135
1454.0,0.038816290187564384
1453.0,0.04186632432376469
1452.0,0.04368746915880539
1451.0,0.044071843103049346
1450.0,0.04320747962950522
1449.0,0.04172287445230238
1448.0,0.0400527842915015
1447.0,0.03857890593355173
1446.0,0.037488606492403154
1445.0,0.03649550058570927
1444.0,0.03550466044490741
1443.0,0.034469056377139484
1442.0,0.033482823553208085
1441.0,0.032686081712916426
1440.0,0.03193753992355086
1439.0,0.03128362253321426
1438.0,0.03058408764601861
1437.0,0.029792641193145286
1436.0,0.028956208163971375
1435.0,0.028306761050139073
1434.0,0.0277045713888604
1433.0,0.027195677663422346
1432.0,0.02664120011360227
1431.0,0.026087429580295085
1430.0,0.02562649291857677
1429.0,0.02521206778644225
1428.0,0.024890010313838973
1427.0,0.02461415101053266
1426.0,0.024430342106337877
1425.0,0.024200690320592466
1424.0,0.024017056287453542
1423.0,0.023833499868024743
1422.0,0.023695883447997224
1421.0,0.02355831062115543
1420.0,0.02342078135989012
1419.0,0.02342078135989012
1418.0,0.023374947949272418
1417.0,0.023283295636617574
1416.0,0.02314585342378117
1415.0,0.02300845469384938
1414.0,0.022871099419317753
1413.0,0.02277955336461468
1412.0,0.022733787572707387
1411.0,0.022642270454698687
1410.0,0.02259651912656535
1409.0,0.02245929405346514
1408.0,0.022367834754000393
1407.0,0.02227639471115217
1406.0,0.02227639471115217
1405.0,0.022230681908425698
1404.0,0.0221849739168134
1403.0,0.022093572362881675
1402.0,0.02200219004126036
1401.0,0.021865152601710403
1400.0,0.021773818325474092
1399.0,0.021773818325474092
1398.0,0.021773818325474092
1397.0,0.021773818325474092
1396.0,0.021728158389364705
1395.0,0.021773818325474092
1394.0,0.021819483062586187
1393.0,0.021865152601710403
1392.0,0.021865152601710403
1391.0,0.021910826943857264
1390.0,0.021956506090037076
1389.0,0.02204787879853809
1388.0,0.0221849739168134
1387.0,0.022413561996148967
1386.0,0.02259651912656535
1385.0,0.02277955336461468
1384.0,0.02296266477531872
1383.0,0.023191662661933732
1382.0,0.02342078135989012
1381.0,0.02365002099672653
1380.0,0.023879381700184332
1379.0,0.02406295751688936
1378.0,0.024292536462819925
1377.0,0.024476287039668643
1376.0,0.02461415101053266
1375.0,0.024706084643793647
1374.0,0.02484402159331056
1373.0,0.024890010313838973
1372.0,0.024936003904763915
1371.0,0.024890010313838973
1370.0,0.02484402159331056
1369.0,0.024798037742147727
1368.0,0.024706084643793647
1367.0,0.024660115394541604
1366.0,0.024660115394541604
1365.0,0.024660115394541604
1364.0,0.02461415101053266
1363.0,0.024568191490736968
1362.0,0.024522236834125355
1361.0,0.024476287039668643
1360.0,0.024338466818941473
1359.0,0.024246610963712723
1358.0,0.024108863598207186
1357.0,0.024017056287453542
1356.0,0.023925268380126097
1355.0,0.023879381700184332
1354.0,0.023833499868024743
1353.0,0.023833499868024743
1352.0,0.023787622882622816
1351.0,0.023787622882622816
1350.0,0.023833499868024743
1349.0,0.023879381700184332
1348.0,0.023879381700184332
1347.0,0.023833499868024743
1346.0,0.023741750742954926
1345.0,0.02365002099672653
1344.0,0.02355831062115543
1343.0,0.02342078135989012
1342.0,0.023283295636617574
1341.0,0.023191662661933732
1340.0,0.02314585342378117
1339.0,0.02314585342378117
1338.0,0.023100049017062307
1337.0,0.023100049017062307
1336.0,0.023100049017062307
1335.0,0.023100049017062307
1334.0,0.02314585342378117
1333.0,0.023237476732539397
1332.0,0.023374947949272418
1331.0,0.02351246269481
1330.0,0.02365002099672653
1329.0,0.023741750742954926
1328.0,0.023787622882622816
1327.0,0.023787622882622816
1326.0,0.023741750742954926
1325.0,0.023741750742954926
1324.0,0.02365002099672653
1323.0,0.023604163388120325
1322.0,0.02355831062115543
1321.0,0.02355831062115543
1320.0,0.02355831062115543
1319.0,0.02351246269481
1318.0,0.02351246269481
1317.0,0.02351246269481
1316.0,0.02355831062115543
1315.0,0.02365002099672653
1314.0,0.023787622882622816
1313.0,0.023879381700184332
1312.0,0.023925268380126097
1311.0,0.023925268380126097
1310.0,0.023925268380126097
1309.0,0.023925268380126097
1308.0,0.023925268380126097
1307.0,0.023879381700184332
1306.0,0.023833499868024743
1305.0,0.023787622882622816
1304.0,0.023695883447997224
1303.0,0.023604163388120325
1302.0,0.02351246269481
1301.0,0.023466619608062178
1300.0,0.02342078135989012
1299.0,0.023374947949272418
1298.0,0.023374947949272418
1297.0,0.023329119375188556
1296.0,0.023283295636617574
1295.0,0.023237476732539397
1294.0,0.023191662661933732
1293.0,0.023191662661933732
1292.0,0.023191662661933732
1291.0,0.023191662661933732
1290.0,0.023191662661933732
1289.0,0.023191662661933732
1288.0,0.023191662661933732
1287.0,0.023191662661933732
1286.0,0.023237476732539397
1285.0,0.023237476732539397
1284.0,0.023191662661933732
1283.0,0.023191662661933732
1282.0,0.02314585342378117
1281.0,0.02314585342378117
1280.0,0.023191662661933732
1279.0,0.023191662661933732
1278.0,0.023191662661933732
1277.0,0.023191662661933732
1276.0,0.02314585342378117
1275.0,0.023054249440757957
1274.0,0.02300845469384938
1273.0,0.02296266477531872
1272.0,0.02291687968414724
1271.0,0.022871099419317753
1270.0,0.022871099419317753
1269.0,0.022871099419317753
1268.0,0.02282532397981263
1267.0,0.02277955336461468
1266.0,0.022733787572707387
1265.0,0.022733787572707387
1264.0,0.022733787572707387
1263.0,0.02277955336461468
1262.0,0.02282532397981263
1261.0,0.02277955336461468
1260.0,0.022733787572707387
1259.0,0.022733787572707387
1258.0,0.022733787572707387
1257.0,0.022733787572707387
1256.0,0.02277955336461468
1255.0,0.02277955336461468
1254.0,0.02277955336461468
1253.0,0.02277955336461468
1252.0,0.02282532397981263
1251.0,0.02282532397981263
1250.0,0.022871099419317753
1249.0,0.02291687968414724
1248.0,0.02296266477531872
1247.0,0.02300845469384938
1246.0,0.02300845469384938
1245.0,0.023054249440757957
1244.0,0.023054249440757957
1243.0,0.023100049017062307
1242.0,0.02314585342378117
1241.0,0.023191662661933732
1240.0,0.02314585342378117
1239.0,0.02314585342378117
1238.0,0.023100049017062307
1237.0,0.023100049017062307
1236.0,0.023100049017062307
1235.0,0.02314585342378117
1234.0,0.023237476732539397
1233.0,0.023283295636617574
1232.0,0.023374947949272418
1231.0,0.023466619608062178
1230.0,0.02355831062115543
1229.0,0.02365002099672653
1228.0,0.023741750742954926
1227.0,0.023787622882622816
1226.0,0.023879381700184332
1225.0,0.023971159908874107
1224.0,0.02406295751688936
1223.0,0.024154774532432866
1222.0,0.024246610963712723
1221.0,0.024292536462819925
1220.0,0.024338466818941473
1219.0,0.024430342106337877
1218.0,0.024522236834125355
1217.0,0.024660115394541604
1216.0,0.02475205875931885
1215.0,0.02484402159331056
1214.0,0.024936003904763915
1213.0,0.02498200236711723
1212.0,0.025074013910237447
1211.0,0.02521206778644225
1210.0,0.025350165561278004
1209.0,0.025488307262671706
1208.0,0.025672564576383117
1207.0,0.025902996205869
1206.0,0.026087429580295085
1205.0,0.026318081496016443
1204.0,0.026595025589939425
1203.0,0.026872146400301444
1202.0,0.027149444152769986
1201.0,0.02747318213414429
1200.0,0.027750864037404455
1199.0,0.028028723600243666
1198.0,0.028353117935693284
1197.0,0.02863136320857662
1196.0,0.028956208163971375
1195.0,0.029281296279810798
1194.0,0.029653123769906697
1193.0,0.030071810571884017
1192.0,0.030490901403433135
1191.0,0.030910397045078586
1190.0,0.03133029827960798
1189.0,0.03175060589208267
1188.0,0.032218091924200776
1187.0,0.03277974021703267
1186.0,0.03343591590268957
1185.0,0.03423403581731388
1184.0,0.03508070571335731
1183.0,0.03592902944204468
1182.0,0.036779013477011624
1181.0,0.03753595394209874
1180.0,0.038199360808321536
1179.0,0.038721320914956836
1178.0,0.03910132267333921
1177.0,0.03943409718180235
1176.0,0.03981472339538916
1175.0,0.040243327009005014
1174.0,0.04076775094900409
1173.0,0.04129280891271536
1172.0,0.04181850243505214
1171.0,0.042344833056508824
1170.0,0.04287180232318688
1169.0,0.04339941178682327
1168.0,0.04397571771932274
1167.0,0.04450467081587295
1166.0,0.04508244626504121
1165.0,0.045612749855485024
1164.0,0.046192002334692894
1163.0,0.04677202844014605
1162.0,0.047352830241056854
1161.0,0.047982909952573705
1160.0,0.048808242065293994
1159.0,0.04973253198641148
1158.0,0.050805225762017736
1157.0,0.05188057561946402
1156.0,0.05290953578037816
1155.0,0.053842605077627725
1154.0,0.05462990550969615
1153.0,0.055270639696704205
1152.0,0.05581353871631256
1151.0,0.05620880107069848
1150.0,0.05665390164340933
1149.0,0.05709945885970602
1148.0,0.0575950591438934
1147.0,0.058190526991161784
1146.0,0.058836539841526925
1145.0,0.0595831353183347
1144.0,0.06028111764589528
1143.0,0.06098022355133348
1142.0,0.06163040254819374
1141.0,0.06223143295006417
1140.0,0.06293368798257193
1139.0,0.06363708040225546
1138.0,0.06429125215733666
1137.0,0.06489597884855036
1136.0,0.06545105233385295
1135.0,0.06590573164451952
1134.0,0.0663102910421054
1133.0,0.0666645899223488
1132.0,0.06712054217620067
1131.0,0.06752623532284674
1130.0,0.06788152797087754
1129.0,0.0681862960408608
1128.0,0.06859298644342648
1127.0,0.06905096883247697
1126.0,0.06956040523329987
1125.0,0.07007043991541217
1124.0,0.07063217075990047
1123.0,0.07124579782334672
1122.0,0.07186029312488018
1121.0,0.07252697900472405
1120.0,0.0732460948102629
1119.0,0.07391491307485598
1118.0,0.07463633264589853
1117.0,0.07535895258283709
1116.0,0.07613452481449845
1115.0,0.07696333132921396
1114.0,0.07768983678560404
1113.0,0.07836553894629472
1112.0,0.07893810920972144
1111.0,0.0794071379151915
1110.0,0.07972010536705154
1109.0,0.07982447798997727
1108.0,0.07987667370927598
1107.0,0.07982447798997727
1106.0,0.07966792846041071
1105.0,0.0794592834975203
1104.0,0.07930286553008004
1103.0,0.07904229404455076
1102.0,0.07872981449018734
1101.0,0.07841755960658348
1100.0,0.07805354577058976
1099.0,0.07768983678560404
1098.0,0.07732643214144574
1097.0,0.07691148455760066
1096.0,0.07644514193245056
1095.0,0.07592757008963713
1094.0,0.07535895258283709
1093.0,0.07473949048056472
1092.0,0.07417242537525759
1091.0,0.07355465218161061
1090.0,0.0729891310243489
1089.0,0.07237303755504598
1088.0,0.07175781684269089
1087.0,0.07114346641808922
1086.0,0.07052998382251041
1085.0,0.06996838504902692
1084.0,0.06950943469373039
1083.0,0.0691018855898955
1082.0,0.06864384953207203
1081.0,0.0681862960408608
1080.0,0.06772922410050963
1079.0,0.06727263269847072
1078.0,0.06681652082538614
1077.0,0.06636088747507496
1076.0,0.06600683616875758
1075.0,0.06560255921901192
1074.0,0.06524912533642091
1073.0,0.06494641076893504
1072.0,0.06479513257341862
1071.0,0.06469430971007495
1070.0,0.06449273417528723
1069.0,0.06424089625468832
1068.0,0.06388856832514578
1067.0,0.06343599486473406
1066.0,0.06278310913729457
1065.0,0.06208109735221967
1064.0,0.06128018521761747
1063.0,0.060430831344098435
1062.0,0.05953332233647113
1061.0,0.05863766428823891
1060.0,0.05779345772290467
1059.0,0.057049929922901255
1058.0,0.05630767289398331
1057.0,0.05566540802921782
1056.0,0.05502409158795207
1055.0,0.05438372077326825
1054.0,0.05389176956309405
1053.0,0.05340037498486727
1052.0,0.05290953578037816
1051.0,0.052419250695677544
1050.0,0.05188057561946402
1049.0,0.05148923116234294
1048.0,0.051098239029786274
1047.0,0.05075640943173498
1046.0,0.05036607620073763
1045.0,0.04997609347667353
1044.0,0.04953778109440221
1043.0,0.04905128560059957
1042.0,0.0486139051197072
1041.0,0.048225491918274965
1040.0,0.047885915093007325
1039.0,0.047691990337874746
1038.0,0.04754660357696672
1037.0,0.047595060422975566
1036.0,0.047934409814949674
1035.0,0.048565334467987054
1034.0,0.04958646063061889
1033.0,0.05085404758005607
1032.0,0.05232126006306337
1031.0,0.05374429280060267
1030.0,0.05502409158795207
1029.0,0.05606053552778367
1028.0,0.05665390164340933
1027.0,0.05670338543334519
1026.0,0.05635711724787096
1025.0,0.05561604235915585
1024.0,0.05477768336465916
1023.0,0.05389176956309405
1022.0,0.05305672930217464
1021.0,0.05227227303668425
1020.0,0.05153812993871654
1019.0,0.050902874887084115
1018.0,0.05036607620073763
1017.0,0.04987865248862655
1016.0,0.04944043838819989
1015.0,0.04909991063361274
1014.0,0.048808242065293994
1013.0,0.0486139051197072
1012.0,0.04841965509660828
1011.0,0.04827402457540786
1010.0,0.048128442871635535
1009.0,0.04807992647970649
1008.0,0.04807992647970649
1007.0,0.04827402457540786
1006.0,0.0486139051197072
1005.0,0.048905443158337114
1004.0,0.04905128560059957
1003.0,0.04900266601119507
1002.0,0.04871106272232795
1001.0,0.04827402457540786
1000.0,0.04774046340917959
999.0,0.04715914332429838
998.0,0.04662694927330402
997.0,0.046143701775014145
996.0,0.04570923829887308
995.0,0.045323413081356456
994.0,0.044986096961949995
993.0,0.04469717723830824
992.0,0.04450467081587295
991.0,0.044312249686494276
990.0,0.04411991377462465
989.0,0.0439276630048171
988.0,0.04383156952463674
987.0,0.043735497301724546
986.0,0.043735497301724546
985.0,0.04383156952463674
984.0,0.0439276630048171
983.0,0.04397571771932274
982.0,0.04402377775167454
981.0,0.04402377775167454
980.0,0.04402377775167454
979.0,0.0439276630048171
978.0,0.04383156952463674
977.0,0.04363944632667782
976.0,0.04344740808260106
975.0,0.04320747962950522
974.0,0.042967683653061695
973.0,0.042775942156833
972.0,0.04268010314465909
971.0,0.04263219156847242
970.0,0.04268010314465909
969.0,0.042775942156833
968.0,0.04291974034210022
967.0,0.043063586155803746
966.0,0.04325545471730896
965.0,0.0433514207947967
964.0,0.0433514207947967
963.0,0.043303435105349175
962.0,0.04315950984076644
961.0,0.04301563225723992
960.0,0.042775942156833
959.0,0.04253638427006878
958.0,0.04229695845116854
957.0,0.04200982159316968
956.0,0.0417706858116178
955.0,0.041579471947481794
954.0,0.041436116778032606
953.0,0.041340572947066834
952.0,0.04129280891271536
951.0,0.04129280891271536
950.0,0.04129280891271536
949.0,0.041340572947066834
948.0,0.041436116778032606
947.0,0.04153168163305643
946.0,0.041627267521392675
945.0,0.04172287445230238
944.0,0.0417706858116178
943.0,0.04186632432376469
942.0,0.04186632432376469
941.0,0.04181850243505214
940.0,0.04167506835594681
939.0,0.04153168163305643
938.0,0.04138834223512067
937.0,0.04124505013091051
936.0,0.041006334969674096
935.0,0.04076775094900409
934.0,0.04057697805689475
933.0,0.04038628892895613
932.0,0.040243327009005014
931.0,0.04010041213405646
930.0,0.03995754427315856
929.0,0.03986232513620536
928.0,0.039767126871487646
927.0,0.03967194946985697
926.0,0.03957679292217042
925.0,0.03948165721929198
924.0,0.03943409718180235
923.0,0.03943409718180235
922.0,0.03943409718180235
921.0,0.03952922246570112
920.0,0.03962436858984186
919.0,0.039719535563357944
918.0,0.03981472339538916
917.0,0.0400527842915015
916.0,0.04038628892895613
915.0,0.04081545726880842
914.0,0.041340572947066834
913.0,0.04200982159316968
912.0,0.042775942156833
911.0,0.04359142880416744
910.0,0.044456557540257124
909.0,0.04527520902093718
908.0,0.04599883231842972
907.0,0.04662694927330402
906.0,0.04701393480294458
905.0,0.04720755695590784
904.0,0.04711073508906982
903.0,0.04672366333269573
902.0,0.046143701775014145
901.0,0.0454680573730859
900.0,0.044793462458058375
899.0,0.044167989767578186
898.0,0.0435434165901003
897.0,0.042967683653061695
896.0,0.04253638427006878
895.0,0.042201225070002124
894.0,0.04196198390166317
893.0,0.04172287445230238
892.0,0.041483896576958834
891.0,0.04129280891271536
890.0,0.041149548320321694
889.0,0.041101805289228244
888.0,0.04105406750606355
887.0,0.04091088563260792
886.0,0.040672354027829094
885.0,0.04043395336207234
884.0,0.0402909757535701
883.0,0.04019568349166214
882.0,0.04014804520039483
881.0,0.04019568349166214
880.0,0.040243327009005014
879.0,0.0402909757535701
878.0,0.040243327009005014
877.0,0.04010041213405646
876.0,0.03995754427315856
875.0,0.03981472339538916
874.0,0.039719535563357944
873.0,0.03962436858984186
872.0,0.03957679292217042
871.0,0.03948165721929198
870.0,0.03943409718180235
869.0,0.03938654235209116
868.0,0.03938654235209116
867.0,0.03938654235209116
866.0,0.03929144831144349
865.0,0.03914884628031379
864.0,0.03905380426616856
863.0,0.038911280232103884
862.0,0.038816290187564384
861.0,0.03876880295533702
860.0,0.03876880295533702
859.0,0.038721320914956836
858.0,0.038721320914956836
857.0,0.03862637240519895
856.0,0.03857890593355173
855.0,0.038531444649213764
854.0,0.038531444649213764
853.0,0.03848398855105106
852.0,0.03848398855105106
851.0,0.038531444649213764
850.0,0.038673844065289176
849.0,0.03886378261277468
848.0,0.03919637508823026
847.0,0.03962436858984186
846.0,0.040005161671583744
845.0,0.0402909757535701
844.0,0.040529297924893015
843.0,0.04072004986906119
842.0,0.04091088563260792
841.0,0.04105406750606355
840.0,0.041149548320321694
839.0,0.041149548320321694
838.0,0.04105406750606355
837.0,0.04081545726880842
836.0,0.04043395336207234
835.0,0.040005161671583744
834.0,0.03952922246570112
833.0,0.03914884628031379
832.0,0.038911280232103884
831.0,0.038721320914956836
830.0,0.03857890593355173
829.0,0.038436537637930535
828.0,0.038341651362284734
827.0,0.038341651362284734
826.0,0.038341651362284734
825.0,0.038341651362284734
824.0,0.03824678581321739
823.0,0.03810452633214956
822.0,0.03791491948264003
821.0,0.03777276864991497
820.0,0.03767802727041558
819.0,0.037583306554248797
818.0,0.03744126420403626
817.0,0.037299268295658994
816.0,0.0371573187987575
815.0,0.037062711569998186
814.0,0.0369681249461018
813.0,0.036873558918095295
812.0,0.03682628362474838
811.0,0.036779013477011624
810.0,0.03668448861388862
809.0,0.036542739883292485
808.0,0.036401037402758574
807.0,0.03621217265444465
806.0,0.03602339000339416
805.0,0.03592902944204468
804.0,0.03578752703018084
803.0,0.035740369803151095
802.0,0.035693217696063595
801.0,0.03559892883726867
800.0,0.03550466044490741
799.0,0.03531618502395939
798.0,0.03522197797762394
797.0,0.03522197797762394
796.0,0.03531618502395939
795.0,0.03541041251009669
794.0,0.03550466044490741
793.0,0.03550466044490741
792.0,0.03550466044490741
791.0,0.03555179208333925
790.0,0.035646070707806565
789.0,0.03578752703018084
788.0,0.03592902944204468
787.0,0.03597620715996652
786.0,0.03597620715996652
785.0,0.03597620715996652
784.0,0.036117771071222604
783.0,0.03635381351515665
782.0,0.03663723389626394
781.0,0.03701541568300293
780.0,0.03744126420403626
779.0,0.03800971255993524
778.0,0.038721320914956836
777.0,0.039719535563357944
776.0,0.04091088563260792
775.0,0.04224908912272074
774.0,0.043735497301724546
773.0,0.04541983725624266
772.0,0.047352830241056854
771.0,0.04958646063061889
770.0,0.052027420754219955
769.0,0.05458065739693696
768.0,0.057198533682059516
767.0,0.05983228596592505
766.0,0.06248210798265341
765.0,0.06509774167768612
764.0,0.06767846801070698
763.0,0.0702746216219956
762.0,0.0729891310243489
761.0,0.07587584681417514
760.0,0.07883394936226118
759.0,0.08165507103772507
758.0,0.08412549714230844
757.0,0.08608023504853413
756.0,0.08745911720936239
755.0,0.08836306687055773
754.0,0.08884239126002336
753.0,0.0892155652071629
752.0,0.08953568400438638
751.0,0.08996287644694911
750.0,0.09039048950983108
749.0,0.09087205801073917
748.0,0.09130056764777605
747.0,0.09119340059432579
746.0,0.09033701484598189
745.0,0.08857603462370545
744.0,0.08608023504853413
743.0,0.08312512146131668
742.0,0.08003329851661278
741.0,0.07696333132921396
740.0,0.07401789967289685
739.0,0.07119462910671581
738.0,0.0685421293109949
737.0,0.0659562809644747
736.0,0.06338573802478864
735.0,0.06083032037482261
734.0,0.0582898510583536
733.0,0.055912320584565744
732.0,0.05374429280060267
731.0,0.05178270644002936
730.0,0.050073556332087765
729.0,0.048565334467987054
728.0,0.047062332249019345
727.0,0.045564513671517703
726.0,0.04402377775167454
725.0,0.04253638427006878
724.0,0.041340572947066834
723.0,0.040243327009005014
722.0,0.03929144831144349
721.0,0.038341651362284734
720.0,0.037251946641359446
719.0,0.03597620715996652
718.0,0.034516075754861264
717.0,0.033060836978886954
716.0,0.03179733185715028
715.0,0.03081714076773867
714.0,0.03002526987828502
713.0,0.029560137048236124
712.0,0.029560137048236124
711.0,0.030537492025363155
710.0,0.03282657704446046
709.0,0.036873558918095295
708.0,0.04301563225723992
707.0,0.05148923116234294
706.0,0.06248210798265341
705.0,0.07587584681417514
704.0,0.0916222275676053
703.0,0.10969078310005154
702.0,0.13012318673323353
701.0,0.1527358982292355
700.0,0.17672144304832926
699.0,0.200797343699475
698.0,0.2229358452575705
697.0,0.24033215531036944
696.0,0.24949160514865376
695.0,0.24779784682347894
694.0,0.23507701535011138
693.0,0.21502629004559926
692.0,0.1926002872405146
691.0,0.17159792150840691
690.0,0.1538485234711846
689.0,0.13960209487268727
688.0,0.1286022185125162
687.0,0.12004441487725082
686.0,0.11322735694556196
685.0,0.10762709260156367
684.0,0.10314322726279568
683.0,0.09941441335003853
682.0,0.09620485725896466
681.0,0.09344948089854999
680.0,0.0910326995816122
679.0,0.08889568219596411
678.0,0.0872466963286771
677.0,0.08618614761628329
676.0,0.08555105930144569
675.0,0.08502252755566908
674.0,0.08423093401631587
673.0,0.08333553545860273
672.0,0.08249449044745338
671.0,0.08207457793525874
670.0,0.08223199755224364
669.0,0.08291480935943274
668.0,0.08265206237222844
667.0,0.0812359689720008
666.0,0.07972010536705154
665.0,0.07846958649875768
664.0,0.07753405470158659
663.0,0.07665234350217442
662.0,0.0756173227980268
661.0,0.07458476291575367
660.0,0.07381195089279391
659.0,0.0732460948102629
658.0,0.07262963696097646
657.0,0.07196279359311708
656.0,0.07145053299833615
655.0,0.07129697256940304
654.0,0.07124579782334672
653.0,0.07114346641808922
652.0,0.07093887591523451
651.0,0.07058107428570715
650.0,0.07012147634321675
649.0,0.06966236426227002
648.0,0.06925467168888666
647.0,0.06894915322260897
646.0,0.0685421293109949
645.0,0.06798309356579857
644.0,0.06732334137759932
643.0,0.06676587128519196
642.0,0.06636088747507496
641.0,0.06610796423578891
640.0,0.06600683616875758
639.0,0.06605739725873905
638.0,0.06636088747507496
637.0,0.0671712330991534
636.0,0.06844043290919477
635.0,0.06950943469373039
634.0,0.06971335275448043
633.0,0.06915280831750303
632.0,0.06844043290919477
631.0,0.0681862960408608
630.0,0.06833876031551878
629.0,0.06864384953207203
628.0,0.0688982543673613
627.0,0.0691018855898955
626.0,0.0692037370166998
625.0,0.06935655895783555
624.0,0.06961138175567827
623.0,0.0699173666076287
622.0,0.0702746216219956
621.0,0.07047889936889606
620.0,0.07058107428570715
619.0,0.07068327324650436
618.0,0.07073438174693436
617.0,0.07083661679493547
616.0,0.07088774334533943
615.0,0.07078549626260622
614.0,0.07063217075990047
613.0,0.07078549626260622
612.0,0.07150173187630915
611.0,0.07268097504034388
610.0,0.07401789967289685
609.0,0.07541061433058172
608.0,0.07685964397479927
607.0,0.07841755960658348
606.0,0.07982447798997727
605.0,0.08071265949561734
604.0,0.08107890990866418
603.0,0.08170748724464438
602.0,0.0832303157168639
601.0,0.08549817717268593
600.0,0.08761850108119962
599.0,0.0885227828938977
598.0,0.08793744441149753
597.0,0.08639805027084257
596.0,0.08444188458847957
595.0,0.0823369756726251
594.0,0.08029446545087904
593.0,0.07841755960658348
592.0,0.07660053384128362
591.0,0.07458476291575367
590.0,0.07252697900472405
589.0,0.07088774334533943
588.0,0.0699173666076287
587.0,0.06905096883247697
586.0,0.06732334137759932
585.0,0.06454311928839007
584.0,0.06153031163235467
583.0,0.059135024033278416
582.0,0.057198533682059516
581.0,0.054876229877880656
580.0,0.05192951848105887
579.0,0.04958646063061889
578.0,0.04851676924770687
577.0,0.047934409814949674
576.0,0.04667530361081473
575.0,0.04513062893352182
574.0,0.044360346976747955
573.0,0.044312249686494276
572.0,0.043735497301724546
571.0,0.041436116778032606
570.0,0.037488606492403154
569.0,0.0329671178412978
568.0,0.02960662792039992
567.0,0.027750864037404455
566.0,0.025949097207122573
565.0,0.02277955336461468
564.0,0.019269623464054586
563.0,0.01759307113620534
562.0,0.017231422748988034
561.0,0.015697768020096703
560.0,0.01260190086298274
559.0,0.010728208358306901
558.0,0.012467797270160563
557.0,0.017005545341335804
556.0,0.02200219004126036
555.0,0.025672564576383117
554.0,0.026456531467510258
553.0,0.023054249440757957
552.0,0.01677978535189717
551.0,0.011842527443247208
550.0,0.011307297450183107
549.0,0.013990068146738865
548.0,0.016193358021584725
547.0,0.016509028184833463
546.0,0.016870075265299933
545.0,0.018906576854070378
544.0,0.022093572362881675
543.0,0.024338466818941473
542.0,0.02406295751688936
541.0,0.0209982515252789
540.0,0.016915227262211507
539.0,0.013900374944870508
538.0,0.013049212141483357
537.0,0.013765869865004277
536.0,0.01547268665620738
535.0,0.018136109008649592
534.0,0.021089422824428272
533.0,0.021956506090037076
532.0,0.018951941086827073
531.0,0.013676222949234651
530.0,0.009927665307847056
529.0,0.009838807101520963
528.0,0.011842527443247208
527.0,0.012914970375878188
526.0,0.012199714248127602
525.0,0.011530229790124524
524.0,0.012691326268817527
523.0,0.014753209197138295
522.0,0.014843078722943437
521.0,0.011619434777991433
520.0,0.007534852191956709
519.0,0.006651960076740071
518.0,0.010060986715464404
517.0,0.014977917890464765
516.0,0.017502630802287644
515.0,0.01646391839700767
514.0,0.013900374944870508
513.0,0.012512493866907004
512.0,0.012914970375878188
511.0,0.013586594534531482
510.0,0.012780770091995297
509.0,0.009838807101520963
508.0,0.005858888873877532
507.0,0.002395212539545666
506.0,0.0006519307932786322
505.0,0.0011306361176557367
504.0,0.0035321097382827737
503.0,0.006607862550997545
502.0,0.008596697419959609
501.0,0.008552401996197112
500.0,0.007358130121602358
499.0,0.006740168563263094
498.0,0.007844288957383316
497.0,0.010550182333308289
496.0,0.013676222949234651
495.0,0.01596801972881945
494.0,0.016960383953898095
493.0,0.017457417697056554
492.0,0.019133445417920836
491.0,0.022230681908425698
490.0,0.02484402159331056
489.0,0.025074013910237447
488.0,0.02355831062115543
487.0,0.02259651912656535
486.0,0.02296266477531872
485.0,0.02365002099672653
484.0,0.023833499868024743
483.0,0.023879381700184332
482.0,0.023925268380126097
481.0,0.02355831062115543
480.0,0.02277955336461468
479.0,0.022230681908425698
478.0,0.02159120737696063
477.0,0.01940584422377989
476.0,0.015652742414136167
475.0,0.012780770091995297
474.0,0.013093968619278806
473.0,0.016013078034810446
472.0,0.019269623464054586
471.0,0.0214542995372613
470.0,0.022505030926963654
469.0,0.022413561996148967
468.0,0.02067930261797568
467.0,0.017321806616515723
466.0,0.01381070026317599
465.0,0.011441043121384498
464.0,0.010728208358306901
463.0,0.010906307389674463
462.0,0.01117359295472431
461.0,0.011842527443247208
460.0,0.013676222949234651
459.0,0.01677978535189717
458.0,0.019814763052665052
457.0,0.021271822861508305
456.0,0.021043834782408455
455.0,0.02026956933771462
454.0,0.01954210772389997
453.0,0.018543833477873584
452.0,0.017321806616515723
451.0,0.016870075265299933
450.0,0.017638298366853045
