cm-1,A
4000.0,0.09071147583774919
3999.0,0.09087205801073917
3998.0,0.09092559859909577
3997.0,0.09076499663169257
3996.0,0.09060445403289452
3995.0,0.09076499663169257
3994.0,0.09065796163869155
3993.0,0.09076499663169257
3992.0,0.09092559859909577
3991.0,0.09108625997902897
3990.0,0.09113982698272349
3989.0,0.09113982698272349
3988.0,0.09097914578884403
3987.0,0.09071147583774919
3986.0,0.09039048950983108
3985.0,0.09017663034908807
3984.0,0.09017663034908807
3983.0,0.09039048950983108
3982.0,0.09071147583774919
3981.0,0.09097914578884403
3980.0,0.09113982698272349
3979.0,0.09130056764777605
3978.0,0.09140776115243066
3977.0,0.09146136782804049
3976.0,0.09140776115243066
3975.0,0.09130056764777605
3974.0,0.09119340059432579
3973.0,0.09108625997902897
3972.0,0.09113982698272349
3971.0,0.09119340059432579
3970.0,0.09124698081546634
3969.0,0.09119340059432579
3968.0,0.09108625997902897
3967.0,0.09097914578884403
3966.0,0.0910326995816122
3965.0,0.09119340059432579
3964.0,0.09146136782804049
3963.0,0.09167586072382083
3962.0,0.09167586072382083
3961.0,0.09156860103399356
3960.0,0.09135416109288674
3959.0,0.09119340059432579
3958.0,0.09113982698272349
3957.0,0.09113982698272349
3956.0,0.09124698081546634
3955.0,0.09151498112135026
3954.0,0.09183679994445204
3953.0,0.09215885741705532
3952.0,0.09248115389337075
3951.0,0.09274991711867164
3950.0,0.09301884677114591
3949.0,0.09318028453345462
3948.0,0.09312646527792956
3947.0,0.09296504751658308
3946.0,0.09285746899685954
3945.0,0.09285746899685954
3944.0,0.09296504751658308
3943.0,0.09291125492570451
3942.0,0.09274991711867164
3941.0,0.09269615116603047
3940.0,0.09291125492570451
3939.0,0.09312646527792956
3938.0,0.09312646527792956
3937.0,0.09274991711867164
3936.0,0.09226626300234453
3935.0,0.09210516458371698
3934.0,0.09215885741705532
3933.0,0.09226626300234453
3932.0,0.09237369515673355
3931.0,0.09274991711867164
3930.0,0.09328794305703592
3929.0,0.09371884422784693
3928.0,0.09382663635595145
3927.0,0.09382663635595145
3926.0,0.09361107884716913
3925.0,0.09323411045927221
3924.0,0.09280368972839836
3923.0,0.09269615116603047
3922.0,0.09301884677114591
3921.0,0.09339562827501968
3920.0,0.0935033402006471
3919.0,0.0935033402006471
3918.0,0.09361107884716913
3917.0,0.09371884422784693
3916.0,0.09366495819490939
3915.0,0.0935572061829677
3914.0,0.0935572061829677
3913.0,0.09366495819490939
3912.0,0.09366495819490939
3911.0,0.0935572061829677
3910.0,0.09344948089854999
3909.0,0.09334178232840018
3908.0,0.09344948089854999
3907.0,0.09366495819490939
3906.0,0.09398837472858723
3905.0,0.09420411963213149
3904.0,0.09409623378338305
3903.0,0.09420411963213149
3902.0,0.09479797133768142
3901.0,0.09571734235437201
3900.0,0.09636748391576244
3899.0,0.09620485725896466
3898.0,0.0955549589230904
3897.0,0.09485199814398393
3896.0,0.09431203228814788
3895.0,0.09388054245443844
3894.0,0.09366495819490939
3893.0,0.0937727369476411
3892.0,0.09398837472858723
3891.0,0.09393445524476318
3890.0,0.0935033402006471
3889.0,0.09312646527792956
3888.0,0.0935572061829677
3887.0,0.09441997176475758
3886.0,0.09452793807529569
3885.0,0.09382663635595145
3884.0,0.09366495819490939
3883.0,0.09463593123310776
3882.0,0.09598811640261173
3881.0,0.0964759355287379
3880.0,0.0957714836599215
3879.0,0.09485199814398393
3878.0,0.09436599867304518
3877.0,0.09452793807529569
3876.0,0.09496007192378841
3875.0,0.09496007192378841
3874.0,0.09441997176475758
3873.0,0.09415017335768128
3872.0,0.09496007192378841
3871.0,0.0960964733098364
3870.0,0.09604229147682952
3869.0,0.09479797133768142
3868.0,0.09409623378338305
3867.0,0.09479797133768142
3866.0,0.0957714836599215
3865.0,0.09571734235437201
3864.0,0.09479797133768142
3863.0,0.09463593123310776
3862.0,0.09533854208447545
3861.0,0.0957714836599215
3860.0,0.09544673702322726
3859.0,0.09474395125154866
3858.0,0.09415017335768128
3857.0,0.09398837472858723
3856.0,0.09441997176475758
3855.0,0.09490603167212863
3854.0,0.09415017335768128
3853.0,0.09285746899685954
3852.0,0.09344948089854999
3851.0,0.09512223303659528
3850.0,0.09620485725896466
3849.0,0.09642170633694569
3848.0,0.09598811640261173
3847.0,0.0955549589230904
3846.0,0.09539263618455207
3845.0,0.09533854208447545
3844.0,0.09517630019905599
3843.0,0.09485199814398393
3842.0,0.09474395125154866
3841.0,0.09517630019905599
3840.0,0.09598811640261173
3839.0,0.0964759355287379
3838.0,0.0964759355287379
3837.0,0.09625905937846135
3836.0,0.0960964733098364
3835.0,0.0960964733098364
3834.0,0.09620485725896466
3833.0,0.09631326826349751
3832.0,0.096150661903319
3831.0,0.09560907998763835
3830.0,0.09523037409340485
3829.0,0.09523037409340485
3828.0,0.09560907998763835
3827.0,0.0957714836599215
3826.0,0.09533854208447545
3825.0,0.09479797133768142
3824.0,0.0950141189006366
3823.0,0.09604229147682952
3822.0,0.09674718310604158
3821.0,0.096150661903319
3820.0,0.0955549589230904
3819.0,0.09604229147682952
3818.0,0.0972358560759139
3817.0,0.09805153492691598
3816.0,0.09734452478207412
3815.0,0.09587978652380036
3814.0,0.09544673702322726
3813.0,0.09587978652380036
3812.0,0.09598811640261173
3811.0,0.09523037409340485
3810.0,0.09436599867304518
3809.0,0.09436599867304518
3808.0,0.0950141189006366
3807.0,0.09523037409340485
3806.0,0.09474395125154866
3805.0,0.09447395156495153
3804.0,0.09523037409340485
3803.0,0.09642170633694569
3802.0,0.09663866374468144
3801.0,0.09560907998763835
3800.0,0.09523037409340485
3799.0,0.0960964733098364
3798.0,0.09718153191774648
3797.0,0.09767069414168117
3796.0,0.0972358560759139
3795.0,0.09674718310604158
3794.0,0.09663866374468144
3793.0,0.09674718310604158
3792.0,0.0964759355287379
3791.0,0.09593394808549704
3790.0,0.0955549589230904
3789.0,0.09550084460218011
3788.0,0.09560907998763835
3787.0,0.09582563171583658
3786.0,0.09598811640261173
3785.0,0.0960964733098364
3784.0,0.09598811640261173
3783.0,0.09593394808549704
3782.0,0.096150661903319
3781.0,0.09669292003582619
3780.0,0.09701860020249709
3779.0,0.09701860020249709
3778.0,0.09701860020249709
3777.0,0.09707290398273716
3776.0,0.09701860020249709
3775.0,0.09658441423091357
3774.0,0.0957714836599215
3773.0,0.09528445472131919
3772.0,0.09539263618455207
3771.0,0.0957714836599215
3770.0,0.09571734235437201
3769.0,0.0955549589230904
3768.0,0.09593394808549704
3767.0,0.09685572959046151
3766.0,0.09750757884139638
3765.0,0.09745322068600859
3764.0,0.09701860020249709
3763.0,0.09696430321150284
3762.0,0.09745322068600859
3761.0,0.09783387072894878
3760.0,0.09772507952549825
3759.0,0.0975619438013351
3758.0,0.0978882765519955
3757.0,0.09821485469640057
3756.0,0.09805153492691598
3755.0,0.09772507952549825
3754.0,0.0975619438013351
3753.0,0.0972358560759139
3752.0,0.09642170633694569
3751.0,0.09593394808549704
3750.0,0.09631326826349751
3749.0,0.09663866374468144
3748.0,0.09620485725896466
3747.0,0.09625905937846135
3746.0,0.09750757884139638
3745.0,0.09799710864927058
3744.0,0.09669292003582619
3743.0,0.09598811640261173
3742.0,0.09701860020249709
3741.0,0.09848719087006019
3740.0,0.0990869322623309
3739.0,0.0989778267519208
3738.0,0.09914149529800831
3737.0,0.09974214156222239
3736.0,0.10007011727213588
3735.0,0.10028890542885538
3734.0,0.10111034407341357
3733.0,0.10209812573177213
3732.0,0.10198826120249849
3731.0,0.10061729446673495
3730.0,0.09914149529800831
3729.0,0.09848719087006019
3728.0,0.09859617317474823
3727.0,0.09859617317474823
3726.0,0.09837823590664274
3725.0,0.09865067458435761
3724.0,0.09957824654226233
3723.0,0.10039834085387778
3722.0,0.10045306890913297
3721.0,0.10001543745060903
3720.0,0.09963287134352972
3719.0,0.09930522554760213
3718.0,0.09886874864462802
3717.0,0.09821485469640057
3716.0,0.09761631556752848
3715.0,0.09739886933346864
3714.0,0.09745322068600859
3713.0,0.09729018703012282
3712.0,0.09685572959046151
3711.0,0.09696430321150284
3710.0,0.09794268919153337
3709.0,0.09886874864462802
3708.0,0.09914149529800831
3707.0,0.09886874864462802
3706.0,0.09848719087006019
3705.0,0.09832376867362447
3704.0,0.09843270997155007
3703.0,0.09854167860388774
3702.0,0.09843270997155007
3701.0,0.09810596802617932
3700.0,0.09772507952549825
3699.0,0.0975619438013351
3698.0,0.0975619438013351
3697.0,0.09750757884139638
3696.0,0.09718153191774648
3695.0,0.09691001300805646
3694.0,0.09685572959046151
3693.0,0.09674718310604158
3692.0,0.09642170633694569
3691.0,0.096150661903319
3690.0,0.09636748391576244
3689.0,0.09691001300805646
3688.0,0.09734452478207412
3687.0,0.09734452478207412
3686.0,0.09718153191774648
3685.0,0.09718153191774648
3684.0,0.09707290398273716
3683.0,0.09663866374468144
3682.0,0.09625905937846135
3681.0,0.09631326826349751
3680.0,0.09631326826349751
3679.0,0.09620485725896466
3678.0,0.09669292003582619
3677.0,0.09783387072894878
3676.0,0.09826930827078129
3675.0,0.09767069414168117
3674.0,0.09734452478207412
3673.0,0.09772507952549825
3672.0,0.09859617317474823
3671.0,0.0990869322623309
3670.0,0.09837823590664274
3669.0,0.09772507952549825
3668.0,0.09805153492691598
3667.0,0.09848719087006019
3666.0,0.09821485469640057
3665.0,0.09761631556752848
3664.0,0.09701860020249709
3663.0,0.09669292003582619
3662.0,0.09669292003582619
3661.0,0.09674718310604158
3660.0,0.09669292003582619
3659.0,0.09680145295702158
3658.0,0.09712721455392082
3657.0,0.09745322068600859
3656.0,0.09734452478207412
3655.0,0.09712721455392082
3654.0,0.0972358560759139
3653.0,0.09794268919153337
3652.0,0.09892328427374508
3651.0,0.09946901754724413
3650.0,0.09952362861074304
3649.0,0.1005078038618683
3648.0,0.10264786565568684
3647.0,0.10385974855798041
3646.0,0.10352889952072264
3645.0,0.10270287794050348
3644.0,0.10204318999304807
3643.0,0.10154908080162528
3642.0,0.10105553313349058
3641.0,0.10061729446673495
3640.0,0.10045306890913297
3639.0,0.10039834085387778
3638.0,0.10028890542885538
3637.0,0.10023419805561384
3636.0,0.1005078038618683
3635.0,0.10089114180660053
3634.0,0.10094593200182911
3633.0,0.10061729446673495
3632.0,0.10078158214862709
3631.0,0.10187842445889239
3630.0,0.10292299679057959
3629.0,0.1028679566179056
3628.0,0.10270287794050348
3627.0,0.1033635694704158
3626.0,0.10391491457671487
3625.0,0.10391491457671487
3624.0,0.10341867249426717
3623.0,0.10292299679057959
3622.0,0.10303309806684524
3621.0,0.10363915453068362
3620.0,0.10402526764093545
3619.0,0.10391491457671487
3618.0,0.1038045895457893
3617.0,0.10402526764093545
3616.0,0.10457745396059215
3615.0,0.10518567091669917
3614.0,0.10551778498990938
3613.0,0.10529634739076998
3612.0,0.10485381062400778
3611.0,0.10452220372428545
3610.0,0.10441172433373724
3609.0,0.10430127304069425
3608.0,0.10413564875270076
3607.0,0.10430127304069425
3606.0,0.1047432468551055
3605.0,0.10490910306560064
3604.0,0.1047432468551055
3603.0,0.10435649517592083
3602.0,0.10413564875270076
3601.0,0.10413564875270076
3600.0,0.10446696051592963
3599.0,0.10496440254767725
3598.0,0.10546241500425357
3597.0,0.10562854614376227
3596.0,0.10551778498990938
3595.0,0.10535169620648288
3594.0,0.10518567091669917
3593.0,0.10507502264045665
3592.0,0.10501970907203151
3591.0,0.10501970907203151
3590.0,0.10513034325474746
3589.0,0.10513034325474746
3588.0,0.10507502264045665
3587.0,0.10540705207704448
3586.0,0.10640466618011679
3585.0,0.10729336219433439
3584.0,0.10740457717110186
3583.0,0.10690433390377163
3582.0,0.1062937069352865
3581.0,0.10573933555301185
3580.0,0.10546241500425357
3579.0,0.1052410056281079
3578.0,0.10501970907203151
3577.0,0.10479852522110678
3576.0,0.10457745396059215
3575.0,0.10452220372428545
3574.0,0.10452220372428545
3573.0,0.10452220372428545
3572.0,0.10457745396059215
3571.0,0.10490910306560064
3570.0,0.10568393731556158
3569.0,0.10684878687013422
3568.0,0.10796107965870849
3567.0,0.10879717273970457
3566.0,0.10946720807225518
3565.0,0.10974669484546551
3564.0,0.10957898119908571
3563.0,0.10907622851098608
3562.0,0.10862982530385179
3561.0,0.1081838804751396
3560.0,0.10784972209863586
3559.0,0.1075158206353124
3558.0,0.10723776538418317
3557.0,0.1071265931112344
3556.0,0.10718217569042365
3555.0,0.10746019534136453
3554.0,0.10779405402422748
3553.0,0.10812816955441629
3552.0,0.1082953237608173
3551.0,0.1082953237608173
3550.0,0.1081838804751396
3549.0,0.10812816955441629
3548.0,0.1081838804751396
3547.0,0.10846254232743546
3546.0,0.10902040301031102
3545.0,0.1098585399354226
3544.0,0.11058623595729111
3543.0,0.11075433910702048
3542.0,0.11041819785037621
3541.0,0.10974669484546551
3540.0,0.10913206118855912
3539.0,0.10874138309586101
3538.0,0.10874138309586101
3537.0,0.10907622851098608
3536.0,0.10946720807225518
3535.0,0.10974669484546551
3534.0,0.10974669484546551
3533.0,0.10957898119908571
3532.0,0.10935546370475246
3531.0,0.10929960230112479
3530.0,0.10952309103982927
3529.0,0.10997041383658313
3528.0,0.11041819785037621
3527.0,0.11086644403327606
3526.0,0.11131515334030118
3525.0,0.11176432672943282
3524.0,0.11210151190312767
3523.0,0.11221396516162851
3522.0,0.11210151190312767
3521.0,0.11176432672943282
3520.0,0.11125903931710734
3519.0,0.11075433910702048
3518.0,0.11025022473596224
3517.0,0.10997041383658313
3516.0,0.10991447328367476
3515.0,0.11002636159600376
3514.0,0.11019424813191447
3513.0,0.11030620855581463
3512.0,0.11036219959333216
3511.0,0.11041819785037621
3510.0,0.11053021603049262
3509.0,0.1106422631110684
3508.0,0.11069829749368965
3507.0,0.11075433910702048
3506.0,0.11086644403327606
3505.0,0.11114683301706374
3504.0,0.11159583226295333
3503.0,0.1120452961911984
3502.0,0.11238269966426384
3501.0,0.11238269966426384
3500.0,0.11215773489264302
3499.0,0.11193288659256306
3498.0,0.11176432672943282
3497.0,0.11165198982195101
3496.0,0.11142740314240007
3495.0,0.11114683301706374
3494.0,0.11092250734993603
3493.0,0.11086644403327606
3492.0,0.11086644403327606
3491.0,0.11103465569966264
3490.0,0.11120293254331926
3489.0,0.11142740314240007
3488.0,0.11165198982195101
3487.0,0.11182050608167504
3486.0,0.11198908775497118
3485.0,0.11221396516162851
3484.0,0.11238269966426384
3483.0,0.1125514997500463
3482.0,0.11266406960083297
3481.0,0.1128329791052256
3480.0,0.11311464101399138
3479.0,0.1133401021387972
3478.0,0.11345287660889425
3477.0,0.1133401021387972
3476.0,0.11305829401658474
3475.0,0.1128329791052256
3474.0,0.11277666863747693
3473.0,0.1128329791052256
3472.0,0.11305829401658474
3471.0,0.1133401021387972
3470.0,0.11367851344052027
3469.0,0.11390426756225258
3468.0,0.11396072443355765
3467.0,0.11390426756225258
3466.0,0.1138478180292033
3465.0,0.1138478180292033
3464.0,0.11401718864502697
3463.0,0.11418662533951118
3462.0,0.11435612816423602
3461.0,0.11458223488906394
3460.0,0.114865033936566
3459.0,0.11520463605101905
3458.0,0.11554450392951199
3457.0,0.11565785235294102
3456.0,0.11565785235294102
3455.0,0.11554450392951199
3454.0,0.11560117444331386
3453.0,0.11577123036739612
3452.0,0.11611154211151953
3451.0,0.1163953390777075
3450.0,0.11662251025166115
3449.0,0.11679296664760996
3448.0,0.11702034596270106
3447.0,0.11724784438692004
3446.0,0.1175323851046286
3445.0,0.11787408022996826
3444.0,0.11810202642698875
3443.0,0.11833009232793867
3442.0,0.11844417020668851
3441.0,0.11861534322942724
3440.0,0.11878658374498086
3439.0,0.1190150095132465
3438.0,0.11918640771920863
3437.0,0.11941504393502012
3436.0,0.11958660012208333
3435.0,0.11970100857424737
3434.0,0.11964380058076385
3433.0,0.11970100857424737
3432.0,0.11981544717356662
3431.0,0.12004441487725082
3430.0,0.12027350336042275
3429.0,0.12050271275057156
3428.0,0.1207320431753871
3427.0,0.12090412049992727
3426.0,0.12101887660626365
3425.0,0.12113366304327466
3424.0,0.12119106764079435
3423.0,0.12124847982699793
3422.0,0.1213058996038916
3421.0,0.12147820449879343
3420.0,0.12159311241900439
3419.0,0.12170805075020397
3418.0,0.12159311241900439
3417.0,0.1213058996038916
3416.0,0.12090412049992727
3415.0,0.12050271275057156
3414.0,0.1201016756699902
3413.0,0.11987267778337518
3412.0,0.11987267778337518
3411.0,0.12004441487725082
3410.0,0.1202162199095842
3409.0,0.12033079436794658
3408.0,0.1202162199095842
3407.0,0.1199871616332282
3406.0,0.11970100857424737
3405.0,0.11952940719622163
3404.0,0.11941504393502012
3403.0,0.11941504393502012
3402.0,0.11952940719622163
3401.0,0.11970100857424737
3400.0,0.1199871616332282
3399.0,0.12027350336042275
3398.0,0.1203880929341492
3397.0,0.12027350336042275
3396.0,0.1199871616332282
3395.0,0.11975822410451964
3394.0,0.11964380058076385
3393.0,0.11975822410451964
3392.0,0.11987267778337518
3391.0,0.11975822410451964
3390.0,0.11947222180119477
3389.0,0.11912926746757657
3388.0,0.11890078161098283
3387.0,0.11890078161098283
3386.0,0.11895789180659433
3385.0,0.11912926746757657
3384.0,0.11924355548978971
3383.0,0.11935787359571504
3382.0,0.11941504393502012
3381.0,0.11935787359571504
3380.0,0.11918640771920863
3379.0,0.11907213473291511
3378.0,0.1190150095132465
3377.0,0.1190150095132465
3376.0,0.1190150095132465
3375.0,0.11895789180659433
3374.0,0.11890078161098283
3373.0,0.11884367892443626
3372.0,0.11872949607064243
3371.0,0.11878658374498086
3370.0,0.11895789180659433
3369.0,0.11924355548978971
3368.0,0.11947222180119477
3367.0,0.11964380058076385
3366.0,0.11958660012208333
3365.0,0.11947222180119477
3364.0,0.11935787359571504
3363.0,0.11924355548978971
3362.0,0.11912926746757657
3361.0,0.11907213473291511
3360.0,0.11907213473291511
3359.0,0.11907213473291511
3358.0,0.1190150095132465
3357.0,0.1190150095132465
3356.0,0.1190150095132465
3355.0,0.11907213473291511
3354.0,0.11912926746757657
3353.0,0.11924355548978971
3352.0,0.11947222180119477
3351.0,0.11975822410451964
3350.0,0.11992991593593283
3349.0,0.11987267778337518
3348.0,0.11958660012208333
3347.0,0.11935787359571504
3346.0,0.11930071078129845
3345.0,0.11941504393502012
3344.0,0.11970100857424737
3343.0,0.11992991593593283
3342.0,0.12015894401343741
3341.0,0.12044539906102569
3340.0,0.12067469921519258
3339.0,0.12084675381575383
3338.0,0.12090412049992727
3337.0,0.12090412049992727
3336.0,0.1207893947082408
3335.0,0.1207320431753871
3334.0,0.12061736282565727
3333.0,0.12050271275057156
3332.0,0.12050271275057156
3331.0,0.12056003400478299
3330.0,0.1207320431753871
3329.0,0.12101887660626365
3328.0,0.12119106764079435
3327.0,0.12124847982699793
3326.0,0.12113366304327466
3325.0,0.12090412049992727
3324.0,0.12067469921519258
3323.0,0.12056003400478299
3322.0,0.12050271275057156
3321.0,0.12050271275057156
3320.0,0.12044539906102569
3319.0,0.1202162199095842
3318.0,0.11981544717356662
3317.0,0.11947222180119477
3316.0,0.11930071078129845
3315.0,0.11930071078129845
3314.0,0.11952940719622163
3313.0,0.11975822410451964
3312.0,0.1199871616332282
3311.0,0.12015894401343741
3310.0,0.1202162199095842
3309.0,0.1202162199095842
3308.0,0.1201016756699902
3307.0,0.1201016756699902
3306.0,0.1201016756699902
3305.0,0.1201016756699902
3304.0,0.12015894401343741
3303.0,0.12015894401343741
3302.0,0.12015894401343741
3301.0,0.12015894401343741
3300.0,0.1201016756699902
3299.0,0.1201016756699902
3298.0,0.1202162199095842
3297.0,0.12050271275057156
3296.0,0.1207893947082408
3295.0,0.12090412049992727
3294.0,0.1207320431753871
3293.0,0.12056003400478299
3292.0,0.1203880929341492
3291.0,0.12027350336042275
3290.0,0.1202162199095842
3289.0,0.1201016756699902
3288.0,0.1199871616332282
3287.0,0.11987267778337518
3286.0,0.11992991593593283
3285.0,0.1201016756699902
3284.0,0.1203880929341492
3283.0,0.12067469921519258
3282.0,0.1207320431753871
3281.0,0.12056003400478299
3280.0,0.12027350336042275
3279.0,0.1199871616332282
3278.0,0.11987267778337518
3277.0,0.11981544717356662
3276.0,0.11975822410451964
3275.0,0.11981544717356662
3274.0,0.11981544717356662
3273.0,0.11987267778337518
3272.0,0.11987267778337518
3271.0,0.11987267778337518
3270.0,0.11992991593593283
3269.0,0.1199871616332282
3268.0,0.12004441487725082
3267.0,0.1201016756699902
3266.0,0.1201016756699902
3265.0,0.1199871616332282
3264.0,0.11987267778337518
3263.0,0.11981544717356662
3262.0,0.11981544717356662
3261.0,0.11981544717356662
3260.0,0.11981544717356662
3259.0,0.11987267778337518
3258.0,0.11992991593593283
3257.0,0.11992991593593283
3256.0,0.11987267778337518
3255.0,0.11975822410451964
3254.0,0.11952940719622163
3253.0,0.11930071078129845
3252.0,0.11907213473291511
3251.0,0.11895789180659433
3250.0,0.11895789180659433
3249.0,0.11907213473291511
3248.0,0.11924355548978971
3247.0,0.11947222180119477
3246.0,0.11975822410451964
3245.0,0.11987267778337518
3244.0,0.11987267778337518
3243.0,0.11981544717356662
3242.0,0.11970100857424737
3241.0,0.11947222180119477
3240.0,0.11907213473291511
3239.0,0.11861534322942724
3238.0,0.11844417020668851
3237.0,0.11855827805860697
3236.0,0.11890078161098283
3235.0,0.11930071078129845
3234.0,0.11958660012208333
3233.0,0.11970100857424737
3232.0,0.11964380058076385
3231.0,0.11947222180119477
3230.0,0.11924355548978971
3229.0,0.11907213473291511
3228.0,0.11895789180659433
3227.0,0.11895789180659433
3226.0,0.1190150095132465
3225.0,0.11907213473291511
3224.0,0.11918640771920863
3223.0,0.11941504393502012
3222.0,0.11958660012208333
3221.0,0.11958660012208333
3220.0,0.11947222180119477
3219.0,0.11935787359571504
3218.0,0.11930071078129845
3217.0,0.11930071078129845
3216.0,0.11930071078129845
3215.0,0.11918640771920863
3214.0,0.11895789180659433
3213.0,0.11867241589944855
3212.0,0.11850122038501709
3211.0,0.11850122038501709
3210.0,0.11867241589944855
3209.0,0.11890078161098283
3208.0,0.11907213473291511
3207.0,0.11912926746757657
3206.0,0.11912926746757657
3205.0,0.11912926746757657
3204.0,0.1190150095132465
3203.0,0.11878658374498086
3202.0,0.11850122038501709
3201.0,0.11815903167507247
3200.0,0.11793105556385153
3199.0,0.11798803837334138
3198.0,0.11827306462358211
3197.0,0.11867241589944855
3196.0,0.11890078161098283
3195.0,0.11890078161098283
3194.0,0.11872949607064243
3193.0,0.11855827805860697
3192.0,0.11844417020668851
3191.0,0.11844417020668851
3190.0,0.11855827805860697
3189.0,0.11867241589944855
3188.0,0.11872949607064243
3187.0,0.11872949607064243
3186.0,0.11872949607064243
3185.0,0.11878658374498086
3184.0,0.11878658374498086
3183.0,0.11878658374498086
3182.0,0.11872949607064243
3181.0,0.11861534322942724
3180.0,0.11844417020668851
3179.0,0.11821604440661537
3178.0,0.11793105556385153
3177.0,0.11787408022996826
3176.0,0.11787408022996826
3175.0,0.11798803837334138
3174.0,0.11804502866039956
3173.0,0.11798803837334138
3172.0,0.11798803837334138
3171.0,0.11815903167507247
3170.0,0.11833009232793867
3169.0,0.11844417020668851
3168.0,0.11833009232793867
3167.0,0.11815903167507247
3166.0,0.11798803837334138
3165.0,0.11787408022996826
3164.0,0.11787408022996826
3163.0,0.11787408022996826
3162.0,0.11787408022996826
3161.0,0.11787408022996826
3160.0,0.11793105556385153
3159.0,0.11804502866039956
3158.0,0.11798803837334138
3157.0,0.11781711236973003
3156.0,0.11741854644554883
3155.0,0.11702034596270106
3154.0,0.11684980031672243
3153.0,0.11690664142431006
3152.0,0.1170772093974013
3151.0,0.11730473761840288
3150.0,0.1175323851046286
3149.0,0.11770319906234805
3148.0,0.11776015198117662
3147.0,0.11770319906234805
3146.0,0.1174754620451195
3145.0,0.11724784438692004
3144.0,0.1170772093974013
3143.0,0.1169634899723202
3142.0,0.11702034596270106
3141.0,0.11719095860756013
3140.0,0.11736163830396129
3139.0,0.1175323851046286
3138.0,0.11764625361128611
3137.0,0.11764625361128611
3136.0,0.11758931562603192
3135.0,0.1175323851046286
3134.0,0.11736163830396129
3133.0,0.11724784438692004
3132.0,0.11719095860756013
3131.0,0.11741854644554883
3130.0,0.11770319906234805
3129.0,0.11798803837334138
3128.0,0.11810202642698875
3127.0,0.11793105556385153
3126.0,0.11770319906234805
3125.0,0.11758931562603192
3124.0,0.1175323851046286
3123.0,0.11758931562603192
3122.0,0.11758931562603192
3121.0,0.11758931562603192
3120.0,0.1175323851046286
3119.0,0.11741854644554883
3118.0,0.11730473761840288
3117.0,0.11730473761840288
3116.0,0.11730473761840288
3115.0,0.11730473761840288
3114.0,0.11719095860756013
3113.0,0.11719095860756013
3112.0,0.11730473761840288
3111.0,0.1175323851046286
3110.0,0.11781711236973003
3109.0,0.11804502866039956
3108.0,0.11827306462358211
3107.0,0.11844417020668851
3106.0,0.11844417020668851
3105.0,0.11844417020668851
3104.0,0.11855827805860697
3103.0,0.11884367892443626
3102.0,0.11912926746757657
3101.0,0.11930071078129845
3100.0,0.11930071078129845
3099.0,0.1190150095132465
3098.0,0.11855827805860697
3097.0,0.11804502866039956
3096.0,0.11764625361128611
3095.0,0.11741854644554883
3094.0,0.11736163830396129
3093.0,0.11736163830396129
3092.0,0.1175323851046286
3091.0,0.11776015198117662
3090.0,0.11804502866039956
3089.0,0.11827306462358211
3088.0,0.11844417020668851
3087.0,0.11855827805860697
3086.0,0.11878658374498086
3085.0,0.1190150095132465
3084.0,0.11924355548978971
3083.0,0.11930071078129845
3082.0,0.11912926746757657
3081.0,0.11895789180659433
3080.0,0.11890078161098283
3079.0,0.11907213473291511
3078.0,0.11930071078129845
3077.0,0.11947222180119477
3076.0,0.11947222180119477
3075.0,0.11930071078129845
3074.0,0.11907213473291511
3073.0,0.11884367892443626
3072.0,0.11867241589944855
3071.0,0.11867241589944855
3070.0,0.11884367892443626
3069.0,0.11918640771920863
3068.0,0.11958660012208333
3067.0,0.11981544717356662
3066.0,0.11992991593593283
3065.0,0.11981544717356662
3064.0,0.11964380058076385
3063.0,0.11947222180119477
3062.0,0.11935787359571504
3061.0,0.11930071078129845
3060.0,0.11930071078129845
3059.0,0.11930071078129845
3058.0,0.11941504393502012
3057.0,0.11952940719622163
3056.0,0.11975822410451964
3055.0,0.11987267778337518
3054.0,0.11992991593593283
3053.0,0.11987267778337518
3052.0,0.11975822410451964
3051.0,0.11964380058076385
3050.0,0.11952940719622163
3049.0,0.11930071078129845
3048.0,0.11907213473291511
3047.0,0.11878658374498086
3046.0,0.11850122038501709
3045.0,0.11821604440661537
3044.0,0.11787408022996826
3043.0,0.11758931562603192
3042.0,0.11736163830396129
3041.0,0.11719095860756013
3040.0,0.1169634899723202
3039.0,0.11667932161702477
3038.0,0.11628179803604044
3037.0,0.11594135290606156
3036.0,0.11582793047608719
3035.0,0.11582793047608719
3034.0,0.11599807523121286
3033.0,0.11599807523121286
3032.0,0.11588463798833115
3031.0,0.11565785235294102
3030.0,0.11531789579397489
3029.0,0.11492161585077598
3028.0,0.1145256971708426
3027.0,0.11424311893073247
3026.0,0.11401718864502697
3025.0,0.11396072443355765
3024.0,0.11390426756225258
3023.0,0.11379137583250243
3022.0,0.1136220932414278
3021.0,0.11339648571328764
3020.0,0.11322735694556196
3019.0,0.11317099532301778
3018.0,0.11322735694556196
3017.0,0.1133401021387972
3016.0,0.11345287660889425
3015.0,0.11356568037106163
3014.0,0.1136220932414278
3013.0,0.1136220932414278
3012.0,0.1136220932414278
3011.0,0.11356568037106163
3010.0,0.1136220932414278
3009.0,0.1136220932414278
3008.0,0.11367851344052027
3007.0,0.1136220932414278
3006.0,0.11356568037106163
3005.0,0.11345287660889425
3004.0,0.1133401021387972
3003.0,0.11322735694556196
3002.0,0.11322735694556196
3001.0,0.11322735694556196
3000.0,0.11328372588352176
2999.0,0.11317099532301778
2998.0,0.11305829401658474
2997.0,0.112945621949043
2996.0,0.1130019543289007
2995.0,0.11322735694556196
2994.0,0.11350927482751816
2993.0,0.11367851344052027
2992.0,0.11350927482751816
2991.0,0.11311464101399138
2990.0,0.11266406960083297
2989.0,0.11238269966426384
2988.0,0.11243895906999102
2987.0,0.11277666863747693
2986.0,0.11328372588352176
2985.0,0.1138478180292033
2984.0,0.11441264381034388
2983.0,0.1149782051377024
2982.0,0.11560117444331386
2981.0,0.11616828667054757
2980.0,0.11662251025166115
2979.0,0.11713408027837091
2978.0,0.11770319906234805
2977.0,0.11833009232793867
2976.0,0.11890078161098283
2975.0,0.11952940719622163
2974.0,0.1201016756699902
2973.0,0.12067469921519258
2972.0,0.12119106764079435
2971.0,0.12170805075020397
2970.0,0.12216810850710624
2969.0,0.12262865413022594
2968.0,0.12314735239865637
2967.0,0.1236666709136196
2966.0,0.12430223801979201
2965.0,0.124996646399959
2964.0,0.12569216687196105
2963.0,0.12621453918179926
2962.0,0.12656313677796316
2961.0,0.1267375405612734
2960.0,0.12685384867174432
2959.0,0.12679569072295926
2958.0,0.1267375405612734
2957.0,0.126621263590859
2956.0,0.12650501774383094
2955.0,0.12650501774383094
2954.0,0.12644690648638135
2953.0,0.12627261935332057
2952.0,0.12604034525664676
2951.0,0.12575017722159698
2950.0,0.12551818230053358
2949.0,0.12534426740189897
2948.0,0.125054563914468
2947.0,0.12476505354983503
2946.0,0.12430223801979201
2945.0,0.12383991517437187
2944.0,0.12343578601615435
2943.0,0.12303203256741524
2942.0,0.12262865413022594
2941.0,0.12211057462851604
2940.0,0.12147820449879343
2939.0,0.1207893947082408
2938.0,0.12015894401343741
2937.0,0.11964380058076385
2936.0,0.11935787359571504
2935.0,0.11918640771920863
2934.0,0.1190150095132465
2933.0,0.11872949607064243
2932.0,0.1183871275216517
2931.0,0.11804502866039956
2930.0,0.11776015198117662
2929.0,0.11758931562603192
2928.0,0.1174754620451195
2927.0,0.11741854644554883
2926.0,0.11741854644554883
2925.0,0.11736163830396129
2924.0,0.11724784438692004
2923.0,0.11702034596270106
2922.0,0.11684980031672243
2921.0,0.116736140415026
2920.0,0.11662251025166115
2919.0,0.11662251025166115
2918.0,0.11667932161702477
2917.0,0.11684980031672243
2916.0,0.1170772093974013
2915.0,0.11730473761840288
2914.0,0.1174754620451195
2913.0,0.11770319906234805
2912.0,0.11798803837334138
2911.0,0.11827306462358211
2910.0,0.11855827805860697
2909.0,0.11884367892443626
2908.0,0.11918640771920863
2907.0,0.11964380058076385
2906.0,0.1201016756699902
2905.0,0.12044539906102569
2904.0,0.12050271275057156
2903.0,0.12027350336042275
2902.0,0.11975822410451964
2901.0,0.11918640771920863
2900.0,0.11878658374498086
2899.0,0.11861534322942724
2898.0,0.11855827805860697
2897.0,0.11867241589944855
2896.0,0.11872949607064243
2895.0,0.11884367892443626
2894.0,0.11884367892443626
2893.0,0.11884367892443626
2892.0,0.11878658374498086
2891.0,0.11878658374498086
2890.0,0.11878658374498086
2889.0,0.11878658374498086
2888.0,0.11872949607064243
2887.0,0.11855827805860697
2886.0,0.1183871275216517
2885.0,0.11827306462358211
2884.0,0.11827306462358211
2883.0,0.1183871275216517
2882.0,0.11855827805860697
2881.0,0.11878658374498086
2880.0,0.11895789180659433
2879.0,0.11918640771920863
2878.0,0.11941504393502012
2877.0,0.11958660012208333
2876.0,0.11964380058076385
2875.0,0.11964380058076385
2874.0,0.11958660012208333
2873.0,0.11958660012208333
2872.0,0.11947222180119477
2871.0,0.11935787359571504
2870.0,0.11930071078129845
2869.0,0.11924355548978971
2868.0,0.11924355548978971
2867.0,0.11930071078129845
2866.0,0.11941504393502012
2865.0,0.11958660012208333
2864.0,0.11975822410451964
2863.0,0.11981544717356662
2862.0,0.11992991593593283
2861.0,0.12004441487725082
2860.0,0.12027350336042275
2859.0,0.12056003400478299
2858.0,0.12096149476276286
2857.0,0.1213058996038916
2856.0,0.12153565465853111
2855.0,0.12159311241900439
2854.0,0.12142076193778073
2853.0,0.12124847982699793
2852.0,0.12101887660626365
2851.0,0.12084675381575383
2850.0,0.1207320431753871
2849.0,0.1207320431753871
2848.0,0.1207893947082408
2847.0,0.1207893947082408
2846.0,0.12084675381575383
2845.0,0.12084675381575383
2844.0,0.12084675381575383
2843.0,0.12084675381575383
2842.0,0.12090412049992727
2841.0,0.12090412049992727
2840.0,0.12090412049992727
2839.0,0.12084675381575383
2838.0,0.12084675381575383
2837.0,0.12084675381575383
2836.0,0.12090412049992727
2835.0,0.12096149476276286
2834.0,0.12096149476276286
2833.0,0.12090412049992727
2832.0,0.12090412049992727
2831.0,0.12084675381575383
2830.0,0.1207893947082408
2829.0,0.1207893947082408
2828.0,0.1207893947082408
2827.0,0.1207320431753871
2826.0,0.12067469921519258
2825.0,0.12050271275057156
2824.0,0.1203880929341492
2823.0,0.1203880929341492
2822.0,0.12044539906102569
2821.0,0.12050271275057156
2820.0,0.12050271275057156
2819.0,0.12050271275057156
2818.0,0.12050271275057156
2817.0,0.12056003400478299
2816.0,0.12061736282565727
2815.0,0.12067469921519258
2814.0,0.1207320431753871
2813.0,0.12067469921519258
2812.0,0.12067469921519258
2811.0,0.1207320431753871
2810.0,0.1207893947082408
2809.0,0.1207893947082408
2808.0,0.1207893947082408
2807.0,0.1207893947082408
2806.0,0.1207893947082408
2805.0,0.1207320431753871
2804.0,0.12067469921519258
2803.0,0.12061736282565727
2802.0,0.12061736282565727
2801.0,0.12056003400478299
2800.0,0.12061736282565727
2799.0,0.1207320431753871
2798.0,0.12090412049992727
2797.0,0.12113366304327466
2796.0,0.12124847982699793
2795.0,0.12136332697348307
2794.0,0.12136332697348307
2793.0,0.12124847982699793
2792.0,0.12096149476276286
2791.0,0.1207320431753871
2790.0,0.12061736282565727
2789.0,0.12067469921519258
2788.0,0.12084675381575383
2787.0,0.12090412049992727
2786.0,0.12090412049992727
2785.0,0.12084675381575383
2784.0,0.1207893947082408
2783.0,0.1207893947082408
2782.0,0.12084675381575383
2781.0,0.12084675381575383
2780.0,0.12084675381575383
2779.0,0.1207320431753871
2778.0,0.12061736282565727
2777.0,0.12056003400478299
2776.0,0.12050271275057156
2775.0,0.1203880929341492
2774.0,0.12033079436794658
2773.0,0.12027350336042275
2772.0,0.12027350336042275
2771.0,0.12033079436794658
2770.0,0.1203880929341492
2769.0,0.12044539906102569
2768.0,0.12061736282565727
2767.0,0.1207893947082408
2766.0,0.12084675381575383
2765.0,0.1207893947082408
2764.0,0.1207893947082408
2763.0,0.1207320431753871
2762.0,0.12061736282565727
2761.0,0.12044539906102569
2760.0,0.1202162199095842
2759.0,0.12004441487725082
2758.0,0.1199871616332282
2757.0,0.11992991593593283
2756.0,0.1199871616332282
2755.0,0.1201016756699902
2754.0,0.12015894401343741
2753.0,0.1202162199095842
2752.0,0.12015894401343741
2751.0,0.1202162199095842
2750.0,0.1203880929341492
2749.0,0.12056003400478299
2748.0,0.1207320431753871
2747.0,0.12084675381575383
2746.0,0.12090412049992727
2745.0,0.12084675381575383
2744.0,0.12067469921519258
2743.0,0.12044539906102569
2742.0,0.12033079436794658
2741.0,0.1202162199095842
2740.0,0.12015894401343741
2739.0,0.12015894401343741
2738.0,0.12015894401343741
2737.0,0.12027350336042275
2736.0,0.12044539906102569
2735.0,0.1207320431753871
2734.0,0.12084675381575383
2733.0,0.12084675381575383
2732.0,0.1207320431753871
2731.0,0.12067469921519258
2730.0,0.12061736282565727
2729.0,0.12056003400478299
2728.0,0.12050271275057156
2727.0,0.12044539906102569
2726.0,0.12027350336042275
2725.0,0.1201016756699902
2724.0,0.11992991593593283
2723.0,0.11981544717356662
2722.0,0.11981544717356662
2721.0,0.11992991593593283
2720.0,0.12004441487725082
2719.0,0.12015894401343741
2718.0,0.1202162199095842
2717.0,0.12027350336042275
2716.0,0.12033079436794658
2715.0,0.12033079436794658
2714.0,0.12033079436794658
2713.0,0.12033079436794658
2712.0,0.12027350336042275
2711.0,0.12027350336042275
2710.0,0.12027350336042275
2709.0,0.1203880929341492
2708.0,0.12056003400478299
2707.0,0.12067469921519258
2706.0,0.12067469921519258
2705.0,0.12056003400478299
2704.0,0.12044539906102569
2703.0,0.12033079436794658
2702.0,0.12027350336042275
2701.0,0.12027350336042275
2700.0,0.1202162199095842
2699.0,0.1202162199095842
2698.0,0.12027350336042275
2697.0,0.12033079436794658
2696.0,0.1203880929341492
2695.0,0.1203880929341492
2694.0,0.12044539906102569
2693.0,0.12044539906102569
2692.0,0.1203880929341492
2691.0,0.12027350336042275
2690.0,0.1202162199095842
2689.0,0.12027350336042275
2688.0,0.1203880929341492
2687.0,0.12050271275057156
2686.0,0.12056003400478299
2685.0,0.12056003400478299
2684.0,0.12050271275057156
2683.0,0.1203880929341492
2682.0,0.12027350336042275
2681.0,0.1202162199095842
2680.0,0.12027350336042275
2679.0,0.1203880929341492
2678.0,0.12050271275057156
2677.0,0.12056003400478299
2676.0,0.12056003400478299
2675.0,0.12061736282565727
2674.0,0.12067469921519258
2673.0,0.1207320431753871
2672.0,0.1207320431753871
2671.0,0.12061736282565727
2670.0,0.12044539906102569
2669.0,0.12033079436794658
2668.0,0.12027350336042275
2667.0,0.12033079436794658
2666.0,0.1203880929341492
2665.0,0.12033079436794658
2664.0,0.12033079436794658
2663.0,0.12033079436794658
2662.0,0.12044539906102569
2661.0,0.12050271275057156
2660.0,0.12056003400478299
2659.0,0.12056003400478299
2658.0,0.12050271275057156
2657.0,0.12050271275057156
2656.0,0.12044539906102569
2655.0,0.1203880929341492
2654.0,0.12033079436794658
2653.0,0.12033079436794658
2652.0,0.12027350336042275
2651.0,0.12027350336042275
2650.0,0.12027350336042275
2649.0,0.1202162199095842
2648.0,0.12004441487725082
2647.0,0.11987267778337518
2646.0,0.11975822410451964
2645.0,0.11975822410451964
2644.0,0.11970100857424737
2643.0,0.11952940719622163
2642.0,0.11935787359571504
2641.0,0.11924355548978971
2640.0,0.11935787359571504
2639.0,0.11964380058076385
2638.0,0.11992991593593283
2637.0,0.12015894401343741
2636.0,0.12027350336042275
2635.0,0.12033079436794658
2634.0,0.12033079436794658
2633.0,0.1203880929341492
2632.0,0.1203880929341492
2631.0,0.1203880929341492
2630.0,0.1203880929341492
2629.0,0.12033079436794658
2628.0,0.12027350336042275
2627.0,0.1202162199095842
2626.0,0.1202162199095842
2625.0,0.12027350336042275
2624.0,0.12027350336042275
2623.0,0.12027350336042275
2622.0,0.1202162199095842
2621.0,0.1202162199095842
2620.0,0.12027350336042275
2619.0,0.1203880929341492
2618.0,0.12056003400478299
2617.0,0.1207320431753871
2616.0,0.1207893947082408
2615.0,0.1207893947082408
2614.0,0.1207320431753871
2613.0,0.1207320431753871
2612.0,0.12067469921519258
2611.0,0.12067469921519258
2610.0,0.1207320431753871
2609.0,0.1207893947082408
2608.0,0.1207893947082408
2607.0,0.1207893947082408
2606.0,0.1207320431753871
2605.0,0.12067469921519258
2604.0,0.12067469921519258
2603.0,0.1207893947082408
2602.0,0.12084675381575383
2601.0,0.12090412049992727
2600.0,0.12084675381575383
2599.0,0.1207320431753871
2598.0,0.1207893947082408
2597.0,0.12090412049992727
2596.0,0.12107626603243293
2595.0,0.12124847982699793
2594.0,0.1213058996038916
2593.0,0.12136332697348307
2592.0,0.1213058996038916
2591.0,0.12119106764079435
2590.0,0.12113366304327466
2589.0,0.12107626603243293
2588.0,0.12101887660626365
2587.0,0.12101887660626365
2586.0,0.12101887660626365
2585.0,0.12101887660626365
2584.0,0.12113366304327466
2583.0,0.12124847982699793
2582.0,0.12142076193778073
2581.0,0.12147820449879343
2580.0,0.12159311241900439
2579.0,0.12170805075020397
2578.0,0.12182301950849372
2577.0,0.12182301950849372
2576.0,0.12170805075020397
2575.0,0.12153565465853111
2574.0,0.12153565465853111
2573.0,0.12165057778222454
2572.0,0.12176553132495593
2571.0,0.12182301950849372
2570.0,0.12176553132495593
2569.0,0.12170805075020397
2568.0,0.12159311241900439
2567.0,0.12153565465853111
2566.0,0.12159311241900439
2565.0,0.12176553132495593
2564.0,0.12188051530283239
2563.0,0.1219955297319748
2562.0,0.12205304837081177
2561.0,0.12211057462851604
2560.0,0.12211057462851604
2559.0,0.12211057462851604
2558.0,0.12216810850710624
2557.0,0.12228319913502328
2556.0,0.12234075588839133
2555.0,0.12234075588839133
2554.0,0.12228319913502328
2553.0,0.12222565000860186
2552.0,0.12228319913502328
2551.0,0.12234075588839133
2550.0,0.12234075588839133
2549.0,0.12234075588839133
2548.0,0.12228319913502328
2547.0,0.12234075588839133
2546.0,0.12245589228405596
2545.0,0.12257105921178035
2544.0,0.12262865413022594
2543.0,0.12268625668776156
2542.0,0.12274386688641381
2541.0,0.12285911021517903
2540.0,0.12285911021517903
2539.0,0.12268625668776156
2538.0,0.12257105921178035
2537.0,0.12251347193039863
2536.0,0.12257105921178035
2535.0,0.12262865413022594
2534.0,0.12274386688641381
2533.0,0.12280148472821018
2532.0,0.12285911021517903
2531.0,0.12285911021517903
2530.0,0.12291674334934943
2529.0,0.12297438413275108
2528.0,0.12297438413275108
2527.0,0.12291674334934943
2526.0,0.12280148472821018
2525.0,0.12285911021517903
2524.0,0.12297438413275108
2523.0,0.12314735239865637
2522.0,0.12337808396572703
2521.0,0.12349349573411894
2520.0,0.12349349573411894
2519.0,0.12343578601615435
2518.0,0.12337808396572703
2517.0,0.12320502379929943
2516.0,0.12303203256741524
2515.0,0.12280148472821018
2514.0,0.12268625668776156
2513.0,0.12268625668776156
2512.0,0.12280148472821018
2511.0,0.12291674334934943
2510.0,0.12297438413275108
2509.0,0.12303203256741524
2508.0,0.12314735239865637
2507.0,0.1233203895807995
2506.0,0.12337808396572703
2505.0,0.12326270285933538
2504.0,0.12297438413275108
2503.0,0.12274386688641381
2502.0,0.12268625668776156
2501.0,0.12274386688641381
2500.0,0.12280148472821018
2499.0,0.12280148472821018
2498.0,0.12280148472821018
2497.0,0.12280148472821018
2496.0,0.12285911021517903
2495.0,0.12291674334934943
2494.0,0.12291674334934943
2493.0,0.12285911021517903
2492.0,0.12280148472821018
2491.0,0.12285911021517903
2490.0,0.12285911021517903
2489.0,0.12285911021517903
2488.0,0.12274386688641381
2487.0,0.12274386688641381
2486.0,0.12280148472821018
2485.0,0.12291674334934943
2484.0,0.12303203256741524
2483.0,0.12303203256741524
2482.0,0.12297438413275108
2481.0,0.12291674334934943
2480.0,0.12297438413275108
2479.0,0.12308968865537295
2478.0,0.12326270285933538
2477.0,0.1233203895807995
2476.0,0.12320502379929943
2475.0,0.12308968865537295
2474.0,0.12291674334934943
2473.0,0.12280148472821018
2472.0,0.12274386688641381
2471.0,0.12274386688641381
2470.0,0.12274386688641381
2469.0,0.12280148472821018
2468.0,0.12274386688641381
2467.0,0.12268625668776156
2466.0,0.12262865413022594
2465.0,0.12257105921178035
2464.0,0.12251347193039863
2463.0,0.12251347193039863
2462.0,0.12257105921178035
2461.0,0.12268625668776156
2460.0,0.12274386688641381
2459.0,0.12274386688641381
2458.0,0.12262865413022594
2457.0,0.12257105921178035
2456.0,0.12257105921178035
2455.0,0.12262865413022594
2454.0,0.12262865413022594
2453.0,0.12262865413022594
2452.0,0.12257105921178035
2451.0,0.12262865413022594
2450.0,0.12268625668776156
2449.0,0.12274386688641381
2448.0,0.12280148472821018
2447.0,0.12280148472821018
2446.0,0.12280148472821018
2445.0,0.12274386688641381
2444.0,0.12262865413022594
2443.0,0.12251347193039863
2442.0,0.12239832027072817
2441.0,0.12234075588839133
2440.0,0.12228319913502328
2439.0,0.12216810850710624
2438.0,0.12205304837081177
2437.0,0.1219955297319748
2436.0,0.12211057462851604
2435.0,0.12234075588839133
2434.0,0.12257105921178035
2433.0,0.12262865413022594
2432.0,0.12251347193039863
2431.0,0.12239832027072817
2430.0,0.12228319913502328
2429.0,0.12228319913502328
2428.0,0.12228319913502328
2427.0,0.12222565000860186
2426.0,0.12211057462851604
2425.0,0.12211057462851604
2424.0,0.12228319913502328
2423.0,0.12251347193039863
2422.0,0.12280148472821018
2421.0,0.12303203256741524
2420.0,0.12314735239865637
2419.0,0.12314735239865637
2418.0,0.12308968865537295
2417.0,0.12303203256741524
2416.0,0.12291674334934943
2415.0,0.12280148472821018
2414.0,0.12274386688641381
2413.0,0.12268625668776156
2412.0,0.12274386688641381
2411.0,0.12291674334934943
2410.0,0.12308968865537295
2409.0,0.12326270285933538
2408.0,0.12326270285933538
2407.0,0.12314735239865637
2406.0,0.12303203256741524
2405.0,0.12308968865537295
2404.0,0.12320502379929943
2403.0,0.12337808396572703
2402.0,0.12343578601615435
2401.0,0.12337808396572703
2400.0,0.1233203895807995
2399.0,0.1233203895807995
2398.0,0.12337808396572703
2397.0,0.12349349573411894
2396.0,0.12355121312165873
2395.0,0.12360893818081231
2394.0,0.12355121312165873
2393.0,0.12349349573411894
2392.0,0.12343578601615435
2391.0,0.1233203895807995
2390.0,0.12308968865537295
2389.0,0.12285911021517903
2388.0,0.12262865413022594
2387.0,0.12245589228405596
2386.0,0.12234075588839133
2385.0,0.12222565000860186
2384.0,0.12211057462851604
2383.0,0.1219955297319748
2382.0,0.12188051530283239
2381.0,0.12170805075020397
2380.0,0.12136332697348307
2379.0,0.12096149476276286
2378.0,0.12044539906102569
2377.0,0.11992991593593283
2376.0,0.11941504393502012
2375.0,0.11895789180659433
2374.0,0.11855827805860697
2373.0,0.11815903167507247
2372.0,0.11793105556385153
2371.0,0.11821604440661537
2370.0,0.11918640771920863
2369.0,0.12056003400478299
2368.0,0.12153565465853111
2367.0,0.12176553132495593
2366.0,0.12176553132495593
2365.0,0.12268625668776156
2364.0,0.12551818230053358
2363.0,0.12924505510985984
2362.0,0.13135556160517425
2361.0,0.1306509192409071
2360.0,0.1280186461566306
2359.0,0.12540223129680017
2358.0,0.12372441132212098
2357.0,0.12274386688641381
2356.0,0.12274386688641381
2355.0,0.12395544975390482
2354.0,0.12569216687196105
2353.0,0.12656313677796316
2352.0,0.12592425477696523
2351.0,0.12453358413361437
2350.0,0.12308968865537295
2349.0,0.12234075588839133
2348.0,0.1219955297319748
2347.0,0.12142076193778073
2346.0,0.1203880929341492
2345.0,0.11975822410451964
2344.0,0.12015894401343741
2343.0,0.12096149476276286
2342.0,0.12142076193778073
2341.0,0.12153565465853111
2340.0,0.12136332697348307
2339.0,0.12119106764079435
2338.0,0.12136332697348307
2337.0,0.12188051530283239
2336.0,0.12228319913502328
2335.0,0.12216810850710624
2334.0,0.12188051530283239
2333.0,0.12159311241900439
2332.0,0.12142076193778073
2331.0,0.12119106764079435
2330.0,0.12090412049992727
2329.0,0.1207320431753871
2328.0,0.1207320431753871
2327.0,0.1207893947082408
2326.0,0.12090412049992727
2325.0,0.12090412049992727
2324.0,0.12107626603243293
2323.0,0.12124847982699793
2322.0,0.12147820449879343
2321.0,0.12142076193778073
2320.0,0.12113366304327466
2319.0,0.1207893947082408
2318.0,0.1207320431753871
2317.0,0.12096149476276286
2316.0,0.12124847982699793
2315.0,0.12147820449879343
2314.0,0.12165057778222454
2313.0,0.12176553132495593
2312.0,0.1219955297319748
2311.0,0.12234075588839133
2310.0,0.12268625668776156
2309.0,0.12291674334934943
2308.0,0.12303203256741524
2307.0,0.12308968865537295
2306.0,0.12320502379929943
2305.0,0.12326270285933538
2304.0,0.12314735239865637
2303.0,0.12291674334934943
2302.0,0.12268625668776156
2301.0,0.12257105921178035
2300.0,0.12251347193039863
2299.0,0.12251347193039863
2298.0,0.12268625668776156
2297.0,0.12285911021517903
2296.0,0.12303203256741524
2295.0,0.12308968865537295
2294.0,0.12303203256741524
2293.0,0.12303203256741524
2292.0,0.12314735239865637
2291.0,0.12326270285933538
2290.0,0.12337808396572703
2289.0,0.12343578601615435
2288.0,0.12343578601615435
2287.0,0.12349349573411894
2286.0,0.12360893818081231
2285.0,0.1236666709136196
2284.0,0.1236666709136196
2283.0,0.12360893818081231
2282.0,0.12349349573411894
2281.0,0.12349349573411894
2280.0,0.12355121312165873
2279.0,0.1236666709136196
2278.0,0.12378215940835768
2277.0,0.12372441132212098
2276.0,0.12360893818081231
2275.0,0.12349349573411894
2274.0,0.12349349573411894
2273.0,0.12355121312165873
2272.0,0.12360893818081231
2271.0,0.12355121312165873
2270.0,0.12349349573411894
2269.0,0.12355121312165873
2268.0,0.12355121312165873
2267.0,0.12355121312165873
2266.0,0.12360893818081231
2265.0,0.12372441132212098
2264.0,0.12389767862220635
2263.0,0.12395544975390482
2262.0,0.12383991517437187
2261.0,0.12360893818081231
2260.0,0.12349349573411894
2259.0,0.12343578601615435
2258.0,0.12360893818081231
2257.0,0.12383991517437187
2256.0,0.12401322857151209
2255.0,0.12407101507707297
2254.0,0.12401322857151209
2253.0,0.12389767862220635
2252.0,0.12378215940835768
2251.0,0.1236666709136196
2250.0,0.12360893818081231
2249.0,0.12360893818081231
2248.0,0.1236666709136196
2247.0,0.12378215940835768
2246.0,0.12383991517437187
2245.0,0.12389767862220635
2244.0,0.12389767862220635
2243.0,0.12378215940835768
2242.0,0.1236666709136196
2241.0,0.12360893818081231
2240.0,0.12360893818081231
2239.0,0.12360893818081231
2238.0,0.1236666709136196
2237.0,0.1236666709136196
2236.0,0.1236666709136196
2235.0,0.1236666709136196
2234.0,0.12360893818081231
2233.0,0.12360893818081231
2232.0,0.1236666709136196
2231.0,0.12378215940835768
2230.0,0.12383991517437187
2229.0,0.12378215940835768
2228.0,0.1236666709136196
2227.0,0.12343578601615435
2226.0,0.12320502379929943
2225.0,0.12297438413275108
2224.0,0.12291674334934943
2223.0,0.12297438413275108
2222.0,0.12314735239865637
2221.0,0.12326270285933538
2220.0,0.12343578601615435
2219.0,0.12349349573411894
2218.0,0.12355121312165873
2217.0,0.12355121312165873
2216.0,0.12349349573411894
2215.0,0.1233203895807995
2214.0,0.12314735239865637
2213.0,0.12291674334934943
2212.0,0.12280148472821018
2211.0,0.12268625668776156
2210.0,0.12268625668776156
2209.0,0.12280148472821018
2208.0,0.12291674334934943
2207.0,0.12297438413275108
2206.0,0.12303203256741524
2205.0,0.12303203256741524
2204.0,0.12303203256741524
2203.0,0.12297438413275108
2202.0,0.12280148472821018
2201.0,0.12262865413022594
2200.0,0.12251347193039863
2199.0,0.12251347193039863
2198.0,0.12251347193039863
2197.0,0.12251347193039863
2196.0,0.12251347193039863
2195.0,0.12257105921178035
2194.0,0.12262865413022594
2193.0,0.12262865413022594
2192.0,0.12257105921178035
2191.0,0.12245589228405596
2190.0,0.12239832027072817
2189.0,0.12228319913502328
2188.0,0.12222565000860186
2187.0,0.12216810850710624
2186.0,0.12216810850710624
2185.0,0.12228319913502328
2184.0,0.12239832027072817
2183.0,0.12239832027072817
2182.0,0.12234075588839133
2181.0,0.12222565000860186
2180.0,0.12222565000860186
2179.0,0.12228319913502328
2178.0,0.12228319913502328
2177.0,0.12228319913502328
2176.0,0.12216810850710624
2175.0,0.12205304837081177
2174.0,0.1219955297319748
2173.0,0.1219955297319748
2172.0,0.1219955297319748
2171.0,0.12193801870998744
2170.0,0.12193801870998744
2169.0,0.12188051530283239
2168.0,0.12182301950849372
2167.0,0.12170805075020397
2166.0,0.12159311241900439
2165.0,0.12153565465853111
2164.0,0.12153565465853111
2163.0,0.12165057778222454
2162.0,0.12176553132495593
2161.0,0.12188051530283239
2160.0,0.1219955297319748
2159.0,0.12216810850710624
2158.0,0.12228319913502328
2157.0,0.12234075588839133
2156.0,0.12228319913502328
2155.0,0.12216810850710624
2154.0,0.12205304837081177
2153.0,0.1219955297319748
2152.0,0.1219955297319748
2151.0,0.1219955297319748
2150.0,0.12205304837081177
2149.0,0.1219955297319748
2148.0,0.1219955297319748
2147.0,0.12193801870998744
2146.0,0.12193801870998744
2145.0,0.12188051530283239
2144.0,0.12193801870998744
2143.0,0.1219955297319748
2142.0,0.12211057462851604
2141.0,0.12222565000860186
2140.0,0.12216810850710624
2139.0,0.12211057462851604
2138.0,0.12211057462851604
2137.0,0.12216810850710624
2136.0,0.12216810850710624
2135.0,0.12211057462851604
2134.0,0.12205304837081177
2133.0,0.1219955297319748
2132.0,0.1219955297319748
2131.0,0.12193801870998744
2130.0,0.12188051530283239
2129.0,0.12188051530283239
2128.0,0.12188051530283239
2127.0,0.12193801870998744
2126.0,0.12205304837081177
2125.0,0.12211057462851604
2124.0,0.12205304837081177
2123.0,0.12188051530283239
2122.0,0.12182301950849372
2121.0,0.12188051530283239
2120.0,0.12193801870998744
2119.0,0.1219955297319748
2118.0,0.12205304837081177
2117.0,0.12211057462851604
2116.0,0.12222565000860186
2115.0,0.12239832027072817
2114.0,0.12251347193039863
2113.0,0.12245589228405596
2112.0,0.12228319913502328
2111.0,0.12216810850710624
2110.0,0.12216810850710624
2109.0,0.12228319913502328
2108.0,0.12239832027072817
2107.0,0.12239832027072817
2106.0,0.12228319913502328
2105.0,0.12222565000860186
2104.0,0.12222565000860186
2103.0,0.12234075588839133
2102.0,0.12239832027072817
2101.0,0.12245589228405596
2100.0,0.12239832027072817
2099.0,0.12234075588839133
2098.0,0.12228319913502328
2097.0,0.12228319913502328
2096.0,0.12228319913502328
2095.0,0.12228319913502328
2094.0,0.12222565000860186
2093.0,0.12211057462851604
2092.0,0.12211057462851604
2091.0,0.12211057462851604
2090.0,0.12222565000860186
2089.0,0.12228319913502328
2088.0,0.12228319913502328
2087.0,0.12216810850710624
2086.0,0.12211057462851604
2085.0,0.1219955297319748
2084.0,0.12188051530283239
2083.0,0.12182301950849372
2082.0,0.12176553132495593
2081.0,0.12182301950849372
2080.0,0.12188051530283239
2079.0,0.12193801870998744
2078.0,0.12182301950849372
2077.0,0.12159311241900439
2076.0,0.12142076193778073
2075.0,0.1213058996038916
2074.0,0.12136332697348307
2073.0,0.12142076193778073
2072.0,0.12147820449879343
2071.0,0.12136332697348307
2070.0,0.12119106764079435
2069.0,0.12107626603243293
2068.0,0.12101887660626365
2067.0,0.12101887660626365
2066.0,0.12101887660626365
2065.0,0.12096149476276286
2064.0,0.1207893947082408
2063.0,0.12061736282565727
2062.0,0.12050271275057156
2061.0,0.12050271275057156
2060.0,0.12050271275057156
2059.0,0.12044539906102569
2058.0,0.1203880929341492
2057.0,0.1202162199095842
2056.0,0.12015894401343741
2055.0,0.12004441487725082
2054.0,0.1199871616332282
2053.0,0.11981544717356662
2052.0,0.11964380058076385
2051.0,0.11947222180119477
2050.0,0.11924355548978971
2049.0,0.11907213473291511
2048.0,0.11895789180659433
2047.0,0.11884367892443626
2046.0,0.11872949607064243
2045.0,0.11872949607064243
2044.0,0.11878658374498086
2043.0,0.11878658374498086
2042.0,0.11872949607064243
2041.0,0.11861534322942724
2040.0,0.11850122038501709
2039.0,0.11833009232793867
2038.0,0.11821604440661537
2037.0,0.11810202642698875
2036.0,0.11804502866039956
2035.0,0.11798803837334138
2034.0,0.11798803837334138
2033.0,0.11793105556385153
2032.0,0.11781711236973003
2031.0,0.11770319906234805
2030.0,0.11764625361128611
2029.0,0.11764625361128611
2028.0,0.11758931562603192
2027.0,0.1174754620451195
2026.0,0.11736163830396129
2025.0,0.11724784438692004
2024.0,0.11719095860756013
2023.0,0.11719095860756013
2022.0,0.11713408027837091
2021.0,0.11702034596270106
2020.0,0.11679296664760996
2019.0,0.1165089098110701
2018.0,0.1163953390777075
2017.0,0.11645212073195621
2016.0,0.1165657063169907
2015.0,0.11667932161702477
2014.0,0.11662251025166115
2013.0,0.1165657063169907
2012.0,0.1165657063169907
2011.0,0.1165657063169907
2010.0,0.1165089098110701
2009.0,0.11633856484638239
2008.0,0.11616828667054757
2007.0,0.11594135290606156
2006.0,0.11582793047608719
2005.0,0.11577123036739612
2004.0,0.11588463798833115
2003.0,0.11594135290606156
2002.0,0.11599807523121286
2001.0,0.11599807523121286
2000.0,0.11594135290606156
1999.0,0.11588463798833115
1998.0,0.11594135290606156
1997.0,0.11594135290606156
1996.0,0.11588463798833115
1995.0,0.11577123036739612
1994.0,0.11577123036739612
1993.0,0.11582793047608719
1992.0,0.11582793047608719
1991.0,0.11577123036739612
1990.0,0.11565785235294102
1989.0,0.11548784080960606
1988.0,0.11543118508166672
1987.0,0.11537453674376552
1986.0,0.11537453674376552
1985.0,0.11526126223036814
1984.0,0.11514801725400226
1983.0,0.11509140583739286
1982.0,0.11503480179926728
1981.0,0.11503480179926728
1980.0,0.11503480179926728
1979.0,0.11514801725400226
1978.0,0.11526126223036814
1977.0,0.11531789579397489
1976.0,0.11520463605101905
1975.0,0.11503480179926728
1974.0,0.1149782051377024
1973.0,0.1149782051377024
1972.0,0.11509140583739286
1971.0,0.11526126223036814
1970.0,0.11548784080960606
1969.0,0.1157145376603248
1968.0,0.11594135290606156
1967.0,0.11611154211151953
1966.0,0.11611154211151953
1965.0,0.11594135290606156
1964.0,0.11582793047608719
1963.0,0.11577123036739612
1962.0,0.11588463798833115
1961.0,0.11605480496572018
1960.0,0.11622503864474187
1959.0,0.11645212073195621
1958.0,0.11662251025166115
1957.0,0.11667932161702477
1956.0,0.11667932161702477
1955.0,0.11667932161702477
1954.0,0.11679296664760996
1953.0,0.11690664142431006
1952.0,0.1170772093974013
1951.0,0.11713408027837091
1950.0,0.11719095860756013
1949.0,0.1170772093974013
1948.0,0.1169634899723202
1947.0,0.11679296664760996
1946.0,0.11667932161702477
1945.0,0.1165657063169907
1944.0,0.1163953390777075
1943.0,0.11628179803604044
1942.0,0.11622503864474187
1941.0,0.11616828667054757
1940.0,0.11588463798833115
1939.0,0.11554450392951199
1938.0,0.11509140583739286
1937.0,0.11463877996848804
1936.0,0.11418662533951118
1935.0,0.11390426756225258
1934.0,0.11367851344052027
1933.0,0.11345287660889425
1932.0,0.11322735694556196
1931.0,0.11288929687511629
1930.0,0.11266406960083297
1929.0,0.11243895906999102
1928.0,0.11221396516162851
1927.0,0.11193288659256306
1926.0,0.1117081546434846
1925.0,0.11153968196461372
1924.0,0.1114835389250548
1923.0,0.11142740314240007
1922.0,0.11131515334030118
1921.0,0.11114683301706374
1920.0,0.11081038795292675
1919.0,0.11041819785037621
1918.0,0.11002636159600376
1917.0,0.10969078310005154
1916.0,0.10946720807225518
1915.0,0.10929960230112479
1914.0,0.10913206118855912
1913.0,0.10896458468468917
1912.0,0.10868560061785693
1911.0,0.10840679565103484
1910.0,0.1081838804751396
1909.0,0.10801676914803293
1908.0,0.10784972209863586
1907.0,0.10757145305477
1906.0,0.10729336219433439
1905.0,0.10707101764479421
1904.0,0.10690433390377163
1903.0,0.10673771411200872
1902.0,0.10657115822045493
1901.0,0.1062937069352865
1900.0,0.10596099919539115
1899.0,0.10562854614376227
1898.0,0.1052410056281079
1897.0,0.10501970907203151
1896.0,0.10479852522110678
1895.0,0.10468797552421272
1894.0,0.10457745396059215
1893.0,0.10452220372428545
1892.0,0.10441172433373724
1891.0,0.10424605792627206
1890.0,0.10408045468998406
1889.0,0.10391491457671487
1888.0,0.10369429253391926
1887.0,0.10330847343711591
1886.0,0.10292299679057959
1885.0,0.10259286033841963
1884.0,0.10226297465457268
1883.0,0.10193333935836524
1882.0,0.10171372141087698
1881.0,0.10154908080162528
1880.0,0.10132965703447017
1879.0,0.10105553313349058
1878.0,0.10078158214862709
1877.0,0.1005078038618683
1876.0,0.10023419805561384
1875.0,0.09990609845660159
1874.0,0.09957824654226233
1873.0,0.09935981601739963
1872.0,0.09925064193892053
1871.0,0.0990869322623309
1870.0,0.09870518283443275
1869.0,0.09832376867362447
1868.0,0.09810596802617932
1867.0,0.09810596802617932
1866.0,0.09799710864927058
1865.0,0.09777947172068524
1864.0,0.09745322068600859
1863.0,0.09696430321150284
1862.0,0.09653017149282994
1861.0,0.0960964733098364
1860.0,0.09566320779750503
1859.0,0.09539263618455207
1858.0,0.09517630019905599
1857.0,0.09506817260434741
1856.0,0.09485199814398393
1855.0,0.09463593123310776
1854.0,0.09447395156495153
1853.0,0.09425807260839858
1852.0,0.09398837472858723
1851.0,0.0937727369476411
1850.0,0.09366495819490939
1849.0,0.09361107884716913
1848.0,0.0935572061829677
1847.0,0.0935572061829677
1846.0,0.0935033402006471
1845.0,0.09323411045927221
1844.0,0.09280368972839836
1843.0,0.09253489323414388
1842.0,0.09248115389337075
1841.0,0.09242742120144909
1840.0,0.09231997575758011
1839.0,0.09210516458371698
1838.0,0.09189045960744768
1837.0,0.0917831469106074
1836.0,0.0916222275676053
1835.0,0.09140776115243066
1834.0,0.09124698081546634
1833.0,0.09124698081546634
1832.0,0.09135416109288674
1831.0,0.09135416109288674
1830.0,0.09113982698272349
1829.0,0.0908185240221473
1828.0,0.0905509530187334
1827.0,0.09033701484598189
1826.0,0.0900697402471693
1825.0,0.08958906008531176
1824.0,0.08905559425002108
1823.0,0.0885227828938977
1822.0,0.0881502035005799
1821.0,0.08788427092114603
1820.0,0.08767164203958999
1819.0,0.08745911720936239
1818.0,0.08719360733870762
1817.0,0.08687520961044104
1816.0,0.08650404038287651
1815.0,0.08602728844902896
1814.0,0.08555105930144569
1813.0,0.08502252755566908
1812.0,0.08454739831152125
1811.0,0.08396738981143059
1810.0,0.08344078069888616
1809.0,0.08291480935943274
1808.0,0.08238947425013277
1807.0,0.08181233864107451
1806.0,0.0812359689720008
1805.0,0.08076496207674921
1804.0,0.08034671768963575
1803.0,0.07987667370927598
1802.0,0.0794071379151915
1801.0,0.07878187880504961
1800.0,0.07810552907089763
1799.0,0.07737832847680104
1798.0,0.07665234350217442
1797.0,0.0759792995259323
1796.0,0.07546228222451012
1795.0,0.07504911108438939
1794.0,0.07458476291575367
1793.0,0.07386342893255127
1792.0,0.07278366940873537
1791.0,0.07155293679081787
1790.0,0.07047889936889606
1789.0,0.06966236426227002
1788.0,0.06894915322260897
1787.0,0.06823711151882228
1786.0,0.06737405597821788
1785.0,0.0663102910421054
1784.0,0.06514819703433927
1783.0,0.06419054619006714
1782.0,0.06343599486473406
1781.0,0.06258241852286206
1780.0,0.06153031163235467
1779.0,0.06033101647767336
1778.0,0.05923456436878238
1777.0,0.058190526991161784
1776.0,0.057198533682059516
1775.0,0.056406567231630955
1774.0,0.05571477931124735
1773.0,0.05438372077326825
1772.0,0.05232126006306337
1771.0,0.050317309204795935
1770.0,0.048905443158337114
1769.0,0.04778894189133087
1768.0,0.04638525830935958
1767.0,0.04469717723830824
1766.0,0.0433514207947967
1765.0,0.04263219156847242
1764.0,0.04224908912272074
1763.0,0.041483896576958834
1762.0,0.039909932095080425
1761.0,0.03782014709123227
1760.0,0.0360705779734416
1759.0,0.03517488211661135
1758.0,0.03470420418834386
1757.0,0.03385826726096752
1756.0,0.03273290844021437
1755.0,0.032218091924200776
1754.0,0.03273290844021437
1753.0,0.03371743783253667
1752.0,0.03456310022373987
1751.0,0.03555179208333925
1750.0,0.037299268295658994
1749.0,0.03995754427315856
1748.0,0.043495409683302455
1747.0,0.048128442871635535
1746.0,0.05379344615721715
1745.0,0.06028111764589528
1744.0,0.06798309356579857
1743.0,0.07706704344478843
1742.0,0.08698131625203986
1741.0,0.09745322068600859
1740.0,0.10929960230112479
1739.0,0.12291674334934943
1738.0,0.13649869935854997
1737.0,0.1480693213597324
1736.0,0.15845283474344662
1735.0,0.17005330405836405
1734.0,0.18695303483989223
1733.0,0.20781850385032108
1732.0,0.2261404476233131
1731.0,0.24176959154225042
1730.0,0.258060922270801
1729.0,0.27605202356835656
1728.0,0.2949063894521269
1727.0,0.31363189652696377
1726.0,0.332547047110046
1725.0,0.35232368675912906
1724.0,0.37417328671428884
1723.0,0.3979400086720375
1722.0,0.4219341161639085
1721.0,0.44393884099046743
1720.0,0.46369412764896634
1719.0,0.4838614232829257
1718.0,0.5097605147537128
1717.0,0.541966807503494
1716.0,0.5707323335668315
1715.0,0.5900668766687054
1714.0,0.6025814576486523
1713.0,0.6090648928966209
1712.0,0.6088883862971974
1711.0,0.6029294500405913
1710.0,0.5931193299508752
1709.0,0.5805399272139298
1708.0,0.5655907924124999
1707.0,0.5486741915104805
1706.0,0.5294425147827257
1705.0,0.5093393466438632
1704.0,0.4916049668669469
1703.0,0.47755576649368026
1702.0,0.46483251488505584
1701.0,0.44928257653071735
1700.0,0.4302750507738411
1699.0,0.41408828968056577
1698.0,0.4038429190838275
1697.0,0.3954499674287386
1696.0,0.3855246339096048
1695.0,0.37458464784559187
1694.0,0.3655227298392685
1693.0,0.358724242768087
1692.0,0.35291057128344505
1691.0,0.34698054890038676
1690.0,0.3407495312273392
1689.0,0.33517005885690954
1688.0,0.33031129194379183
1687.0,0.32596599956874517
1686.0,0.32139058344107396
1685.0,0.31605286924848786
1684.0,0.3118472444084337
1683.0,0.30962669308394086
1682.0,0.30750559249691567
1681.0,0.30451832350980257
1680.0,0.3012906505574131
1679.0,0.2979142785641751
1678.0,0.2946495371142881
1677.0,0.2912392763096834
1676.0,0.2876028685932852
1675.0,0.2841637248350062
1674.0,0.281415279972564
1673.0,0.2789316982028409
1672.0,0.27638016448453673
1671.0,0.27368038788922466
1670.0,0.27091624295638805
1669.0,0.2685724129490521
1668.0,0.26640153903866093
1667.0,0.2641616656829262
1666.0,0.2618539112879401
1665.0,0.25924267669222956
1664.0,0.25641184984009624
1663.0,0.25359935550843904
1662.0,0.2511919950413979
1661.0,0.2490290155626811
1660.0,0.2467234298155816
1659.0,0.24443001937120012
1658.0,0.24222450898807435
1657.0,0.24018112262517377
1656.0,0.23807216157947098
1655.0,0.23559967704361195
1654.0,0.2321023839819094
1653.0,0.2296635589048508
1652.0,0.2290743853610009
1651.0,0.22811867980990108
1650.0,0.22716507276098175
1649.0,0.2261404476233131
1648.0,0.2243895519936392
1647.0,0.2228632874958274
1646.0,0.22213837582375806
1645.0,0.22112552799726037
1644.0,0.2195386671382824
1643.0,0.21795758337944582
1642.0,0.21652521241775347
1641.0,0.21516882187553077
1640.0,0.21381665443236653
1639.0,0.21246868387276563
1638.0,0.2111248842245832
1637.0,0.20964445358561346
1636.0,0.20844969497266996
1635.0,0.20788859091283163
1634.0,0.20718822875185294
1633.0,0.20600019901552957
1632.0,0.20488501436963658
1631.0,0.2037726859705613
1630.0,0.20273245916928362
1629.0,0.20183294028406085
1628.0,0.2010042655561186
1627.0,0.20003947259401644
1626.0,0.1990081387398286
1625.0,0.1977052886025361
1624.0,0.19647460442346754
1623.0,0.19551981089400727
1622.0,0.19504320014250842
1621.0,0.1944311824514442
1620.0,0.19341306567219707
1619.0,0.19226207798589923
1618.0,0.1912490276504053
1617.0,0.1910467008440888
1616.0,0.19192413190869306
1615.0,0.19300648631789286
1614.0,0.19361649817583237
1613.0,0.19361649817583237
1612.0,0.19314197048118253
1611.0,0.19253262431572216
1610.0,0.19185657423850877
1609.0,0.1912490276504053
1608.0,0.19050762306265812
1607.0,0.18956584407732735
1606.0,0.18849202005467336
1605.0,0.1872871332346313
1604.0,0.18601892436352818
1603.0,0.18482086986058133
1602.0,0.18369240056806024
1601.0,0.18256685588861554
1600.0,0.1812464095022832
1599.0,0.17992996568767428
1598.0,0.17868302940890257
1597.0,0.17750501472124913
1596.0,0.17639537164484187
1595.0,0.1754186237665174
1594.0,0.17463880404736676
1593.0,0.17379557650074728
1592.0,0.17288931253398876
1591.0,0.17198493577602325
1590.0,0.1712756728612086
1589.0,0.17082492608291244
1588.0,0.17037464664195068
1587.0,0.16986061257465734
1586.0,0.16953964996903292
1585.0,0.16947548590274142
1584.0,0.16986061257465734
1583.0,0.17076057185861093
1582.0,0.17224313702138327
1581.0,0.17411970106382046
1580.0,0.17606954487443605
1579.0,0.1778319206319825
1578.0,0.17907641211868253
1577.0,0.17979854051435984
1576.0,0.18025870272698952
1575.0,0.180587688790675
1574.0,0.18019293540924397
1573.0,0.17907641211868253
1572.0,0.1775703762206431
1571.0,0.17580905934741686
1570.0,0.17405485679615196
1569.0,0.17263072694617465
1568.0,0.1714045436282976
1567.0,0.17024608107502504
1566.0,0.16915480769138846
1565.0,0.16806626953325465
1564.0,0.16685288808721488
1563.0,0.16596098184053343
1562.0,0.16513442009996204
1561.0,0.16437283379010226
1560.0,0.1626009756579776
1559.0,0.16159172150581314
1558.0,0.16272729749769965
1557.0,0.16247469055039865
1556.0,0.16133977401105848
1555.0,0.16083631708534996
1554.0,0.1602706247936121
1553.0,0.15970566838856382
1552.0,0.15901616267962204
1551.0,0.15851539066460685
1550.0,0.15801519540988607
1549.0,0.15745316350498495
1548.0,0.15676722190199066
1547.0,0.1560823619936076
1546.0,0.15539858037365328
1545.0,0.15465386258859137
1544.0,0.15397232463562127
1543.0,0.1534154971019539
1542.0,0.1527358982292355
1541.0,0.15181088300860135
1540.0,0.15107228677292173
1539.0,0.15045774799498335
1538.0,0.14953756723848333
1537.0,0.1489251947711132
1536.0,0.148864004988426
1535.0,0.14874165128092476
1534.0,0.14849704722945534
1533.0,0.14855818532794496
1532.0,0.14861933203440336
1531.0,0.14831368455757254
1530.0,0.1479471913021495
1529.0,0.1477030341730745
1528.0,0.14752000636314366
1527.0,0.1472151313194523
1526.0,0.14697138528701026
1525.0,0.14666689499766483
1524.0,0.14630178822382556
1523.0,0.1456332219591303
1522.0,0.14466259553045968
1521.0,0.14375459920994582
1520.0,0.14284849731250704
1519.0,0.14206473528057106
1518.0,0.1415229581866595
1517.0,0.1409818561111058
1516.0,0.14026143380285316
1515.0,0.13924287691845794
1514.0,0.1380476250785483
1513.0,0.1370342410222376
1512.0,0.13643923547375736
1511.0,0.13655817138629134
1510.0,0.13739163603505822
1509.0,0.13924287691845794
1508.0,0.14290884532648618
1507.0,0.1523039792658345
1506.0,0.166151950468852
1505.0,0.1745089701205691
1504.0,0.17613469067548881
1503.0,0.17496355877864622
1502.0,0.1718558926962137
1501.0,0.1674910872937636
1500.0,0.16234844215360744
1499.0,0.15707887924001773
1498.0,0.15193410459600853
1497.0,0.1472151313194523
1496.0,0.14315032127482774
1495.0,0.13984173868172167
1494.0,0.1374512304752069
1493.0,0.1360232160956132
1492.0,0.1350738084609946
1491.0,0.13418561983203192
1490.0,0.13329924395750092
1489.0,0.13282724882135022
1488.0,0.13259144347720886
1487.0,0.132179091954427
1486.0,0.13176713157753506
1485.0,0.1316495003520317
1484.0,0.13194363817695853
1483.0,0.13259144347720886
1482.0,0.13359450162194508
1481.0,0.1350738084609946
1480.0,0.1367961409713705
1479.0,0.1384058553561347
1478.0,0.13984173868172167
1477.0,0.14122226269455074
1476.0,0.1425468829647336
1475.0,0.14363367634075197
1474.0,0.14442027749828212
1473.0,0.1450869776921444
1472.0,0.14581545616639335
1471.0,0.1459369881335788
1470.0,0.14551177495556966
1469.0,0.14496568332411575
1468.0,0.14448084433219988
1467.0,0.14405705376768396
1466.0,0.14381507327283027
1465.0,0.14405705376768396
1464.0,0.14484442282300614
1463.0,0.14575470293388149
1462.0,0.14666689499766483
1461.0,0.14776406058811253
1460.0,0.14898639317633
1459.0,0.1500894416985039
1458.0,0.15101079374883275
1457.0,0.15236565568174498
1456.0,0.1537866361206126
1455.0,0.15440590683997568
1454.0,0.15477789357098626
1453.0,0.15508812608785938
1452.0,0.15508812608785938
1451.0,0.15471587365200845
1450.0,0.1540961611012175
1449.0,0.1534154971019539
1448.0,0.15261244897260462
1447.0,0.15162611615539823
1446.0,0.15051916275601385
1445.0,0.14941502364796855
1444.0,0.14837479684669086
1443.0,0.14745901423020125
1442.0,0.1466060225493342
1441.0,0.14587621789883287
1440.0,0.14539036190420496
1439.0,0.14502632627358292
1438.0,0.14435971910985468
1437.0,0.1427881576831076
1436.0,0.1405014418122239
1435.0,0.1381073096085541
1434.0,0.13590442657575252
1433.0,0.13388996015562338
1432.0,0.1316495003520317
1431.0,0.12901118623942476
1430.0,0.12592425477696523
1429.0,0.12262865413022594
1428.0,0.11947222180119477
1427.0,0.11679296664760996
1426.0,0.11463877996848804
1425.0,0.1125514997500463
1424.0,0.11047420332880886
1423.0,0.10874138309586101
1422.0,0.10746019534136453
1421.0,0.10640466618011679
1420.0,0.10568393731556158
1419.0,0.10596099919539115
1418.0,0.10801676914803293
1417.0,0.11165198982195101
1416.0,0.1170772093974013
1415.0,0.12464930342071079
1414.0,0.13483678049391368
1413.0,0.14813039927023364
1412.0,0.16449967213268124
1411.0,0.182963773949971
1410.0,0.2010042655561186
1409.0,0.21616785661555893
1408.0,0.22716507276098175
1407.0,0.23299263605019593
1406.0,0.23328979273774086
1405.0,0.2286330291422194
1404.0,0.22090879615450087
1403.0,0.2122562283535332
1402.0,0.20391157131933157
1401.0,0.19633807676377568
1400.0,0.18902860017779255
1399.0,0.1815101777957866
1398.0,0.1745089701205691
1397.0,0.1685141607513425
1396.0,0.16316971351112097
1395.0,0.15776531365276036
1394.0,0.15255073750082726
1393.0,0.14831368455757254
1392.0,0.14551177495556966
1391.0,0.14363367634075197
1390.0,0.1419442819496357
1389.0,0.1400815147992842
1388.0,0.13822670328130693
1387.0,0.13643923547375736
1386.0,0.1349552783069008
1385.0,0.1337717526203528
1384.0,0.13276828548110586
1383.0,0.1320613491092153
1382.0,0.13153190097901324
1381.0,0.13123804178794973
1380.0,0.13123804178794973
1379.0,0.13141433344123432
1378.0,0.13170831198214428
1377.0,0.132179091954427
1376.0,0.13288622016802298
1375.0,0.13388996015562338
1374.0,0.13489602535887202
1373.0,0.13572630319562085
1372.0,0.136142038116027
1371.0,0.13620146131949973
1370.0,0.1360232160956132
1369.0,0.1354889189416082
1368.0,0.13430394008392943
1367.0,0.1325325121409484
1366.0,0.1302990263261221
1365.0,0.12778543660241448
1364.0,0.12482294018529605
1363.0,0.1213058996038916
1362.0,0.11741854644554883
1361.0,0.11379137583250243
1360.0,0.11086644403327606
1359.0,0.10851829616048003
1358.0,0.10657115822045493
1357.0,0.10496440254767725
1356.0,0.10374943753836186
1355.0,0.10297804393963661
1354.0,0.10264786565568684
1353.0,0.10281292341984649
1352.0,0.10352889952072264
1351.0,0.10496440254767725
1350.0,0.10729336219433439
1349.0,0.11069829749368965
1348.0,0.11543118508166672
1347.0,0.12159311241900439
1346.0,0.12942053944731513
1345.0,0.13912320359670227
1344.0,0.1507034591652734
1343.0,0.1637391971415132
1342.0,0.1778973313530796
1341.0,0.192938760082761
1340.0,0.208028798979232
1339.0,0.22148698826107527
1338.0,0.23054882059796222
1337.0,0.23388471677858602
1336.0,0.23180603836692848
1335.0,0.22504531091986135
1334.0,0.21431433171909875
1333.0,0.200521601162019
1332.0,0.18508681872492616
1331.0,0.1693471862025755
1330.0,0.15465386258859137
1329.0,0.14170347546611461
1328.0,0.1308269726783169
1327.0,0.12193801870998744
1326.0,0.1149782051377024
1325.0,0.10957898119908571
1324.0,0.10540705207704448
1323.0,0.10231793820358015
1322.0,0.10001543745060903
1321.0,0.09837823590664274
1320.0,0.0972358560759139
1319.0,0.09642170633694569
1318.0,0.09593394808549704
1317.0,0.09560907998763835
1316.0,0.09550084460218011
1315.0,0.09566320779750503
1314.0,0.09604229147682952
1313.0,0.09674718310604158
1312.0,0.09772507952549825
1311.0,0.09903237608087578
1310.0,0.10061729446673495
1309.0,0.10242788617426934
1308.0,0.10435649517592083
1307.0,0.1062937069352865
1306.0,0.10801676914803293
1305.0,0.10957898119908571
1304.0,0.11109074073646874
1303.0,0.1128329791052256
1302.0,0.11514801725400226
1301.0,0.11804502866039956
1300.0,0.12170805075020397
1299.0,0.1260984021355387
1298.0,0.1311205537629121
1297.0,0.13673663634951905
1296.0,0.1427881576831076
1295.0,0.1489251947711132
1294.0,0.15508812608785938
1293.0,0.16115090926274478
1292.0,0.16729952903943257
1291.0,0.17347169365934856
1290.0,0.17953580942231584
1289.0,0.18535293054814383
1288.0,0.1910467008440888
1287.0,0.19647460442346754
1286.0,0.20176382363206424
1285.0,0.20676855294347907
1284.0,0.21147811277752715
1283.0,0.2159535841918867
1282.0,0.22018713682941948
1281.0,0.22424396215590203
1280.0,0.22833904065111255
1279.0,0.2326956825467268
1278.0,0.23709647150094293
1277.0,0.24161805822532467
1276.0,0.24641694110709333
1275.0,0.25188953250501633
1274.0,0.2581396059347365
1273.0,0.26560025747943294
1272.0,0.27466018409026294
1271.0,0.28541879116046887
1270.0,0.2976556416442313
1269.0,0.3112243447271552
1268.0,0.3258740172572918
1267.0,0.34179774661298534
1266.0,0.3584267468218245
1265.0,0.37551163748655103
1264.0,0.39275949616825745
1263.0,0.4094925379914167
1262.0,0.4250432242354931
1261.0,0.4392566989452882
1260.0,0.45197930509446893
1259.0,0.4628107737563554
1258.0,0.4715975620463826
1257.0,0.47886191629596375
1256.0,0.4857179521396222
1255.0,0.4928190227397591
1254.0,0.5004503740948509
1253.0,0.5093393466438632
1252.0,0.5201368869769023
1251.0,0.5331323796458904
1250.0,0.5479067509822686
1249.0,0.5644741485013451
1248.0,0.5830268273969637
1247.0,0.6032777214962266
1246.0,0.6234230429434879
1245.0,0.6428277422769664
1244.0,0.6613443344212997
1243.0,0.6779875614175996
1242.0,0.6914355864387611
1241.0,0.7015836199387055
1240.0,0.708187312532881
1239.0,0.7110803943382735
1238.0,0.7092977567121457
1237.0,0.7035542057936037
1236.0,0.6948636810563606
1235.0,0.6840296545430822
1234.0,0.6712127996454653
1233.0,0.657182685364267
1232.0,0.6434005642750291
1231.0,0.6298571529488979
1230.0,0.6161846340195687
1229.0,0.6029294500405913
1228.0,0.5904049806031844
1227.0,0.5787252087896535
1226.0,0.5673513399868932
1225.0,0.5562677585984033
1224.0,0.5457651042517344
1223.0,0.5361070110140926
1222.0,0.5269511949114623
1221.0,0.5181275896893365
1220.0,0.509900994936695
1219.0,0.5019652763129732
1218.0,0.49376564038787407
1217.0,0.4854522473397138
1216.0,0.47755576649368026
1215.0,0.46992843116262173
1214.0,0.4620550407085131
1213.0,0.4540746706441572
1212.0,0.4463596637686458
1211.0,0.43913730527253514
1210.0,0.4320330931768459
1209.0,0.42527441640592656
1208.0,0.4187331947263293
1207.0,0.41251353458903584
1206.0,0.4061603389187287
1205.0,0.3998987443086093
1204.0,0.3938336853923794
1203.0,0.3879582553547305
1202.0,0.38226596463598206
1201.0,0.37664731846200805
1200.0,0.37130461728597663
1199.0,0.36612773734166737
1198.0,0.3607127740897633
1197.0,0.3552660725528074
1196.0,0.34988683555642863
1195.0,0.34457341225408133
1194.0,0.3391345219961308
1193.0,0.3335756274812405
1192.0,0.328271911760442
1191.0,0.32321496958079465
1190.0,0.31812587787135316
1189.0,0.3130957304318227
1188.0,0.30812317744066875
1187.0,0.3033815407677751
1186.0,0.2989503692708604
1185.0,0.2948207551263238
1184.0,0.29106946419338375
1183.0,0.28777133038046476
1182.0,0.2849163293050727
1181.0,0.2824127031445396
1180.0,0.28050298338941837
1179.0,0.27901425584626094
1178.0,0.2781069837850425
1177.0,0.27761290582287623
1176.0,0.27744833799904156
1175.0,0.2771193893130608
1174.0,0.27605202356835656
1173.0,0.2743333396858214
1172.0,0.27188981589965944
1171.0,0.2687336509245084
1170.0,0.2648004515776867
1169.0,0.2601904009786411
1168.0,0.25500332596143993
1167.0,0.24956875133979795
1166.0,0.24435378054332002
1165.0,0.23942674605560588
1164.0,0.23500240071511946
1163.0,0.23091821288178105
1162.0,0.22709180502872828
1161.0,0.2235167441663184
1160.0,0.22011503680735567
1159.0,0.21688286250953293
1158.0,0.21367456560992992
1157.0,0.21056031543282083
1156.0,0.2076783636484265
1155.0,0.20502425594886842
1154.0,0.20266319922465015
1153.0,0.20065945054641832
1152.0,0.1990768181867817
1151.0,0.19777376230892996
1150.0,0.196747788569543
1149.0,0.19613336571501572
1148.0,0.19586056766464965
1147.0,0.19599694527038736
1146.0,0.19667947642124606
1145.0,0.19777376230892996
1144.0,0.1994203784308699
1143.0,0.20141840527145227
1142.0,0.20384212309308558
1141.0,0.20669864638688495
1140.0,0.20999647960951062
1139.0,0.2137456042102197
1138.0,0.21795758337944582
1137.0,0.22264568691579112
1136.0,0.2280452510360509
1135.0,0.23418248469008174
1134.0,0.24116377525304178
1133.0,0.2491060796178748
1132.0,0.258060922270801
1131.0,0.2679280590001334
1130.0,0.2784366816425192
1129.0,0.2895441356645754
1128.0,0.301377570297902
1127.0,0.31381076575597633
1126.0,0.3268868957617663
1125.0,0.3406543642538229
1124.0,0.3549709352788575
1123.0,0.3697755892475678
1122.0,0.384681343388521
1121.0,0.39913596369016036
1120.0,0.41273815030746586
1119.0,0.42481215507233894
1118.0,0.4347426565797863
1117.0,0.44225225835853177
1116.0,0.44696698379756006
1115.0,0.4481841776489843
1114.0,0.4462383016099958
1113.0,0.44225225835853177
1112.0,0.43830246734600653
1111.0,0.4360445350041873
1110.0,0.4364002711184689
1109.0,0.44033272161194237
1108.0,0.44830608487277535
1107.0,0.4600461583436033
1106.0,0.4746959900417611
1105.0,0.4910664739499673
1104.0,0.5089185865768129
1103.0,0.5270973481963359
1102.0,0.5445460312213719
1101.0,0.5609832716124872
1100.0,0.5765902722669065
1099.0,0.590912630552165
1098.0,0.6032777214962266
1097.0,0.6133227160391623
1096.0,0.6214204238842251
1095.0,0.6274561992409298
1094.0,0.630969778190847
1093.0,0.6322714539130234
1092.0,0.6320852612062473
1091.0,0.6302277114030372
1090.0,0.6267201067225039
1089.0,0.6216020990518623
1088.0,0.6160052105582672
1087.0,0.6103024517936142
1086.0,0.6044988756943741
1085.0,0.5985994592184558
1084.0,0.5929491851957496
1083.0,0.5873714794556248
1082.0,0.5812017094096464
1081.0,0.5743027866374089
1080.0,0.5671909949668317
1079.0,0.5594057381601691
1078.0,0.5509846836522136
1077.0,0.5418155644297373
1076.0,0.5326879370194479
1075.0,0.5237482039929664
1074.0,0.514988785421427
1073.0,0.5064025509994732
1072.0,0.4982562703720055
1071.0,0.4902599844296176
1070.0,0.4821445810699714
1069.0,0.47391930819797
1068.0,0.46584692581493736
1067.0,0.45842075605341903
1066.0,0.4516105818670817
1065.0,0.44551083999618113
1064.0,0.44009337496388756
1063.0,0.4348608480302105
1062.0,0.42934032997846594
1061.0,0.4236586497942072
1060.0,0.41816407594235194
1059.0,0.4128505017456563
1058.0,0.4078232426041333
1057.0,0.4031830640844094
1056.0,0.3993537643376055
1055.0,0.396206295863037
1054.0,0.3934036908207148
1053.0,0.3907258275954124
1052.0,0.388382889445664
1051.0,0.38668683854454056
1050.0,0.38541913300251385
1049.0,0.384576047114056
1048.0,0.38404994834359907
1047.0,0.3835244861114344
1046.0,0.3828947694976219
1045.0,0.38205656517102704
1044.0,0.38142897187987024
1043.0,0.38080228420705264
1042.0,0.37986394502624243
1041.0,0.378615971518347
1040.0,0.3772680348352808
1039.0,0.3756147585797349
1038.0,0.3735569746687053
1037.0,0.37110043557939343
1036.0,0.3681505378401819
1035.0,0.3650191999487715
1034.0,0.36131111330987653
1033.0,0.3572387967346795
1032.0,0.35291057128344505
1031.0,0.34794715175189506
1030.0,0.34227504579489176
1029.0,0.3360165453917334
1028.0,0.33031129194379183
1027.0,0.32633412375429804
1026.0,0.325414397697086
1025.0,0.32854944578750533
1024.0,0.3364875295848444
1023.0,0.3495953301319683
1022.0,0.3678465164893674
1021.0,0.39104630072413715
1020.0,0.41839163396794254
1019.0,0.44757515429591455
1018.0,0.4752145506787777
1017.0,0.4966179365262673
1016.0,0.5087784237607171
1015.0,0.5100415205751654
1014.0,0.502241281712732
1013.0,0.4889191544608815
1012.0,0.47404865875198743
1011.0,0.4600461583436033
1010.0,0.44806230463516283
1009.0,0.43794517034362146
1008.0,0.42922363120525175
1007.0,0.4213607900319276
1006.0,0.41397561761302426
1005.0,0.40737917867801765
1004.0,0.4017568083463774
1003.0,0.3970722871408108
1002.0,0.39318885308103657
1001.0,0.3899789753358547
1000.0,0.3870043439676525
999.0,0.38415511712529793
998.0,0.3813244611148603
997.0,0.3785121354193697
996.0,0.37602748798300367
995.0,0.3737623148530995
994.0,0.37130461728597663
993.0,0.36896230346325964
992.0,0.36683464631609675
991.0,0.36491856398912703
990.0,0.36331155204671717
989.0,0.36191027801549436
988.0,0.36061313098231595
987.0,0.35931984672233486
986.0,0.35793137265849584
985.0,0.3565473235138126
984.0,0.3555614105321614
983.0,0.3551676711743639
982.0,0.3552660725528074
981.0,0.3556599011736774
980.0,0.3566460380231371
979.0,0.35793137265849584
978.0,0.3595185630295781
977.0,0.36131111330987653
976.0,0.3630108981877709
975.0,0.36471736200178806
974.0,0.36632959394855624
973.0,0.3678465164893674
972.0,0.36916548217194944
971.0,0.3702846673528677
970.0,0.37089634982286346
969.0,0.3712025144332898
968.0,0.3712025144332898
967.0,0.37089634982286346
966.0,0.37018280398148407
965.0,0.36916548217194944
964.0,0.3679478332941901
963.0,0.36643055744590813
962.0,0.36451625318508785
961.0,0.36241021416130015
960.0,0.3605135107314139
959.0,0.35862505480787443
958.0,0.3565473235138126
957.0,0.35428306063039616
956.0,0.35222594973116994
955.0,0.3503731131594705
954.0,0.348721986001856
953.0,0.3470771124320582
952.0,0.34563090902471405
951.0,0.3441895055047477
950.0,0.34246611244201386
949.0,0.3407495312273392
948.0,0.3390397082239165
947.0,0.3376199799837525
946.0,0.3363932918754797
945.0,0.33517005885690954
944.0,0.3340439705460432
943.0,0.33282732752113153
942.0,0.3315208970674144
941.0,0.33031129194379183
940.0,0.32910504647979
939.0,0.32808698755841315
938.0,0.32716354582860285
937.0,0.32605800136591223
936.0,0.3250470519514348
935.0,0.3239468753481285
934.0,0.32275815405334596
933.0,0.32166375326781993
932.0,0.3208447587166461
931.0,0.32011805788713765
930.0,0.319120825573189
929.0,0.31794522292619276
928.0,0.31677279395856517
927.0,0.3156035215809796
926.0,0.3145269802772408
925.0,0.3133637307377066
924.0,0.31211447515129453
923.0,0.3108688027655022
922.0,0.3098039199714864
921.0,0.30883006586839623
920.0,0.30812317744066875
919.0,0.30715308072277003
918.0,0.30583370406680177
917.0,0.3042557248026767
916.0,0.30294510772742567
915.0,0.3018124301338776
914.0,0.30076949711659084
913.0,0.29955589897224844
912.0,0.2984320149440727
911.0,0.29739715865957295
910.0,0.29662263148765056
909.0,0.29593532059143257
908.0,0.29550630299070124
907.0,0.295249095709329
906.0,0.295249095709329
905.0,0.29550630299070124
904.0,0.29610704636745555
903.0,0.2967086218813386
902.0,0.29696669526631414
901.0,0.29688065376392214
900.0,0.2965366581167068
899.0,0.2962788400729801
898.0,0.2960211749916142
897.0,0.2956778591777647
896.0,0.29507770877659834
895.0,0.29422178717140235
894.0,0.2929410593724038
893.0,0.2914941190447631
892.0,0.2898826348881838
891.0,0.2882771081727653
890.0,0.28650945690605756
889.0,0.2844980547067162
888.0,0.28249592523579814
887.0,0.28050298338941837
886.0,0.278684119394101
885.0,0.2772016031290947
884.0,0.2767085535224161
883.0,0.27753061411596924
882.0,0.27992342723185937
881.0,0.2837461741039635
880.0,0.2892059000696725
879.0,0.2962788400729801
878.0,0.30504399775018176
877.0,0.31515463835558766
876.0,0.32651830292665274
875.0,0.3392293564723028
874.0,0.35300846252287754
873.0,0.3666325548829932
872.0,0.37820077599733226
871.0,0.3853136577179874
870.0,0.38721614328026455
869.0,0.384681343388521
868.0,0.3795516152882912
867.0,0.37335173152598977
866.0,0.36703683183273883
865.0,0.36111157529492455
864.0,0.3561526897002858
863.0,0.35212823469376753
862.0,0.3489159107569886
861.0,0.3463052046849182
860.0,0.3442854503812902
859.0,0.3423705686110481
858.0,0.3407495312273392
857.0,0.33932421166147586
856.0,0.33837659077076987
855.0,0.33790355458207655
854.0,0.3377144842778699
853.0,0.33799812061008283
852.0,0.3386606599939601
851.0,0.33989377827675593
850.0,0.341511618690983
849.0,0.3433269541151498
848.0,0.3450537734156558
847.0,0.34620881261218805
846.0,0.3466909870615211
845.0,0.3466909870615211
844.0,0.3464016181567102
843.0,0.3458234581220394
842.0,0.3446694419906591
841.0,0.3432312207339834
840.0,0.3419886033428876
839.0,0.34122567915564317
838.0,0.3404640928457836
837.0,0.3395139842150323
836.0,0.3380927072339792
835.0,0.3364875295848444
834.0,0.3347005005001029
833.0,0.3332013163338259
832.0,0.3318937620672686
831.0,0.33068311943388773
830.0,0.329197715739056
829.0,0.32753268693191795
828.0,0.3261500226570506
827.0,0.324863495532006
826.0,0.32339783041798165
825.0,0.32166375326781993
824.0,0.31984585826562695
823.0,0.3182162335321186
822.0,0.3170430736987915
821.0,0.3163227011813081
820.0,0.31578320486111955
819.0,0.31524437789137605
818.0,0.31425826139773627
817.0,0.31291715539562936
816.0,0.3113132757158765
815.0,0.3097152974873705
814.0,0.3084764778318456
813.0,0.3076819557407213
812.0,0.3073293008436311
811.0,0.3070649974688622
810.0,0.30627305107635316
809.0,0.3048687022959742
808.0,0.3032069149182557
807.0,0.3015514619846711
806.0,0.3000755972575233
805.0,0.2987775157434429
804.0,0.2975694635544748
803.0,0.2962788400729801
802.0,0.29473513768259596
801.0,0.29268536641129206
800.0,0.2904756441236589
799.0,0.28853021812567214
798.0,0.2874344721266917
797.0,0.28785558578511417
796.0,0.290051983489239
795.0,0.29328221766324125
794.0,0.29662263148765056
793.0,0.29903682184045066
792.0,0.30042240860109093
791.0,0.30068269897861777
790.0,0.29972906264356314
789.0,0.2976556416442313
788.0,0.2948207551263238
787.0,0.29166409731773646
786.0,0.2884458317498304
785.0,0.28550259135019407
784.0,0.283078926833239
783.0,0.28108331398513897
782.0,0.27909682918654255
781.0,0.2767906895948886
780.0,0.2740883677049517
779.0,0.2710783536271406
778.0,0.2681695797118375
777.0,0.2654401784205238
776.0,0.26272782346445656
775.0,0.2599532759485059
774.0,0.25703932978584754
773.0,0.25406684154055714
772.0,0.2509597312965428
771.0,0.24764419584649922
770.0,0.24427755509654192
769.0,0.24093681183951277
768.0,0.23754651763645307
767.0,0.2336615247487126
766.0,0.22914798835785577
765.0,0.22409842110832567
764.0,0.21903497039168318
763.0,0.21417208000413446
762.0,0.20957408260888943
761.0,0.20523320205917894
760.0,0.20086630669793704
759.0,0.19613336571501572
758.0,0.19084446825281964
757.0,0.1851533313955367
756.0,0.17953580942231584
755.0,0.17418455501479646
754.0,0.16896251435997467
753.0,0.16392919108485815
752.0,0.15895353459069628
751.0,0.15366288787019466
750.0,0.14782509557969692
749.0,0.14176366457048695
748.0,0.13578566953867033
747.0,0.13035765534840538
746.0,0.12563416426995122
745.0,0.12176553132495593
744.0,0.11884367892443626
743.0,0.11713408027837091
742.0,0.1170772093974013
741.0,0.11935787359571504
740.0,0.12464930342071079
739.0,0.13329924395750092
738.0,0.14539036190420496
737.0,0.16102504504453208
736.0,0.17992996568767428
735.0,0.20114226825251436
734.0,0.22395292881822026
733.0,0.24795155218056153
732.0,0.2735173032151703
731.0,0.30085631260551615
730.0,0.33031129194379183
729.0,0.3623101808815987
728.0,0.3972890550424426
727.0,0.4337982811450871
726.0,0.4682656907234497
725.0,0.49634548075704066
724.0,0.514988785421427
723.0,0.5244740849607192
722.0,0.5265130299354315
721.0,0.5236031732746698
720.0,0.5181275896893365
719.0,0.5118725037525416
718.0,0.5058454059815571
717.0,0.5010006364198469
716.0,0.49716336137899697
715.0,0.4940364819818739
714.0,0.4910664739499673
713.0,0.48758245139916
712.0,0.484126156288321
711.0,0.4804344991194909
710.0,0.47664379334520723
709.0,0.4730149314400043
708.0,0.4704413269788368
707.0,0.468904453129972
706.0,0.4676278664321225
705.0,0.46610089920340547
704.0,0.46432619657425
703.0,0.4621809049267258
702.0,0.4596705252091262
701.0,0.45680141436235333
700.0,0.4539511335982658
699.0,0.4518563625651546
698.0,0.449771646944906
697.0,0.44721014980721807
696.0,0.44430110528109856
695.0,0.44177157819667423
694.0,0.4393761254500701
693.0,0.4364002711184689
692.0,0.4323855572691555
691.0,0.4272445348457803
690.0,0.4220488722702449
689.0,0.41736856051036364
688.0,0.41386297476920686
687.0,0.4112802203999435
686.0,0.4092695942073097
685.0,0.40737917867801765
684.0,0.4053864908399021
683.0,0.4030731856570293
682.0,0.40088143494463724
681.0,0.3992448503603818
680.0,0.39804859586647834
679.0,0.39674733801835327
678.0,0.3953420279521289
677.0,0.39437177799238143
676.0,0.394479476562531
675.0,0.3953420279521289
674.0,0.39555793373927695
673.0,0.39426410612325324
672.0,0.39104630072413715
671.0,0.38647529714634765
670.0,0.38090666937325723
669.0,0.37509939779550994
668.0,0.37089634982286346
667.0,0.36957212497497616
666.0,0.3698773571406879
665.0,0.36997914888659
664.0,0.369470428573176
663.0,0.36865771351606735
662.0,0.3679478332941901
661.0,0.3677452233152865
660.0,0.36764395376092684
659.0,0.3666325548829932
658.0,0.3636124141868433
657.0,0.35941919351034746
656.0,0.35595550718525115
655.0,0.35447948509412597
654.0,0.35428306063039616
653.0,0.35389047802115203
652.0,0.35232368675912906
651.0,0.3499840475281615
650.0,0.34756025241057986
649.0,0.346016092625931
648.0,0.3458234581220394
647.0,0.34698054890038676
646.0,0.34852814780095764
645.0,0.3494982051216331
644.0,0.3491099221436875
643.0,0.34727030393075253
642.0,0.34457341225408133
641.0,0.34256167729703746
640.0,0.34227504579489176
639.0,0.3436142809413123
638.0,0.3458234581220394
637.0,0.34852814780095764
636.0,0.351835221425999
635.0,0.35487260074160876
634.0,0.3561526897002858
633.0,0.3552660725528074
632.0,0.3532043112215306
631.0,0.35056777675838346
630.0,0.34775365899667676
629.0,0.34495765866879835
628.0,0.34275287011628364
627.0,0.341606973720876
626.0,0.34122567915564317
625.0,0.34122567915564317
624.0,0.3404640928457836
623.0,0.3386606599939601
622.0,0.3363932918754797
621.0,0.33545203775345334
620.0,0.3364875295848444
619.0,0.3373365904259624
618.0,0.33507610656191833
617.0,0.33003263009149597
616.0,0.32596599956874517
615.0,0.32569011105852286
614.0,0.3274403722367243
613.0,0.32808698755841315
612.0,0.3264262035769485
611.0,0.3238553196437939
610.0,0.32230181852548934
609.0,0.3223930472795069
608.0,0.32403845035783063
607.0,0.32596599956874517
606.0,0.3269790928711038
605.0,0.3269790928711038
604.0,0.32762502125392046
603.0,0.3296613588725579
602.0,0.331334584545508
601.0,0.32956859063939437
600.0,0.3234892897174464
