cm-1,A
4000.0,0.004189368323957332
3999.0,0.004233220950025984
3998.0,0.004233220950025984
3997.0,0.004277078004534696
3996.0,0.004320939488377862
3995.0,0.004408675747646695
3994.0,0.004408675747646695
3993.0,0.0043648054024501
3992.0,0.004277078004534696
3991.0,0.004101676353562844
3990.0,0.003970171588923321
3989.0,0.0038825238627120395
3988.0,0.0038387066319929275
3987.0,0.0038825238627120395
3986.0,0.0038825238627120395
3985.0,0.0038825238627120395
3984.0,0.003794893821675638
3983.0,0.003707281458678491
3982.0,0.0036634819042162814
3981.0,0.003707281458678491
3980.0,0.003794893821675638
3979.0,0.003926345514724705
3978.0,0.00401400208620073
3977.0,0.004101676353562844
3976.0,0.004101676353562844
3975.0,0.00401400208620073
3974.0,0.003926345514724705
3973.0,0.0038825238627120395
3972.0,0.0038387066319929275
3971.0,0.0038825238627120395
3970.0,0.003970171588923321
3969.0,0.00401400208620073
3968.0,0.003970171588923321
3967.0,0.003926345514724705
3966.0,0.0038387066319929275
3965.0,0.0037510854308679953
3964.0,0.003707281458678491
3963.0,0.0037510854308679953
3962.0,0.0037510854308679953
3961.0,0.0037510854308679953
3960.0,0.003707281458678491
3959.0,0.0037510854308679953
3958.0,0.003794893821675638
3957.0,0.0038387066319929275
3956.0,0.003926345514724705
3955.0,0.003926345514724705
3954.0,0.0038387066319929275
3953.0,0.003707281458678491
3952.0,0.0035758960449088217
3951.0,0.0035321097382827737
3950.0,0.003619686766589858
3949.0,0.003794893821675638
3948.0,0.0038825238627120395
3947.0,0.0038387066319929275
3946.0,0.0037510854308679953
3945.0,0.003707281458678491
3944.0,0.0036634819042162814
3943.0,0.0035758960449088217
3942.0,0.0034445503666347133
3941.0,0.0033132443998284966
3940.0,0.0032694845648473247
3939.0,0.0033570086445275926
3938.0,0.0034445503666347133
3937.0,0.0034445503666347133
3936.0,0.0034007772998332353
3935.0,0.0033132443998284966
3934.0,0.0032257291386954545
3933.0,0.0031819781204844855
3932.0,0.0031382315093266833
3931.0,0.0031382315093266833
3930.0,0.0031382315093266833
3929.0,0.0031382315093266833
3928.0,0.0031819781204844855
3927.0,0.0032257291386954545
3926.0,0.0032694845648473247
3925.0,0.0033570086445275926
3924.0,0.0034007772998332353
3923.0,0.0034007772998332353
3922.0,0.0034007772998332353
3921.0,0.0033570086445275926
3920.0,0.0032694845648473247
3919.0,0.0032694845648473247
3918.0,0.0032694845648473247
3917.0,0.0033132443998284966
3916.0,0.0033570086445275926
3915.0,0.0033570086445275926
3914.0,0.0034007772998332353
3913.0,0.0035758960449088217
3912.0,0.003707281458678491
3911.0,0.003794893821675638
3910.0,0.003707281458678491
3909.0,0.0035321097382827737
3908.0,0.0032257291386954545
3907.0,0.0030070181092942683
3906.0,0.0028758443407954637
3905.0,0.0029195645282691363
3904.0,0.0029195645282691363
3903.0,0.0028321285541661467
3902.0,0.0027447101798967477
3901.0,0.0027884171674950053
3900.0,0.0030070181092942683
3899.0,0.0031819781204844855
3898.0,0.0033132443998284966
3897.0,0.0034007772998332353
3896.0,0.0034445503666347133
3895.0,0.0034445503666347133
3894.0,0.0034445503666347133
3893.0,0.0034445503666347133
3892.0,0.0034445503666347133
3891.0,0.0033132443998284966
3890.0,0.0030944893043338695
3889.0,0.0029195645282691363
3888.0,0.0029195645282691363
3887.0,0.003050751504618754
3886.0,0.0030944893043338695
3885.0,0.0029195645282691363
3884.0,0.002569926202528716
3883.0,0.002351545103793873
3882.0,0.0024388843664115978
3881.0,0.002701007590486082
3880.0,0.0028758443407954637
3879.0,0.0029195645282691363
3878.0,0.0028758443407954637
3877.0,0.0029632891174733444
3876.0,0.003050751504618754
3875.0,0.0029632891174733444
3874.0,0.002701007590486082
3873.0,0.0022642234021015284
3872.0,0.0020023635919956817
3871.0,0.002089632653256679
3870.0,0.0023078820582733695
3869.0,0.002482560585275184
3868.0,0.0025262411970197185
3867.0,0.0026573093983774942
3866.0,0.0027884171674950053
3865.0,0.0028321285541661467
3864.0,0.0027447101798967477
3863.0,0.002701007590486082
3862.0,0.002701007590486082
3861.0,0.0027884171674950053
3860.0,0.0028321285541661467
3859.0,0.0026573093983774942
3858.0,0.0022642234021015284
3857.0,0.0017842676290416026
3856.0,0.0014791171649619628
3855.0,0.0016534626036355249
3854.0,0.0022642234021015284
3853.0,0.002569926202528716
3852.0,0.0024388843664115978
3851.0,0.002482560585275184
3850.0,0.0028321285541661467
3849.0,0.0031382315093266833
3848.0,0.0032257291386954545
3847.0,0.0031382315093266833
3846.0,0.0030070181092942683
3845.0,0.0029195645282691363
3844.0,0.0028758443407954637
3843.0,0.0027447101798967477
3842.0,0.0025262411970197185
3841.0,0.0023078820582733695
3840.0,0.002089632653256679
3839.0,0.0020023635919956817
3838.0,0.0018714928717336043
3837.0,0.0017842676290416026
3836.0,0.0018278780605593958
3835.0,0.0020459959305969555
3834.0,0.002395212539545666
3833.0,0.0026573093983774942
3832.0,0.0028321285541661467
3831.0,0.0027884171674950053
3830.0,0.0027447101798967477
3829.0,0.0026573093983774942
3828.0,0.002701007590486082
3827.0,0.002701007590486082
3826.0,0.002569926202528716
3825.0,0.0023078820582733695
3824.0,0.0020023635919956817
3823.0,0.001915112063444413
3822.0,0.0021769192542746563
3821.0,0.002395212539545666
3820.0,0.0023078820582733695
3819.0,0.0021332737608552588
3818.0,0.0022205691343961664
3817.0,0.002613615602686581
3816.0,0.0029195645282691363
3815.0,0.0029195645282691363
3814.0,0.0027884171674950053
3813.0,0.0027447101798967477
3812.0,0.0028321285541661467
3811.0,0.0027884171674950053
3810.0,0.0026573093983774942
3809.0,0.002613615602686581
3808.0,0.002613615602686581
3807.0,0.002613615602686581
3806.0,0.0023078820582733695
3805.0,0.0019587356365717845
3804.0,0.0016970599014589638
3803.0,0.0018278780605593958
3802.0,0.0021332737608552588
3801.0,0.0022642234021015284
3800.0,0.002089632653256679
3799.0,0.0020023635919956817
3798.0,0.0021769192542746563
3797.0,0.002482560585275184
3796.0,0.002701007590486082
3795.0,0.0027884171674950053
3794.0,0.0028321285541661467
3793.0,0.0028758443407954637
3792.0,0.0028321285541661467
3791.0,0.0027447101798967477
3790.0,0.0026573093983774942
3789.0,0.0025262411970197185
3788.0,0.002482560585275184
3787.0,0.002482560585275184
3786.0,0.002482560585275184
3785.0,0.002482560585275184
3784.0,0.002395212539545666
3783.0,0.0023078820582733695
3782.0,0.0022642234021015284
3781.0,0.002395212539545666
3780.0,0.0026573093983774942
3779.0,0.0027884171674950053
3778.0,0.0027447101798967477
3777.0,0.002701007590486082
3776.0,0.0026573093983774942
3775.0,0.002701007590486082
3774.0,0.0026573093983774942
3773.0,0.002569926202528716
3772.0,0.002482560585275184
3771.0,0.0025262411970197185
3770.0,0.002482560585275184
3769.0,0.002351545103793873
3768.0,0.0021769192542746563
3767.0,0.0021332737608552588
3766.0,0.0022205691343961664
3765.0,0.002351545103793873
3764.0,0.002351545103793873
3763.0,0.0022642234021015284
3762.0,0.0021769192542746563
3761.0,0.002089632653256679
3760.0,0.0020459959305969555
3759.0,0.0019587356365717845
3758.0,0.0018278780605593958
3757.0,0.0016970599014589638
3756.0,0.0015662811355310335
3755.0,0.0013919706849057079
3754.0,0.0011306361176557367
3753.0,0.0009129773741116676
3752.0,0.0008259444115150671
3751.0,0.0008259444115150671
3750.0,0.0007824344698965646
3749.0,0.0006084382809090627
3748.0,0.000521466320689834
3747.0,0.0006519307932786322
3746.0,0.0010870956412141197
3745.0,0.0016534626036355249
3744.0,0.0018714928717336043
3743.0,0.0016534626036355249
3742.0,0.0015226969634936083
3741.0,0.001609869681952425
3740.0,0.001609869681952425
3739.0,0.0014791171649619628
3738.0,0.0012177301682640973
3737.0,0.0009565003968372565
3736.0,0.0007389288868995258
3735.0,0.0005649501236701937
3734.0,0.0005649501236701937
3733.0,0.0007389288868995258
3732.0,0.0011306361176557367
3731.0,0.0014791171649619628
3730.0,0.0017406615763013722
3729.0,0.001915112063444413
3728.0,0.001915112063444413
3727.0,0.0018278780605593958
3726.0,0.001609869681952425
3725.0,0.001348404001626502
3724.0,0.0012177301682640973
3723.0,0.0012612837441823288
3722.0,0.0013919706849057079
3721.0,0.0014791171649619628
3720.0,0.001609869681952425
3719.0,0.0016970599014589638
3718.0,0.0017842676290416026
3717.0,0.0018278780605593958
3716.0,0.0018278780605593958
3715.0,0.0017842676290416026
3714.0,0.0017406615763013722
3713.0,0.0017842676290416026
3712.0,0.0018714928717336043
3711.0,0.001915112063444413
3710.0,0.0018714928717336043
3709.0,0.0018714928717336043
3708.0,0.0020023635919956817
3707.0,0.0021332737608552588
3706.0,0.0021769192542746563
3705.0,0.0021332737608552588
3704.0,0.002089632653256679
3703.0,0.0021769192542746563
3702.0,0.0022642234021015284
3701.0,0.0022205691343961664
3700.0,0.0020459959305969555
3699.0,0.0019587356365717845
3698.0,0.0020023635919956817
3697.0,0.0021769192542746563
3696.0,0.002351545103793873
3695.0,0.0023078820582733695
3694.0,0.0021769192542746563
3693.0,0.001915112063444413
3692.0,0.0017406615763013722
3691.0,0.0017842676290416026
3690.0,0.0020023635919956817
3689.0,0.0021332737608552588
3688.0,0.0021769192542746563
3687.0,0.0022642234021015284
3686.0,0.002613615602686581
3685.0,0.0029632891174733444
3684.0,0.0031819781204844855
3683.0,0.0031819781204844855
3682.0,0.0030070181092942683
3681.0,0.0027447101798967477
3680.0,0.002351545103793873
3679.0,0.0018714928717336043
3678.0,0.0014355417390583547
3677.0,0.0013919706849057079
3676.0,0.0018278780605593958
3675.0,0.0021769192542746563
3674.0,0.0021332737608552588
3673.0,0.0021332737608552588
3672.0,0.002395212539545666
3671.0,0.0028758443407954637
3670.0,0.0034007772998332353
3669.0,0.003619686766589858
3668.0,0.003707281458678491
3667.0,0.003926345514724705
3666.0,0.004233220950025984
3665.0,0.004452550524862486
3664.0,0.004540313378935901
3663.0,0.004628093971837721
3662.0,0.004715892310740433
3661.0,0.004715892310740433
3660.0,0.004628093971837721
3659.0,0.004540313378935901
3658.0,0.00458420145758498
3657.0,0.00484762310854614
3656.0,0.005111204635089406
3655.0,0.005155150446602086
3654.0,0.005023326350308999
3653.0,0.004759798137184523
3652.0,0.0044964297349936455
3651.0,0.004540313378935901
3650.0,0.004979393875242044
3649.0,0.00541891874010525
3648.0,0.005550862985963967
3647.0,0.00577085918230158
3646.0,0.006167133386013823
3645.0,0.006696062080525422
3644.0,0.007225635744644521
3643.0,0.0075790439479759275
3642.0,0.007800070204414977
3641.0,0.007976972236149349
3640.0,0.008109696063975047
3639.0,0.008242460465651913
3638.0,0.008419542825660153
3637.0,0.008596697419959609
3636.0,0.008818242332126802
3635.0,0.009039900317800775
3634.0,0.009172949432521227
3633.0,0.009039900317800775
3632.0,0.0087296108049002
3631.0,0.008596697419959609
3630.0,0.008951223547323472
3629.0,0.009616741093766423
3628.0,0.010060986715464404
3627.0,0.010194349063173958
3626.0,0.010416710688994968
3625.0,0.010683695010048622
3624.0,0.01077272626946324
3623.0,0.010728208358306901
3622.0,0.010683695010048622
3621.0,0.01086177578421088
3620.0,0.011351874764248926
3619.0,0.011842527443247208
3618.0,0.012065734767841452
3617.0,0.01215504982870197
3616.0,0.012289056869694281
3615.0,0.012512493866907004
3614.0,0.012914970375878188
3613.0,0.013317820220494436
3612.0,0.013586594534531482
3611.0,0.01372104409400876
3610.0,0.013945219230304673
3609.0,0.014349026309051105
3608.0,0.014843078722943437
3607.0,0.015202742910707112
3606.0,0.015517693597737248
3605.0,0.015742798294583915
3604.0,0.015922966097169144
3603.0,0.016103208673694303
3602.0,0.016238439713835096
3601.0,0.01632861713980338
3600.0,0.01646391839700767
3599.0,0.016689514205884493
3598.0,0.017005545341335804
3597.0,0.017367005605150476
3596.0,0.017728766960431575
3595.0,0.01809082990920774
3594.0,0.01831727262871463
3593.0,0.01845319495476394
3592.0,0.018498511851753108
3591.0,0.018543833477873584
3590.0,0.018679826740892747
3589.0,0.019178833355664393
3588.0,0.01990568621470623
3587.0,0.020542681902151694
3586.0,0.020861530453190058
3585.0,0.021135015652343103
3584.0,0.02140867317992523
3583.0,0.021728158389364705
3582.0,0.02200219004126036
3581.0,0.022230681908425698
3580.0,0.022413561996148967
3579.0,0.02255077261765881
3578.0,0.022688026603074007
3577.0,0.02282532397981263
3576.0,0.02300845469384938
3575.0,0.023283295636617574
3574.0,0.02355831062115543
3573.0,0.023833499868024743
3572.0,0.023925268380126097
3571.0,0.023833499868024743
3570.0,0.02365002099672653
3569.0,0.02365002099672653
3568.0,0.024017056287453542
3567.0,0.024568191490736968
3566.0,0.02498200236711723
3565.0,0.02521206778644225
3564.0,0.025488307262671706
3563.0,0.025856900097785074
3562.0,0.026225806029419818
3561.0,0.026595025589939425
3560.0,0.02696455931306696
3559.0,0.02724191609646076
3558.0,0.027426919073445077
3557.0,0.027565723042634938
3556.0,0.0277045713888604
3555.0,0.027843464140506313
3554.0,0.028167720075074953
3553.0,0.02858497661500481
3552.0,0.029002634427514717
3551.0,0.029188389127482228
3550.0,0.029234840219232394
3549.0,0.029188389127482228
3548.0,0.029281296279810798
3547.0,0.02960662792039992
3546.0,0.030071810571884017
3545.0,0.03058408764601861
3544.0,0.031096969696171817
3543.0,0.031563752288295444
3542.0,0.03193753992355086
3541.0,0.032311649546687526
3540.0,0.032592443402527316
3539.0,0.03282657704446046
3538.0,0.03301397488206215
3537.0,0.0332483359486222
3536.0,0.03343591590268957
3535.0,0.03362357691107709
3534.0,0.03376437590141812
3533.0,0.033905220553829274
3532.0,0.034046110897937076
3531.0,0.03423403581731388
3530.0,0.034469056377139484
3529.0,0.03479829897408804
3528.0,0.03508070571335731
3527.0,0.035363296211498474
3526.0,0.035646070707806565
3525.0,0.03597620715996652
3524.0,0.036401037402758574
3523.0,0.036779013477011624
3522.0,0.0371100126082089
3521.0,0.037346595106788616
3520.0,0.037583306554248797
3519.0,0.03796231343498735
3518.0,0.03838909190871931
3517.0,0.038721320914956836
3516.0,0.038911280232103884
3515.0,0.038958783046687984
3514.0,0.03910132267333921
3513.0,0.03924390909822728
3512.0,0.03948165721929198
3511.0,0.039767126871487646
3510.0,0.0400527842915015
3509.0,0.040338629726504704
3508.0,0.04062466342415694
3507.0,0.04081545726880842
3506.0,0.040958607678906356
3505.0,0.041149548320321694
3504.0,0.04138834223512067
3503.0,0.04167506835594681
3502.0,0.042057664554595586
3501.0,0.04244059810252043
3500.0,0.04282386959515394
3499.0,0.0431115453499229
3498.0,0.04339941178682327
3497.0,0.04368746915880539
3496.0,0.04397571771932274
3495.0,0.044312249686494276
3494.0,0.04469717723830824
3493.0,0.04513062893352182
3492.0,0.045516282844447975
3491.0,0.045902279520810385
3490.0,0.046192002334692894
3489.0,0.04643358574299339
3488.0,0.04662694927330402
3487.0,0.04682039893436585
3486.0,0.04696554274964315
3485.0,0.04711073508906982
3484.0,0.04730440041308315
3483.0,0.047643522676209304
3482.0,0.04807992647970649
3481.0,0.04851676924770687
3480.0,0.04885683989244738
3479.0,0.049148541111453614
3478.0,0.049294465226138895
3477.0,0.04953778109440221
3476.0,0.04982994019179987
3475.0,0.050171041064686284
3474.0,0.05056119896349576
3473.0,0.050902874887084115
3472.0,0.051244819831730126
3471.0,0.05153812993871654
3470.0,0.0518316382728683
3469.0,0.05212534510230182
3468.0,0.05256627811294923
3467.0,0.05310580489767336
3466.0,0.053646002773725554
3465.0,0.054088483180726676
3464.0,0.05433450056786593
3463.0,0.05448217792216048
3462.0,0.05458065739693696
3461.0,0.05477768336465916
3460.0,0.05502409158795207
3459.0,0.055270639696704205
3458.0,0.05551732784983132
3457.0,0.055764156206519866
3456.0,0.05601112492622806
3455.0,0.05630767289398331
3454.0,0.05660442349104544
3453.0,0.05690137699451481
3452.0,0.057049929922901255
3451.0,0.057198533682059516
3450.0,0.05734718830678798
3449.0,0.05764465029232335
3448.0,0.05809122563440061
3447.0,0.058538260652670315
3446.0,0.0588862729628985
3445.0,0.059135024033278416
3444.0,0.05933412752417122
3443.0,0.05973260855398799
3442.0,0.0601813371786204
3441.0,0.06063052992534024
3440.0,0.06103020277710969
3439.0,0.06133019897732073
3438.0,0.061580354206806964
3437.0,0.061780582187257016
3436.0,0.06198090252378963
3435.0,0.06218131530164395
3434.0,0.06248210798265341
3433.0,0.06288348923294618
3432.0,0.06333548699992453
3431.0,0.06383825908884244
3430.0,0.06429125215733666
3429.0,0.06469430971007495
3428.0,0.06494641076893504
3427.0,0.06509774167768612
3426.0,0.06524912533642091
3425.0,0.06545105233385295
3424.0,0.06565307326174441
3423.0,0.0658551882075229
3422.0,0.06610796423578891
3421.0,0.06641148980334699
3420.0,0.06671522765130522
3419.0,0.06706985716921054
3418.0,0.06737405597821788
3417.0,0.0676277178520861
3416.0,0.0678307540792078
3415.0,0.0680846829187538
3414.0,0.06844043290919477
3413.0,0.06884736147670667
3412.0,0.06925467168888666
3411.0,0.06961138175567827
3410.0,0.0699173666076287
3409.0,0.07017251876930874
3408.0,0.07042782092345012
3407.0,0.07058107428570715
3406.0,0.07078549626260622
3405.0,0.0709900145060387
3404.0,0.07119462910671581
3403.0,0.07139934015547578
3402.0,0.07155293679081787
3401.0,0.07175781684269089
3400.0,0.07196279359311708
3399.0,0.07221915065262552
3398.0,0.07252697900472405
3397.0,0.07283502570063005
3396.0,0.0732460948102629
3395.0,0.07360609973031784
3394.0,0.07396640332115534
3393.0,0.07427547306393745
3392.0,0.07458476291575367
3391.0,0.0748426728241014
3390.0,0.07504911108438939
3389.0,0.07515236702446293
3388.0,0.07520400420208784
3387.0,0.07525564752005143
3386.0,0.07546228222451012
3385.0,0.07572071393811841
3384.0,0.07608277688689435
3383.0,0.07628980560343712
3382.0,0.07644514193245056
3381.0,0.07649693305789551
3380.0,0.07660053384128362
3379.0,0.07675598136972361
3378.0,0.07696333132921396
3377.0,0.07711890879170658
3376.0,0.07732643214144574
3375.0,0.07748213975538865
3374.0,0.07768983678560404
3373.0,0.07779372256098371
3372.0,0.07789763319239285
3371.0,0.07789763319239285
3370.0,0.07794959783282618
3369.0,0.07805354577058976
3368.0,0.07810552907089763
3367.0,0.07820951434181311
3366.0,0.07820951434181311
3365.0,0.07820951434181311
3364.0,0.07820951434181311
3363.0,0.07831352451639795
3362.0,0.07857365898473456
3361.0,0.0788860261633193
3360.0,0.07899019850296574
3359.0,0.07899019850296574
3358.0,0.0788860261633193
3357.0,0.0788860261633193
3356.0,0.07899019850296574
3355.0,0.07919861817434581
3354.0,0.0794071379151915
3353.0,0.07956359344924135
3352.0,0.07966792846041071
3351.0,0.07972010536705154
3350.0,0.07972010536705154
3349.0,0.07961575782164254
3348.0,0.07951143534170213
3347.0,0.0794071379151915
3346.0,0.07930286553008004
3345.0,0.07935499859321249
3344.0,0.07951143534170213
3343.0,0.07966792846041071
3342.0,0.07982447798997727
3341.0,0.07992887570247587
3340.0,0.07998108397108505
3339.0,0.08013774644446192
3338.0,0.08029446545087904
3337.0,0.08045124103115198
3336.0,0.0805035121369384
3335.0,0.0805035121369384
3334.0,0.08045124103115198
3333.0,0.08039897621588898
3332.0,0.08034671768963575
3331.0,0.08034671768963575
3330.0,0.08029446545087904
3329.0,0.08024221949810584
3328.0,0.08013774644446192
3327.0,0.07998108397108505
3326.0,0.07992887570247587
3325.0,0.07992887570247587
3324.0,0.07998108397108505
3323.0,0.08003329851661278
3322.0,0.07998108397108505
3321.0,0.07987667370927598
3320.0,0.07977228854307139
3319.0,0.07961575782164254
3318.0,0.0794592834975203
3317.0,0.07930286553008004
3316.0,0.07925073872429178
3315.0,0.07935499859321249
3314.0,0.0794071379151915
3313.0,0.07951143534170213
3312.0,0.07951143534170213
3311.0,0.0794592834975203
3310.0,0.0794592834975203
3309.0,0.0794071379151915
3308.0,0.0794592834975203
3307.0,0.0794592834975203
3306.0,0.0794071379151915
3305.0,0.07925073872429178
3304.0,0.07899019850296574
3303.0,0.07883394936226118
3302.0,0.07872981449018734
3301.0,0.07872981449018734
3300.0,0.07872981449018734
3299.0,0.07867775641617802
3298.0,0.07862570458152551
3297.0,0.07852161962430992
3296.0,0.07841755960658348
3295.0,0.07826151631540124
3294.0,0.0781575185941421
3293.0,0.07805354577058976
3292.0,0.07805354577058976
3291.0,0.07805354577058976
3290.0,0.07800156869172903
3289.0,0.07794959783282618
3288.0,0.07784567476894111
3287.0,0.0777417765670334
3286.0,0.07768983678560404
3285.0,0.07758597585436577
3284.0,0.07748213975538865
3283.0,0.07743023101428781
3282.0,0.07737832847680104
3281.0,0.07732643214144574
3280.0,0.07732643214144574
3279.0,0.07727454200674
3278.0,0.07727454200674
3277.0,0.0772226580712021
3276.0,0.07717078033335123
3275.0,0.07711890879170658
3274.0,0.07696333132921396
3273.0,0.07680780957933253
3272.0,0.07665234350217442
3271.0,0.07660053384128362
3270.0,0.07660053384128362
3269.0,0.07649693305789551
3268.0,0.0763933569825408
3267.0,0.07628980560343712
3266.0,0.07618627890881036
3265.0,0.07613452481449845
3264.0,0.07608277688689435
3263.0,0.07608277688689435
3262.0,0.07608277688689435
3261.0,0.07608277688689435
3260.0,0.07608277688689435
3259.0,0.07592757008963713
3258.0,0.0756173227980268
3257.0,0.07535895258283709
3256.0,0.07525564752005143
3255.0,0.07541061433058172
3254.0,0.07566901529132153
3253.0,0.07592757008963713
3252.0,0.0759792995259323
3251.0,0.07587584681417514
3250.0,0.07556563645676939
3249.0,0.07530729697981409
3248.0,0.07510073598571654
3247.0,0.07499749231902242
3246.0,0.07499749231902242
3245.0,0.07510073598571654
3244.0,0.07510073598571654
3243.0,0.07504911108438939
3242.0,0.07489427319033615
3241.0,0.07468790850035045
3240.0,0.07448164182257
3239.0,0.07432700607875953
3238.0,0.07417242537525759
3237.0,0.07406940213152868
3236.0,0.07401789967289685
3235.0,0.07391491307485598
3234.0,0.07381195089279391
3233.0,0.07370901311513656
3232.0,0.07355465218161061
3231.0,0.07334892291111106
3230.0,0.07304051161972436
3229.0,0.07278366940873537
3228.0,0.0725783049495814
3227.0,0.07242434530888953
3226.0,0.07227044022834539
3225.0,0.07216786713341827
3224.0,0.07206531825882068
3223.0,0.07206531825882068
3222.0,0.07211658966929302
3221.0,0.07211658966929302
3220.0,0.07211658966929302
3219.0,0.07206531825882068
3218.0,0.07196279359311708
3217.0,0.07191154033502922
3216.0,0.07191154033502922
3215.0,0.07191154033502922
3214.0,0.0718090519612431
3213.0,0.07155293679081787
3212.0,0.07109230975604719
3211.0,0.07068327324650436
3210.0,0.07042782092345012
3209.0,0.07032568205141221
3208.0,0.0702746216219956
3207.0,0.07017251876930874
3206.0,0.06996838504902692
3205.0,0.06976434723371505
3204.0,0.06956040523329987
3203.0,0.06935655895783555
3202.0,0.0692037370166998
3201.0,0.0691018855898955
3200.0,0.0690000580438479
3199.0,0.0688982543673613
3198.0,0.06879647454924775
3197.0,0.06869471857832687
3196.0,0.06859298644342648
3195.0,0.06844043290919477
3194.0,0.06828793294324442
3193.0,0.06803388527182741
3192.0,0.06777998612288094
3191.0,0.0675769736232612
3190.0,0.06737405597821788
3189.0,0.06712054217620067
3188.0,0.06681652082538614
3187.0,0.06641148980334699
3186.0,0.06600683616875758
3185.0,0.06565307326174441
3184.0,0.06545105233385295
3183.0,0.0654005617819271
3182.0,0.06545105233385295
3181.0,0.0654005617819271
3180.0,0.06529959828457499
3179.0,0.06514819703433927
3178.0,0.06494641076893504
3177.0,0.06474471821595262
3176.0,0.06434161389936577
3175.0,0.06393888339001164
3174.0,0.06353652599525317
3173.0,0.06328524178879635
3172.0,0.0630843190547461
3171.0,0.06298389253518577
3170.0,0.06283329628496737
3169.0,0.0627329277885873
3168.0,0.06258241852286206
3167.0,0.062381820606176586
3166.0,0.062131203436140536
3165.0,0.061880730805688344
3164.0,0.06163040254819374
3163.0,0.061380218497318895
3162.0,0.06103020277710969
3161.0,0.06068046892176193
3160.0,0.06033101647767336
3159.0,0.06003170944866376
3158.0,0.05983228596592505
3157.0,0.05968277842578207
3156.0,0.05963295401433477
3155.0,0.05948351506743288
3154.0,0.05933412752417122
3153.0,0.059135024033278416
3152.0,0.058936011780097886
3151.0,0.058737090681050264
3150.0,0.05858795962645047
3149.0,0.0583891978463662
3148.0,0.05814087347462649
3147.0,0.05779345772290467
3146.0,0.05744631966579017
3145.0,0.057049929922901255
3144.0,0.05670338543334519
3143.0,0.056406567231630955
3142.0,0.05625823416868636
3141.0,0.056159373598738904
3140.0,0.05610995175152733
3139.0,0.055961719945581745
3138.0,0.05571477931124735
3137.0,0.05541863577307371
3136.0,0.05507339001378431
3135.0,0.05477768336465916
3134.0,0.05453141486818014
3133.0,0.05428528594013993
3132.0,0.054088483180726676
3131.0,0.053842605077627725
3130.0,0.05369514500652506
3129.0,0.05354773498692689
3128.0,0.053449489430144714
3127.0,0.05325306496641513
3126.0,0.05300765925162776
3125.0,0.05281143447390635
3124.0,0.05266432405126009
3123.0,0.05266432405126009
3122.0,0.05261529831525902
3121.0,0.052419250695677544
3120.0,0.05212534510230182
3119.0,0.05178270644002936
3118.0,0.05148923116234294
3117.0,0.051244819831730126
3116.0,0.051049389754451946
3115.0,0.05085404758005607
3114.0,0.05065879322950262
3113.0,0.050463626623857394
3112.0,0.050317309204795935
3111.0,0.050171041064686284
3110.0,0.050073556332087765
3109.0,0.049927370249842395
3108.0,0.04978123335813667
3107.0,0.04958646063061889
3106.0,0.04934311749548925
3105.0,0.04909991063361274
3104.0,0.048808242065293994
3103.0,0.04851676924770687
3102.0,0.04832256265669943
3101.0,0.04817696468408794
3100.0,0.048128442871635535
3099.0,0.04807992647970649
3098.0,0.047982909952573705
3097.0,0.047885915093007325
3096.0,0.0478374257855374
3095.0,0.04778894189133087
3094.0,0.04774046340917959
3093.0,0.047691990337874746
3092.0,0.04754660357696672
3091.0,0.04725597598510167
3090.0,0.0469171560879138
3089.0,0.04657860031896477
3088.0,0.04628861957244457
3087.0,0.046143701775014145
3086.0,0.04609540658654021
3085.0,0.04599883231842972
3084.0,0.04585401117045196
3083.0,0.04570923829887308
3082.0,0.045564513671517703
3081.0,0.0454680573730859
3080.0,0.04541983725624266
3079.0,0.045323413081356456
3078.0,0.0451788169482068
3077.0,0.044937930324967956
3076.0,0.04464904263234004
3075.0,0.044456557540257124
3074.0,0.044312249686494276
3073.0,0.044167989767578186
3072.0,0.04402377775167454
3071.0,0.04387961360698034
3070.0,0.0437835307566099
3069.0,0.04368746915880539
3068.0,0.0435434165901003
3067.0,0.043303435105349175
3066.0,0.042967683653061695
3065.0,0.04272802000705722
3064.0,0.04253638427006878
3063.0,0.042392712939904875
3062.0,0.04224908912272074
3061.0,0.04200982159316968
3060.0,0.04181850243505214
3059.0,0.041627267521392675
3058.0,0.04153168163305643
3057.0,0.041483896576958834
3056.0,0.04138834223512067
3055.0,0.04124505013091051
3054.0,0.041006334969674096
3053.0,0.04072004986906119
3052.0,0.040481623027001756
3051.0,0.040243327009005014
3050.0,0.0400527842915015
3049.0,0.039909932095080425
3048.0,0.039767126871487646
3047.0,0.03962436858984186
3046.0,0.03948165721929198
3045.0,0.039338992729018196
3044.0,0.03910132267333921
3043.0,0.038816290187564384
3042.0,0.03857890593355173
3041.0,0.03838909190871931
3040.0,0.03829421599749461
3039.0,0.038199360808321536
3038.0,0.03810452633214956
3037.0,0.03791491948264003
3036.0,0.03772539537668518
3035.0,0.037488606492403154
3034.0,0.03720463014276687
3033.0,0.03701541568300293
3032.0,0.03682628362474838
3031.0,0.03668448861388862
3030.0,0.03649550058570927
3029.0,0.03625938114211591
3028.0,0.03592902944204468
3027.0,0.035693217696063595
3026.0,0.03545753392086315
3025.0,0.03531618502395939
3024.0,0.03517488211661135
3023.0,0.03498654972775217
3022.0,0.03475124903287918
3021.0,0.034516075754861264
3020.0,0.03428102975577918
3019.0,0.034046110897937076
3018.0,0.03385826726096752
3017.0,0.03367050483612166
3016.0,0.03352973627071565
3015.0,0.03334211579824231
3014.0,0.033154576345083564
3013.0,0.0329671178412978
3012.0,0.03273290844021437
3011.0,0.032545631817259224
3010.0,0.03240522732811035
3009.0,0.03226486821611996
3008.0,0.03207779326948268
3007.0,0.03179733185715028
3006.0,0.03151705144606498
3005.0,0.03128362253321426
3004.0,0.03105031901865729
3003.0,0.03081714076773867
3002.0,0.03058408764601861
3001.0,0.030351159519274695
3000.0,0.030164906924202484
2999.0,0.029978734171634214
2998.0,0.029792641193145286
2997.0,0.029653123769906697
2996.0,0.029560137048236124
2995.0,0.029467170231675777
2994.0,0.02932775731028059
2993.0,0.029141943003497595
2992.0,0.02890978686288448
2991.0,0.02863136320857662
2990.0,0.028445846553939003
2989.0,0.028306761050139073
2988.0,0.028306761050139073
2987.0,0.02839947976994095
2986.0,0.02849221828874393
2985.0,0.02849221828874393
2984.0,0.028445846553939003
2983.0,0.02839947976994095
2982.0,0.02839947976994095
2981.0,0.028445846553939003
2980.0,0.028538594975413334
2979.0,0.02863136320857662
2978.0,0.02872415126189476
2977.0,0.02872415126189476
2976.0,0.028770552723758724
2975.0,0.028863370523193765
2974.0,0.028956208163971375
2973.0,0.029095501846216454
2972.0,0.029281296279810798
2971.0,0.029467170231675777
2970.0,0.02969962459782227
2969.0,0.029885677714903025
2968.0,0.030118356253500123
2967.0,0.030351159519274695
2966.0,0.03063068826647264
2965.0,0.030910397045078586
2964.0,0.031096969696171817
2963.0,0.03128362253321426
2962.0,0.03142366482450232
2961.0,0.031657169041054534
2960.0,0.03189079887180224
2959.0,0.03217132066984485
2958.0,0.03235843591698884
2957.0,0.03245202378113787
2956.0,0.03240522732811035
2955.0,0.03226486821611996
2954.0,0.032124554451966825
2953.0,0.031984286006358165
2952.0,0.03184406285002961
2951.0,0.03175060589208267
2950.0,0.031657169041054534
2949.0,0.03161045815293173
2948.0,0.03170388495374454
2947.0,0.03189079887180224
2946.0,0.03207779326948268
2945.0,0.032311649546687526
2944.0,0.032545631817259224
2943.0,0.032873418923587305
2942.0,0.033295223342125535
2941.0,0.03376437590141812
2940.0,0.03432802877989327
2939.0,0.0349394793888016
2938.0,0.03559892883726867
2937.0,0.03630659476198117
2936.0,0.037062711569998186
2935.0,0.03786753070176463
2934.0,0.03876880295533702
2933.0,0.03967194946985697
2932.0,0.04062466342415694
2931.0,0.04167506835594681
2930.0,0.042775942156833
2929.0,0.044071843103049346
2928.0,0.0454680573730859
2927.0,0.04701393480294458
2926.0,0.04866248120408234
2925.0,0.050414848673348
2924.0,0.05227227303668425
2923.0,0.054186873412661596
2922.0,0.05620880107069848
2921.0,0.0582898510583536
2920.0,0.06033101647767336
2919.0,0.06218131530164395
2918.0,0.06353652599525317
2917.0,0.06424089625468832
2916.0,0.06414020196211956
2915.0,0.06328524178879635
2914.0,0.061780582187257016
2913.0,0.05983228596592505
2912.0,0.05769424710410598
2911.0,0.05561604235915585
2910.0,0.05379344615721715
2909.0,0.05217431555754937
2908.0,0.050805225762017736
2907.0,0.04968383607539972
2906.0,0.04866248120408234
2905.0,0.04778894189133087
2904.0,0.04701393480294458
2903.0,0.046192002334692894
2902.0,0.04541983725624266
2901.0,0.04474531717982
2900.0,0.04426415772233416
2899.0,0.04387961360698034
2898.0,0.0435434165901003
2897.0,0.0431115453499229
2896.0,0.04263219156847242
2895.0,0.042057664554595586
2894.0,0.041579471947481794
2893.0,0.041101805289228244
2892.0,0.040672354027829094
2891.0,0.040338629726504704
2890.0,0.040005161671583744
2889.0,0.03967194946985697
2888.0,0.03924390909822728
2887.0,0.038721320914956836
2886.0,0.038199360808321536
2885.0,0.03767802727041558
2884.0,0.03720463014276687
2883.0,0.036779013477011624
2882.0,0.036401037402758574
2881.0,0.03616496929785207
2880.0,0.03592902944204468
2879.0,0.035693217696063595
2878.0,0.03545753392086315
2877.0,0.03522197797762394
2876.0,0.0349394793888016
2875.0,0.03465716443937783
2874.0,0.03437503289075727
2873.0,0.03414006319292828
2872.0,0.033905220553829274
2871.0,0.03371743783253667
2870.0,0.033482823553208085
2869.0,0.033154576345083564
2868.0,0.03282657704446046
2867.0,0.032545631817259224
2866.0,0.03245202378113787
2865.0,0.03249882527715853
2864.0,0.032686081712916426
2863.0,0.03301397488206215
2862.0,0.033482823553208085
2861.0,0.034187046963396917
2860.0,0.03508070571335731
2859.0,0.03616496929785207
2858.0,0.03739392707587297
2857.0,0.03876880295533702
2856.0,0.04043395336207234
2855.0,0.04244059810252043
2854.0,0.04488976902944808
2853.0,0.04778894189133087
2852.0,0.05075640943173498
2851.0,0.0534986094304124
2850.0,0.05551732784983132
2849.0,0.056456022846545606
2848.0,0.05610995175152733
2847.0,0.05477768336465916
2846.0,0.052762392129333646
2845.0,0.050463626623857394
2844.0,0.048225491918274965
2843.0,0.046143701775014145
2842.0,0.044312249686494276
2841.0,0.04272802000705722
2840.0,0.041340572947066834
2839.0,0.04014804520039483
2838.0,0.03910132267333921
2837.0,0.03824678581321739
2836.0,0.037488606492403154
2835.0,0.036731748473764814
2834.0,0.03597620715996652
2833.0,0.03522197797762394
2832.0,0.03461012978487776
2831.0,0.03414006319292828
2830.0,0.03376437590141812
2829.0,0.03338901331806565
2828.0,0.033060836978886954
2827.0,0.032686081712916426
2826.0,0.03240522732811035
2825.0,0.03217132066984485
2824.0,0.03193753992355086
2823.0,0.031563752288295444
2822.0,0.031143625385307683
2821.0,0.0307239045110681
2820.0,0.030444315779156517
2819.0,0.03025802323714588
2818.0,0.030071810571884017
2817.0,0.029932203450862893
2816.0,0.02969962459782227
2815.0,0.029467170231675777
2814.0,0.029188389127482228
2813.0,0.028956208163971375
2812.0,0.02872415126189476
2811.0,0.02849221828874393
2810.0,0.028353117935693284
2809.0,0.028167720075074953
2808.0,0.02798240132598462
2807.0,0.027797161620935595
2806.0,0.027612000892527133
2805.0,0.027565723042634938
2804.0,0.02751945012352408
2803.0,0.027426919073445077
2802.0,0.027334407733889066
2801.0,0.02724191609646076
2800.0,0.02710321556345563
2799.0,0.02691835039863255
2798.0,0.026733563891471412
2797.0,0.026502691267936695
2796.0,0.026318081496016443
2795.0,0.02613355016462182
2794.0,0.026041313893296225
2793.0,0.025995203102585407
2792.0,0.025949097207122573
2791.0,0.025856900097785074
2790.0,0.025764722556973707
2789.0,0.02562649291857677
2788.0,0.02544225514642018
2787.0,0.025258095499050004
2786.0,0.02512002699306959
2785.0,0.025074013910237447
2784.0,0.025028005701930978
2783.0,0.02498200236711723
2782.0,0.024890010313838973
2781.0,0.024798037742147727
2780.0,0.024706084643793647
2779.0,0.024568191490736968
2778.0,0.024430342106337877
2777.0,0.024292536462819925
2776.0,0.024154774532432866
2775.0,0.024108863598207186
2774.0,0.02406295751688936
2773.0,0.02406295751688936
2772.0,0.023971159908874107
2771.0,0.023833499868024743
2770.0,0.023695883447997224
2769.0,0.02355831062115543
2768.0,0.02351246269481
2767.0,0.023466619608062178
2766.0,0.02342078135989012
2765.0,0.023374947949272418
2764.0,0.023283295636617574
2763.0,0.023191662661933732
2762.0,0.023054249440757957
2761.0,0.02300845469384938
2760.0,0.02296266477531872
2759.0,0.02296266477531872
2758.0,0.02291687968414724
2757.0,0.02282532397981263
2756.0,0.022688026603074007
2755.0,0.022505030926963654
2754.0,0.022367834754000393
2753.0,0.02227639471115217
2752.0,0.022230681908425698
2751.0,0.022230681908425698
2750.0,0.022139270735302752
2749.0,0.02204787879853809
2748.0,0.021956506090037076
2747.0,0.021865152601710403
2746.0,0.021819483062586187
2745.0,0.021773818325474092
2744.0,0.021773818325474092
2743.0,0.021728158389364705
2742.0,0.021728158389364705
2741.0,0.02168250325324883
2740.0,0.02168250325324883
2739.0,0.02168250325324883
2738.0,0.02168250325324883
2737.0,0.02168250325324883
2736.0,0.021636852916117055
2735.0,0.021545566634771474
2734.0,0.0214542995372613
2733.0,0.021317434843055594
2732.0,0.021271822861508305
2731.0,0.02122621566987748
2730.0,0.021135015652343103
2729.0,0.021043834782408455
2728.0,0.020861530453190058
2727.0,0.020724852408976924
2726.0,0.02058821736556471
2725.0,0.020542681902151694
2724.0,0.020497151212598652
2723.0,0.020542681902151694
2722.0,0.02058821736556471
2721.0,0.020633757603838898
2720.0,0.02067930261797568
2719.0,0.020633757603838898
2718.0,0.02058821736556471
2717.0,0.020497151212598652
2716.0,0.02036058777709271
2715.0,0.02026956933771462
2714.0,0.020178569969774962
2713.0,0.02013307743509718
2712.0,0.02013307743509718
2711.0,0.02013307743509718
2710.0,0.020087589665283012
2709.0,0.02004210665933459
2708.0,0.01995115493504329
2707.0,0.019814763052665052
2706.0,0.019769308608968306
2705.0,0.019723858922159776
2704.0,0.019723858922159776
2703.0,0.019678413991243593
2702.0,0.01958753839310856
2701.0,0.01949668180660491
2700.0,0.019451260640229506
2699.0,0.01949668180660491
2698.0,0.01949668180660491
2697.0,0.019451260640229506
2696.0,0.019360432556262852
2695.0,0.019269623464054586
2694.0,0.0192242260373785
2693.0,0.0192242260373785
2692.0,0.019178833355664393
2691.0,0.0190880622231564
2690.0,0.01899731005860028
2689.0,0.018906576854070378
2688.0,0.018906576854070378
2687.0,0.01899731005860028
2686.0,0.019042683770379876
2685.0,0.019042683770379876
2684.0,0.018951941086827073
2683.0,0.018815862601645694
2682.0,0.018679826740892747
2681.0,0.018543833477873584
2680.0,0.018498511851753108
2679.0,0.018498511851753108
2678.0,0.018543833477873584
2677.0,0.01858915983411169
2676.0,0.01858915983411169
2675.0,0.01858915983411169
2674.0,0.01858915983411169
2673.0,0.018634490921455527
2672.0,0.018634490921455527
2671.0,0.018634490921455527
2670.0,0.01858915983411169
2669.0,0.018498511851753108
2668.0,0.018362575344230914
2667.0,0.01831727262871463
2666.0,0.018271974638383703
2665.0,0.018271974638383703
2664.0,0.018271974638383703
2663.0,0.018181392829336396
2662.0,0.01809082990920774
2661.0,0.01800028587012159
2660.0,0.01800028587012159
2659.0,0.01809082990920774
2658.0,0.018136109008649592
2657.0,0.018181392829336396
2656.0,0.018181392829336396
2655.0,0.01809082990920774
2654.0,0.01800028587012159
2653.0,0.017955020928509757
2652.0,0.017909760704207134
2651.0,0.017909760704207134
2650.0,0.017909760704207134
2649.0,0.017864505196230507
2648.0,0.01781925440359733
2647.0,0.017728766960431575
2646.0,0.017638298366853045
2645.0,0.017547848615010242
2644.0,0.017502630802287644
2643.0,0.017457417697056554
2642.0,0.017412209298337533
2641.0,0.017367005605150476
2640.0,0.017367005605150476
2639.0,0.017367005605150476
2638.0,0.017412209298337533
2637.0,0.017457417697056554
2636.0,0.017457417697056554
2635.0,0.017412209298337533
2634.0,0.017367005605150476
2633.0,0.017321806616515723
2632.0,0.017321806616515723
2631.0,0.01727661233145472
2630.0,0.017231422748988034
2629.0,0.017141057687924732
2628.0,0.017141057687924732
2627.0,0.017141057687924732
2626.0,0.017141057687924732
2625.0,0.017141057687924732
2624.0,0.017141057687924732
2623.0,0.017095882207371904
2622.0,0.017050711425501408
2621.0,0.017005545341335804
2620.0,0.016915227262211507
2619.0,0.016870075265299933
2618.0,0.016870075265299933
2617.0,0.016870075265299933
2616.0,0.016824927962187042
2615.0,0.016689514205884493
2614.0,0.016599261819461697
2613.0,0.016554142658660398
2612.0,0.016599261819461697
2611.0,0.016644385668211692
2610.0,0.016689514205884493
2609.0,0.016734647433454652
2608.0,0.016689514205884493
2607.0,0.016644385668211692
2606.0,0.016599261819461697
2605.0,0.016554142658660398
2604.0,0.016509028184833463
2603.0,0.016509028184833463
2602.0,0.01646391839700767
2601.0,0.01646391839700767
2600.0,0.016418813294209356
2599.0,0.016373712875465518
2598.0,0.01632861713980338
2597.0,0.01628352608625061
2596.0,0.016238439713835096
2595.0,0.016148281008528276
2594.0,0.016103208673694303
2593.0,0.016058141016111804
2592.0,0.016013078034810446
2591.0,0.016013078034810446
2590.0,0.016013078034810446
2589.0,0.016058141016111804
2588.0,0.016058141016111804
2587.0,0.016058141016111804
2586.0,0.016013078034810446
2585.0,0.015922966097169144
2584.0,0.015877917138889863
2583.0,0.015922966097169144
2582.0,0.01596801972881945
2581.0,0.016058141016111804
2580.0,0.016103208673694303
2579.0,0.016013078034810446
2578.0,0.015877917138889863
2577.0,0.01578783323856614
2576.0,0.015697768020096703
2575.0,0.015652742414136167
2574.0,0.015697768020096703
2573.0,0.015697768020096703
2572.0,0.015697768020096703
2571.0,0.015607721475734415
2570.0,0.015562705203923999
2569.0,0.01547268665620738
2568.0,0.01538268676325183
2567.0,0.015292705517326866
2566.0,0.015247721884586563
2565.0,0.015292705517326866
2564.0,0.01538268676325183
2563.0,0.01547268665620738
2562.0,0.01547268665620738
2561.0,0.015427684378367834
2560.0,0.015337693809893471
2559.0,0.015247721884586563
2558.0,0.015202742910707112
2557.0,0.015202742910707112
2556.0,0.015292705517326866
2555.0,0.01538268676325183
2554.0,0.015427684378367834
2553.0,0.015427684378367834
2552.0,0.015427684378367834
2551.0,0.015337693809893471
2550.0,0.015202742910707112
2549.0,0.015112798935672522
2548.0,0.015022873584506602
2547.0,0.014977917890464765
2546.0,0.015022873584506602
2545.0,0.015022873584506602
2544.0,0.015067833932588037
2543.0,0.015067833932588037
2542.0,0.015067833932588037
2541.0,0.015022873584506602
2540.0,0.014932966849499074
2539.0,0.014888020460646079
2538.0,0.014888020460646079
2537.0,0.014977917890464765
2536.0,0.015067833932588037
2535.0,0.015112798935672522
2534.0,0.015112798935672522
2533.0,0.015067833932588037
2532.0,0.015022873584506602
2531.0,0.014977917890464765
2530.0,0.014932966849499074
2529.0,0.014843078722943437
2528.0,0.014753209197138295
2527.0,0.014708281407112
2526.0,0.014663358264387139
2525.0,0.014663358264387139
2524.0,0.014708281407112
2523.0,0.014798141635428141
2522.0,0.014888020460646079
2521.0,0.014932966849499074
2520.0,0.014977917890464765
2519.0,0.015022873584506602
2518.0,0.015022873584506602
2517.0,0.015022873584506602
2516.0,0.015022873584506602
2515.0,0.014932966849499074
2514.0,0.014843078722943437
2513.0,0.014798141635428141
2512.0,0.014753209197138295
2511.0,0.014708281407112
2510.0,0.014708281407112
2509.0,0.014663358264387139
2508.0,0.014663358264387139
2507.0,0.014663358264387139
2506.0,0.014708281407112
2505.0,0.014753209197138295
2504.0,0.014753209197138295
2503.0,0.014708281407112
2502.0,0.014663358264387139
2501.0,0.014573525916998342
2500.0,0.01452861671041239
2499.0,0.0144837121472845
2498.0,0.0144837121472845
2497.0,0.0144837121472845
2496.0,0.01452861671041239
2495.0,0.014573525916998342
2494.0,0.014573525916998342
2493.0,0.01452861671041239
2492.0,0.0144837121472845
2491.0,0.014393916947563534
2490.0,0.014304140310157809
2489.0,0.014349026309051105
2488.0,0.014393916947563534
2487.0,0.0144837121472845
2486.0,0.01452861671041239
2485.0,0.0144837121472845
2484.0,0.014393916947563534
2483.0,0.014349026309051105
2482.0,0.014349026309051105
2481.0,0.014393916947563534
2480.0,0.014393916947563534
2479.0,0.014349026309051105
2478.0,0.014304140310157809
2477.0,0.014304140310157809
2476.0,0.014304140310157809
2475.0,0.014259258949925524
2474.0,0.014259258949925524
2473.0,0.014259258949925524
2472.0,0.014304140310157809
2471.0,0.014349026309051105
2470.0,0.014438812226654996
2469.0,0.01452861671041239
2468.0,0.014573525916998342
2467.0,0.01452861671041239
2466.0,0.014438812226654996
2465.0,0.014393916947563534
2464.0,0.014393916947563534
2463.0,0.014349026309051105
2462.0,0.014304140310157809
2461.0,0.014259258949925524
2460.0,0.014169510141607944
2459.0,0.014169510141607944
2458.0,0.014169510141607944
2457.0,0.014214382227394795
2456.0,0.014214382227394795
2455.0,0.014214382227394795
2454.0,0.014214382227394795
2453.0,0.014259258949925524
2452.0,0.014259258949925524
2451.0,0.014259258949925524
2450.0,0.014214382227394795
2449.0,0.014169510141607944
2448.0,0.014124642691606404
2447.0,0.014169510141607944
2446.0,0.014214382227394795
2445.0,0.014259258949925524
2444.0,0.014214382227394795
2443.0,0.014079779876432497
2442.0,0.013900374944870508
2441.0,0.01381070026317599
2440.0,0.013765869865004277
2439.0,0.01385553528947936
2438.0,0.013990068146738865
2437.0,0.014124642691606404
2436.0,0.014214382227394795
2435.0,0.014259258949925524
2434.0,0.014214382227394795
2433.0,0.014214382227394795
2432.0,0.014169510141607944
2431.0,0.014169510141607944
2430.0,0.014169510141607944
2429.0,0.014169510141607944
2428.0,0.014169510141607944
2427.0,0.014169510141607944
2426.0,0.014169510141607944
2425.0,0.014124642691606404
2424.0,0.014124642691606404
2423.0,0.014124642691606404
2422.0,0.014124642691606404
2421.0,0.014124642691606404
2420.0,0.014169510141607944
2419.0,0.014169510141607944
2418.0,0.014124642691606404
2417.0,0.014079779876432497
2416.0,0.01403492169512921
2415.0,0.01403492169512921
2414.0,0.01403492169512921
2413.0,0.014124642691606404
2412.0,0.014214382227394795
2411.0,0.014304140310157809
2410.0,0.014349026309051105
2409.0,0.014304140310157809
2408.0,0.014259258949925524
2407.0,0.014259258949925524
2406.0,0.014259258949925524
2405.0,0.014304140310157809
2404.0,0.014349026309051105
2403.0,0.014393916947563534
2402.0,0.014393916947563534
2401.0,0.014438812226654996
2400.0,0.0144837121472845
2399.0,0.01452861671041239
2398.0,0.014573525916998342
2397.0,0.014573525916998342
2396.0,0.01452861671041239
2395.0,0.014438812226654996
2394.0,0.014349026309051105
2393.0,0.014304140310157809
2392.0,0.014349026309051105
2391.0,0.014393916947563534
2390.0,0.014438812226654996
2389.0,0.014438812226654996
2388.0,0.014393916947563534
2387.0,0.014393916947563534
2386.0,0.014349026309051105
2385.0,0.014304140310157809
2384.0,0.014124642691606404
2383.0,0.013945219230304673
2382.0,0.01381070026317599
2381.0,0.013765869865004277
2380.0,0.013765869865004277
2379.0,0.013765869865004277
2378.0,0.013676222949234651
2377.0,0.013541787262693505
2376.0,0.013362604389846044
2375.0,0.013138729709955221
2374.0,0.012825498912458322
2373.0,0.012423105273012602
2372.0,0.01215504982870197
2371.0,0.012244383261476699
2370.0,0.012914970375878188
2369.0,0.01381070026317599
2368.0,0.014214382227394795
2367.0,0.013765869865004277
2366.0,0.012691326268817527
2365.0,0.011753276624621556
2364.0,0.011084479487313281
2363.0,0.01077272626946324
2362.0,0.011262724711199823
2361.0,0.012825498912458322
2360.0,0.014888020460646079
2359.0,0.01632861713980338
2358.0,0.016689514205884493
2357.0,0.016418813294209356
2356.0,0.01578783323856614
2355.0,0.014977917890464765
2354.0,0.014124642691606404
2353.0,0.013452186585275916
2352.0,0.013138729709955221
2351.0,0.013093968619278806
2350.0,0.013407393177789162
2349.0,0.01372104409400876
2348.0,0.013586594534531482
2347.0,0.012870232340102872
2346.0,0.011842527443247208
2345.0,0.011084479487313281
2344.0,0.01077272626946324
2343.0,0.011039929609661936
2342.0,0.011664044143949504
2341.0,0.012378417874516323
2340.0,0.013093968619278806
2339.0,0.013676222949234651
2338.0,0.014124642691606404
2337.0,0.014259258949925524
2336.0,0.014169510141607944
2335.0,0.013900374944870508
2334.0,0.013765869865004277
2333.0,0.013765869865004277
2332.0,0.013765869865004277
2331.0,0.01372104409400876
2330.0,0.013765869865004277
2329.0,0.01403492169512921
2328.0,0.014393916947563534
2327.0,0.014663358264387139
2326.0,0.014798141635428141
2325.0,0.015067833932588037
2324.0,0.015517693597737248
2323.0,0.01596801972881945
2322.0,0.016238439713835096
2321.0,0.016238439713835096
2320.0,0.016103208673694303
2319.0,0.015922966097169144
2318.0,0.015742798294583915
2317.0,0.015517693597737248
2316.0,0.01538268676325183
2315.0,0.015202742910707112
2314.0,0.015112798935672522
2313.0,0.015112798935672522
2312.0,0.015157768594724175
2311.0,0.015247721884586563
2310.0,0.015292705517326866
2309.0,0.015337693809893471
2308.0,0.015292705517326866
2307.0,0.015202742910707112
2306.0,0.015202742910707112
2305.0,0.015247721884586563
2304.0,0.01538268676325183
2303.0,0.015427684378367834
2302.0,0.015427684378367834
2301.0,0.015337693809893471
2300.0,0.015202742910707112
2299.0,0.015112798935672522
2298.0,0.015067833932588037
2297.0,0.015067833932588037
2296.0,0.015022873584506602
2295.0,0.014977917890464765
2294.0,0.014977917890464765
2293.0,0.014977917890464765
2292.0,0.015022873584506602
2291.0,0.015067833932588037
2290.0,0.015112798935672522
2289.0,0.015067833932588037
2288.0,0.015067833932588037
2287.0,0.015067833932588037
2286.0,0.015067833932588037
2285.0,0.015067833932588037
2284.0,0.015067833932588037
2283.0,0.015022873584506602
2282.0,0.015022873584506602
2281.0,0.014977917890464765
2280.0,0.014888020460646079
2279.0,0.014843078722943437
2278.0,0.014798141635428141
2277.0,0.014798141635428141
2276.0,0.014798141635428141
2275.0,0.014798141635428141
2274.0,0.014798141635428141
2273.0,0.014888020460646079
2272.0,0.014932966849499074
2271.0,0.014932966849499074
2270.0,0.014888020460646079
2269.0,0.014843078722943437
2268.0,0.014753209197138295
2267.0,0.014663358264387139
2266.0,0.014618439768003144
2265.0,0.014618439768003144
2264.0,0.014663358264387139
2263.0,0.014753209197138295
2262.0,0.014888020460646079
2261.0,0.014977917890464765
2260.0,0.015022873584506602
2259.0,0.015022873584506602
2258.0,0.015022873584506602
2257.0,0.015022873584506602
2256.0,0.015022873584506602
2255.0,0.014977917890464765
2254.0,0.014932966849499074
2253.0,0.014932966849499074
2252.0,0.014932966849499074
2251.0,0.015022873584506602
2250.0,0.015067833932588037
2249.0,0.015112798935672522
2248.0,0.015112798935672522
2247.0,0.015022873584506602
2246.0,0.014977917890464765
2245.0,0.014932966849499074
2244.0,0.014843078722943437
2243.0,0.014798141635428141
2242.0,0.014753209197138295
2241.0,0.014708281407112
2240.0,0.014663358264387139
2239.0,0.014663358264387139
2238.0,0.014618439768003144
2237.0,0.014663358264387139
2236.0,0.014753209197138295
2235.0,0.014798141635428141
2234.0,0.014798141635428141
2233.0,0.014798141635428141
2232.0,0.014798141635428141
2231.0,0.014798141635428141
2230.0,0.014798141635428141
2229.0,0.014798141635428141
2228.0,0.014798141635428141
2227.0,0.014798141635428141
2226.0,0.014798141635428141
2225.0,0.014798141635428141
2224.0,0.014753209197138295
2223.0,0.014708281407112
2222.0,0.014708281407112
2221.0,0.014753209197138295
2220.0,0.014798141635428141
2219.0,0.014843078722943437
2218.0,0.014843078722943437
2217.0,0.014843078722943437
2216.0,0.014798141635428141
2215.0,0.014753209197138295
2214.0,0.014708281407112
2213.0,0.014708281407112
2212.0,0.014753209197138295
2211.0,0.014753209197138295
2210.0,0.014753209197138295
2209.0,0.014708281407112
2208.0,0.014618439768003144
2207.0,0.01452861671041239
2206.0,0.014438812226654996
2205.0,0.014438812226654996
2204.0,0.0144837121472845
2203.0,0.0144837121472845
2202.0,0.0144837121472845
2201.0,0.0144837121472845
2200.0,0.01452861671041239
2199.0,0.01452861671041239
2198.0,0.014573525916998342
2197.0,0.014618439768003144
2196.0,0.014618439768003144
2195.0,0.014573525916998342
2194.0,0.01452861671041239
2193.0,0.01452861671041239
2192.0,0.0144837121472845
2191.0,0.014438812226654996
2190.0,0.014393916947563534
2189.0,0.014349026309051105
2188.0,0.014349026309051105
2187.0,0.014304140310157809
2186.0,0.014304140310157809
2185.0,0.014304140310157809
2184.0,0.014349026309051105
2183.0,0.014438812226654996
2182.0,0.0144837121472845
2181.0,0.014438812226654996
2180.0,0.014349026309051105
2179.0,0.014304140310157809
2178.0,0.014349026309051105
2177.0,0.014393916947563534
2176.0,0.014438812226654996
2175.0,0.014438812226654996
2174.0,0.014438812226654996
2173.0,0.014393916947563534
2172.0,0.014393916947563534
2171.0,0.014393916947563534
2170.0,0.014349026309051105
2169.0,0.014304140310157809
2168.0,0.014259258949925524
2167.0,0.014259258949925524
2166.0,0.014304140310157809
2165.0,0.014349026309051105
2164.0,0.014393916947563534
2163.0,0.014349026309051105
2162.0,0.014349026309051105
2161.0,0.014349026309051105
2160.0,0.014349026309051105
2159.0,0.014349026309051105
2158.0,0.014349026309051105
2157.0,0.014304140310157809
2156.0,0.014304140310157809
2155.0,0.014304140310157809
2154.0,0.014259258949925524
2153.0,0.014169510141607944
2152.0,0.014124642691606404
2151.0,0.014079779876432497
2150.0,0.014079779876432497
2149.0,0.014079779876432497
2148.0,0.014079779876432497
2147.0,0.014079779876432497
2146.0,0.01403492169512921
2145.0,0.013990068146738865
2144.0,0.013990068146738865
2143.0,0.013990068146738865
2142.0,0.013990068146738865
2141.0,0.013990068146738865
2140.0,0.013945219230304673
2139.0,0.013945219230304673
2138.0,0.013945219230304673
2137.0,0.013945219230304673
2136.0,0.013945219230304673
2135.0,0.013990068146738865
2134.0,0.01403492169512921
2133.0,0.014079779876432497
2132.0,0.01403492169512921
2131.0,0.013945219230304673
2130.0,0.01385553528947936
2129.0,0.01381070026317599
2128.0,0.01381070026317599
2127.0,0.01381070026317599
2126.0,0.013900374944870508
2125.0,0.013945219230304673
2124.0,0.013990068146738865
2123.0,0.013990068146738865
2122.0,0.013990068146738865
2121.0,0.013990068146738865
2120.0,0.013945219230304673
2119.0,0.013900374944870508
2118.0,0.01381070026317599
2117.0,0.01372104409400876
2116.0,0.013676222949234651
2115.0,0.01372104409400876
2114.0,0.013765869865004277
2113.0,0.01381070026317599
2112.0,0.01381070026317599
2111.0,0.013765869865004277
2110.0,0.01372104409400876
2109.0,0.013631406429727155
2108.0,0.013631406429727155
2107.0,0.013676222949234651
2106.0,0.01372104409400876
2105.0,0.013765869865004277
2104.0,0.013765869865004277
2103.0,0.013765869865004277
2102.0,0.01372104409400876
2101.0,0.013676222949234651
2100.0,0.013631406429727155
2099.0,0.013586594534531482
2098.0,0.013541787262693505
2097.0,0.013586594534531482
2096.0,0.013631406429727155
2095.0,0.013631406429727155
2094.0,0.013586594534531482
2093.0,0.013586594534531482
2092.0,0.013586594534531482
2091.0,0.013676222949234651
2090.0,0.013765869865004277
2089.0,0.01385553528947936
2088.0,0.01385553528947936
2087.0,0.01381070026317599
2086.0,0.013765869865004277
2085.0,0.01372104409400876
2084.0,0.013676222949234651
2083.0,0.013631406429727155
2082.0,0.013631406429727155
2081.0,0.013676222949234651
2080.0,0.013765869865004277
2079.0,0.01381070026317599
2078.0,0.01381070026317599
2077.0,0.013765869865004277
2076.0,0.013676222949234651
2075.0,0.013541787262693505
2074.0,0.013496984613259544
2073.0,0.013541787262693505
2072.0,0.013676222949234651
2071.0,0.01381070026317599
2070.0,0.013900374944870508
2069.0,0.013900374944870508
2068.0,0.01385553528947936
2067.0,0.01372104409400876
2066.0,0.013631406429727155
2065.0,0.013586594534531482
2064.0,0.013586594534531482
2063.0,0.013631406429727155
2062.0,0.013631406429727155
2061.0,0.013676222949234651
2060.0,0.013676222949234651
2059.0,0.013631406429727155
2058.0,0.013586594534531482
2057.0,0.013541787262693505
2056.0,0.013452186585275916
2055.0,0.013407393177789162
2054.0,0.013362604389846044
2053.0,0.013362604389846044
2052.0,0.013407393177789162
2051.0,0.013452186585275916
2050.0,0.013407393177789162
2049.0,0.013362604389846044
2048.0,0.013273040668781544
2047.0,0.01318349541446362
2046.0,0.013138729709955221
2045.0,0.01318349541446362
2044.0,0.01322826573375524
2043.0,0.01322826573375524
2042.0,0.01322826573375524
2041.0,0.01318349541446362
2040.0,0.013138729709955221
2039.0,0.013138729709955221
2038.0,0.013093968619278806
2037.0,0.013093968619278806
2036.0,0.013138729709955221
2035.0,0.01318349541446362
2034.0,0.01318349541446362
2033.0,0.01318349541446362
2032.0,0.013138729709955221
2031.0,0.013093968619278806
2030.0,0.013049212141483357
2029.0,0.013049212141483357
2028.0,0.013093968619278806
2027.0,0.013093968619278806
2026.0,0.013049212141483357
2025.0,0.013004460275618523
2024.0,0.013004460275618523
2023.0,0.013004460275618523
2022.0,0.013049212141483357
2021.0,0.013093968619278806
2020.0,0.013093968619278806
2019.0,0.013049212141483357
2018.0,0.012959713020733288
2017.0,0.012914970375878188
2016.0,0.012959713020733288
2015.0,0.012959713020733288
2014.0,0.012914970375878188
2013.0,0.012825498912458322
2012.0,0.012780770091995297
2011.0,0.012736045877764557
2010.0,0.012780770091995297
2009.0,0.012825498912458322
2008.0,0.012780770091995297
2007.0,0.012691326268817527
2006.0,0.01260190086298274
2005.0,0.012512493866907004
2004.0,0.012557195064198723
2003.0,0.01264661126420652
2002.0,0.012780770091995297
2001.0,0.012825498912458322
2000.0,0.012825498912458322
1999.0,0.012736045877764557
1998.0,0.01264661126420652
1997.0,0.01260190086298274
1996.0,0.012512493866907004
1995.0,0.012467797270160563
1994.0,0.012423105273012602
1993.0,0.012467797270160563
1992.0,0.012512493866907004
1991.0,0.012512493866907004
1990.0,0.012467797270160563
1989.0,0.012423105273012602
1988.0,0.012423105273012602
1987.0,0.012423105273012602
1986.0,0.012467797270160563
1985.0,0.012512493866907004
1984.0,0.012512493866907004
1983.0,0.012423105273012602
1982.0,0.012333735073725371
1981.0,0.012289056869694281
1980.0,0.012333735073725371
1979.0,0.012378417874516323
1978.0,0.012378417874516323
1977.0,0.012333735073725371
1976.0,0.012289056869694281
1975.0,0.012199714248127602
1974.0,0.012110390002254778
1973.0,0.012065734767841452
1972.0,0.012021084124518078
1971.0,0.012021084124518078
1970.0,0.012021084124518078
1969.0,0.012065734767841452
1968.0,0.01215504982870197
1967.0,0.01215504982870197
1966.0,0.01215504982870197
1965.0,0.01215504982870197
1964.0,0.01215504982870197
1963.0,0.012110390002254778
1962.0,0.012065734767841452
1961.0,0.0119764380713403
1960.0,0.011887159731648111
1959.0,0.011887159731648111
1958.0,0.011842527443247208
1957.0,0.011797899741219142
1956.0,0.011797899741219142
1955.0,0.011842527443247208
1954.0,0.011887159731648111
1953.0,0.011931796607364653
1952.0,0.011931796607364653
1951.0,0.011931796607364653
1950.0,0.011931796607364653
1949.0,0.011887159731648111
1948.0,0.011753276624621556
1947.0,0.011574829993696856
1946.0,0.011441043121384498
1945.0,0.011441043121384498
1944.0,0.011485634166333858
1943.0,0.011485634166333858
1942.0,0.011441043121384498
1941.0,0.011396456654336085
1940.0,0.011396456654336085
1939.0,0.011396456654336085
1938.0,0.011396456654336085
1937.0,0.011396456654336085
1936.0,0.011441043121384498
1935.0,0.011485634166333858
1934.0,0.011530229790124524
1933.0,0.011485634166333858
1932.0,0.011441043121384498
1931.0,0.011396456654336085
1930.0,0.011396456654336085
1929.0,0.011396456654336085
1928.0,0.011396456654336085
1927.0,0.011351874764248926
1926.0,0.011307297450183107
1925.0,0.011262724711199823
1924.0,0.011218156546359825
1923.0,0.011129033935354915
1922.0,0.011129033935354915
1921.0,0.011218156546359825
1920.0,0.011396456654336085
1919.0,0.011485634166333858
1918.0,0.011396456654336085
1917.0,0.011262724711199823
1916.0,0.01117359295472431
1915.0,0.011129033935354915
1914.0,0.01117359295472431
1913.0,0.011218156546359825
1912.0,0.011218156546359825
1911.0,0.011218156546359825
1910.0,0.011129033935354915
1909.0,0.011084479487313281
1908.0,0.011084479487313281
1907.0,0.01117359295472431
1906.0,0.011218156546359825
1905.0,0.011218156546359825
1904.0,0.01117359295472431
1903.0,0.011129033935354915
1902.0,0.011084479487313281
1901.0,0.011084479487313281
1900.0,0.011129033935354915
1899.0,0.011129033935354915
1898.0,0.011084479487313281
1897.0,0.011039929609661936
1896.0,0.010995384301463185
1895.0,0.010950843561779777
1894.0,0.010950843561779777
1893.0,0.010995384301463185
1892.0,0.011039929609661936
1891.0,0.011084479487313281
1890.0,0.011039929609661936
1889.0,0.010995384301463185
1888.0,0.010950843561779777
1887.0,0.010995384301463185
1886.0,0.011039929609661936
1885.0,0.011084479487313281
1884.0,0.011084479487313281
1883.0,0.011039929609661936
1882.0,0.010995384301463185
1881.0,0.010950843561779777
1880.0,0.010950843561779777
1879.0,0.010995384301463185
1878.0,0.010995384301463185
1877.0,0.010995384301463185
1876.0,0.010906307389674463
1875.0,0.010817248744452446
1874.0,0.01077272626946324
1873.0,0.010728208358306901
1872.0,0.010728208358306901
1871.0,0.01077272626946324
1870.0,0.01077272626946324
1869.0,0.010728208358306901
1868.0,0.010594681998483901
1867.0,0.010505687227290839
1866.0,0.010550182333308289
1865.0,0.010683695010048622
1864.0,0.01077272626946324
1863.0,0.01077272626946324
1862.0,0.010728208358306901
1861.0,0.010683695010048622
1860.0,0.010639186223752484
1859.0,0.010594681998483901
1858.0,0.010550182333308289
1857.0,0.010550182333308289
1856.0,0.010550182333308289
1855.0,0.010505687227290839
1854.0,0.010416710688994968
1853.0,0.010416710688994968
1852.0,0.01037222925484893
1851.0,0.01037222925484893
1850.0,0.010416710688994968
1849.0,0.010505687227290839
1848.0,0.010594681998483901
1847.0,0.010728208358306901
1846.0,0.01077272626946324
1845.0,0.010728208358306901
1844.0,0.01046119667949763
1843.0,0.01023881228122181
1842.0,0.01023881228122181
1841.0,0.01037222925484893
1840.0,0.010416710688994968
1839.0,0.010327752376126709
1838.0,0.010194349063173958
1837.0,0.010194349063173958
1836.0,0.01023881228122181
1835.0,0.010194349063173958
1834.0,0.010194349063173958
1833.0,0.01023881228122181
1832.0,0.01023881228122181
1831.0,0.010105436281226954
1830.0,0.009794384815193347
1829.0,0.009527946474380489
1828.0,0.009527946474380489
1827.0,0.009838807101520963
1826.0,0.010060986715464404
1825.0,0.010194349063173958
1824.0,0.010149890396819572
1823.0,0.010105436281226954
1822.0,0.010105436281226954
1821.0,0.01001654169860089
1820.0,0.009927665307847056
1819.0,0.009927665307847056
1818.0,0.009972101229705377
1817.0,0.010060986715464404
1816.0,0.010060986715464404
1815.0,0.009972101229705377
1814.0,0.009927665307847056
1813.0,0.009927665307847056
1812.0,0.009883233932095559
1811.0,0.009794384815193347
1810.0,0.00974996707218323
1809.0,0.00974996707218323
1808.0,0.009794384815193347
1807.0,0.009794384815193347
1806.0,0.009794384815193347
1805.0,0.009838807101520963
1804.0,0.009927665307847056
1803.0,0.010060986715464404
1802.0,0.010149890396819572
1801.0,0.010149890396819572
1800.0,0.01001654169860089
1799.0,0.009838807101520963
1798.0,0.009794384815193347
1797.0,0.009838807101520963
1796.0,0.009883233932095559
1795.0,0.009883233932095559
1794.0,0.009794384815193347
1793.0,0.009705553871561357
1792.0,0.00966114521239847
1791.0,0.00966114521239847
1790.0,0.00974996707218323
1789.0,0.009838807101520963
1788.0,0.009883233932095559
1787.0,0.009838807101520963
1786.0,0.009794384815193347
1785.0,0.009794384815193347
1784.0,0.009838807101520963
1783.0,0.009838807101520963
1782.0,0.009838807101520963
1781.0,0.00974996707218323
1780.0,0.00966114521239847
1779.0,0.009572341514736404
1778.0,0.009572341514736404
1777.0,0.009572341514736404
1776.0,0.009616741093766423
1775.0,0.00966114521239847
1774.0,0.009572341514736404
1773.0,0.009261671492462709
1772.0,0.008862564879688284
1771.0,0.0087296108049002
1770.0,0.009128595198514056
1769.0,0.009705553871561357
1768.0,0.010060986715464404
1767.0,0.010060986715464404
1766.0,0.009927665307847056
1765.0,0.009927665307847056
1764.0,0.01001654169860089
1763.0,0.01001654169860089
1762.0,0.009927665307847056
1761.0,0.009838807101520963
1760.0,0.009972101229705377
1759.0,0.010194349063173958
1758.0,0.01037222925484893
1757.0,0.01046119667949763
1756.0,0.01046119667949763
1755.0,0.010594681998483901
1754.0,0.01086177578421088
1753.0,0.011129033935354915
1752.0,0.011351874764248926
1751.0,0.011441043121384498
1750.0,0.011396456654336085
1749.0,0.011441043121384498
1748.0,0.011485634166333858
1747.0,0.011574829993696856
1746.0,0.011753276624621556
1745.0,0.012065734767841452
1744.0,0.012467797270160563
1743.0,0.012736045877764557
1742.0,0.012870232340102872
1741.0,0.012959713020733288
1740.0,0.012914970375878188
1739.0,0.012870232340102872
1738.0,0.013049212141483357
1737.0,0.013496984613259544
1736.0,0.013900374944870508
1735.0,0.013900374944870508
1734.0,0.013586594534531482
1733.0,0.013452186585275916
1732.0,0.013900374944870508
1731.0,0.01452861671041239
1730.0,0.014843078722943437
1729.0,0.014932966849499074
1728.0,0.015022873584506602
1727.0,0.015112798935672522
1726.0,0.015247721884586563
1725.0,0.01538268676325183
1724.0,0.015562705203923999
1723.0,0.015652742414136167
1722.0,0.015742798294583915
1721.0,0.01596801972881945
1720.0,0.016238439713835096
1719.0,0.01628352608625061
1718.0,0.016058141016111804
1717.0,0.015832872853011715
1716.0,0.015922966097169144
1715.0,0.016238439713835096
1714.0,0.016509028184833463
1713.0,0.01677978535189717
1712.0,0.017050711425501408
1711.0,0.017231422748988034
1710.0,0.017321806616515723
1709.0,0.017457417697056554
1708.0,0.01759307113620534
1707.0,0.01768353030793479
1706.0,0.017774008325325275
1705.0,0.018045555530026514
1704.0,0.01858915983411169
1703.0,0.019360432556262852
1702.0,0.01995115493504329
1701.0,0.020406104151069693
1700.0,0.020770406977844713
1699.0,0.021043834782408455
1698.0,0.021819483062586187
1697.0,0.02282532397981263
1696.0,0.023741750742954926
1695.0,0.024246610963712723
1694.0,0.024890010313838973
1693.0,0.025949097207122573
1692.0,0.02691835039863255
1691.0,0.027658283674251827
1690.0,0.028445846553939003
1689.0,0.02932775731028059
1688.0,0.030211462585061133
1687.0,0.030770520137356927
1686.0,0.031096969696171817
1685.0,0.031984286006358165
1684.0,0.03357665405630694
1683.0,0.03498654972775217
1682.0,0.036401037402758574
1681.0,0.03772539537668518
1680.0,0.03876880295533702
1679.0,0.03957679292217042
1678.0,0.040243327009005014
1677.0,0.041006334969674096
1676.0,0.04215336629184985
1675.0,0.0433514207947967
1674.0,0.044312249686494276
1673.0,0.04508244626504121
1672.0,0.04585401117045196
1671.0,0.04672366333269573
1670.0,0.047885915093007325
1669.0,0.049294465226138895
1668.0,0.050707598587974356
1667.0,0.0518316382728683
1666.0,0.05266432405126009
1665.0,0.053449489430144714
1664.0,0.05443294655761144
1663.0,0.05571477931124735
1662.0,0.056950888991593285
1661.0,0.05804158346918653
1660.0,0.05908526241971446
1659.0,0.05993198626064755
1658.0,0.06048074738138154
1657.0,0.06078036414518184
1656.0,0.060880282351513104
1655.0,0.06103020277710969
1654.0,0.062381820606176586
1653.0,0.06489597884855036
1652.0,0.0659562809644747
1651.0,0.0665127121512945
1650.0,0.06691783763020887
1649.0,0.06712054217620067
1648.0,0.06767846801070698
1647.0,0.06905096883247697
1646.0,0.07022356719509815
1645.0,0.0709900145060387
1644.0,0.07160414774328627
1643.0,0.07206531825882068
1642.0,0.07247565912497134
1641.0,0.07278366940873537
1640.0,0.0729891310243489
1639.0,0.0729891310243489
1638.0,0.07278366940873537
1637.0,0.07283502570063005
1636.0,0.07355465218161061
1635.0,0.07412091069849924
1634.0,0.07412091069849924
1633.0,0.07391491307485598
1632.0,0.07350321072677968
1631.0,0.07283502570063005
1630.0,0.07206531825882068
1629.0,0.0713481533463054
1628.0,0.07073438174693436
1627.0,0.07017251876930874
1626.0,0.06950943469373039
1625.0,0.06884736147670667
1624.0,0.06828793294324442
1623.0,0.06793230779927839
1622.0,0.06747550294945781
1621.0,0.06691783763020887
1620.0,0.06615853710127872
1619.0,0.06519865825346338
1618.0,0.06424089625468832
1617.0,0.06363708040225546
1616.0,0.06323500239005853
1615.0,0.06298389253518577
1614.0,0.06278310913729457
1613.0,0.06243196139961715
1612.0,0.061780582187257016
1611.0,0.0611301784870133
1610.0,0.06048074738138154
1609.0,0.05998184499233683
1608.0,0.05948351506743288
1607.0,0.05908526241971446
1606.0,0.05858795962645047
1605.0,0.05804158346918653
1604.0,0.05744631966579017
1603.0,0.056950888991593285
1602.0,0.056456022846545606
1601.0,0.055961719945581745
1600.0,0.05546797900801881
1599.0,0.054876229877880656
1598.0,0.05428528594013993
1597.0,0.053646002773725554
1596.0,0.05300765925162776
1595.0,0.0525172634430815
1594.0,0.05212534510230182
1593.0,0.05178270644002936
1592.0,0.05144033789103841
1591.0,0.051049389754451946
1590.0,0.05075640943173498
1589.0,0.050463626623857394
1588.0,0.05026854768429301
1587.0,0.050171041064686284
1586.0,0.05012229596312534
1585.0,0.05012229596312534
1584.0,0.05012229596312534
1583.0,0.05026854768429301
1582.0,0.05051241005349638
1581.0,0.050707598587974356
1580.0,0.050805225762017736
1579.0,0.050902874887084115
1578.0,0.05085404758005607
1577.0,0.050902874887084115
1576.0,0.051049389754451946
1575.0,0.051049389754451946
1574.0,0.051049389754451946
1573.0,0.05085404758005607
1572.0,0.05026854768429301
1571.0,0.04944043838819989
1570.0,0.048565334467987054
1569.0,0.047885915093007325
1568.0,0.04740126547022694
1567.0,0.04711073508906982
1566.0,0.04672366333269573
1565.0,0.046192002334692894
1564.0,0.04575749056067524
1563.0,0.0454680573730859
1562.0,0.04513062893352182
1561.0,0.044456557540257124
1560.0,0.04397571771932274
1559.0,0.04450467081587295
1558.0,0.04460091336073302
1557.0,0.04484161307420642
1556.0,0.04537162249272897
1555.0,0.04570923829887308
1554.0,0.04585401117045196
1553.0,0.045902279520810385
1552.0,0.046143701775014145
1551.0,0.04657860031896477
1550.0,0.04701393480294458
1549.0,0.04740126547022694
1548.0,0.047595060422975566
1547.0,0.04778894189133087
1546.0,0.048128442871635535
1545.0,0.04866248120408234
1544.0,0.049245818406496555
1543.0,0.04958646063061889
1542.0,0.04968383607539972
1541.0,0.05012229596312534
1540.0,0.050707598587974356
1539.0,0.050707598587974356
1538.0,0.050463626623857394
1537.0,0.05021979163799939
1536.0,0.04973253198641148
1535.0,0.048808242065293994
1534.0,0.04778894189133087
1533.0,0.0469171560879138
1532.0,0.04624030826677128
1531.0,0.045612749855485024
1530.0,0.044937930324967956
1529.0,0.044167989767578186
1528.0,0.043495409683302455
1527.0,0.04291974034210022
1526.0,0.042392712939904875
1525.0,0.0417706858116178
1524.0,0.041101805289228244
1523.0,0.04038628892895613
1522.0,0.03995754427315856
1521.0,0.03981472339538916
1520.0,0.03981472339538916
1519.0,0.039767126871487646
1518.0,0.03962436858984186
1517.0,0.03952922246570112
1516.0,0.03952922246570112
1515.0,0.03948165721929198
1514.0,0.03924390909822728
1513.0,0.038816290187564384
1512.0,0.03829421599749461
1511.0,0.03782014709123227
1510.0,0.03739392707587297
1509.0,0.03701541568300293
1508.0,0.036779013477011624
1507.0,0.036542739883292485
1506.0,0.03602339000339416
1505.0,0.035740369803151095
1504.0,0.03588185684851508
1503.0,0.03597620715996652
1502.0,0.03588185684851508
1501.0,0.035740369803151095
1500.0,0.035646070707806565
1499.0,0.03555179208333925
1498.0,0.03545753392086315
1497.0,0.03545753392086315
1496.0,0.03550466044490741
1495.0,0.03545753392086315
1494.0,0.03541041251009669
1493.0,0.03545753392086315
1492.0,0.03550466044490741
1491.0,0.035646070707806565
1490.0,0.03602339000339416
1489.0,0.03644826642590382
1488.0,0.036731748473764814
1487.0,0.036779013477011624
1486.0,0.03682628362474838
1485.0,0.0369681249461018
1484.0,0.0371573187987575
1483.0,0.03744126420403626
1482.0,0.03791491948264003
1481.0,0.03857890593355173
1480.0,0.03929144831144349
1479.0,0.03995754427315856
1478.0,0.04076775094900409
1477.0,0.04200982159316968
1476.0,0.04383156952463674
1475.0,0.046192002334692894
1474.0,0.04919717703534143
1473.0,0.05261529831525902
1472.0,0.0549255115212699
1471.0,0.05566540802921782
1470.0,0.055764156206519866
1469.0,0.05581353871631256
1468.0,0.055912320584565744
1467.0,0.05620880107069848
1466.0,0.05709945885970602
1465.0,0.05858795962645047
1464.0,0.05993198626064755
1463.0,0.06048074738138154
1462.0,0.0601813371786204
1461.0,0.05933412752417122
1460.0,0.05809122563440061
1459.0,0.057000406633959555
1458.0,0.05670338543334519
1457.0,0.05709945885970602
1456.0,0.05729763111133224
1455.0,0.05709945885970602
1454.0,0.0567528748621382
1453.0,0.05625823416868636
1452.0,0.05571477931124735
1451.0,0.055270639696704205
1450.0,0.05502409158795207
1449.0,0.0549255115212699
1448.0,0.0549255115212699
1447.0,0.0549255115212699
1446.0,0.05482695382609992
1445.0,0.05462990550969615
1444.0,0.05448217792216048
1443.0,0.05428528594013993
1442.0,0.05413767551038262
1441.0,0.05399011523423525
1440.0,0.053842605077627725
1439.0,0.053842605077627725
1438.0,0.05403929642243144
1437.0,0.05458065739693696
1436.0,0.055122694036304765
1435.0,0.055172003656783764
1434.0,0.054876229877880656
1433.0,0.05443294655761144
1432.0,0.054088483180726676
1431.0,0.053842605077627725
1430.0,0.05369514500652506
1429.0,0.053596866100945384
1428.0,0.05354773498692689
1427.0,0.05340037498486727
1426.0,0.05330216275425803
1425.0,0.05330216275425803
1424.0,0.05340037498486727
1423.0,0.053449489430144714
1422.0,0.05340037498486727
1421.0,0.05325306496641513
1420.0,0.053351266093323746
1419.0,0.05369514500652506
1418.0,0.05394093961487645
1417.0,0.05389176956309405
1416.0,0.0534986094304124
1415.0,0.05290953578037816
1414.0,0.05227227303668425
1413.0,0.05173378011970464
1412.0,0.05129369109514803
1411.0,0.050902874887084115
1410.0,0.050414848673348
1409.0,0.04978123335813667
1408.0,0.04909991063361274
1407.0,0.04837110616336182
1406.0,0.047643522676209304
1405.0,0.04696554274964315
1404.0,0.04624030826677128
1403.0,0.045564513671517703
1402.0,0.044986096961949995
1401.0,0.04440844959427559
1400.0,0.04387961360698034
1399.0,0.0433514207947967
1398.0,0.04287180232318688
1397.0,0.042344833056508824
1396.0,0.04172287445230238
1395.0,0.041101805289228244
1394.0,0.040529297924893015
1393.0,0.0400527842915015
1392.0,0.03957679292217042
1391.0,0.03905380426616856
1390.0,0.03862637240519895
1389.0,0.03824678581321739
1388.0,0.03810452633214956
1387.0,0.038057116858612794
1386.0,0.03796231343498735
1385.0,0.03777276864991497
1384.0,0.03763066432997886
1383.0,0.03763066432997886
1382.0,0.03772539537668518
1381.0,0.03796231343498735
1380.0,0.038199360808321536
1379.0,0.03848398855105106
1378.0,0.03862637240519895
1377.0,0.03857890593355173
1376.0,0.03848398855105106
1375.0,0.03838909190871931
1374.0,0.03824678581321739
1373.0,0.03810452633214956
1372.0,0.03786753070176463
1371.0,0.03763066432997886
1370.0,0.03739392707587297
1369.0,0.0371573187987575
1368.0,0.03692083935817303
1367.0,0.03663723389626394
1366.0,0.03630659476198117
1365.0,0.03592902944204468
1364.0,0.03559892883726867
1363.0,0.035363296211498474
1362.0,0.03522197797762394
1361.0,0.03498654972775217
1360.0,0.03465716443937783
1359.0,0.03423403581731388
1358.0,0.03385826726096752
1357.0,0.03352973627071565
1356.0,0.033201453616638954
1355.0,0.0329671178412978
1354.0,0.03277974021703267
1353.0,0.03263926003405038
1352.0,0.03249882527715853
1351.0,0.032311649546687526
1350.0,0.03217132066984485
1349.0,0.03193753992355086
1348.0,0.031657169041054534
1347.0,0.03142366482450232
1346.0,0.031236951802751545
1345.0,0.03105031901865729
1344.0,0.030863766403287585
1343.0,0.030770520137356927
1342.0,0.0307239045110681
1341.0,0.0307239045110681
1340.0,0.030770520137356927
1339.0,0.03081714076773867
1338.0,0.030770520137356927
1337.0,0.03058408764601861
1336.0,0.030351159519274695
1335.0,0.030071810571884017
1334.0,0.029839156962686353
1333.0,0.02969962459782227
1332.0,0.02960662792039992
1331.0,0.029560137048236124
1330.0,0.029560137048236124
1329.0,0.029560137048236124
1328.0,0.029513651152349718
1327.0,0.029467170231675777
1326.0,0.029513651152349718
1325.0,0.029560137048236124
1324.0,0.029653123769906697
1323.0,0.02969962459782227
1322.0,0.029839156962686353
1321.0,0.029932203450862893
1320.0,0.030071810571884017
1319.0,0.030118356253500123
1318.0,0.030118356253500123
1317.0,0.030071810571884017
1316.0,0.029978734171634214
1315.0,0.029932203450862893
1314.0,0.029885677714903025
1313.0,0.029885677714903025
1312.0,0.029792641193145286
1311.0,0.02969962459782227
1310.0,0.02960662792039992
1309.0,0.029560137048236124
1308.0,0.02960662792039992
1307.0,0.029653123769906697
1306.0,0.029746130405213123
1305.0,0.029792641193145286
1304.0,0.029839156962686353
1303.0,0.029932203450862893
1302.0,0.029978734171634214
1301.0,0.029978734171634214
1300.0,0.029932203450862893
1299.0,0.029932203450862893
1298.0,0.029932203450862893
1297.0,0.029885677714903025
1296.0,0.029885677714903025
1295.0,0.029885677714903025
1294.0,0.029932203450862893
1293.0,0.03002526987828502
1292.0,0.030071810571884017
1291.0,0.030118356253500123
1290.0,0.030164906924202484
1289.0,0.030164906924202484
1288.0,0.030164906924202484
1287.0,0.030164906924202484
1286.0,0.030164906924202484
1285.0,0.030164906924202484
1284.0,0.030211462585061133
1283.0,0.030351159519274695
1282.0,0.030537492025363155
1281.0,0.03067729388779794
1280.0,0.030770520137356927
1279.0,0.030863766403287585
1278.0,0.030957032694186815
1277.0,0.03105031901865729
1276.0,0.031236951802751545
1275.0,0.03137697904301118
1274.0,0.03151705144606498
1273.0,0.03161045815293173
1272.0,0.031657169041054534
1271.0,0.03175060589208267
1270.0,0.03193753992355086
1269.0,0.032124554451966825
1268.0,0.032311649546687526
1267.0,0.03245202378113787
1266.0,0.032592443402527316
1265.0,0.03273290844021437
1264.0,0.032920265855503006
1263.0,0.033154576345083564
1262.0,0.03334211579824231
1261.0,0.03357665405630694
1260.0,0.03385826726096752
1259.0,0.03414006319292828
1258.0,0.03437503289075727
1257.0,0.03461012978487776
1256.0,0.03479829897408804
1255.0,0.03498654972775217
1254.0,0.03517488211661135
1253.0,0.03541041251009669
1252.0,0.035693217696063595
1251.0,0.0360705779734416
1250.0,0.03644826642590382
1249.0,0.03682628362474838
1248.0,0.03720463014276687
1247.0,0.03753595394209874
1246.0,0.03791491948264003
1245.0,0.03829421599749461
1244.0,0.03857890593355173
1243.0,0.03876880295533702
1242.0,0.039006291057664066
1241.0,0.03929144831144349
1240.0,0.03957679292217042
1239.0,0.039909932095080425
1238.0,0.04019568349166214
1237.0,0.04038628892895613
1236.0,0.04057697805689475
1235.0,0.04072004986906119
1234.0,0.04086316882962593
1233.0,0.04091088563260792
1232.0,0.041006334969674096
1231.0,0.04105406750606355
1230.0,0.041197296600497646
1229.0,0.04138834223512067
1228.0,0.041579471947481794
1227.0,0.04167506835594681
1226.0,0.0417706858116178
1225.0,0.04181850243505214
1224.0,0.04186632432376469
1223.0,0.04186632432376469
1222.0,0.041914151478914974
1221.0,0.04200982159316968
1220.0,0.04215336629184985
1219.0,0.04229695845116854
1218.0,0.042392712939904875
1217.0,0.04244059810252043
1216.0,0.04244059810252043
1215.0,0.04248848854552012
1214.0,0.04253638427006878
1213.0,0.04263219156847242
1212.0,0.042775942156833
1211.0,0.04291974034210022
1210.0,0.04301563225723992
1209.0,0.0431115453499229
1208.0,0.04325545471730896
1207.0,0.04339941178682327
1206.0,0.0435434165901003
1205.0,0.04368746915880539
1204.0,0.04387961360698034
1203.0,0.044167989767578186
1202.0,0.04450467081587295
1201.0,0.044793462458058375
1200.0,0.04503426894157925
1199.0,0.0451788169482068
1198.0,0.04541983725624266
1197.0,0.04570923829887308
1196.0,0.04609540658654021
1195.0,0.046481918555007384
1194.0,0.04686877481655505
1193.0,0.04720755695590784
1192.0,0.04754660357696672
1191.0,0.047934409814949674
1190.0,0.04827402457540786
1189.0,0.048565334467987054
1188.0,0.048905443158337114
1187.0,0.049294465226138895
1186.0,0.04963514562387683
1185.0,0.05002482217034632
1184.0,0.050463626623857394
1183.0,0.05100054597304693
1182.0,0.05148923116234294
1181.0,0.052027420754219955
1180.0,0.0525172634430815
1179.0,0.05300765925162776
1178.0,0.0534986094304124
1177.0,0.05394093961487645
1176.0,0.05438372077326825
1175.0,0.054876229877880656
1174.0,0.05536929814372171
1173.0,0.055912320584565744
1172.0,0.05650548409389744
1171.0,0.057049929922901255
1170.0,0.05754547365752294
1169.0,0.05799194697768684
1168.0,0.05843887976392925
1167.0,0.058836539841526925
1166.0,0.05923456436878238
1165.0,0.05963295401433477
1164.0,0.06003170944866376
1163.0,0.06038092104330195
1162.0,0.06078036414518184
1161.0,0.0611301784870133
1160.0,0.06148027482350815
1159.0,0.061830653609679764
1158.0,0.06208109735221967
1157.0,0.062281556382736136
1156.0,0.06253226035662252
1155.0,0.06278310913729457
1154.0,0.06303410289212974
1153.0,0.06333548699992453
1152.0,0.06363708040225546
1151.0,0.06393888339001164
1150.0,0.06419054619006714
1149.0,0.06449273417528723
1148.0,0.06479513257341862
1147.0,0.06509774167768612
1146.0,0.06529959828457499
1145.0,0.06550154875643233
1144.0,0.06565307326174441
1143.0,0.06580465065211571
1142.0,0.06605739725873905
1141.0,0.06641148980334699
1140.0,0.06681652082538614
1139.0,0.06727263269847072
1138.0,0.06772922410050963
1137.0,0.06813548650796819
1136.0,0.0684912781333824
1135.0,0.06879647454924775
1134.0,0.06905096883247697
1133.0,0.06930561233546473
1132.0,0.06961138175567827
1131.0,0.0699173666076287
1130.0,0.07022356719509815
1129.0,0.07063217075990047
1128.0,0.0710411591191702
1127.0,0.07139934015547578
1126.0,0.07170658776779781
1125.0,0.07206531825882068
1124.0,0.07242434530888953
1123.0,0.07283502570063005
1122.0,0.07314329105030759
1121.0,0.07350321072677968
1120.0,0.07381195089279391
1119.0,0.07422394616325367
1118.0,0.07458476291575367
1117.0,0.07494587968815725
1116.0,0.07530729697981409
1115.0,0.07566901529132153
1114.0,0.07608277688689435
1113.0,0.07654873036034848
1112.0,0.07696333132921396
1111.0,0.07737832847680104
1110.0,0.07779372256098371
1109.0,0.07820951434181311
1108.0,0.07862570458152551
1107.0,0.079094395835976
1106.0,0.07951143534170213
1105.0,0.08003329851661278
1104.0,0.08055578953476306
1103.0,0.08113125661901543
1102.0,0.08170748724464438
1101.0,0.08223199755224364
1100.0,0.08280969148843575
1099.0,0.08333553545860273
1098.0,0.0838620168928248
1097.0,0.08438913733853282
1096.0,0.08481129482684358
1095.0,0.08507535179485148
1094.0,0.08528671302637614
1093.0,0.08539243222891946
1092.0,0.08555105930144569
1091.0,0.08570974433405087
1090.0,0.08586848736910624
1089.0,0.0861331881037608
1088.0,0.08639805027084257
1087.0,0.0867160982395816
1086.0,0.08692825969074924
1085.0,0.0870343792958963
1084.0,0.08708744882390307
1083.0,0.08708744882390307
1082.0,0.08698131625203986
1081.0,0.08687520961044104
1080.0,0.08682216600953208
1079.0,0.08682216600953208
1078.0,0.0867160982395816
1077.0,0.08650404038287651
1076.0,0.0862920860195171
1075.0,0.08597434830367123
1074.0,0.08555105930144569
1073.0,0.08512818245994969
1072.0,0.08475850269380558
1071.0,0.08454739831152125
1070.0,0.08428366205400617
1069.0,0.0839147001562972
1068.0,0.08333553545860273
1067.0,0.08275714209253371
1066.0,0.08228448344050654
1065.0,0.08202211740709164
1064.0,0.08191721535781271
1063.0,0.08175990977858505
1062.0,0.08144546944972642
1061.0,0.08102656950704579
1060.0,0.08045124103115198
1059.0,0.07987667370927598
1058.0,0.07925073872429178
1057.0,0.07867775641617802
1056.0,0.07820951434181311
1055.0,0.0777417765670334
1054.0,0.07727454200674
1053.0,0.07685964397479927
1052.0,0.07644514193245056
1051.0,0.07608277688689435
1050.0,0.07566901529132153
1049.0,0.07525564752005143
1048.0,0.07479107858799638
1047.0,0.07432700607875953
1046.0,0.07396640332115534
1045.0,0.07370901311513656
1044.0,0.07355465218161061
1043.0,0.07334892291111106
1042.0,0.07309189829456408
1041.0,0.07288638806623937
1040.0,0.07278366940873537
1039.0,0.07268097504034388
1038.0,0.07252697900472405
1037.0,0.07232173586200852
1036.0,0.07216786713341827
1035.0,0.0720140529005715
1034.0,0.07186029312488018
1033.0,0.0716553647351379
1032.0,0.0713481533463054
1031.0,0.07093887591523451
1030.0,0.07032568205141221
1029.0,0.06961138175567827
1028.0,0.06894915322260897
1027.0,0.06844043290919477
1026.0,0.0681862960408608
1025.0,0.06803388527182741
1024.0,0.0678307540792078
1023.0,0.06747550294945781
1022.0,0.06701917807680191
1021.0,0.06641148980334699
1020.0,0.06580465065211571
1019.0,0.0653500770992892
1018.0,0.06489597884855036
1017.0,0.06449273417528723
1016.0,0.06408986356949264
1015.0,0.06363708040225546
1014.0,0.06313454102437754
1013.0,0.06268275223750575
1012.0,0.062281556382736136
1011.0,0.06193081377661436
1010.0,0.06153031163235467
1009.0,0.06103020277710969
1008.0,0.060530669156469985
1007.0,0.05998184499233683
1006.0,0.05948351506743288
1005.0,0.058936011780097886
1004.0,0.05848856736559682
1003.0,0.05799194697768684
1002.0,0.05754547365752294
1001.0,0.057049929922901255
1000.0,0.056456022846545606
999.0,0.055912320584565744
998.0,0.05536929814372171
997.0,0.054876229877880656
996.0,0.05443294655761144
995.0,0.05403929642243144
994.0,0.053646002773725554
993.0,0.05330216275425803
992.0,0.05295859474477971
991.0,0.05256627811294923
990.0,0.05217431555754937
989.0,0.05178270644002936
988.0,0.05139145012356372
987.0,0.05100054597304693
986.0,0.050707598587974356
985.0,0.050463626623857394
984.0,0.050073556332087765
983.0,0.04958646063061889
982.0,0.04905128560059957
981.0,0.04851676924770687
980.0,0.04803141550708934
979.0,0.047595060422975566
978.0,0.04725597598510167
977.0,0.047062332249019345
976.0,0.04686877481655505
975.0,0.04657860031896477
974.0,0.04609540658654021
973.0,0.045564513671517703
972.0,0.0451788169482068
971.0,0.044937930324967956
970.0,0.04474531717982
969.0,0.04460091336073302
968.0,0.044312249686494276
967.0,0.04387961360698034
966.0,0.04339941178682327
965.0,0.042967683653061695
964.0,0.04272802000705722
963.0,0.042584285277331047
962.0,0.042392712939904875
961.0,0.04215336629184985
960.0,0.04186632432376469
959.0,0.041627267521392675
958.0,0.041483896576958834
957.0,0.041340572947066834
956.0,0.041149548320321694
955.0,0.04086316882962593
954.0,0.040529297924893015
953.0,0.0402909757535701
952.0,0.04010041213405646
951.0,0.040005161671583744
950.0,0.039909932095080425
949.0,0.039719535563357944
948.0,0.03962436858984186
947.0,0.03962436858984186
946.0,0.03957679292217042
945.0,0.03943409718180235
944.0,0.03919637508823026
943.0,0.03905380426616856
942.0,0.038911280232103884
941.0,0.038816290187564384
940.0,0.038721320914956836
939.0,0.038673844065289176
938.0,0.038673844065289176
937.0,0.038673844065289176
936.0,0.03857890593355173
935.0,0.038436537637930535
934.0,0.03829421599749461
933.0,0.038151940981675736
932.0,0.03810452633214956
931.0,0.038057116858612794
930.0,0.03796231343498735
929.0,0.03777276864991497
928.0,0.03763066432997886
927.0,0.03763066432997886
926.0,0.03772539537668518
925.0,0.03791491948264003
924.0,0.038057116858612794
923.0,0.03810452633214956
922.0,0.03800971255993524
921.0,0.03791491948264003
920.0,0.03777276864991497
919.0,0.03763066432997886
918.0,0.03753595394209874
917.0,0.037488606492403154
916.0,0.03744126420403626
915.0,0.03739392707587297
914.0,0.037346595106788616
913.0,0.0371573187987575
912.0,0.0369681249461018
911.0,0.036779013477011624
910.0,0.03658998431977123
909.0,0.03644826642590382
908.0,0.03625938114211591
907.0,0.036117771071222604
906.0,0.03592902944204468
905.0,0.035740369803151095
904.0,0.03550466044490741
903.0,0.03526907894637077
902.0,0.03512779136222477
901.0,0.03498654972775217
900.0,0.03489241415094413
899.0,0.03479829897408804
898.0,0.03479829897408804
897.0,0.03479829897408804
896.0,0.03475124903287918
895.0,0.03465716443937783
894.0,0.034469056377139484
893.0,0.03423403581731388
892.0,0.03409308450480819
891.0,0.03414006319292828
890.0,0.03437503289075727
889.0,0.03461012978487776
888.0,0.03479829897408804
887.0,0.0349394793888016
886.0,0.03503362516890207
885.0,0.03526907894637077
884.0,0.03559892883726867
883.0,0.036117771071222604
882.0,0.036779013477011624
881.0,0.03763066432997886
880.0,0.03862637240519895
879.0,0.03962436858984186
878.0,0.040481623027001756
877.0,0.041149548320321694
876.0,0.041579471947481794
875.0,0.04172287445230238
874.0,0.041483896576958834
873.0,0.040672354027829094
872.0,0.03948165721929198
871.0,0.038151940981675736
870.0,0.0371573187987575
869.0,0.03658998431977123
868.0,0.03625938114211591
867.0,0.03602339000339416
866.0,0.03588185684851508
865.0,0.035740369803151095
864.0,0.035740369803151095
863.0,0.03588185684851508
862.0,0.036117771071222604
861.0,0.03635381351515665
860.0,0.03658998431977123
859.0,0.03682628362474838
858.0,0.037062711569998186
857.0,0.037299268295658994
856.0,0.03744126420403626
855.0,0.037583306554248797
854.0,0.03767802727041558
853.0,0.03772539537668518
852.0,0.03786753070176463
851.0,0.038057116858612794
850.0,0.038341651362284734
849.0,0.038673844065289176
848.0,0.038911280232103884
847.0,0.039006291057664066
846.0,0.039006291057664066
845.0,0.038911280232103884
844.0,0.03886378261277468
843.0,0.03886378261277468
842.0,0.038958783046687984
841.0,0.03919637508823026
840.0,0.03943409718180235
839.0,0.03962436858984186
838.0,0.039719535563357944
837.0,0.03967194946985697
836.0,0.03967194946985697
835.0,0.03981472339538916
834.0,0.040005161671583744
833.0,0.040338629726504704
832.0,0.04081545726880842
831.0,0.041340572947066834
830.0,0.04181850243505214
829.0,0.04215336629184985
828.0,0.04229695845116854
827.0,0.042344833056508824
826.0,0.042392712939904875
825.0,0.04253638427006878
824.0,0.042775942156833
823.0,0.04301563225723992
822.0,0.04315950984076644
821.0,0.043303435105349175
820.0,0.043495409683302455
819.0,0.0437835307566099
818.0,0.04411991377462465
817.0,0.044456557540257124
816.0,0.044793462458058375
815.0,0.044986096961949995
814.0,0.04513062893352182
813.0,0.045323413081356456
812.0,0.04570923829887308
811.0,0.04628861957244457
810.0,0.0469171560879138
809.0,0.04744970610179822
808.0,0.047885915093007325
807.0,0.048225491918274965
806.0,0.048565334467987054
805.0,0.04900266601119507
804.0,0.04953778109440221
803.0,0.050171041064686284
802.0,0.050902874887084115
801.0,0.05153812993871654
800.0,0.052027420754219955
799.0,0.05232126006306337
798.0,0.0525172634430815
797.0,0.05266432405126009
796.0,0.05290953578037816
795.0,0.05310580489767336
794.0,0.053203972728539606
793.0,0.05325306496641513
792.0,0.053203972728539606
791.0,0.053203972728539606
790.0,0.05325306496641513
789.0,0.0534986094304124
788.0,0.05389176956309405
787.0,0.05438372077326825
786.0,0.0549255115212699
785.0,0.05546797900801881
784.0,0.05606053552778367
783.0,0.05660442349104544
782.0,0.057049929922901255
781.0,0.05734718830678798
780.0,0.05764465029232335
779.0,0.057743849580535134
778.0,0.05779345772290467
777.0,0.05779345772290467
776.0,0.05784307153250956
775.0,0.05799194697768684
774.0,0.05809122563440061
773.0,0.058190526991161784
772.0,0.0583395216116076
771.0,0.05858795962645047
770.0,0.058786812414678646
769.0,0.059035506507200575
768.0,0.05923456436878238
767.0,0.05938391766259232
766.0,0.0595831353183347
765.0,0.05973260855398799
764.0,0.05973260855398799
763.0,0.05968277842578207
762.0,0.05963295401433477
761.0,0.05968277842578207
760.0,0.05983228596592505
759.0,0.060081579630943294
758.0,0.06058059667068294
757.0,0.06133019897732073
756.0,0.06223143295006417
755.0,0.06288348923294618
754.0,0.06333548699992453
753.0,0.06373765809652254
752.0,0.06429125215733666
751.0,0.06489597884855036
750.0,0.0653500770992892
749.0,0.0655520510510299
748.0,0.06570359318059427
747.0,0.0658551882075229
746.0,0.06615853710127872
745.0,0.0666645899223488
744.0,0.06712054217620067
743.0,0.06747550294945781
742.0,0.0678307540792078
741.0,0.06823711151882228
740.0,0.06874559358358656
739.0,0.06915280831750303
738.0,0.06956040523329987
737.0,0.07001940948448526
736.0,0.07078549626260622
735.0,0.07170658776779781
734.0,0.07288638806623937
733.0,0.07448164182257
732.0,0.07665234350217442
731.0,0.07904229404455076
730.0,0.08113125661901543
729.0,0.0823369756726251
728.0,0.08265206237222844
727.0,0.0823369756726251
726.0,0.08202211740709164
725.0,0.08223199755224364
724.0,0.08312512146131668
723.0,0.08454739831152125
722.0,0.08650404038287651
721.0,0.08910891135547172
720.0,0.09189045960744768
719.0,0.09398837472858723
718.0,0.09474395125154866
717.0,0.09436599867304518
716.0,0.09334178232840018
715.0,0.0922125568893839
714.0,0.0910326995816122
713.0,0.0900163050601559
712.0,0.08905559425002108
711.0,0.08804381092731295
710.0,0.08708744882390307
709.0,0.08655704514060414
708.0,0.08666307406737683
707.0,0.08719360733870762
706.0,0.08772478950118767
705.0,0.08772478950118767
704.0,0.08735289378168276
703.0,0.0870343792958963
702.0,0.0870343792958963
701.0,0.08745911720936239
700.0,0.08804381092731295
699.0,0.08862929288386212
698.0,0.08894897967187343
697.0,0.08910891135547172
696.0,0.08910891135547172
695.0,0.08889568219596411
694.0,0.08862929288386212
693.0,0.08841629901892434
692.0,0.08836306687055773
691.0,0.08830984124613894
690.0,0.08804381092731295
689.0,0.08793744441149753
688.0,0.08836306687055773
687.0,0.08948231448273347
686.0,0.09108625997902897
685.0,0.09248115389337075
684.0,0.09318028453345462
683.0,0.09301884677114591
682.0,0.09264239186882706
681.0,0.09258863922541383
680.0,0.09291125492570451
679.0,0.09328794305703592
678.0,0.0937727369476411
677.0,0.09458193129745807
676.0,0.09550084460218011
675.0,0.09604229147682952
674.0,0.096150661903319
673.0,0.09604229147682952
672.0,0.09604229147682952
671.0,0.09598811640261173
670.0,0.0957714836599215
669.0,0.0960964733098364
668.0,0.09739886933346864
667.0,0.09854167860388774
666.0,0.09886874864462802
665.0,0.09886874864462802
664.0,0.09881421986284966
663.0,0.09875969792669093
662.0,0.09832376867362447
661.0,0.09739886933346864
660.0,0.09625905937846135
659.0,0.09533854208447545
658.0,0.09517630019905599
657.0,0.09598811640261173
656.0,0.09745322068600859
655.0,0.09903237608087578
654.0,0.10017949757290379
653.0,0.10094593200182911
652.0,0.10127481841050656
651.0,0.10094593200182911
650.0,0.10034361969436434
649.0,0.10007011727213588
648.0,0.10039834085387778
647.0,0.10061729446673495
646.0,0.1005078038618683
645.0,0.10039834085387778
644.0,0.10061729446673495
643.0,0.10078158214862709
642.0,0.10083635852278117
641.0,0.10116516193172598
640.0,0.10242788617426934
639.0,0.10424605792627206
638.0,0.1063491830140364
637.0,0.10862982530385179
636.0,0.11120293254331926
635.0,0.11345287660889425
634.0,0.1148084593931522
633.0,0.11548784080960606
632.0,0.11588463798833115
631.0,0.11537453674376552
630.0,0.11350927482751816
629.0,0.11114683301706374
628.0,0.10946720807225518
627.0,0.10924374808178183
626.0,0.11019424813191447
625.0,0.11198908775497118
624.0,0.11407366019856902
623.0,0.11611154211151953
622.0,0.11758931562603192
621.0,0.11844417020668851
620.0,0.1183871275216517
619.0,0.11730473761840288
618.0,0.11599807523121286
617.0,0.11565785235294102
616.0,0.1165657063169907
615.0,0.1174754620451195
614.0,0.11764625361128611
613.0,0.11781711236973003
612.0,0.11884367892443626
611.0,0.1202162199095842
610.0,0.12101887660626365
609.0,0.1213058996038916
608.0,0.12165057778222454
607.0,0.12193801870998744
606.0,0.12170805075020397
605.0,0.12136332697348307
604.0,0.12188051530283239
603.0,0.12320502379929943
602.0,0.1244757360506914
601.0,0.1249387366082999
600.0,0.12436006299583169
