cm-1,A
4000.0,-0.001474096691732818
3999.0,-0.0015173768235041685
3998.0,-0.0015606526425728795
3997.0,-0.0016039241497978196
3996.0,-0.0015606526425728795
3995.0,-0.001474096691732818
3994.0,-0.0013875234866409514
3993.0,-0.001344230411601366
3992.0,-0.0013009330204178937
3991.0,-0.0013009330204178937
3990.0,-0.001344230411601366
3989.0,-0.001344230411601366
3988.0,-0.001344230411601366
3987.0,-0.0013875234866409514
3986.0,-0.001474096691732818
3985.0,-0.0015606526425728795
3984.0,-0.0015606526425728795
3983.0,-0.001474096691732818
3982.0,-0.001344230411601366
3981.0,-0.001257631312230778
3980.0,-0.001257631312230778
3979.0,-0.0013009330204178937
3978.0,-0.001344230411601366
3977.0,-0.001344230411601366
3976.0,-0.0013875234866409514
3975.0,-0.0013875234866409514
3974.0,-0.0014308122463981832
3973.0,-0.0015173768235041685
3972.0,-0.0016039241497978196
3971.0,-0.0016471913460383014
3970.0,-0.0016471913460383014
3969.0,-0.0016471913460383014
3968.0,-0.0016039241497978196
3967.0,-0.0015606526425728795
3966.0,-0.0015173768235041685
3965.0,-0.0015173768235041685
3964.0,-0.001474096691732818
3963.0,-0.0014308122463981832
3962.0,-0.0013875234866409514
3961.0,-0.001344230411601366
3960.0,-0.0013009330204178937
3959.0,-0.00121432528617893
3958.0,-0.0011710149414008164
3957.0,-0.0010843812922201046
3956.0,-0.0010843812922201046
3955.0,-0.0011277002770349043
3954.0,-0.0011710149414008164
3953.0,-0.001257631312230778
3952.0,-0.001344230411601366
3951.0,-0.0014308122463981832
3950.0,-0.0015173768235041685
3949.0,-0.0015173768235041685
3948.0,-0.0014308122463981832
3947.0,-0.0013009330204178937
3946.0,-0.00121432528617893
3945.0,-0.0011710149414008164
3944.0,-0.00121432528617893
3943.0,-0.0013009330204178937
3942.0,-0.0013009330204178937
3941.0,-0.0013009330204178937
3940.0,-0.00121432528617893
3939.0,-0.00121432528617893
3938.0,-0.00121432528617893
3937.0,-0.00121432528617893
3936.0,-0.0011710149414008164
3935.0,-0.0011277002770349043
3934.0,-0.0011277002770349043
3933.0,-0.0010843812922201046
3932.0,-0.0010843812922201046
3931.0,-0.0010843812922201046
3930.0,-0.001041057986093552
3929.0,-0.001041057986093552
3928.0,-0.001041057986093552
3927.0,-0.001041057986093552
3926.0,-0.0011277002770349043
3925.0,-0.0011710149414008164
3924.0,-0.0011710149414008164
3923.0,-0.0010843812922201046
3922.0,-0.0009977303577937136
3921.0,-0.0009110621312231615
3920.0,-0.0009543984064577238
3919.0,-0.001041057986093552
3918.0,-0.0011710149414008164
3917.0,-0.0013009330204178937
3916.0,-0.0013875234866409514
3915.0,-0.001474096691732818
3914.0,-0.0015606526425728795
3913.0,-0.0016471913460383014
3912.0,-0.0016471913460383014
3911.0,-0.0016039241497978196
3910.0,-0.0015606526425728795
3909.0,-0.001474096691732818
3908.0,-0.001474096691732818
3907.0,-0.0015173768235041685
3906.0,-0.0015606526425728795
3905.0,-0.0016471913460383014
3904.0,-0.0016904542321527494
3903.0,-0.001733712809000476
3902.0,-0.001733712809000476
3901.0,-0.0016904542321527494
3900.0,-0.0015606526425728795
3899.0,-0.001474096691732818
3898.0,-0.0013875234866409514
3897.0,-0.0013875234866409514
3896.0,-0.0013875234866409514
3895.0,-0.001474096691732818
3894.0,-0.001474096691732818
3893.0,-0.001474096691732818
3892.0,-0.0014308122463981832
3891.0,-0.001344230411601366
3890.0,-0.0013009330204178937
3889.0,-0.001257631312230778
3888.0,-0.00121432528617893
3887.0,-0.001257631312230778
3886.0,-0.0013009330204178937
3885.0,-0.001344230411601366
3884.0,-0.001344230411601366
3883.0,-0.0013875234866409514
3882.0,-0.0013875234866409514
3881.0,-0.0013875234866409514
3880.0,-0.001344230411601366
3879.0,-0.0013009330204178937
3878.0,-0.00121432528617893
3877.0,-0.0011710149414008164
3876.0,-0.0011277002770349043
3875.0,-0.0011710149414008164
3874.0,-0.0011710149414008164
3873.0,-0.0011710149414008164
3872.0,-0.0011710149414008164
3871.0,-0.0011710149414008164
3870.0,-0.00121432528617893
3869.0,-0.001344230411601366
3868.0,-0.0014308122463981832
3867.0,-0.001474096691732818
3866.0,-0.0015606526425728795
3865.0,-0.0016904542321527494
3864.0,-0.001733712809000476
3863.0,-0.001733712809000476
3862.0,-0.0016471913460383014
3861.0,-0.0015173768235041685
3860.0,-0.0014308122463981832
3859.0,-0.0013875234866409514
3858.0,-0.0014308122463981832
3857.0,-0.001474096691732818
3856.0,-0.0014308122463981832
3855.0,-0.0013875234866409514
3854.0,-0.0014308122463981832
3853.0,-0.0015173768235041685
3852.0,-0.0015606526425728795
3851.0,-0.0015606526425728795
3850.0,-0.001474096691732818
3849.0,-0.0013875234866409514
3848.0,-0.001344230411601366
3847.0,-0.0013009330204178937
3846.0,-0.0013009330204178937
3845.0,-0.0013009330204178937
3844.0,-0.0013009330204178937
3843.0,-0.00121432528617893
3842.0,-0.0011710149414008164
3841.0,-0.0011710149414008164
3840.0,-0.0011710149414008164
3839.0,-0.0011710149414008164
3838.0,-0.00121432528617893
3837.0,-0.00121432528617893
3836.0,-0.001257631312230778
3835.0,-0.0013009330204178937
3834.0,-0.0013875234866409514
3833.0,-0.0014308122463981832
3832.0,-0.001474096691732818
3831.0,-0.0014308122463981832
3830.0,-0.001344230411601366
3829.0,-0.001257631312230778
3828.0,-0.0011710149414008164
3827.0,-0.0011710149414008164
3826.0,-0.0011710149414008164
3825.0,-0.0011710149414008164
3824.0,-0.0011277002770349043
3823.0,-0.0011277002770349043
3822.0,-0.0011710149414008164
3821.0,-0.001257631312230778
3820.0,-0.0013009330204178937
3819.0,-0.0013009330204178937
3818.0,-0.001257631312230778
3817.0,-0.001257631312230778
3816.0,-0.001257631312230778
3815.0,-0.0013009330204178937
3814.0,-0.001344230411601366
3813.0,-0.0013875234866409514
3812.0,-0.0013875234866409514
3811.0,-0.001344230411601366
3810.0,-0.00121432528617893
3809.0,-0.0011277002770349043
3808.0,-0.0011277002770349043
3807.0,-0.001257631312230778
3806.0,-0.0013875234866409514
3805.0,-0.0014308122463981832
3804.0,-0.0014308122463981832
3803.0,-0.001344230411601366
3802.0,-0.001257631312230778
3801.0,-0.0011710149414008164
3800.0,-0.0010843812922201046
3799.0,-0.001041057986093552
3798.0,-0.0010843812922201046
3797.0,-0.0011710149414008164
3796.0,-0.0013009330204178937
3795.0,-0.001344230411601366
3794.0,-0.0013875234866409514
3793.0,-0.0013875234866409514
3792.0,-0.0013875234866409514
3791.0,-0.001344230411601366
3790.0,-0.001257631312230778
3789.0,-0.001257631312230778
3788.0,-0.00121432528617893
3787.0,-0.00121432528617893
3786.0,-0.0011710149414008164
3785.0,-0.0011277002770349043
3784.0,-0.0010843812922201046
3783.0,-0.0010843812922201046
3782.0,-0.001041057986093552
3781.0,-0.001041057986093552
3780.0,-0.001041057986093552
3779.0,-0.0010843812922201046
3778.0,-0.0011277002770349043
3777.0,-0.00121432528617893
3776.0,-0.001344230411601366
3775.0,-0.0014308122463981832
3774.0,-0.001474096691732818
3773.0,-0.0014308122463981832
3772.0,-0.0013875234866409514
3771.0,-0.001257631312230778
3770.0,-0.0011710149414008164
3769.0,-0.0010843812922201046
3768.0,-0.001041057986093552
3767.0,-0.0010843812922201046
3766.0,-0.00121432528617893
3765.0,-0.001344230411601366
3764.0,-0.0014308122463981832
3763.0,-0.0014308122463981832
3762.0,-0.001344230411601366
3761.0,-0.00121432528617893
3760.0,-0.0011277002770349043
3759.0,-0.0011710149414008164
3758.0,-0.001257631312230778
3757.0,-0.001344230411601366
3756.0,-0.0013875234866409514
3755.0,-0.0013875234866409514
3754.0,-0.0013875234866409514
3753.0,-0.0014308122463981832
3752.0,-0.001474096691732818
3751.0,-0.0015173768235041685
3750.0,-0.0015606526425728795
3749.0,-0.0015606526425728795
3748.0,-0.0015173768235041685
3747.0,-0.0015173768235041685
3746.0,-0.0016039241497978196
3745.0,-0.0016471913460383014
3744.0,-0.0016471913460383014
3743.0,-0.0015606526425728795
3742.0,-0.0015173768235041685
3741.0,-0.0015606526425728795
3740.0,-0.0015606526425728795
3739.0,-0.0015173768235041685
3738.0,-0.001474096691732818
3737.0,-0.0013875234866409514
3736.0,-0.0013875234866409514
3735.0,-0.0014308122463981832
3734.0,-0.0014308122463981832
3733.0,-0.0015173768235041685
3732.0,-0.0015606526425728795
3731.0,-0.0016471913460383014
3730.0,-0.0016471913460383014
3729.0,-0.0015606526425728795
3728.0,-0.001474096691732818
3727.0,-0.001344230411601366
3726.0,-0.00121432528617893
3725.0,-0.0010843812922201046
3724.0,-0.0009977303577937136
3723.0,-0.0009543984064577238
3722.0,-0.0009977303577937136
3721.0,-0.0010843812922201046
3720.0,-0.0011710149414008164
3719.0,-0.00121432528617893
3718.0,-0.001257631312230778
3717.0,-0.00121432528617893
3716.0,-0.001257631312230778
3715.0,-0.001257631312230778
3714.0,-0.001344230411601366
3713.0,-0.0014308122463981832
3712.0,-0.001474096691732818
3711.0,-0.0014308122463981832
3710.0,-0.0013875234866409514
3709.0,-0.001344230411601366
3708.0,-0.001344230411601366
3707.0,-0.001344230411601366
3706.0,-0.001344230411601366
3705.0,-0.001344230411601366
3704.0,-0.001344230411601366
3703.0,-0.001344230411601366
3702.0,-0.0014308122463981832
3701.0,-0.0015606526425728795
3700.0,-0.0016471913460383014
3699.0,-0.0016904542321527494
3698.0,-0.0016904542321527494
3697.0,-0.0016904542321527494
3696.0,-0.0016904542321527494
3695.0,-0.0016471913460383014
3694.0,-0.0016039241497978196
3693.0,-0.0015173768235041685
3692.0,-0.0015173768235041685
3691.0,-0.0015606526425728795
3690.0,-0.0016471913460383014
3689.0,-0.0016904542321527494
3688.0,-0.0016471913460383014
3687.0,-0.0015606526425728795
3686.0,-0.0015606526425728795
3685.0,-0.0015606526425728795
3684.0,-0.0016471913460383014
3683.0,-0.0016471913460383014
3682.0,-0.0016471913460383014
3681.0,-0.0015173768235041685
3680.0,-0.0013009330204178937
3679.0,-0.0011277002770349043
3678.0,-0.001041057986093552
3677.0,-0.0011277002770349043
3676.0,-0.0014308122463981832
3675.0,-0.0016039241497978196
3674.0,-0.0016039241497978196
3673.0,-0.0013875234866409514
3672.0,-0.00121432528617893
3671.0,-0.0010843812922201046
3670.0,-0.0011710149414008164
3669.0,-0.001257631312230778
3668.0,-0.001344230411601366
3667.0,-0.001344230411601366
3666.0,-0.0013009330204178937
3665.0,-0.001257631312230778
3664.0,-0.001257631312230778
3663.0,-0.001257631312230778
3662.0,-0.001257631312230778
3661.0,-0.001257631312230778
3660.0,-0.0013009330204178937
3659.0,-0.0013875234866409514
3658.0,-0.001474096691732818
3657.0,-0.0015173768235041685
3656.0,-0.0015173768235041685
3655.0,-0.001474096691732818
3654.0,-0.0014308122463981832
3653.0,-0.0013875234866409514
3652.0,-0.001344230411601366
3651.0,-0.0013009330204178937
3650.0,-0.00121432528617893
3649.0,-0.0011277002770349043
3648.0,-0.0011277002770349043
3647.0,-0.0011710149414008164
3646.0,-0.00121432528617893
3645.0,-0.001257631312230778
3644.0,-0.0013009330204178937
3643.0,-0.0013875234866409514
3642.0,-0.0014308122463981832
3641.0,-0.0014308122463981832
3640.0,-0.001344230411601366
3639.0,-0.001257631312230778
3638.0,-0.0011710149414008164
3637.0,-0.0011710149414008164
3636.0,-0.001257631312230778
3635.0,-0.0013875234866409514
3634.0,-0.0015173768235041685
3633.0,-0.0016471913460383014
3632.0,-0.0016904542321527494
3631.0,-0.0016471913460383014
3630.0,-0.0016039241497978196
3629.0,-0.0015606526425728795
3628.0,-0.0016039241497978196
3627.0,-0.0016039241497978196
3626.0,-0.0015606526425728795
3625.0,-0.0015606526425728795
3624.0,-0.0015173768235041685
3623.0,-0.0014308122463981832
3622.0,-0.0013875234866409514
3621.0,-0.0013009330204178937
3620.0,-0.001257631312230778
3619.0,-0.00121432528617893
3618.0,-0.0011710149414008164
3617.0,-0.0011277002770349043
3616.0,-0.0011277002770349043
3615.0,-0.0011277002770349043
3614.0,-0.0011710149414008164
3613.0,-0.0013009330204178937
3612.0,-0.0013875234866409514
3611.0,-0.0014308122463981832
3610.0,-0.0014308122463981832
3609.0,-0.0014308122463981832
3608.0,-0.001474096691732818
3607.0,-0.0015173768235041685
3606.0,-0.0015606526425728795
3605.0,-0.0015606526425728795
3604.0,-0.001474096691732818
3603.0,-0.0013875234866409514
3602.0,-0.0013009330204178937
3601.0,-0.001257631312230778
3600.0,-0.0013009330204178937
3599.0,-0.001344230411601366
3598.0,-0.001344230411601366
3597.0,-0.0013875234866409514
3596.0,-0.0013875234866409514
3595.0,-0.001474096691732818
3594.0,-0.0015173768235041685
3593.0,-0.0015606526425728795
3592.0,-0.001474096691732818
3591.0,-0.001344230411601366
3590.0,-0.0011710149414008164
3589.0,-0.0009977303577937136
3588.0,-0.0009543984064577238
3587.0,-0.0009543984064577238
3586.0,-0.0009977303577937136
3585.0,-0.0010843812922201046
3584.0,-0.0011710149414008164
3583.0,-0.001257631312230778
3582.0,-0.001344230411601366
3581.0,-0.0013875234866409514
3580.0,-0.001344230411601366
3579.0,-0.0013009330204178937
3578.0,-0.001257631312230778
3577.0,-0.001257631312230778
3576.0,-0.001344230411601366
3575.0,-0.0014308122463981832
3574.0,-0.0015173768235041685
3573.0,-0.0016039241497978196
3572.0,-0.0016039241497978196
3571.0,-0.0015173768235041685
3570.0,-0.0013009330204178937
3569.0,-0.0011277002770349043
3568.0,-0.0009977303577937136
3567.0,-0.0009977303577937136
3566.0,-0.0010843812922201046
3565.0,-0.0011277002770349043
3564.0,-0.0010843812922201046
3563.0,-0.001041057986093552
3562.0,-0.0009977303577937136
3561.0,-0.001041057986093552
3560.0,-0.0010843812922201046
3559.0,-0.0011710149414008164
3558.0,-0.00121432528617893
3557.0,-0.001257631312230778
3556.0,-0.001257631312230778
3555.0,-0.0013009330204178937
3554.0,-0.0013009330204178937
3553.0,-0.0013009330204178937
3552.0,-0.001257631312230778
3551.0,-0.001257631312230778
3550.0,-0.001257631312230778
3549.0,-0.001257631312230778
3548.0,-0.0013009330204178937
3547.0,-0.001344230411601366
3546.0,-0.0013875234866409514
3545.0,-0.001474096691732818
3544.0,-0.001474096691732818
3543.0,-0.0014308122463981832
3542.0,-0.001344230411601366
3541.0,-0.0013009330204178937
3540.0,-0.00121432528617893
3539.0,-0.00121432528617893
3538.0,-0.00121432528617893
3537.0,-0.00121432528617893
3536.0,-0.0013009330204178937
3535.0,-0.001344230411601366
3534.0,-0.001344230411601366
3533.0,-0.0013009330204178937
3532.0,-0.00121432528617893
3531.0,-0.0011277002770349043
3530.0,-0.0010843812922201046
3529.0,-0.001041057986093552
3528.0,-0.0009977303577937136
3527.0,-0.0009977303577937136
3526.0,-0.0009977303577937136
3525.0,-0.0010843812922201046
3524.0,-0.00121432528617893
3523.0,-0.001344230411601366
3522.0,-0.0014308122463981832
3521.0,-0.001474096691732818
3520.0,-0.0014308122463981832
3519.0,-0.001344230411601366
3518.0,-0.0013009330204178937
3517.0,-0.0013009330204178937
3516.0,-0.0013009330204178937
3515.0,-0.001344230411601366
3514.0,-0.001344230411601366
3513.0,-0.001344230411601366
3512.0,-0.001257631312230778
3511.0,-0.0011710149414008164
3510.0,-0.0011710149414008164
3509.0,-0.0011710149414008164
3508.0,-0.00121432528617893
3507.0,-0.0011710149414008164
3506.0,-0.0010843812922201046
3505.0,-0.001041057986093552
3504.0,-0.0009977303577937136
3503.0,-0.001041057986093552
3502.0,-0.0011710149414008164
3501.0,-0.0013009330204178937
3500.0,-0.0013875234866409514
3499.0,-0.0014308122463981832
3498.0,-0.0015173768235041685
3497.0,-0.0016039241497978196
3496.0,-0.0016471913460383014
3495.0,-0.0016039241497978196
3494.0,-0.001474096691732818
3493.0,-0.001344230411601366
3492.0,-0.001257631312230778
3491.0,-0.00121432528617893
3490.0,-0.00121432528617893
3489.0,-0.001257631312230778
3488.0,-0.001344230411601366
3487.0,-0.0014308122463981832
3486.0,-0.0014308122463981832
3485.0,-0.001344230411601366
3484.0,-0.0011710149414008164
3483.0,-0.0009977303577937136
3482.0,-0.0009110621312231615
3481.0,-0.0009110621312231615
3480.0,-0.0009977303577937136
3479.0,-0.0011277002770349043
3478.0,-0.0011710149414008164
3477.0,-0.001257631312230778
3476.0,-0.0013009330204178937
3475.0,-0.0013875234866409514
3474.0,-0.0013875234866409514
3473.0,-0.0014308122463981832
3472.0,-0.0014308122463981832
3471.0,-0.0014308122463981832
3470.0,-0.0013875234866409514
3469.0,-0.001344230411601366
3468.0,-0.0013875234866409514
3467.0,-0.0014308122463981832
3466.0,-0.001474096691732818
3465.0,-0.0015173768235041685
3464.0,-0.001474096691732818
3463.0,-0.0014308122463981832
3462.0,-0.0013875234866409514
3461.0,-0.0014308122463981832
3460.0,-0.0015173768235041685
3459.0,-0.0015173768235041685
3458.0,-0.001474096691732818
3457.0,-0.0014308122463981832
3456.0,-0.0014308122463981832
3455.0,-0.001474096691732818
3454.0,-0.0015173768235041685
3453.0,-0.0015173768235041685
3452.0,-0.001474096691732818
3451.0,-0.0013875234866409514
3450.0,-0.001344230411601366
3449.0,-0.0013009330204178937
3448.0,-0.001257631312230778
3447.0,-0.0013009330204178937
3446.0,-0.0014308122463981832
3445.0,-0.001474096691732818
3444.0,-0.001474096691732818
3443.0,-0.0014308122463981832
3442.0,-0.001344230411601366
3441.0,-0.001344230411601366
3440.0,-0.001344230411601366
3439.0,-0.0013875234866409514
3438.0,-0.0014308122463981832
3437.0,-0.0013875234866409514
3436.0,-0.001344230411601366
3435.0,-0.0013009330204178937
3434.0,-0.0013009330204178937
3433.0,-0.001344230411601366
3432.0,-0.0013875234866409514
3431.0,-0.0014308122463981832
3430.0,-0.0014308122463981832
3429.0,-0.0013875234866409514
3428.0,-0.001344230411601366
3427.0,-0.00121432528617893
3426.0,-0.0010843812922201046
3425.0,-0.0009543984064577238
3424.0,-0.0009543984064577238
3423.0,-0.001041057986093552
3422.0,-0.0011710149414008164
3421.0,-0.0013009330204178937
3420.0,-0.001344230411601366
3419.0,-0.0013875234866409514
3418.0,-0.0013875234866409514
3417.0,-0.0013875234866409514
3416.0,-0.0013875234866409514
3415.0,-0.0014308122463981832
3414.0,-0.001474096691732818
3413.0,-0.0015173768235041685
3412.0,-0.0015173768235041685
3411.0,-0.0015606526425728795
3410.0,-0.0015606526425728795
3409.0,-0.0015173768235041685
3408.0,-0.001474096691732818
3407.0,-0.0013875234866409514
3406.0,-0.001344230411601366
3405.0,-0.0013009330204178937
3404.0,-0.0013009330204178937
3403.0,-0.001257631312230778
3402.0,-0.00121432528617893
3401.0,-0.0011277002770349043
3400.0,-0.0011277002770349043
3399.0,-0.0011277002770349043
3398.0,-0.0011277002770349043
3397.0,-0.0011710149414008164
3396.0,-0.0011710149414008164
3395.0,-0.001257631312230778
3394.0,-0.001344230411601366
3393.0,-0.0014308122463981832
3392.0,-0.0015606526425728795
3391.0,-0.0016471913460383014
3390.0,-0.0016471913460383014
3389.0,-0.0015606526425728795
3388.0,-0.0014308122463981832
3387.0,-0.001344230411601366
3386.0,-0.0013009330204178937
3385.0,-0.001344230411601366
3384.0,-0.0013875234866409514
3383.0,-0.001344230411601366
3382.0,-0.001257631312230778
3381.0,-0.0011710149414008164
3380.0,-0.0011277002770349043
3379.0,-0.0011710149414008164
3378.0,-0.0013009330204178937
3377.0,-0.001344230411601366
3376.0,-0.001344230411601366
3375.0,-0.0013009330204178937
3374.0,-0.0013009330204178937
3373.0,-0.001344230411601366
3372.0,-0.001344230411601366
3371.0,-0.0013009330204178937
3370.0,-0.001257631312230778
3369.0,-0.0011710149414008164
3368.0,-0.0011710149414008164
3367.0,-0.00121432528617893
3366.0,-0.00121432528617893
3365.0,-0.00121432528617893
3364.0,-0.0011710149414008164
3363.0,-0.0011710149414008164
3362.0,-0.0011277002770349043
3361.0,-0.0010843812922201046
3360.0,-0.0010843812922201046
3359.0,-0.001041057986093552
3358.0,-0.001041057986093552
3357.0,-0.0010843812922201046
3356.0,-0.0011277002770349043
3355.0,-0.0011710149414008164
3354.0,-0.00121432528617893
3353.0,-0.001257631312230778
3352.0,-0.0013009330204178937
3351.0,-0.0013009330204178937
3350.0,-0.0013875234866409514
3349.0,-0.0014308122463981832
3348.0,-0.0014308122463981832
3347.0,-0.0013875234866409514
3346.0,-0.001344230411601366
3345.0,-0.001257631312230778
3344.0,-0.001257631312230778
3343.0,-0.001257631312230778
3342.0,-0.0013009330204178937
3341.0,-0.001344230411601366
3340.0,-0.0013875234866409514
3339.0,-0.0014308122463981832
3338.0,-0.0013875234866409514
3337.0,-0.0013875234866409514
3336.0,-0.0013875234866409514
3335.0,-0.001344230411601366
3334.0,-0.001344230411601366
3333.0,-0.0013009330204178937
3332.0,-0.0013009330204178937
3331.0,-0.0013009330204178937
3330.0,-0.0013009330204178937
3329.0,-0.0013009330204178937
3328.0,-0.0013009330204178937
3327.0,-0.0013009330204178937
3326.0,-0.0013009330204178937
3325.0,-0.00121432528617893
3324.0,-0.0011710149414008164
3323.0,-0.0010843812922201046
3322.0,-0.001041057986093552
3321.0,-0.001041057986093552
3320.0,-0.0010843812922201046
3319.0,-0.0011277002770349043
3318.0,-0.0011710149414008164
3317.0,-0.0011710149414008164
3316.0,-0.00121432528617893
3315.0,-0.001257631312230778
3314.0,-0.001344230411601366
3313.0,-0.0013875234866409514
3312.0,-0.001344230411601366
3311.0,-0.001257631312230778
3310.0,-0.00121432528617893
3309.0,-0.0011710149414008164
3308.0,-0.0011710149414008164
3307.0,-0.00121432528617893
3306.0,-0.001257631312230778
3305.0,-0.001257631312230778
3304.0,-0.001257631312230778
3303.0,-0.00121432528617893
3302.0,-0.0011710149414008164
3301.0,-0.0011710149414008164
3300.0,-0.0011710149414008164
3299.0,-0.00121432528617893
3298.0,-0.0011710149414008164
3297.0,-0.0010843812922201046
3296.0,-0.001041057986093552
3295.0,-0.001041057986093552
3294.0,-0.0011277002770349043
3293.0,-0.00121432528617893
3292.0,-0.00121432528617893
3291.0,-0.001257631312230778
3290.0,-0.001344230411601366
3289.0,-0.0014308122463981832
3288.0,-0.0015173768235041685
3287.0,-0.0015173768235041685
3286.0,-0.001474096691732818
3285.0,-0.0014308122463981832
3284.0,-0.0013875234866409514
3283.0,-0.0013009330204178937
3282.0,-0.001257631312230778
3281.0,-0.0011710149414008164
3280.0,-0.0010843812922201046
3279.0,-0.001041057986093552
3278.0,-0.0010843812922201046
3277.0,-0.0011277002770349043
3276.0,-0.0011710149414008164
3275.0,-0.0011710149414008164
3274.0,-0.0011710149414008164
3273.0,-0.00121432528617893
3272.0,-0.00121432528617893
3271.0,-0.00121432528617893
3270.0,-0.0011277002770349043
3269.0,-0.001041057986093552
3268.0,-0.0009977303577937136
3267.0,-0.001041057986093552
3266.0,-0.0011277002770349043
3265.0,-0.00121432528617893
3264.0,-0.001257631312230778
3263.0,-0.0013009330204178937
3262.0,-0.001257631312230778
3261.0,-0.00121432528617893
3260.0,-0.0011710149414008164
3259.0,-0.0010843812922201046
3258.0,-0.0009977303577937136
3257.0,-0.0009110621312231615
3256.0,-0.0008677215312267172
3255.0,-0.0008677215312267172
3254.0,-0.0009543984064577238
3253.0,-0.0010843812922201046
3252.0,-0.00121432528617893
3251.0,-0.00121432528617893
3250.0,-0.0011277002770349043
3249.0,-0.001041057986093552
3248.0,-0.0010843812922201046
3247.0,-0.0011710149414008164
3246.0,-0.0013009330204178937
3245.0,-0.0013875234866409514
3244.0,-0.0013875234866409514
3243.0,-0.0013009330204178937
3242.0,-0.0011710149414008164
3241.0,-0.0010843812922201046
3240.0,-0.0009543984064577238
3239.0,-0.0009543984064577238
3238.0,-0.0009977303577937136
3237.0,-0.0011277002770349043
3236.0,-0.001257631312230778
3235.0,-0.0013009330204178937
3234.0,-0.0013009330204178937
3233.0,-0.0013009330204178937
3232.0,-0.001344230411601366
3231.0,-0.0013875234866409514
3230.0,-0.001344230411601366
3229.0,-0.00121432528617893
3228.0,-0.0010843812922201046
3227.0,-0.0009977303577937136
3226.0,-0.0009543984064577238
3225.0,-0.0009977303577937136
3224.0,-0.0010843812922201046
3223.0,-0.0011277002770349043
3222.0,-0.0010843812922201046
3221.0,-0.0010843812922201046
3220.0,-0.0010843812922201046
3219.0,-0.0011710149414008164
3218.0,-0.00121432528617893
3217.0,-0.00121432528617893
3216.0,-0.0011710149414008164
3215.0,-0.001041057986093552
3214.0,-0.001041057986093552
3213.0,-0.0011277002770349043
3212.0,-0.001257631312230778
3211.0,-0.001257631312230778
3210.0,-0.00121432528617893
3209.0,-0.0011710149414008164
3208.0,-0.00121432528617893
3207.0,-0.0013875234866409514
3206.0,-0.0015173768235041685
3205.0,-0.0015173768235041685
3204.0,-0.0014308122463981832
3203.0,-0.0013009330204178937
3202.0,-0.0011710149414008164
3201.0,-0.001041057986093552
3200.0,-0.0009543984064577238
3199.0,-0.0009543984064577238
3198.0,-0.0009977303577937136
3197.0,-0.0010843812922201046
3196.0,-0.00121432528617893
3195.0,-0.0013009330204178937
3194.0,-0.0013875234866409514
3193.0,-0.0013875234866409514
3192.0,-0.0013009330204178937
3191.0,-0.0011710149414008164
3190.0,-0.0010843812922201046
3189.0,-0.001041057986093552
3188.0,-0.0010843812922201046
3187.0,-0.0011277002770349043
3186.0,-0.0011277002770349043
3185.0,-0.0011277002770349043
3184.0,-0.0010843812922201046
3183.0,-0.0011277002770349043
3182.0,-0.0011710149414008164
3181.0,-0.001257631312230778
3180.0,-0.0013009330204178937
3179.0,-0.001344230411601366
3178.0,-0.001344230411601366
3177.0,-0.001257631312230778
3176.0,-0.0011710149414008164
3175.0,-0.001041057986093552
3174.0,-0.001041057986093552
3173.0,-0.0010843812922201046
3172.0,-0.0011277002770349043
3171.0,-0.0010843812922201046
3170.0,-0.0009977303577937136
3169.0,-0.0009110621312231615
3168.0,-0.0008677215312267172
3167.0,-0.0008677215312267172
3166.0,-0.0008677215312267172
3165.0,-0.0009110621312231615
3164.0,-0.0008677215312267172
3163.0,-0.0009110621312231615
3162.0,-0.0009977303577937136
3161.0,-0.0011277002770349043
3160.0,-0.001257631312230778
3159.0,-0.0013009330204178937
3158.0,-0.0013009330204178937
3157.0,-0.001257631312230778
3156.0,-0.00121432528617893
3155.0,-0.0011277002770349043
3154.0,-0.001041057986093552
3153.0,-0.0009543984064577238
3152.0,-0.0009110621312231615
3151.0,-0.0009977303577937136
3150.0,-0.0010843812922201046
3149.0,-0.00121432528617893
3148.0,-0.0013009330204178937
3147.0,-0.0013009330204178937
3146.0,-0.001257631312230778
3145.0,-0.00121432528617893
3144.0,-0.0011710149414008164
3143.0,-0.0011277002770349043
3142.0,-0.001041057986093552
3141.0,-0.0009977303577937136
3140.0,-0.001041057986093552
3139.0,-0.0010843812922201046
3138.0,-0.0011277002770349043
3137.0,-0.0010843812922201046
3136.0,-0.0009977303577937136
3135.0,-0.0009977303577937136
3134.0,-0.0009977303577937136
3133.0,-0.001041057986093552
3132.0,-0.0010843812922201046
3131.0,-0.0010843812922201046
3130.0,-0.0009977303577937136
3129.0,-0.0009543984064577238
3128.0,-0.0008677215312267172
3127.0,-0.0008677215312267172
3126.0,-0.0008243766056055257
3125.0,-0.0008243766056055257
3124.0,-0.0007810273534953893
3123.0,-0.0007810273534953893
3122.0,-0.0008243766056055257
3121.0,-0.0009110621312231615
3120.0,-0.0009977303577937136
3119.0,-0.001041057986093552
3118.0,-0.0010843812922201046
3117.0,-0.0010843812922201046
3116.0,-0.0010843812922201046
3115.0,-0.0010843812922201046
3114.0,-0.001041057986093552
3113.0,-0.0009543984064577238
3112.0,-0.0009110621312231615
3111.0,-0.0009110621312231615
3110.0,-0.0009110621312231615
3109.0,-0.0009543984064577238
3108.0,-0.0009543984064577238
3107.0,-0.001041057986093552
3106.0,-0.0011277002770349043
3105.0,-0.00121432528617893
3104.0,-0.001257631312230778
3103.0,-0.00121432528617893
3102.0,-0.0011277002770349043
3101.0,-0.0010843812922201046
3100.0,-0.0010843812922201046
3099.0,-0.0010843812922201046
3098.0,-0.0011277002770349043
3097.0,-0.0011710149414008164
3096.0,-0.0010843812922201046
3095.0,-0.0009977303577937136
3094.0,-0.0009110621312231615
3093.0,-0.0008677215312267172
3092.0,-0.0009110621312231615
3091.0,-0.0009977303577937136
3090.0,-0.0010843812922201046
3089.0,-0.0010843812922201046
3088.0,-0.0010843812922201046
3087.0,-0.0010843812922201046
3086.0,-0.001041057986093552
3085.0,-0.001041057986093552
3084.0,-0.0009977303577937136
3083.0,-0.0009977303577937136
3082.0,-0.001041057986093552
3081.0,-0.0010843812922201046
3080.0,-0.0011277002770349043
3079.0,-0.0010843812922201046
3078.0,-0.0009977303577937136
3077.0,-0.0008677215312267172
3076.0,-0.0008677215312267172
3075.0,-0.0009110621312231615
3074.0,-0.0009543984064577238
3073.0,-0.0009543984064577238
3072.0,-0.0008677215312267172
3071.0,-0.0007810273534953893
3070.0,-0.0007810273534953893
3069.0,-0.0008677215312267172
3068.0,-0.001041057986093552
3067.0,-0.00121432528617893
3066.0,-0.001257631312230778
3065.0,-0.0011710149414008164
3064.0,-0.0009977303577937136
3063.0,-0.0009110621312231615
3062.0,-0.0008677215312267172
3061.0,-0.0009110621312231615
3060.0,-0.0009977303577937136
3059.0,-0.001041057986093552
3058.0,-0.001041057986093552
3057.0,-0.0009977303577937136
3056.0,-0.0009543984064577238
3055.0,-0.0009543984064577238
3054.0,-0.0009543984064577238
3053.0,-0.0009543984064577238
3052.0,-0.0009543984064577238
3051.0,-0.0009543984064577238
3050.0,-0.0009977303577937136
3049.0,-0.001041057986093552
3048.0,-0.0010843812922201046
3047.0,-0.0010843812922201046
3046.0,-0.001041057986093552
3045.0,-0.0009977303577937136
3044.0,-0.0009543984064577238
3043.0,-0.0009977303577937136
3042.0,-0.001041057986093552
3041.0,-0.0009977303577937136
3040.0,-0.0009110621312231615
3039.0,-0.0008243766056055257
3038.0,-0.0007376737740329986
3037.0,-0.0006943158663546001
3036.0,-0.0007376737740329986
3035.0,-0.0007376737740329986
3034.0,-0.0007376737740329986
3033.0,-0.0007376737740329986
3032.0,-0.0007376737740329986
3031.0,-0.0007376737740329986
3030.0,-0.0007810273534953893
3029.0,-0.0007810273534953893
3028.0,-0.0008243766056055257
3027.0,-0.0008243766056055257
3026.0,-0.0008243766056055257
3025.0,-0.0008243766056055257
3024.0,-0.0008243766056055257
3023.0,-0.0008677215312267172
3022.0,-0.0009110621312231615
3021.0,-0.0009543984064577238
3020.0,-0.0009543984064577238
3019.0,-0.0009110621312231615
3018.0,-0.0008677215312267172
3017.0,-0.0008243766056055257
3016.0,-0.0008243766056055257
3015.0,-0.0008677215312267172
3014.0,-0.0009110621312231615
3013.0,-0.0009543984064577238
3012.0,-0.001041057986093552
3011.0,-0.0010843812922201046
3010.0,-0.0010843812922201046
3009.0,-0.0009977303577937136
3008.0,-0.0008677215312267172
3007.0,-0.0007810273534953893
3006.0,-0.0007810273534953893
3005.0,-0.0008243766056055257
3004.0,-0.0008677215312267172
3003.0,-0.0009110621312231615
3002.0,-0.0009110621312231615
3001.0,-0.0008677215312267172
3000.0,-0.0008243766056055257
2999.0,-0.0008243766056055257
2998.0,-0.0008243766056055257
2997.0,-0.0008677215312267172
2996.0,-0.0008677215312267172
2995.0,-0.0009110621312231615
2994.0,-0.0009543984064577238
2993.0,-0.0009977303577937136
2992.0,-0.0009543984064577238
2991.0,-0.0009110621312231615
2990.0,-0.0008677215312267172
2989.0,-0.0008243766056055257
2988.0,-0.0008243766056055257
2987.0,-0.0008677215312267172
2986.0,-0.0009110621312231615
2985.0,-0.0008677215312267172
2984.0,-0.0008243766056055257
2983.0,-0.0008243766056055257
2982.0,-0.0008677215312267172
2981.0,-0.0009110621312231615
2980.0,-0.0009543984064577238
2979.0,-0.0009543984064577238
2978.0,-0.0009543984064577238
2977.0,-0.0009110621312231615
2976.0,-0.0009110621312231615
2975.0,-0.0008677215312267172
2974.0,-0.0007810273534953893
2973.0,-0.0007810273534953893
2972.0,-0.0008243766056055257
2971.0,-0.0009110621312231615
2970.0,-0.0009543984064577238
2969.0,-0.0009977303577937136
2968.0,-0.0009977303577937136
2967.0,-0.001041057986093552
2966.0,-0.0010843812922201046
2965.0,-0.0010843812922201046
2964.0,-0.0011277002770349043
2963.0,-0.0011277002770349043
2962.0,-0.0010843812922201046
2961.0,-0.0009977303577937136
2960.0,-0.0009110621312231615
2959.0,-0.0008677215312267172
2958.0,-0.0009110621312231615
2957.0,-0.0009110621312231615
2956.0,-0.0009110621312231615
2955.0,-0.0009543984064577238
2954.0,-0.0009543984064577238
2953.0,-0.0009543984064577238
2952.0,-0.0009977303577937136
2951.0,-0.0009977303577937136
2950.0,-0.001041057986093552
2949.0,-0.0009977303577937136
2948.0,-0.0009977303577937136
2947.0,-0.0009543984064577238
2946.0,-0.0009543984064577238
2945.0,-0.0009977303577937136
2944.0,-0.001041057986093552
2943.0,-0.001041057986093552
2942.0,-0.001041057986093552
2941.0,-0.0009977303577937136
2940.0,-0.0009977303577937136
2939.0,-0.0010843812922201046
2938.0,-0.0011277002770349043
2937.0,-0.0011710149414008164
2936.0,-0.0011277002770349043
2935.0,-0.0011277002770349043
2934.0,-0.0010843812922201046
2933.0,-0.001041057986093552
2932.0,-0.001041057986093552
2931.0,-0.001041057986093552
2930.0,-0.001041057986093552
2929.0,-0.001041057986093552
2928.0,-0.0009543984064577238
2927.0,-0.0009110621312231615
2926.0,-0.0008677215312267172
2925.0,-0.0009110621312231615
2924.0,-0.0009110621312231615
2923.0,-0.0008677215312267172
2922.0,-0.0008677215312267172
2921.0,-0.0008677215312267172
2920.0,-0.0008677215312267172
2919.0,-0.0008677215312267172
2918.0,-0.0008243766056055257
2917.0,-0.0008677215312267172
2916.0,-0.0009110621312231615
2915.0,-0.0009543984064577238
2914.0,-0.0009543984064577238
2913.0,-0.0009110621312231615
2912.0,-0.0009110621312231615
2911.0,-0.0009110621312231615
2910.0,-0.0009543984064577238
2909.0,-0.0009977303577937136
2908.0,-0.001041057986093552
2907.0,-0.0009977303577937136
2906.0,-0.0009110621312231615
2905.0,-0.0007810273534953893
2904.0,-0.0006509536295951079
2903.0,-0.0006509536295951079
2902.0,-0.0007376737740329986
2901.0,-0.0008243766056055257
2900.0,-0.0008677215312267172
2899.0,-0.0008677215312267172
2898.0,-0.0008677215312267172
2897.0,-0.0008677215312267172
2896.0,-0.0009110621312231615
2895.0,-0.0009977303577937136
2894.0,-0.001041057986093552
2893.0,-0.001041057986093552
2892.0,-0.0009543984064577238
2891.0,-0.0008677215312267172
2890.0,-0.0007810273534953893
2889.0,-0.0007810273534953893
2888.0,-0.0007376737740329986
2887.0,-0.0007376737740329986
2886.0,-0.0007376737740329986
2885.0,-0.0008243766056055257
2884.0,-0.0008677215312267172
2883.0,-0.0009543984064577238
2882.0,-0.001041057986093552
2881.0,-0.001041057986093552
2880.0,-0.001041057986093552
2879.0,-0.0009977303577937136
2878.0,-0.0009543984064577238
2877.0,-0.0009110621312231615
2876.0,-0.0008243766056055257
2875.0,-0.0007376737740329986
2874.0,-0.0007376737740329986
2873.0,-0.0007376737740329986
2872.0,-0.0007810273534953893
2871.0,-0.0007810273534953893
2870.0,-0.0008243766056055257
2869.0,-0.0009110621312231615
2868.0,-0.0009543984064577238
2867.0,-0.0009977303577937136
2866.0,-0.0009977303577937136
2865.0,-0.0009977303577937136
2864.0,-0.001041057986093552
2863.0,-0.001041057986093552
2862.0,-0.0010843812922201046
2861.0,-0.0010843812922201046
2860.0,-0.0010843812922201046
2859.0,-0.0010843812922201046
2858.0,-0.001041057986093552
2857.0,-0.0009977303577937136
2856.0,-0.0009543984064577238
2855.0,-0.0009110621312231615
2854.0,-0.0008677215312267172
2853.0,-0.0008677215312267172
2852.0,-0.0009543984064577238
2851.0,-0.0009977303577937136
2850.0,-0.0009543984064577238
2849.0,-0.0009110621312231615
2848.0,-0.0008243766056055257
2847.0,-0.0007810273534953893
2846.0,-0.0008243766056055257
2845.0,-0.0008677215312267172
2844.0,-0.0009110621312231615
2843.0,-0.0009110621312231615
2842.0,-0.0009110621312231615
2841.0,-0.0009110621312231615
2840.0,-0.0009543984064577238
2839.0,-0.0009977303577937136
2838.0,-0.0009977303577937136
2837.0,-0.0009543984064577238
2836.0,-0.0009110621312231615
2835.0,-0.0008677215312267172
2834.0,-0.0008243766056055257
2833.0,-0.0008677215312267172
2832.0,-0.0009110621312231615
2831.0,-0.0009543984064577238
2830.0,-0.0009977303577937136
2829.0,-0.001041057986093552
2828.0,-0.0010843812922201046
2827.0,-0.0011277002770349043
2826.0,-0.0011277002770349043
2825.0,-0.0010843812922201046
2824.0,-0.0009543984064577238
2823.0,-0.0008677215312267172
2822.0,-0.0007810273534953893
2821.0,-0.0007810273534953893
2820.0,-0.0007810273534953893
2819.0,-0.0007810273534953893
2818.0,-0.0008243766056055257
2817.0,-0.0008677215312267172
2816.0,-0.0009110621312231615
2815.0,-0.0009543984064577238
2814.0,-0.0009543984064577238
2813.0,-0.0009543984064577238
2812.0,-0.0009977303577937136
2811.0,-0.0009977303577937136
2810.0,-0.0009543984064577238
2809.0,-0.0009110621312231615
2808.0,-0.0008677215312267172
2807.0,-0.0009110621312231615
2806.0,-0.0009543984064577238
2805.0,-0.0009977303577937136
2804.0,-0.001041057986093552
2803.0,-0.0010843812922201046
2802.0,-0.0010843812922201046
2801.0,-0.0010843812922201046
2800.0,-0.001041057986093552
2799.0,-0.0009543984064577238
2798.0,-0.0009110621312231615
2797.0,-0.0008677215312267172
2796.0,-0.0008677215312267172
2795.0,-0.0009110621312231615
2794.0,-0.0009977303577937136
2793.0,-0.0010843812922201046
2792.0,-0.0011710149414008164
2791.0,-0.0011710149414008164
2790.0,-0.0011710149414008164
2789.0,-0.0011277002770349043
2788.0,-0.0011710149414008164
2787.0,-0.00121432528617893
2786.0,-0.001257631312230778
2785.0,-0.001257631312230778
2784.0,-0.0011710149414008164
2783.0,-0.0011277002770349043
2782.0,-0.0010843812922201046
2781.0,-0.0010843812922201046
2780.0,-0.0010843812922201046
2779.0,-0.0010843812922201046
2778.0,-0.0011277002770349043
2777.0,-0.0011710149414008164
2776.0,-0.00121432528617893
2775.0,-0.001257631312230778
2774.0,-0.00121432528617893
2773.0,-0.0011277002770349043
2772.0,-0.001041057986093552
2771.0,-0.0009977303577937136
2770.0,-0.0009977303577937136
2769.0,-0.001041057986093552
2768.0,-0.001041057986093552
2767.0,-0.0009977303577937136
2766.0,-0.0008677215312267172
2765.0,-0.0007376737740329986
2764.0,-0.0006943158663546001
2763.0,-0.0006943158663546001
2762.0,-0.0007810273534953893
2761.0,-0.0008243766056055257
2760.0,-0.0008677215312267172
2759.0,-0.0009110621312231615
2758.0,-0.0009543984064577238
2757.0,-0.001041057986093552
2756.0,-0.001041057986093552
2755.0,-0.001041057986093552
2754.0,-0.0009977303577937136
2753.0,-0.0009543984064577238
2752.0,-0.0009110621312231615
2751.0,-0.0008677215312267172
2750.0,-0.0009110621312231615
2749.0,-0.0009543984064577238
2748.0,-0.0009543984064577238
2747.0,-0.0009110621312231615
2746.0,-0.0008677215312267172
2745.0,-0.0009110621312231615
2744.0,-0.0009977303577937136
2743.0,-0.001041057986093552
2742.0,-0.0010843812922201046
2741.0,-0.0010843812922201046
2740.0,-0.0010843812922201046
2739.0,-0.0010843812922201046
2738.0,-0.0010843812922201046
2737.0,-0.0010843812922201046
2736.0,-0.001041057986093552
2735.0,-0.0009543984064577238
2734.0,-0.0009110621312231615
2733.0,-0.0008677215312267172
2732.0,-0.0008677215312267172
2731.0,-0.0009110621312231615
2730.0,-0.0009977303577937136
2729.0,-0.0010843812922201046
2728.0,-0.0011277002770349043
2727.0,-0.0011277002770349043
2726.0,-0.0011277002770349043
2725.0,-0.0011277002770349043
2724.0,-0.0011710149414008164
2723.0,-0.0011710149414008164
2722.0,-0.0011710149414008164
2721.0,-0.0011277002770349043
2720.0,-0.0010843812922201046
2719.0,-0.0010843812922201046
2718.0,-0.001041057986093552
2717.0,-0.001041057986093552
2716.0,-0.0009977303577937136
2715.0,-0.0009543984064577238
2714.0,-0.0009977303577937136
2713.0,-0.001041057986093552
2712.0,-0.0011277002770349043
2711.0,-0.0011710149414008164
2710.0,-0.0011710149414008164
2709.0,-0.0011277002770349043
2708.0,-0.0010843812922201046
2707.0,-0.001041057986093552
2706.0,-0.001041057986093552
2705.0,-0.001041057986093552
2704.0,-0.001041057986093552
2703.0,-0.001041057986093552
2702.0,-0.001041057986093552
2701.0,-0.001041057986093552
2700.0,-0.0009977303577937136
2699.0,-0.0009543984064577238
2698.0,-0.0009543984064577238
2697.0,-0.0009543984064577238
2696.0,-0.0009977303577937136
2695.0,-0.0009543984064577238
2694.0,-0.0009543984064577238
2693.0,-0.0009977303577937136
2692.0,-0.001041057986093552
2691.0,-0.001041057986093552
2690.0,-0.0009977303577937136
2689.0,-0.0009977303577937136
2688.0,-0.001041057986093552
2687.0,-0.0010843812922201046
2686.0,-0.0010843812922201046
2685.0,-0.0010843812922201046
2684.0,-0.0010843812922201046
2683.0,-0.0010843812922201046
2682.0,-0.0011277002770349043
2681.0,-0.0011277002770349043
2680.0,-0.0011277002770349043
2679.0,-0.0011277002770349043
2678.0,-0.0011277002770349043
2677.0,-0.0011710149414008164
2676.0,-0.0011710149414008164
2675.0,-0.0011710149414008164
2674.0,-0.0011277002770349043
2673.0,-0.0010843812922201046
2672.0,-0.001041057986093552
2671.0,-0.001041057986093552
2670.0,-0.001041057986093552
2669.0,-0.001041057986093552
2668.0,-0.001041057986093552
2667.0,-0.0009977303577937136
2666.0,-0.0009543984064577238
2665.0,-0.0008677215312267172
2664.0,-0.0008243766056055257
2663.0,-0.0008677215312267172
2662.0,-0.0009543984064577238
2661.0,-0.0010843812922201046
2660.0,-0.0011277002770349043
2659.0,-0.0011277002770349043
2658.0,-0.0010843812922201046
2657.0,-0.0009977303577937136
2656.0,-0.0009543984064577238
2655.0,-0.0008677215312267172
2654.0,-0.0008677215312267172
2653.0,-0.0008243766056055257
2652.0,-0.0008243766056055257
2651.0,-0.0008677215312267172
2650.0,-0.0008677215312267172
2649.0,-0.0009110621312231615
2648.0,-0.0009543984064577238
2647.0,-0.0009543984064577238
2646.0,-0.0009977303577937136
2645.0,-0.0009977303577937136
2644.0,-0.001041057986093552
2643.0,-0.001041057986093552
2642.0,-0.001041057986093552
2641.0,-0.001041057986093552
2640.0,-0.001041057986093552
2639.0,-0.0009977303577937136
2638.0,-0.0009543984064577238
2637.0,-0.0009543984064577238
2636.0,-0.0009543984064577238
2635.0,-0.0009543984064577238
2634.0,-0.0009543984064577238
2633.0,-0.0009977303577937136
2632.0,-0.0009977303577937136
2631.0,-0.0010843812922201046
2630.0,-0.0011710149414008164
2629.0,-0.0011710149414008164
2628.0,-0.0011710149414008164
2627.0,-0.0011277002770349043
2626.0,-0.001041057986093552
2625.0,-0.0009977303577937136
2624.0,-0.0009543984064577238
2623.0,-0.0009110621312231615
2622.0,-0.0009543984064577238
2621.0,-0.0009977303577937136
2620.0,-0.0009977303577937136
2619.0,-0.0009977303577937136
2618.0,-0.0009977303577937136
2617.0,-0.0009977303577937136
2616.0,-0.0009977303577937136
2615.0,-0.001041057986093552
2614.0,-0.0011277002770349043
2613.0,-0.0011710149414008164
2612.0,-0.0011710149414008164
2611.0,-0.0010843812922201046
2610.0,-0.0009977303577937136
2609.0,-0.0009543984064577238
2608.0,-0.0009543984064577238
2607.0,-0.0009543984064577238
2606.0,-0.0009977303577937136
2605.0,-0.0009977303577937136
2604.0,-0.0009977303577937136
2603.0,-0.0009977303577937136
2602.0,-0.0009977303577937136
2601.0,-0.0009977303577937136
2600.0,-0.001041057986093552
2599.0,-0.0010843812922201046
2598.0,-0.0011277002770349043
2597.0,-0.0011277002770349043
2596.0,-0.0011277002770349043
2595.0,-0.001041057986093552
2594.0,-0.0009977303577937136
2593.0,-0.0009977303577937136
2592.0,-0.0010843812922201046
2591.0,-0.0011710149414008164
2590.0,-0.0011710149414008164
2589.0,-0.0011710149414008164
2588.0,-0.0011277002770349043
2587.0,-0.0010843812922201046
2586.0,-0.0010843812922201046
2585.0,-0.0011277002770349043
2584.0,-0.0011277002770349043
2583.0,-0.0011710149414008164
2582.0,-0.0011710149414008164
2581.0,-0.0011277002770349043
2580.0,-0.0011277002770349043
2579.0,-0.0011277002770349043
2578.0,-0.0011277002770349043
2577.0,-0.0010843812922201046
2576.0,-0.001041057986093552
2575.0,-0.001041057986093552
2574.0,-0.001041057986093552
2573.0,-0.0009977303577937136
2572.0,-0.0009977303577937136
2571.0,-0.0009977303577937136
2570.0,-0.001041057986093552
2569.0,-0.0010843812922201046
2568.0,-0.0011277002770349043
2567.0,-0.0011277002770349043
2566.0,-0.0011277002770349043
2565.0,-0.0011277002770349043
2564.0,-0.0010843812922201046
2563.0,-0.001041057986093552
2562.0,-0.001041057986093552
2561.0,-0.0010843812922201046
2560.0,-0.0011277002770349043
2559.0,-0.0011277002770349043
2558.0,-0.0011277002770349043
2557.0,-0.0011277002770349043
2556.0,-0.0011277002770349043
2555.0,-0.0010843812922201046
2554.0,-0.001041057986093552
2553.0,-0.0009543984064577238
2552.0,-0.0009543984064577238
2551.0,-0.0009110621312231615
2550.0,-0.0009110621312231615
2549.0,-0.0009110621312231615
2548.0,-0.0009543984064577238
2547.0,-0.0009977303577937136
2546.0,-0.001041057986093552
2545.0,-0.001041057986093552
2544.0,-0.0010843812922201046
2543.0,-0.0010843812922201046
2542.0,-0.0010843812922201046
2541.0,-0.001041057986093552
2540.0,-0.001041057986093552
2539.0,-0.0009977303577937136
2538.0,-0.0009977303577937136
2537.0,-0.0009977303577937136
2536.0,-0.0009543984064577238
2535.0,-0.0009977303577937136
2534.0,-0.001041057986093552
2533.0,-0.0010843812922201046
2532.0,-0.0010843812922201046
2531.0,-0.0010843812922201046
2530.0,-0.001041057986093552
2529.0,-0.001041057986093552
2528.0,-0.001041057986093552
2527.0,-0.001041057986093552
2526.0,-0.001041057986093552
2525.0,-0.001041057986093552
2524.0,-0.001041057986093552
2523.0,-0.0010843812922201046
2522.0,-0.0011277002770349043
2521.0,-0.0011277002770349043
2520.0,-0.0011277002770349043
2519.0,-0.0010843812922201046
2518.0,-0.0010843812922201046
2517.0,-0.0010843812922201046
2516.0,-0.0010843812922201046
2515.0,-0.0011710149414008164
2514.0,-0.00121432528617893
2513.0,-0.00121432528617893
2512.0,-0.00121432528617893
2511.0,-0.0011710149414008164
2510.0,-0.0011710149414008164
2509.0,-0.0011277002770349043
2508.0,-0.0011277002770349043
2507.0,-0.0010843812922201046
2506.0,-0.0010843812922201046
2505.0,-0.0011277002770349043
2504.0,-0.0011710149414008164
2503.0,-0.00121432528617893
2502.0,-0.00121432528617893
2501.0,-0.0011710149414008164
2500.0,-0.0011277002770349043
2499.0,-0.001041057986093552
2498.0,-0.0009977303577937136
2497.0,-0.0009977303577937136
2496.0,-0.001041057986093552
2495.0,-0.0011277002770349043
2494.0,-0.00121432528617893
2493.0,-0.001257631312230778
2492.0,-0.001257631312230778
2491.0,-0.0011710149414008164
2490.0,-0.0010843812922201046
2489.0,-0.0010843812922201046
2488.0,-0.0011277002770349043
2487.0,-0.0011710149414008164
2486.0,-0.00121432528617893
2485.0,-0.00121432528617893
2484.0,-0.0011710149414008164
2483.0,-0.0011710149414008164
2482.0,-0.0011710149414008164
2481.0,-0.0011710149414008164
2480.0,-0.00121432528617893
2479.0,-0.00121432528617893
2478.0,-0.00121432528617893
2477.0,-0.0011710149414008164
2476.0,-0.0011277002770349043
2475.0,-0.0010843812922201046
2474.0,-0.0010843812922201046
2473.0,-0.0010843812922201046
2472.0,-0.0011277002770349043
2471.0,-0.0011277002770349043
2470.0,-0.0011277002770349043
2469.0,-0.0011277002770349043
2468.0,-0.0011710149414008164
2467.0,-0.00121432528617893
2466.0,-0.0011710149414008164
2465.0,-0.0011277002770349043
2464.0,-0.001041057986093552
2463.0,-0.001041057986093552
2462.0,-0.001041057986093552
2461.0,-0.001041057986093552
2460.0,-0.001041057986093552
2459.0,-0.001041057986093552
2458.0,-0.0010843812922201046
2457.0,-0.0011277002770349043
2456.0,-0.0011277002770349043
2455.0,-0.0011277002770349043
2454.0,-0.0011710149414008164
2453.0,-0.00121432528617893
2452.0,-0.001257631312230778
2451.0,-0.0013009330204178937
2450.0,-0.0013009330204178937
2449.0,-0.001257631312230778
2448.0,-0.001257631312230778
2447.0,-0.00121432528617893
2446.0,-0.00121432528617893
2445.0,-0.00121432528617893
2444.0,-0.00121432528617893
2443.0,-0.0011277002770349043
2442.0,-0.0010843812922201046
2441.0,-0.0009977303577937136
2440.0,-0.0009977303577937136
2439.0,-0.001041057986093552
2438.0,-0.0010843812922201046
2437.0,-0.0011277002770349043
2436.0,-0.0011277002770349043
2435.0,-0.0011710149414008164
2434.0,-0.0011710149414008164
2433.0,-0.0011710149414008164
2432.0,-0.0011710149414008164
2431.0,-0.0011710149414008164
2430.0,-0.00121432528617893
2429.0,-0.001257631312230778
2428.0,-0.001257631312230778
2427.0,-0.00121432528617893
2426.0,-0.0011710149414008164
2425.0,-0.0011277002770349043
2424.0,-0.0011277002770349043
2423.0,-0.0011277002770349043
2422.0,-0.0011277002770349043
2421.0,-0.0010843812922201046
2420.0,-0.0010843812922201046
2419.0,-0.0010843812922201046
2418.0,-0.0011277002770349043
2417.0,-0.0011277002770349043
2416.0,-0.0011277002770349043
2415.0,-0.0010843812922201046
2414.0,-0.001041057986093552
2413.0,-0.001041057986093552
2412.0,-0.0010843812922201046
2411.0,-0.0011277002770349043
2410.0,-0.0011277002770349043
2409.0,-0.0011277002770349043
2408.0,-0.0011277002770349043
2407.0,-0.0011710149414008164
2406.0,-0.00121432528617893
2405.0,-0.001257631312230778
2404.0,-0.001257631312230778
2403.0,-0.001257631312230778
2402.0,-0.001257631312230778
2401.0,-0.001257631312230778
2400.0,-0.00121432528617893
2399.0,-0.0011710149414008164
2398.0,-0.0011710149414008164
2397.0,-0.0011710149414008164
2396.0,-0.0011710149414008164
2395.0,-0.00121432528617893
2394.0,-0.00121432528617893
2393.0,-0.0011710149414008164
2392.0,-0.0011277002770349043
2391.0,-0.0010843812922201046
2390.0,-0.001041057986093552
2389.0,-0.0009977303577937136
2388.0,-0.0009977303577937136
2387.0,-0.0009977303577937136
2386.0,-0.0009977303577937136
2385.0,-0.001041057986093552
2384.0,-0.001041057986093552
2383.0,-0.001041057986093552
2382.0,-0.0009977303577937136
2381.0,-0.0009543984064577238
2380.0,-0.0009110621312231615
2379.0,-0.0008677215312267172
2378.0,-0.0008677215312267172
2377.0,-0.0009543984064577238
2376.0,-0.0009543984064577238
2375.0,-0.0008243766056055257
2374.0,-0.0006509536295951079
2373.0,-0.0004774613744551459
2372.0,-0.00043407747931878404
2371.0,-0.0006075870628903246
2370.0,-0.0009977303577937136
2369.0,-0.0013875234866409514
2368.0,-0.0014308122463981832
2367.0,-0.0010843812922201046
2366.0,-0.0007376737740329986
2365.0,-0.0007376737740329986
2364.0,-0.001041057986093552
2363.0,-0.001344230411601366
2362.0,-0.001344230411601366
2361.0,-0.0009977303577937136
2360.0,-0.00017368305846510168
2359.0,0.0007824344698965646
2358.0,0.0012612837441823288
2357.0,0.0010435595295137379
2356.0,0.0003475746339209884
2355.0,-0.00030389978481260016
2354.0,-0.0007810273534953893
2353.0,-0.001041057986093552
2352.0,-0.0010843812922201046
2351.0,-0.0009977303577937136
2350.0,-0.0009977303577937136
2349.0,-0.0011710149414008164
2348.0,-0.0015606526425728795
2347.0,-0.0019499410842680476
2346.0,-0.0021228462251614566
2345.0,-0.0022092729880145434
2344.0,-0.0021660617565077978
2343.0,-0.0019499410842680476
2342.0,-0.001474096691732818
2341.0,-0.0010843812922201046
2340.0,-0.0008677215312267172
2339.0,-0.0007810273534953893
2338.0,-0.0006943158663546001
2337.0,-0.0006509536295951079
2336.0,-0.0007810273534953893
2335.0,-0.0009977303577937136
2334.0,-0.00121432528617893
2333.0,-0.001344230411601366
2332.0,-0.0013875234866409514
2331.0,-0.0013875234866409514
2330.0,-0.001474096691732818
2329.0,-0.0015173768235041685
2328.0,-0.0016039241497978196
2327.0,-0.0015606526425728795
2326.0,-0.001474096691732818
2325.0,-0.0013875234866409514
2324.0,-0.00121432528617893
2323.0,-0.001041057986093552
2322.0,-0.0008243766056055257
2321.0,-0.0006075870628903246
2320.0,-0.0004774613744551459
2319.0,-0.00043407747931878404
2318.0,-0.0003906892499099257
2317.0,-0.00043407747931878404
2316.0,-0.0005208409361854294
2315.0,-0.0006943158663546001
2314.0,-0.0008243766056055257
2313.0,-0.001041057986093552
2312.0,-0.0013009330204178937
2311.0,-0.0014308122463981832
2310.0,-0.0014308122463981832
2309.0,-0.0013009330204178937
2308.0,-0.0011277002770349043
2307.0,-0.0009543984064577238
2306.0,-0.0008243766056055257
2305.0,-0.0008243766056055257
2304.0,-0.0008677215312267172
2303.0,-0.0009543984064577238
2302.0,-0.001041057986093552
2301.0,-0.0010843812922201046
2300.0,-0.0011277002770349043
2299.0,-0.0011277002770349043
2298.0,-0.0011710149414008164
2297.0,-0.0011710149414008164
2296.0,-0.001257631312230778
2295.0,-0.001344230411601366
2294.0,-0.0014308122463981832
2293.0,-0.001474096691732818
2292.0,-0.001474096691732818
2291.0,-0.0014308122463981832
2290.0,-0.0014308122463981832
2289.0,-0.001474096691732818
2288.0,-0.0014308122463981832
2287.0,-0.0013875234866409514
2286.0,-0.0013009330204178937
2285.0,-0.00121432528617893
2284.0,-0.00121432528617893
2283.0,-0.001257631312230778
2282.0,-0.001344230411601366
2281.0,-0.0013875234866409514
2280.0,-0.0013875234866409514
2279.0,-0.0013009330204178937
2278.0,-0.00121432528617893
2277.0,-0.0011710149414008164
2276.0,-0.0011710149414008164
2275.0,-0.0011710149414008164
2274.0,-0.0011710149414008164
2273.0,-0.00121432528617893
2272.0,-0.001257631312230778
2271.0,-0.0013009330204178937
2270.0,-0.0013009330204178937
2269.0,-0.0013009330204178937
2268.0,-0.001257631312230778
2267.0,-0.0011710149414008164
2266.0,-0.0011277002770349043
2265.0,-0.0011277002770349043
2264.0,-0.0011710149414008164
2263.0,-0.0013009330204178937
2262.0,-0.001344230411601366
2261.0,-0.0013009330204178937
2260.0,-0.001257631312230778
2259.0,-0.0011710149414008164
2258.0,-0.0011277002770349043
2257.0,-0.0010843812922201046
2256.0,-0.001041057986093552
2255.0,-0.0011277002770349043
2254.0,-0.0011710149414008164
2253.0,-0.001257631312230778
2252.0,-0.001257631312230778
2251.0,-0.001257631312230778
2250.0,-0.001257631312230778
2249.0,-0.0013009330204178937
2248.0,-0.001344230411601366
2247.0,-0.0013875234866409514
2246.0,-0.0013875234866409514
2245.0,-0.0014308122463981832
2244.0,-0.0014308122463981832
2243.0,-0.0013875234866409514
2242.0,-0.0013009330204178937
2241.0,-0.0013009330204178937
2240.0,-0.0013009330204178937
2239.0,-0.001344230411601366
2238.0,-0.0013875234866409514
2237.0,-0.0014308122463981832
2236.0,-0.0013875234866409514
2235.0,-0.001344230411601366
2234.0,-0.0013009330204178937
2233.0,-0.00121432528617893
2232.0,-0.0011710149414008164
2231.0,-0.00121432528617893
2230.0,-0.001257631312230778
2229.0,-0.0013009330204178937
2228.0,-0.0013009330204178937
2227.0,-0.0013009330204178937
2226.0,-0.0013009330204178937
2225.0,-0.0013009330204178937
2224.0,-0.0013009330204178937
2223.0,-0.001257631312230778
2222.0,-0.00121432528617893
2221.0,-0.00121432528617893
2220.0,-0.0011710149414008164
2219.0,-0.0011710149414008164
2218.0,-0.00121432528617893
2217.0,-0.001257631312230778
2216.0,-0.0013009330204178937
2215.0,-0.001344230411601366
2214.0,-0.0013009330204178937
2213.0,-0.001257631312230778
2212.0,-0.00121432528617893
2211.0,-0.00121432528617893
2210.0,-0.001257631312230778
2209.0,-0.0013009330204178937
2208.0,-0.001344230411601366
2207.0,-0.0013875234866409514
2206.0,-0.0014308122463981832
2205.0,-0.0013875234866409514
2204.0,-0.001344230411601366
2203.0,-0.0013009330204178937
2202.0,-0.001257631312230778
2201.0,-0.00121432528617893
2200.0,-0.0011710149414008164
2199.0,-0.0011710149414008164
2198.0,-0.0011710149414008164
2197.0,-0.0011710149414008164
2196.0,-0.0011277002770349043
2195.0,-0.0010843812922201046
2194.0,-0.0010843812922201046
2193.0,-0.0011710149414008164
2192.0,-0.00121432528617893
2191.0,-0.0013009330204178937
2190.0,-0.0013009330204178937
2189.0,-0.0013009330204178937
2188.0,-0.001257631312230778
2187.0,-0.0013009330204178937
2186.0,-0.0013009330204178937
2185.0,-0.0013009330204178937
2184.0,-0.001257631312230778
2183.0,-0.00121432528617893
2182.0,-0.00121432528617893
2181.0,-0.00121432528617893
2180.0,-0.001257631312230778
2179.0,-0.001257631312230778
2178.0,-0.00121432528617893
2177.0,-0.0011710149414008164
2176.0,-0.0011710149414008164
2175.0,-0.00121432528617893
2174.0,-0.001257631312230778
2173.0,-0.0013009330204178937
2172.0,-0.001257631312230778
2171.0,-0.00121432528617893
2170.0,-0.0011277002770349043
2169.0,-0.0010843812922201046
2168.0,-0.0010843812922201046
2167.0,-0.0011277002770349043
2166.0,-0.0011710149414008164
2165.0,-0.00121432528617893
2164.0,-0.0013009330204178937
2163.0,-0.0013875234866409514
2162.0,-0.001474096691732818
2161.0,-0.0015173768235041685
2160.0,-0.001474096691732818
2159.0,-0.001474096691732818
2158.0,-0.0014308122463981832
2157.0,-0.001344230411601366
2156.0,-0.001257631312230778
2155.0,-0.00121432528617893
2154.0,-0.0011710149414008164
2153.0,-0.00121432528617893
2152.0,-0.001257631312230778
2151.0,-0.001344230411601366
2150.0,-0.001344230411601366
2149.0,-0.001344230411601366
2148.0,-0.001257631312230778
2147.0,-0.00121432528617893
2146.0,-0.00121432528617893
2145.0,-0.001257631312230778
2144.0,-0.0013009330204178937
2143.0,-0.001344230411601366
2142.0,-0.0013009330204178937
2141.0,-0.001257631312230778
2140.0,-0.001257631312230778
2139.0,-0.0013009330204178937
2138.0,-0.0013009330204178937
2137.0,-0.001344230411601366
2136.0,-0.0013009330204178937
2135.0,-0.001257631312230778
2134.0,-0.001257631312230778
2133.0,-0.001257631312230778
2132.0,-0.0013009330204178937
2131.0,-0.001344230411601366
2130.0,-0.001344230411601366
2129.0,-0.001344230411601366
2128.0,-0.001344230411601366
2127.0,-0.001344230411601366
2126.0,-0.0013875234866409514
2125.0,-0.001344230411601366
2124.0,-0.0013009330204178937
2123.0,-0.001257631312230778
2122.0,-0.001257631312230778
2121.0,-0.0013009330204178937
2120.0,-0.001344230411601366
2119.0,-0.001344230411601366
2118.0,-0.0013009330204178937
2117.0,-0.0013009330204178937
2116.0,-0.001257631312230778
2115.0,-0.0013009330204178937
2114.0,-0.001344230411601366
2113.0,-0.001344230411601366
2112.0,-0.0013875234866409514
2111.0,-0.0013875234866409514
2110.0,-0.001344230411601366
2109.0,-0.001344230411601366
2108.0,-0.001344230411601366
2107.0,-0.001344230411601366
2106.0,-0.001344230411601366
2105.0,-0.001344230411601366
2104.0,-0.0013009330204178937
2103.0,-0.001257631312230778
2102.0,-0.00121432528617893
2101.0,-0.0011710149414008164
2100.0,-0.0010843812922201046
2099.0,-0.0010843812922201046
2098.0,-0.0011710149414008164
2097.0,-0.001257631312230778
2096.0,-0.001344230411601366
2095.0,-0.0013875234866409514
2094.0,-0.001344230411601366
2093.0,-0.001257631312230778
2092.0,-0.0011710149414008164
2091.0,-0.0010843812922201046
2090.0,-0.001041057986093552
2089.0,-0.001041057986093552
2088.0,-0.0010843812922201046
2087.0,-0.0011710149414008164
2086.0,-0.001257631312230778
2085.0,-0.0013009330204178937
2084.0,-0.001344230411601366
2083.0,-0.0013009330204178937
2082.0,-0.001257631312230778
2081.0,-0.00121432528617893
2080.0,-0.00121432528617893
2079.0,-0.00121432528617893
2078.0,-0.00121432528617893
2077.0,-0.00121432528617893
2076.0,-0.00121432528617893
2075.0,-0.00121432528617893
2074.0,-0.00121432528617893
2073.0,-0.00121432528617893
2072.0,-0.00121432528617893
2071.0,-0.001257631312230778
2070.0,-0.0013009330204178937
2069.0,-0.0013875234866409514
2068.0,-0.0014308122463981832
2067.0,-0.001474096691732818
2066.0,-0.001474096691732818
2065.0,-0.001474096691732818
2064.0,-0.0014308122463981832
2063.0,-0.0013875234866409514
2062.0,-0.0013009330204178937
2061.0,-0.001257631312230778
2060.0,-0.00121432528617893
2059.0,-0.00121432528617893
2058.0,-0.00121432528617893
2057.0,-0.001257631312230778
2056.0,-0.0013009330204178937
2055.0,-0.0013009330204178937
2054.0,-0.001257631312230778
2053.0,-0.001257631312230778
2052.0,-0.001257631312230778
2051.0,-0.00121432528617893
2050.0,-0.00121432528617893
2049.0,-0.00121432528617893
2048.0,-0.00121432528617893
2047.0,-0.00121432528617893
2046.0,-0.0011710149414008164
2045.0,-0.0011710149414008164
2044.0,-0.0011710149414008164
2043.0,-0.0011710149414008164
2042.0,-0.001257631312230778
2041.0,-0.001257631312230778
2040.0,-0.001257631312230778
2039.0,-0.0011710149414008164
2038.0,-0.0011277002770349043
2037.0,-0.0010843812922201046
2036.0,-0.0010843812922201046
2035.0,-0.0011277002770349043
2034.0,-0.0011710149414008164
2033.0,-0.0011710149414008164
2032.0,-0.0011710149414008164
2031.0,-0.0011277002770349043
2030.0,-0.0011710149414008164
2029.0,-0.0011710149414008164
2028.0,-0.0011277002770349043
2027.0,-0.0010843812922201046
2026.0,-0.0010843812922201046
2025.0,-0.0010843812922201046
2024.0,-0.0011277002770349043
2023.0,-0.00121432528617893
2022.0,-0.001257631312230778
2021.0,-0.0013009330204178937
2020.0,-0.001344230411601366
2019.0,-0.001344230411601366
2018.0,-0.001344230411601366
2017.0,-0.0013009330204178937
2016.0,-0.00121432528617893
2015.0,-0.0011710149414008164
2014.0,-0.0011710149414008164
2013.0,-0.0011710149414008164
2012.0,-0.00121432528617893
2011.0,-0.001257631312230778
2010.0,-0.001257631312230778
2009.0,-0.00121432528617893
2008.0,-0.00121432528617893
2007.0,-0.00121432528617893
2006.0,-0.001257631312230778
2005.0,-0.0013009330204178937
2004.0,-0.0013009330204178937
2003.0,-0.0013009330204178937
2002.0,-0.0013009330204178937
2001.0,-0.0013009330204178937
2000.0,-0.0013009330204178937
1999.0,-0.0013009330204178937
1998.0,-0.001344230411601366
1997.0,-0.0013009330204178937
1996.0,-0.0013009330204178937
1995.0,-0.001257631312230778
1994.0,-0.001257631312230778
1993.0,-0.001257631312230778
1992.0,-0.001257631312230778
1991.0,-0.001257631312230778
1990.0,-0.001257631312230778
1989.0,-0.00121432528617893
1988.0,-0.0011710149414008164
1987.0,-0.0011277002770349043
1986.0,-0.0011277002770349043
1985.0,-0.0011710149414008164
1984.0,-0.0011710149414008164
1983.0,-0.0011277002770349043
1982.0,-0.0010843812922201046
1981.0,-0.001041057986093552
1980.0,-0.001041057986093552
1979.0,-0.0010843812922201046
1978.0,-0.0011277002770349043
1977.0,-0.0011710149414008164
1976.0,-0.00121432528617893
1975.0,-0.001257631312230778
1974.0,-0.001257631312230778
1973.0,-0.001257631312230778
1972.0,-0.001257631312230778
1971.0,-0.00121432528617893
1970.0,-0.00121432528617893
1969.0,-0.00121432528617893
1968.0,-0.00121432528617893
1967.0,-0.00121432528617893
1966.0,-0.00121432528617893
1965.0,-0.00121432528617893
1964.0,-0.0011710149414008164
1963.0,-0.0011710149414008164
1962.0,-0.0011710149414008164
1961.0,-0.0011710149414008164
1960.0,-0.00121432528617893
1959.0,-0.001257631312230778
1958.0,-0.001257631312230778
1957.0,-0.0013009330204178937
1956.0,-0.0013009330204178937
1955.0,-0.001257631312230778
1954.0,-0.001257631312230778
1953.0,-0.00121432528617893
1952.0,-0.00121432528617893
1951.0,-0.00121432528617893
1950.0,-0.00121432528617893
1949.0,-0.00121432528617893
1948.0,-0.001257631312230778
1947.0,-0.001257631312230778
1946.0,-0.001257631312230778
1945.0,-0.001257631312230778
1944.0,-0.001257631312230778
1943.0,-0.00121432528617893
1942.0,-0.0011710149414008164
1941.0,-0.0011710149414008164
1940.0,-0.0011710149414008164
1939.0,-0.0011710149414008164
1938.0,-0.00121432528617893
1937.0,-0.00121432528617893
1936.0,-0.00121432528617893
1935.0,-0.00121432528617893
1934.0,-0.00121432528617893
1933.0,-0.00121432528617893
1932.0,-0.001257631312230778
1931.0,-0.001257631312230778
1930.0,-0.001257631312230778
1929.0,-0.001257631312230778
1928.0,-0.001257631312230778
1927.0,-0.001257631312230778
1926.0,-0.001257631312230778
1925.0,-0.0013009330204178937
1924.0,-0.0013009330204178937
1923.0,-0.0013009330204178937
1922.0,-0.001257631312230778
1921.0,-0.001257631312230778
1920.0,-0.001257631312230778
1919.0,-0.001257631312230778
1918.0,-0.00121432528617893
1917.0,-0.0011277002770349043
1916.0,-0.0010843812922201046
1915.0,-0.0010843812922201046
1914.0,-0.0011710149414008164
1913.0,-0.00121432528617893
1912.0,-0.001257631312230778
1911.0,-0.00121432528617893
1910.0,-0.00121432528617893
1909.0,-0.00121432528617893
1908.0,-0.00121432528617893
1907.0,-0.00121432528617893
1906.0,-0.00121432528617893
1905.0,-0.00121432528617893
1904.0,-0.001257631312230778
1903.0,-0.00121432528617893
1902.0,-0.00121432528617893
1901.0,-0.00121432528617893
1900.0,-0.001257631312230778
1899.0,-0.0013009330204178937
1898.0,-0.001344230411601366
1897.0,-0.001344230411601366
1896.0,-0.001344230411601366
1895.0,-0.0013009330204178937
1894.0,-0.001257631312230778
1893.0,-0.00121432528617893
1892.0,-0.00121432528617893
1891.0,-0.0011710149414008164
1890.0,-0.0011710149414008164
1889.0,-0.0011710149414008164
1888.0,-0.0011710149414008164
1887.0,-0.00121432528617893
1886.0,-0.001257631312230778
1885.0,-0.001257631312230778
1884.0,-0.0013009330204178937
1883.0,-0.001344230411601366
1882.0,-0.001344230411601366
1881.0,-0.001344230411601366
1880.0,-0.0013009330204178937
1879.0,-0.001257631312230778
1878.0,-0.00121432528617893
1877.0,-0.00121432528617893
1876.0,-0.001257631312230778
1875.0,-0.0013009330204178937
1874.0,-0.001344230411601366
1873.0,-0.0013875234866409514
1872.0,-0.0013875234866409514
1871.0,-0.0014308122463981832
1870.0,-0.001474096691732818
1869.0,-0.0015173768235041685
1868.0,-0.001474096691732818
1867.0,-0.0013875234866409514
1866.0,-0.0013009330204178937
1865.0,-0.0013009330204178937
1864.0,-0.001344230411601366
1863.0,-0.0014308122463981832
1862.0,-0.001474096691732818
1861.0,-0.0014308122463981832
1860.0,-0.0013875234866409514
1859.0,-0.0013009330204178937
1858.0,-0.00121432528617893
1857.0,-0.0011710149414008164
1856.0,-0.00121432528617893
1855.0,-0.00121432528617893
1854.0,-0.001257631312230778
1853.0,-0.0013009330204178937
1852.0,-0.001344230411601366
1851.0,-0.0014308122463981832
1850.0,-0.0014308122463981832
1849.0,-0.0014308122463981832
1848.0,-0.001344230411601366
1847.0,-0.001344230411601366
1846.0,-0.001344230411601366
1845.0,-0.0013875234866409514
1844.0,-0.0014308122463981832
1843.0,-0.0014308122463981832
1842.0,-0.0013875234866409514
1841.0,-0.001344230411601366
1840.0,-0.0013009330204178937
1839.0,-0.001257631312230778
1838.0,-0.001257631312230778
1837.0,-0.001257631312230778
1836.0,-0.0013009330204178937
1835.0,-0.0013009330204178937
1834.0,-0.0013009330204178937
1833.0,-0.0013009330204178937
1832.0,-0.0013009330204178937
1831.0,-0.0013009330204178937
1830.0,-0.0013009330204178937
1829.0,-0.001344230411601366
1828.0,-0.0013875234866409514
1827.0,-0.001474096691732818
1826.0,-0.0015173768235041685
1825.0,-0.0015606526425728795
1824.0,-0.0015606526425728795
1823.0,-0.0015173768235041685
1822.0,-0.0014308122463981832
1821.0,-0.0013009330204178937
1820.0,-0.001257631312230778
1819.0,-0.001257631312230778
1818.0,-0.0013009330204178937
1817.0,-0.0013875234866409514
1816.0,-0.0014308122463981832
1815.0,-0.001474096691732818
1814.0,-0.0015173768235041685
1813.0,-0.0015173768235041685
1812.0,-0.0015173768235041685
1811.0,-0.001474096691732818
1810.0,-0.001474096691732818
1809.0,-0.001474096691732818
1808.0,-0.001474096691732818
1807.0,-0.001474096691732818
1806.0,-0.0014308122463981832
1805.0,-0.0013875234866409514
1804.0,-0.0013875234866409514
1803.0,-0.001344230411601366
1802.0,-0.001344230411601366
1801.0,-0.001344230411601366
1800.0,-0.001344230411601366
1799.0,-0.001474096691732818
1798.0,-0.0015606526425728795
1797.0,-0.0016039241497978196
1796.0,-0.0016039241497978196
1795.0,-0.0015606526425728795
1794.0,-0.0015173768235041685
1793.0,-0.001474096691732818
1792.0,-0.0014308122463981832
1791.0,-0.001474096691732818
1790.0,-0.0015173768235041685
1789.0,-0.0015606526425728795
1788.0,-0.0016039241497978196
1787.0,-0.0016039241497978196
1786.0,-0.0016471913460383014
1785.0,-0.0016471913460383014
1784.0,-0.0016039241497978196
1783.0,-0.0016039241497978196
1782.0,-0.0016039241497978196
1781.0,-0.0016471913460383014
1780.0,-0.0016471913460383014
1779.0,-0.0016471913460383014
1778.0,-0.0016471913460383014
1777.0,-0.0016904542321527494
1776.0,-0.001733712809000476
1775.0,-0.001733712809000476
1774.0,-0.001733712809000476
1773.0,-0.001733712809000476
1772.0,-0.001733712809000476
1771.0,-0.001733712809000476
1770.0,-0.001776967077439462
1769.0,-0.001776967077439462
1768.0,-0.0016904542321527494
1767.0,-0.0015606526425728795
1766.0,-0.001474096691732818
1765.0,-0.0013875234866409514
1764.0,-0.0013875234866409514
1763.0,-0.0014308122463981832
1762.0,-0.0015173768235041685
1761.0,-0.0016039241497978196
1760.0,-0.0016039241497978196
1759.0,-0.0015173768235041685
1758.0,-0.0014308122463981832
1757.0,-0.0013875234866409514
1756.0,-0.001344230411601366
1755.0,-0.0013009330204178937
1754.0,-0.0013009330204178937
1753.0,-0.0013009330204178937
1752.0,-0.00121432528617893
1751.0,-0.0011277002770349043
1750.0,-0.0009977303577937136
1749.0,-0.0008677215312267172
1748.0,-0.0007810273534953893
1747.0,-0.0007376737740329986
1746.0,-0.0006943158663546001
1745.0,-0.0005642161653756084
1744.0,-0.00030389978481260016
1743.0,8.686758342868472e-05
1742.0,0.0004779868710962365
1741.0,0.0008259444115150671
1740.0,0.0010870956412141197
1739.0,0.001304841688344327
1738.0,0.0015226969634936083
1737.0,0.0017406615763013722
1736.0,0.0019587356365717845
1735.0,0.0022642234021015284
1734.0,0.002613615602686581
1733.0,0.0030070181092942683
1732.0,0.0032694845648473247
1731.0,0.003488327845821315
1730.0,0.0037510854308679953
1729.0,0.00401400208620073
1728.0,0.004277078004534696
1727.0,0.0044964297349936455
1726.0,0.004628093971837721
1725.0,0.004803708402820517
1724.0,0.004979393875242044
1723.0,0.005111204635089406
1722.0,0.005199100705396198
1721.0,0.0052870145684298375
1720.0,0.0052870145684298375
1719.0,0.0052870145684298375
1718.0,0.005330978174470591
1717.0,0.00541891874010525
1716.0,0.005462895701502157
1715.0,0.00541891874010525
1714.0,0.00537494623139545
1713.0,0.0052870145684298375
1712.0,0.005199100705396198
1711.0,0.005155150446602086
1710.0,0.005067263269958211
1709.0,0.004979393875242044
1708.0,0.004803708402820517
1707.0,0.004628093971837721
1706.0,0.004540313378935901
1705.0,0.0044964297349936455
1704.0,0.0044964297349936455
1703.0,0.0044964297349936455
1702.0,0.004408675747646695
1701.0,0.004189368323957332
1700.0,0.003970171588923321
1699.0,0.003707281458678491
1698.0,0.0034445503666347133
1697.0,0.0031382315093266833
1696.0,0.0029195645282691363
1695.0,0.0028321285541661467
1694.0,0.0027884171674950053
1693.0,0.0027447101798967477
1692.0,0.002701007590486082
1691.0,0.002613615602686581
1690.0,0.0025262411970197185
1689.0,0.002482560585275184
1688.0,0.0024388843664115978
1687.0,0.002395212539545666
1686.0,0.0023078820582733695
1685.0,0.0022205691343961664
1684.0,0.0021769192542746563
1683.0,0.0021769192542746563
1682.0,0.0021332737608552588
1681.0,0.002089632653256679
1680.0,0.0020459959305969555
1679.0,0.0020459959305969555
1678.0,0.0020023635919956817
1677.0,0.0019587356365717845
1676.0,0.0018714928717336043
1675.0,0.0017842676290416026
1674.0,0.0016970599014589638
1673.0,0.001609869681952425
1672.0,0.0015226969634936083
1671.0,0.0015226969634936083
1670.0,0.001609869681952425
1669.0,0.001609869681952425
1668.0,0.0015662811355310335
1667.0,0.0014791171649619628
1666.0,0.0014355417390583547
1665.0,0.0013919706849057079
1664.0,0.001304841688344327
1663.0,0.0012177301682640973
1662.0,0.0011741809597138886
1661.0,0.0011741809597138886
1660.0,0.0012177301682640973
1659.0,0.0012612837441823288
1658.0,0.001304841688344327
1657.0,0.001304841688344327
1656.0,0.001304841688344327
1655.0,0.0012612837441823288
1654.0,0.0012177301682640973
1653.0,0.0012177301682640973
1652.0,0.0010870956412141197
1651.0,0.0010870956412141197
1650.0,0.0010870956412141197
1649.0,0.0011306361176557367
1648.0,0.0011306361176557367
1647.0,0.0011306361176557367
1646.0,0.0010870956412141197
1645.0,0.0010435595295137379
1644.0,0.0010000277816797354
1643.0,0.0010435595295137379
1642.0,0.0010870956412141197
1641.0,0.0010870956412141197
1640.0,0.0011306361176557367
1639.0,0.0010870956412141197
1638.0,0.0010000277816797354
1637.0,0.000869458712629001
1636.0,0.0007824344698965646
1635.0,0.0007389288868995258
1634.0,0.0006954276616513155
1633.0,0.0006519307932786322
1632.0,0.0006519307932786322
1631.0,0.0006519307932786322
1630.0,0.0006519307932786322
1629.0,0.0006084382809090627
1628.0,0.0005649501236701937
1627.0,0.0005649501236701937
1626.0,0.0005649501236701937
1625.0,0.0005649501236701937
1624.0,0.0005649501236701937
1623.0,0.0005649501236701937
1622.0,0.0006084382809090627
1621.0,0.0006519307932786322
1620.0,0.0006954276616513155
1619.0,0.0006954276616513155
1618.0,0.0007389288868995258
1617.0,0.0006954276616513155
1616.0,0.0006519307932786322
1615.0,0.0006084382809090627
1614.0,0.0005649501236701937
1613.0,0.0005649501236701937
1612.0,0.0005649501236701937
1611.0,0.0005649501236701937
1610.0,0.0005649501236701937
1609.0,0.0005649501236701937
1608.0,0.0005649501236701937
1607.0,0.0005649501236701937
1606.0,0.0004779868710962365
1605.0,0.00043451177401765406
1604.0,0.0003475746339209884
1603.0,0.0003475746339209884
1602.0,0.0003475746339209884
1601.0,0.0003910410285830057
1600.0,0.0003910410285830057
1599.0,0.0003910410285830057
1598.0,0.0003910410285830057
1597.0,0.0003910410285830057
1596.0,0.00043451177401765406
1595.0,0.00043451177401765406
1594.0,0.00043451177401765406
1593.0,0.00043451177401765406
1592.0,0.00043451177401765406
1591.0,0.00043451177401765406
1590.0,0.0003910410285830057
1589.0,0.00030411258916074324
1588.0,0.00026065489343207737
1587.0,0.00021720154586435392
1586.0,0.00026065489343207737
1585.0,0.00030411258916074324
1584.0,0.0003910410285830057
1583.0,0.00043451177401765406
1582.0,0.000521466320689834
1581.0,0.0005649501236701937
1580.0,0.0005649501236701937
1579.0,0.0005649501236701937
1578.0,0.0005649501236701937
1577.0,0.000521466320689834
1576.0,0.000521466320689834
1575.0,0.000521466320689834
1574.0,0.0006084382809090627
1573.0,0.0006519307932786322
1572.0,0.0007389288868995258
1571.0,0.0007824344698965646
1570.0,0.0007824344698965646
1569.0,0.0006954276616513155
1568.0,0.0005649501236701937
1567.0,0.00043451177401765406
1566.0,0.00030411258916074324
1565.0,0.00021720154586435392
1564.0,0.0001303078917322953
1563.0,0.0001303078917322953
1562.0,0.0001303078917322953
1561.0,8.686758342868472e-05
1560.0,-0.00021709297223004853
1559.0,-0.0002604985473904087
1558.0,-8.685021164911433e-05
1557.0,0.0
1556.0,4.343161980746579e-05
1555.0,4.343161980746579e-05
1554.0,4.343161980746579e-05
1553.0,4.343161980746579e-05
1552.0,0.0
1551.0,-4.3427276862573194e-05
1550.0,-4.3427276862573194e-05
1549.0,0.0
1548.0,4.343161980746579e-05
1547.0,8.686758342868472e-05
1546.0,8.686758342868472e-05
1545.0,0.0
1544.0,-8.685021164911433e-05
1543.0,-0.00017368305846510168
1542.0,-0.0002604985473904087
1541.0,-0.0002604985473904087
1540.0,-4.3427276862573194e-05
1539.0,0.0001303078917322953
1538.0,0.00017375254558760211
1537.0,0.00017375254558760211
1536.0,0.00017375254558760211
1535.0,0.0001303078917322953
1534.0,8.686758342868472e-05
1533.0,8.686758342868472e-05
1532.0,0.0001303078917322953
1531.0,0.0001303078917322953
1530.0,0.0001303078917322953
1529.0,0.0001303078917322953
1528.0,0.0001303078917322953
1527.0,0.0001303078917322953
1526.0,0.0001303078917322953
1525.0,0.00017375254558760211
1524.0,0.00017375254558760211
1523.0,0.0001303078917322953
1522.0,4.343161980746579e-05
1521.0,-4.3427276862573194e-05
1520.0,-8.685021164911433e-05
1519.0,-4.3427276862573194e-05
1518.0,-8.685021164911433e-05
1517.0,-0.00017368305846510168
1516.0,-0.0002604985473904087
1515.0,-0.0003472966853634851
1514.0,-0.0003472966853634851
1513.0,-0.0003472966853634851
1512.0,-0.00030389978481260016
1511.0,-0.00030389978481260016
1510.0,-0.0003472966853634851
1509.0,-0.0003472966853634851
1508.0,-0.00021709297223004853
1507.0,0.00026065489343207737
1506.0,0.0006519307932786322
1505.0,0.0007389288868995258
1504.0,0.0007389288868995258
1503.0,0.0006954276616513155
1502.0,0.0006519307932786322
1501.0,0.0006084382809090627
1500.0,0.0004779868710962365
1499.0,0.0003475746339209884
1498.0,0.00017375254558760211
1497.0,8.686758342868472e-05
1496.0,4.343161980746579e-05
1495.0,4.343161980746579e-05
1494.0,0.0001303078917322953
1493.0,0.00017375254558760211
1492.0,0.00017375254558760211
1491.0,8.686758342868472e-05
1490.0,-4.3427276862573194e-05
1489.0,-0.00013026880522692963
1488.0,-0.00017368305846510168
1487.0,-0.00017368305846510168
1486.0,-0.00021709297223004853
1485.0,-0.00021709297223004853
1484.0,-0.00017368305846510168
1483.0,-0.00017368305846510168
1482.0,-0.00013026880522692963
1481.0,-8.685021164911433e-05
1480.0,-4.3427276862573194e-05
1479.0,0.0
1478.0,4.343161980746579e-05
1477.0,4.343161980746579e-05
1476.0,0.0
1475.0,-4.3427276862573194e-05
1474.0,-8.685021164911433e-05
1473.0,0.0
1472.0,0.0001303078917322953
1471.0,0.0001303078917322953
1470.0,0.0001303078917322953
1469.0,8.686758342868472e-05
1468.0,4.343161980746579e-05
1467.0,8.686758342868472e-05
1466.0,8.686758342868472e-05
1465.0,0.0001303078917322953
1464.0,0.0001303078917322953
1463.0,0.0001303078917322953
1462.0,0.00017375254558760211
1461.0,0.00021720154586435392
1460.0,0.00026065489343207737
1459.0,0.00030411258916074324
1458.0,0.0003475746339209884
1457.0,0.00043451177401765406
1456.0,0.0005649501236701937
1455.0,0.0006954276616513155
1454.0,0.0007389288868995258
1453.0,0.0007824344698965646
1452.0,0.0008259444115150671
1451.0,0.0008259444115150671
1450.0,0.000869458712629001
1449.0,0.0009129773741116676
1448.0,0.0009565003968372565
1447.0,0.0009565003968372565
1446.0,0.0009565003968372565
1445.0,0.0009129773741116676
1444.0,0.0009129773741116676
1443.0,0.0009129773741116676
1442.0,0.0009565003968372565
1441.0,0.0009565003968372565
1440.0,0.0009565003968372565
1439.0,0.0009129773741116676
1438.0,0.0008259444115150671
1437.0,0.0007389288868995258
1436.0,0.0006084382809090627
1435.0,0.0004779868710962365
1434.0,0.00043451177401765406
1433.0,0.0003910410285830057
1432.0,0.0003475746339209884
1431.0,0.00030411258916074324
1430.0,0.00026065489343207737
1429.0,0.00021720154586435392
1428.0,0.00017375254558760211
1427.0,0.0001303078917322953
1426.0,8.686758342868472e-05
1425.0,0.0
1424.0,-4.3427276862573194e-05
1423.0,-4.3427276862573194e-05
1422.0,-4.3427276862573194e-05
1421.0,-8.685021164911433e-05
1420.0,-8.685021164911433e-05
1419.0,-4.3427276862573194e-05
1418.0,4.343161980746579e-05
1417.0,0.00026065489343207737
1416.0,0.000521466320689834
1415.0,0.0009129773741116676
1414.0,0.001348404001626502
1413.0,0.0018714928717336043
1412.0,0.002395212539545666
1411.0,0.0029195645282691363
1410.0,0.0032694845648473247
1409.0,0.003488327845821315
1408.0,0.0035321097382827737
1407.0,0.0034007772998332353
1406.0,0.0031382315093266833
1405.0,0.0028758443407954637
1404.0,0.002569926202528716
1403.0,0.0023078820582733695
1402.0,0.0021332737608552588
1401.0,0.0020023635919956817
1400.0,0.0018714928717336043
1399.0,0.0017406615763013722
1398.0,0.0015662811355310335
1397.0,0.0013919706849057079
1396.0,0.0012612837441823288
1395.0,0.0011306361176557367
1394.0,0.0010435595295137379
1393.0,0.0009565003968372565
1392.0,0.0009129773741116676
1391.0,0.0009129773741116676
1390.0,0.000869458712629001
1389.0,0.0007824344698965646
1388.0,0.0006519307932786322
1387.0,0.000521466320689834
1386.0,0.00043451177401765406
1385.0,0.00043451177401765406
1384.0,0.0004779868710962365
1383.0,0.000521466320689834
1382.0,0.0006084382809090627
1381.0,0.0006519307932786322
1380.0,0.0006954276616513155
1379.0,0.0007824344698965646
1378.0,0.0008259444115150671
1377.0,0.000869458712629001
1376.0,0.0009565003968372565
1375.0,0.0011306361176557367
1374.0,0.001348404001626502
1373.0,0.0015662811355310335
1372.0,0.0016534626036355249
1371.0,0.0016970599014589638
1370.0,0.0016970599014589638
1369.0,0.0016970599014589638
1368.0,0.0016970599014589638
1367.0,0.0016534626036355249
1366.0,0.0015226969634936083
1365.0,0.001348404001626502
1364.0,0.0010870956412141197
1363.0,0.000869458712629001
1362.0,0.0006954276616513155
1361.0,0.0006084382809090627
1360.0,0.000521466320689834
1359.0,0.0003910410285830057
1358.0,0.00030411258916074324
1357.0,0.00017375254558760211
1356.0,0.0001303078917322953
1355.0,8.686758342868472e-05
1354.0,8.686758342868472e-05
1353.0,0.0001303078917322953
1352.0,0.0001303078917322953
1351.0,0.0001303078917322953
1350.0,0.0001303078917322953
1349.0,8.686758342868472e-05
1348.0,8.686758342868472e-05
1347.0,8.686758342868472e-05
1346.0,0.00021720154586435392
1345.0,0.0003475746339209884
1344.0,0.0004779868710962365
1343.0,0.0005649501236701937
1342.0,0.0006084382809090627
1341.0,0.0005649501236701937
1340.0,0.000521466320689834
1339.0,0.0004779868710962365
1338.0,0.00043451177401765406
1337.0,0.0003475746339209884
1336.0,0.00026065489343207737
1335.0,0.00017375254558760211
1334.0,8.686758342868472e-05
1333.0,0.0
1332.0,-4.3427276862573194e-05
1331.0,-0.00013026880522692963
1330.0,-0.00013026880522692963
1329.0,-0.00013026880522692963
1328.0,-8.685021164911433e-05
1327.0,-4.3427276862573194e-05
1326.0,0.0
1325.0,8.686758342868472e-05
1324.0,0.00017375254558760211
1323.0,0.00026065489343207737
1322.0,0.0003475746339209884
1321.0,0.00043451177401765406
1320.0,0.0005649501236701937
1319.0,0.0006954276616513155
1318.0,0.0007824344698965646
1317.0,0.0009565003968372565
1316.0,0.0011306361176557367
1315.0,0.001304841688344327
1314.0,0.0014355417390583547
1313.0,0.0015662811355310335
1312.0,0.0016970599014589638
1311.0,0.0018278780605593958
1310.0,0.0019587356365717845
1309.0,0.0021332737608552588
1308.0,0.0023078820582733695
1307.0,0.002482560585275184
1306.0,0.0026573093983774942
1305.0,0.0028758443407954637
1304.0,0.003050751504618754
1303.0,0.0032257291386954545
1302.0,0.0034007772998332353
1301.0,0.0036634819042162814
1300.0,0.00401400208620073
1299.0,0.0043648054024501
1298.0,0.004715892310740433
1297.0,0.005067263269958211
1296.0,0.005462895701502157
1295.0,0.005858888873877532
1294.0,0.00625524344553785
1293.0,0.006607862550997545
1292.0,0.00696076819309055
1291.0,0.007225635744644521
1290.0,0.007490664932224611
1289.0,0.007667440952535687
1288.0,0.007844288957383316
1287.0,0.008021209005416363
1286.0,0.008153946355103248
1285.0,0.008330992620051436
1284.0,0.008463824699968647
1283.0,0.008640997362049818
1282.0,0.008818242332126802
1281.0,0.008906891951112605
1280.0,0.008995559669244813
1279.0,0.009039900317800775
1278.0,0.00908424549391551
1277.0,0.009128595198514056
1276.0,0.009217308196862062
1275.0,0.009350411681145587
1274.0,0.009572341514736404
1273.0,0.009883233932095559
1272.0,0.010194349063173958
1271.0,0.010550182333308289
1270.0,0.010950843561779777
1269.0,0.011351874764248926
1268.0,0.011753276624621556
1267.0,0.012065734767841452
1266.0,0.012378417874516323
1265.0,0.012691326268817527
1264.0,0.012959713020733288
1263.0,0.01318349541446362
1262.0,0.013362604389846044
1261.0,0.013496984613259544
1260.0,0.013586594534531482
1259.0,0.013631406429727155
1258.0,0.013676222949234651
1257.0,0.01372104409400876
1256.0,0.01381070026317599
1255.0,0.013900374944870508
1254.0,0.013945219230304673
1253.0,0.01403492169512921
1252.0,0.014124642691606404
1251.0,0.014304140310157809
1250.0,0.014438812226654996
1249.0,0.014573525916998342
1248.0,0.014753209197138295
1247.0,0.014932966849499074
1246.0,0.015202742910707112
1245.0,0.01547268665620738
1244.0,0.015697768020096703
1243.0,0.015877917138889863
1242.0,0.016013078034810446
1241.0,0.016148281008528276
1240.0,0.01632861713980338
1239.0,0.016554142658660398
1238.0,0.016734647433454652
1237.0,0.016824927962187042
1236.0,0.016915227262211507
1235.0,0.016915227262211507
1234.0,0.016824927962187042
1233.0,0.01677978535189717
1232.0,0.016689514205884493
1231.0,0.016554142658660398
1230.0,0.01632861713980338
1229.0,0.016103208673694303
1228.0,0.015877917138889863
1227.0,0.015652742414136167
1226.0,0.01547268665620738
1225.0,0.015247721884586563
1224.0,0.014977917890464765
1223.0,0.014708281407112
1222.0,0.014393916947563534
1221.0,0.014079779876432497
1220.0,0.013765869865004277
1219.0,0.013496984613259544
1218.0,0.01318349541446362
1217.0,0.012870232340102872
1216.0,0.01264661126420652
1215.0,0.012467797270160563
1214.0,0.012289056869694281
1213.0,0.012021084124518078
1212.0,0.011753276624621556
1211.0,0.011485634166333858
1210.0,0.011218156546359825
1209.0,0.010995384301463185
1208.0,0.010817248744452446
1207.0,0.010639186223752484
1206.0,0.01046119667949763
1205.0,0.01023881228122181
1204.0,0.01001654169860089
1203.0,0.009794384815193347
1202.0,0.009572341514736404
1201.0,0.009439170005980158
1200.0,0.009306039320248427
1199.0,0.009217308196862062
1198.0,0.00908424549391551
1197.0,0.008951223547323472
1196.0,0.008818242332126802
1195.0,0.008640997362049818
1194.0,0.008463824699968647
1193.0,0.008198201155356077
1192.0,0.007976972236149349
1191.0,0.007711646202907652
1190.0,0.007490664932224611
1189.0,0.007313960837872058
1188.0,0.007181479933320523
1187.0,0.007093181776687496
1186.0,0.007004901568658406
1185.0,0.006872514894289861
1184.0,0.006740168563263094
1183.0,0.006651960076740071
1182.0,0.00656376950238835
1181.0,0.006519680930003435
1180.0,0.006519680930003435
1179.0,0.006519680930003435
1178.0,0.006519680930003435
1177.0,0.00656376950238835
1176.0,0.00656376950238835
1175.0,0.00656376950238835
1174.0,0.006475596832934416
1173.0,0.006431517210272464
1172.0,0.006343371384537999
1171.0,0.00625524344553785
1170.0,0.006079041198713275
1169.0,0.005858888873877532
1168.0,0.005638848091999105
1167.0,0.00537494623139545
1166.0,0.005111204635089406
1165.0,0.00489154225525934
1164.0,0.004715892310740433
1163.0,0.004540313378935901
1162.0,0.004408675747646695
1161.0,0.004277078004534696
1160.0,0.004145520125434121
1159.0,0.00401400208620073
1158.0,0.003926345514724705
1157.0,0.003926345514724705
1156.0,0.0038825238627120395
1155.0,0.0038825238627120395
1154.0,0.0038387066319929275
1153.0,0.0038387066319929275
1152.0,0.003926345514724705
1151.0,0.0040578370074493275
1150.0,0.004233220950025984
1149.0,0.004452550524862486
1148.0,0.004715892310740433
1147.0,0.004979393875242044
1146.0,0.0052870145684298375
1145.0,0.005638848091999105
1144.0,0.005946936412324799
1143.0,0.006343371384537999
1142.0,0.006740168563263094
1141.0,0.007093181776687496
1140.0,0.007358130121602358
1139.0,0.0075790439479759275
1138.0,0.007711646202907652
1137.0,0.007888512213050314
1136.0,0.008109696063975047
1135.0,0.008375265465994541
1134.0,0.008640997362049818
1133.0,0.008818242332126802
1132.0,0.008995559669244813
1131.0,0.009172949432521227
1130.0,0.009439170005980158
1129.0,0.009705553871561357
1128.0,0.010060986715464404
1127.0,0.010416710688994968
1126.0,0.010817248744452446
1125.0,0.011218156546359825
1124.0,0.011619434777991433
1123.0,0.0119764380713403
1122.0,0.012378417874516323
1121.0,0.012780770091995297
1120.0,0.013093968619278806
1119.0,0.013362604389846044
1118.0,0.013631406429727155
1117.0,0.01381070026317599
1116.0,0.013900374944870508
1115.0,0.01385553528947936
1114.0,0.013676222949234651
1113.0,0.013496984613259544
1112.0,0.013362604389846044
1111.0,0.013317820220494436
1110.0,0.013407393177789162
1109.0,0.013586594534531482
1108.0,0.013900374944870508
1107.0,0.014304140310157809
1106.0,0.014753209197138295
1105.0,0.015337693809893471
1104.0,0.015922966097169144
1103.0,0.016599261819461697
1102.0,0.017231422748988034
1101.0,0.017864505196230507
1100.0,0.01840788278591865
1099.0,0.018861217359339655
1098.0,0.019315025636685412
1097.0,0.019769308608968306
1096.0,0.02022406727031445
1095.0,0.020633757603838898
1094.0,0.0209982515252789
1093.0,0.021317434843055594
1092.0,0.021499930688540836
1091.0,0.021636852916117055
1090.0,0.02168250325324883
1089.0,0.021773818325474092
1088.0,0.021819483062586187
1087.0,0.021865152601710403
1086.0,0.021910826943857264
1085.0,0.021956506090037076
1084.0,0.02204787879853809
1083.0,0.022139270735302752
1082.0,0.022139270735302752
1081.0,0.02204787879853809
1080.0,0.021819483062586187
1079.0,0.021545566634771474
1078.0,0.02122621566987748
1077.0,0.020952673052035298
1076.0,0.02081596632558158
1075.0,0.02058821736556471
1074.0,0.020315076172974234
1073.0,0.01995115493504329
1072.0,0.01954210772389997
1071.0,0.019133445417920836
1070.0,0.018725167293411005
1069.0,0.01831727262871463
1068.0,0.017909760704207134
1067.0,0.017547848615010242
1066.0,0.017186237868137555
1065.0,0.016915227262211507
1064.0,0.016689514205884493
1063.0,0.016509028184833463
1062.0,0.016238439713835096
1061.0,0.015877917138889863
1060.0,0.015517693597737248
1059.0,0.015157768594724175
1058.0,0.014888020460646079
1057.0,0.014618439768003144
1056.0,0.014393916947563534
1055.0,0.014214382227394795
1054.0,0.014079779876432497
1053.0,0.014124642691606404
1052.0,0.014214382227394795
1051.0,0.014304140310157809
1050.0,0.014304140310157809
1049.0,0.014349026309051105
1048.0,0.014438812226654996
1047.0,0.014618439768003144
1046.0,0.014798141635428141
1045.0,0.015022873584506602
1044.0,0.015247721884586563
1043.0,0.01547268665620738
1042.0,0.015562705203923999
1041.0,0.015607721475734415
1040.0,0.015607721475734415
1039.0,0.015607721475734415
1038.0,0.015607721475734415
1037.0,0.015562705203923999
1036.0,0.015517693597737248
1035.0,0.015427684378367834
1034.0,0.015337693809893471
1033.0,0.015247721884586563
1032.0,0.015157768594724175
1031.0,0.015067833932588037
1030.0,0.014888020460646079
1029.0,0.014708281407112
1028.0,0.0144837121472845
1027.0,0.014304140310157809
1026.0,0.014169510141607944
1025.0,0.014079779876432497
1024.0,0.014079779876432497
1023.0,0.014259258949925524
1022.0,0.014663358264387139
1021.0,0.015427684378367834
1020.0,0.016509028184833463
1019.0,0.017864505196230507
1018.0,0.0192242260373785
1017.0,0.02045162529590483
1016.0,0.021363051615525652
1015.0,0.021819483062586187
1014.0,0.021865152601710403
1013.0,0.02159120737696063
1012.0,0.021043834782408455
1011.0,0.02045162529590483
1010.0,0.019814763052665052
1009.0,0.0192242260373785
1008.0,0.018679826740892747
1007.0,0.018181392829336396
1006.0,0.017728766960431575
1005.0,0.017412209298337533
1004.0,0.017095882207371904
1003.0,0.016870075265299933
1002.0,0.016599261819461697
1001.0,0.01632861713980338
1000.0,0.016103208673694303
999.0,0.01596801972881945
998.0,0.015922966097169144
997.0,0.015922966097169144
996.0,0.015877917138889863
995.0,0.015742798294583915
994.0,0.015517693597737248
993.0,0.015292705517326866
992.0,0.015202742910707112
991.0,0.015157768594724175
990.0,0.015112798935672522
989.0,0.014977917890464765
988.0,0.014843078722943437
987.0,0.014708281407112
986.0,0.014618439768003144
985.0,0.014663358264387139
984.0,0.014708281407112
983.0,0.014753209197138295
982.0,0.014753209197138295
981.0,0.014798141635428141
980.0,0.014843078722943437
979.0,0.014888020460646079
978.0,0.014888020460646079
977.0,0.014798141635428141
976.0,0.014708281407112
975.0,0.014618439768003144
974.0,0.014618439768003144
973.0,0.014663358264387139
972.0,0.014753209197138295
971.0,0.014843078722943437
970.0,0.014888020460646079
969.0,0.014888020460646079
968.0,0.014798141635428141
967.0,0.014663358264387139
966.0,0.01452861671041239
965.0,0.014438812226654996
964.0,0.014259258949925524
963.0,0.014079779876432497
962.0,0.013900374944870508
961.0,0.013676222949234651
960.0,0.013541787262693505
959.0,0.013407393177789162
958.0,0.013317820220494436
957.0,0.01322826573375524
956.0,0.01318349541446362
955.0,0.013093968619278806
954.0,0.013049212141483357
953.0,0.013004460275618523
952.0,0.012959713020733288
951.0,0.012959713020733288
950.0,0.012914970375878188
949.0,0.012870232340102872
948.0,0.012825498912458322
947.0,0.012825498912458322
946.0,0.012825498912458322
945.0,0.012825498912458322
944.0,0.012780770091995297
943.0,0.012691326268817527
942.0,0.01264661126420652
941.0,0.01260190086298274
940.0,0.01260190086298274
939.0,0.012691326268817527
938.0,0.012736045877764557
937.0,0.012736045877764557
936.0,0.012780770091995297
935.0,0.012780770091995297
934.0,0.012736045877764557
933.0,0.012691326268817527
932.0,0.01260190086298274
931.0,0.012512493866907004
930.0,0.012423105273012602
929.0,0.012333735073725371
928.0,0.012333735073725371
927.0,0.012333735073725371
926.0,0.012378417874516323
925.0,0.012378417874516323
924.0,0.012378417874516323
923.0,0.012333735073725371
922.0,0.012244383261476699
921.0,0.012199714248127602
920.0,0.012110390002254778
919.0,0.012065734767841452
918.0,0.012021084124518078
917.0,0.011931796607364653
916.0,0.011931796607364653
915.0,0.011887159731648111
914.0,0.011931796607364653
913.0,0.011931796607364653
912.0,0.011931796607364653
911.0,0.011931796607364653
910.0,0.0119764380713403
909.0,0.012065734767841452
908.0,0.012244383261476699
907.0,0.012423105273012602
906.0,0.012557195064198723
905.0,0.012736045877764557
904.0,0.012914970375878188
903.0,0.013138729709955221
902.0,0.013362604389846044
901.0,0.013541787262693505
900.0,0.013676222949234651
899.0,0.01381070026317599
898.0,0.013945219230304673
897.0,0.014079779876432497
896.0,0.014169510141607944
895.0,0.014169510141607944
894.0,0.014214382227394795
893.0,0.014304140310157809
892.0,0.014393916947563534
891.0,0.014438812226654996
890.0,0.014349026309051105
889.0,0.014304140310157809
888.0,0.014259258949925524
887.0,0.014304140310157809
886.0,0.014393916947563534
885.0,0.0144837121472845
884.0,0.014708281407112
883.0,0.015022873584506602
882.0,0.015427684378367834
881.0,0.015877917138889863
880.0,0.016373712875465518
879.0,0.016870075265299933
878.0,0.017412209298337533
877.0,0.018045555530026514
876.0,0.018725167293411005
875.0,0.01940584422377989
874.0,0.019996628416253603
873.0,0.020406104151069693
872.0,0.02067930261797568
871.0,0.020770406977844713
870.0,0.020770406977844713
869.0,0.020724852408976924
868.0,0.02058821736556471
867.0,0.02036058777709271
866.0,0.01995115493504329
865.0,0.019451260640229506
864.0,0.0190880622231564
863.0,0.018770512579999288
862.0,0.018498511851753108
861.0,0.018226681372252695
860.0,0.01800028587012159
859.0,0.017728766960431575
858.0,0.017502630802287644
857.0,0.017321806616515723
856.0,0.017231422748988034
855.0,0.01727661233145472
854.0,0.017367005605150476
853.0,0.017502630802287644
852.0,0.017547848615010242
851.0,0.017502630802287644
850.0,0.017367005605150476
849.0,0.01727661233145472
848.0,0.017231422748988034
847.0,0.01727661233145472
846.0,0.017412209298337533
845.0,0.017502630802287644
844.0,0.017638298366853045
843.0,0.01768353030793479
842.0,0.01768353030793479
841.0,0.01768353030793479
840.0,0.017638298366853045
839.0,0.017638298366853045
838.0,0.017728766960431575
837.0,0.01781925440359733
836.0,0.01781925440359733
835.0,0.017638298366853045
834.0,0.017367005605150476
833.0,0.017141057687924732
832.0,0.017005545341335804
831.0,0.017005545341335804
830.0,0.017005545341335804
829.0,0.016960383953898095
828.0,0.016824927962187042
827.0,0.016554142658660398
826.0,0.016373712875465518
825.0,0.016238439713835096
824.0,0.016193358021584725
823.0,0.016238439713835096
822.0,0.01628352608625061
821.0,0.016418813294209356
820.0,0.016554142658660398
819.0,0.016644385668211692
818.0,0.016599261819461697
817.0,0.01646391839700767
816.0,0.01628352608625061
815.0,0.016058141016111804
814.0,0.015922966097169144
813.0,0.015877917138889863
812.0,0.015922966097169144
811.0,0.016013078034810446
810.0,0.016013078034810446
809.0,0.016013078034810446
808.0,0.016058141016111804
807.0,0.016103208673694303
806.0,0.016148281008528276
805.0,0.016148281008528276
804.0,0.016148281008528276
803.0,0.016103208673694303
802.0,0.016058141016111804
801.0,0.016058141016111804
800.0,0.016103208673694303
799.0,0.01628352608625061
798.0,0.016554142658660398
797.0,0.017005545341335804
796.0,0.017502630802287644
795.0,0.01809082990920774
794.0,0.01858915983411169
793.0,0.018951941086827073
792.0,0.019178833355664393
791.0,0.0192242260373785
790.0,0.019042683770379876
789.0,0.018725167293411005
788.0,0.018226681372252695
787.0,0.017728766960431575
786.0,0.01727661233145472
785.0,0.016915227262211507
784.0,0.016554142658660398
783.0,0.016148281008528276
782.0,0.015697768020096703
781.0,0.015427684378367834
780.0,0.015247721884586563
779.0,0.015112798935672522
778.0,0.014932966849499074
777.0,0.014708281407112
776.0,0.014573525916998342
775.0,0.014393916947563534
774.0,0.014079779876432497
773.0,0.013765869865004277
772.0,0.013407393177789162
771.0,0.013049212141483357
770.0,0.012736045877764557
769.0,0.012467797270160563
768.0,0.012289056869694281
767.0,0.01215504982870197
766.0,0.011887159731648111
765.0,0.011530229790124524
764.0,0.011262724711199823
763.0,0.011039929609661936
762.0,0.01077272626946324
761.0,0.01046119667949763
760.0,0.010060986715464404
759.0,0.009705553871561357
758.0,0.009572341514736404
757.0,0.009527946474380489
756.0,0.009527946474380489
755.0,0.009439170005980158
754.0,0.009261671492462709
753.0,0.008995559669244813
752.0,0.008685301823389224
751.0,0.008419542825660153
750.0,0.008242460465651913
749.0,0.007932739972333236
748.0,0.0075790439479759275
747.0,0.007269796045857202
746.0,0.007269796045857202
745.0,0.0075790439479759275
744.0,0.008198201155356077
743.0,0.00908424549391551
742.0,0.010283280051895272
741.0,0.011887159731648111
740.0,0.013945219230304673
739.0,0.016418813294209356
738.0,0.0192242260373785
737.0,0.022367834754000393
736.0,0.025718641122169483
735.0,0.029095501846216454
734.0,0.032545631817259224
733.0,0.0360705779734416
732.0,0.039719535563357944
731.0,0.04320747962950522
730.0,0.04633693625290869
729.0,0.049294465226138895
728.0,0.05232126006306337
727.0,0.05551732784983132
726.0,0.05863766428823891
725.0,0.06133019897732073
724.0,0.06328524178879635
723.0,0.06414020196211956
722.0,0.06378795567975115
721.0,0.06218131530164395
720.0,0.05973260855398799
719.0,0.057049929922901255
718.0,0.05458065739693696
717.0,0.0525172634430815
716.0,0.05075640943173498
715.0,0.04909991063361274
714.0,0.04744970610179822
713.0,0.04575749056067524
712.0,0.044071843103049346
711.0,0.042584285277331047
710.0,0.041483896576958834
709.0,0.04076775094900409
708.0,0.040243327009005014
707.0,0.03981472339538916
706.0,0.03948165721929198
705.0,0.03929144831144349
704.0,0.039006291057664066
703.0,0.038341651362284734
702.0,0.037346595106788616
701.0,0.03630659476198117
700.0,0.03545753392086315
699.0,0.03479829897408804
698.0,0.03423403581731388
697.0,0.03385826726096752
696.0,0.03338901331806565
695.0,0.032873418923587305
694.0,0.032311649546687526
693.0,0.03184406285002961
692.0,0.03151705144606498
691.0,0.031143625385307683
690.0,0.030770520137356927
689.0,0.030537492025363155
688.0,0.030444315779156517
687.0,0.03025802323714588
686.0,0.029792641193145286
685.0,0.02932775731028059
684.0,0.029141943003497595
683.0,0.029374223311705583
682.0,0.029792641193145286
681.0,0.030118356253500123
680.0,0.030118356253500123
679.0,0.029653123769906697
678.0,0.02890978686288448
677.0,0.028075050815808744
676.0,0.02751945012352408
675.0,0.027195677663422346
674.0,0.027195677663422346
673.0,0.027426919073445077
672.0,0.027843464140506313
671.0,0.02839947976994095
670.0,0.028956208163971375
669.0,0.029281296279810798
668.0,0.029188389127482228
667.0,0.02863136320857662
666.0,0.027612000892527133
665.0,0.026733563891471412
664.0,0.026271941311972746
663.0,0.026087429580295085
662.0,0.026041313893296225
661.0,0.026041313893296225
660.0,0.02613355016462182
659.0,0.026225806029419818
658.0,0.02617967564731627
657.0,0.025856900097785074
656.0,0.02516604495145991
655.0,0.024338466818941473
654.0,0.023787622882622816
653.0,0.023879381700184332
652.0,0.024430342106337877
651.0,0.024936003904763915
650.0,0.02512002699306959
649.0,0.02521206778644225
648.0,0.025672564576383117
647.0,0.026318081496016443
646.0,0.02677975314776626
645.0,0.026872146400301444
644.0,0.026595025589939425
643.0,0.026041313893296225
642.0,0.025304128090317013
641.0,0.02461415101053266
640.0,0.02406295751688936
639.0,0.023741750742954926
638.0,0.023741750742954926
637.0,0.024108863598207186
636.0,0.024706084643793647
635.0,0.02516604495145991
634.0,0.025488307262671706
633.0,0.026041313893296225
632.0,0.02691835039863255
631.0,0.02738066094037661
630.0,0.027010773144651168
629.0,0.026087429580295085
628.0,0.02521206778644225
627.0,0.024798037742147727
626.0,0.02475205875931885
625.0,0.02475205875931885
624.0,0.02475205875931885
623.0,0.024798037742147727
622.0,0.024936003904763915
621.0,0.025350165561278004
620.0,0.026041313893296225
619.0,0.02691835039863255
618.0,0.027658283674251827
617.0,0.028028723600243666
616.0,0.02812138297373412
615.0,0.028167720075074953
614.0,0.02812138297373412
613.0,0.027750864037404455
612.0,0.026733563891471412
611.0,0.025304128090317013
610.0,0.024154774532432866
609.0,0.024017056287453542
608.0,0.024706084643793647
607.0,0.02544225514642018
606.0,0.02544225514642018
605.0,0.024890010313838973
604.0,0.024476287039668643
603.0,0.024706084643793647
602.0,0.025350165561278004
601.0,0.025902996205869
600.0,0.026225806029419818
