cm-1,A
4000.0,-0.0013009330204178937
3999.0,-0.00121432528617893
3998.0,-0.0011710149414008164
3997.0,-0.00121432528617893
3996.0,-0.001344230411601366
3995.0,-0.001474096691732818
3994.0,-0.0016471913460383014
3993.0,-0.0016904542321527494
3992.0,-0.0016471913460383014
3991.0,-0.0015606526425728795
3990.0,-0.001474096691732818
3989.0,-0.0013875234866409514
3988.0,-0.0013875234866409514
3987.0,-0.0013875234866409514
3986.0,-0.0014308122463981832
3985.0,-0.001474096691732818
3984.0,-0.001474096691732818
3983.0,-0.001474096691732818
3982.0,-0.0014308122463981832
3981.0,-0.0014308122463981832
3980.0,-0.0013875234866409514
3979.0,-0.0014308122463981832
3978.0,-0.001474096691732818
3977.0,-0.001474096691732818
3976.0,-0.001474096691732818
3975.0,-0.0014308122463981832
3974.0,-0.0013875234866409514
3973.0,-0.001344230411601366
3972.0,-0.001344230411601366
3971.0,-0.0013875234866409514
3970.0,-0.001474096691732818
3969.0,-0.0016039241497978196
3968.0,-0.0016904542321527494
3967.0,-0.001733712809000476
3966.0,-0.001733712809000476
3965.0,-0.0016471913460383014
3964.0,-0.0016039241497978196
3963.0,-0.0015173768235041685
3962.0,-0.001474096691732818
3961.0,-0.001474096691732818
3960.0,-0.0015173768235041685
3959.0,-0.0015173768235041685
3958.0,-0.0015173768235041685
3957.0,-0.0015173768235041685
3956.0,-0.001474096691732818
3955.0,-0.0013875234866409514
3954.0,-0.001344230411601366
3953.0,-0.0013009330204178937
3952.0,-0.001257631312230778
3951.0,-0.00121432528617893
3950.0,-0.001257631312230778
3949.0,-0.0013009330204178937
3948.0,-0.0013875234866409514
3947.0,-0.001474096691732818
3946.0,-0.0015606526425728795
3945.0,-0.0016471913460383014
3944.0,-0.0016904542321527494
3943.0,-0.0016904542321527494
3942.0,-0.0016471913460383014
3941.0,-0.0016471913460383014
3940.0,-0.0016039241497978196
3939.0,-0.0016039241497978196
3938.0,-0.0015606526425728795
3937.0,-0.0015606526425728795
3936.0,-0.0015606526425728795
3935.0,-0.0015606526425728795
3934.0,-0.0015606526425728795
3933.0,-0.0015173768235041685
3932.0,-0.0013875234866409514
3931.0,-0.001257631312230778
3930.0,-0.0011277002770349043
3929.0,-0.0011277002770349043
3928.0,-0.0011277002770349043
3927.0,-0.00121432528617893
3926.0,-0.001257631312230778
3925.0,-0.001344230411601366
3924.0,-0.0014308122463981832
3923.0,-0.0015606526425728795
3922.0,-0.0016471913460383014
3921.0,-0.0016904542321527494
3920.0,-0.0016904542321527494
3919.0,-0.0016904542321527494
3918.0,-0.001733712809000476
3917.0,-0.001776967077439462
3916.0,-0.001776967077439462
3915.0,-0.0016904542321527494
3914.0,-0.0016471913460383014
3913.0,-0.0016039241497978196
3912.0,-0.0016471913460383014
3911.0,-0.0016904542321527494
3910.0,-0.0016904542321527494
3909.0,-0.0016039241497978196
3908.0,-0.0015173768235041685
3907.0,-0.0014308122463981832
3906.0,-0.0013875234866409514
3905.0,-0.0013009330204178937
3904.0,-0.0011710149414008164
3903.0,-0.001041057986093552
3902.0,-0.0009110621312231615
3901.0,-0.0009110621312231615
3900.0,-0.0009977303577937136
3899.0,-0.0011277002770349043
3898.0,-0.001257631312230778
3897.0,-0.0013875234866409514
3896.0,-0.0015173768235041685
3895.0,-0.0016471913460383014
3894.0,-0.0016904542321527494
3893.0,-0.0016904542321527494
3892.0,-0.0016039241497978196
3891.0,-0.0015606526425728795
3890.0,-0.0015173768235041685
3889.0,-0.001474096691732818
3888.0,-0.0013875234866409514
3887.0,-0.001344230411601366
3886.0,-0.001257631312230778
3885.0,-0.001257631312230778
3884.0,-0.0013009330204178937
3883.0,-0.0013875234866409514
3882.0,-0.0014308122463981832
3881.0,-0.0014308122463981832
3880.0,-0.0013875234866409514
3879.0,-0.0013009330204178937
3878.0,-0.0013009330204178937
3877.0,-0.0013009330204178937
3876.0,-0.001344230411601366
3875.0,-0.0013875234866409514
3874.0,-0.0013875234866409514
3873.0,-0.001344230411601366
3872.0,-0.0013875234866409514
3871.0,-0.001474096691732818
3870.0,-0.0015173768235041685
3869.0,-0.0014308122463981832
3868.0,-0.001344230411601366
3867.0,-0.001344230411601366
3866.0,-0.001474096691732818
3865.0,-0.0015606526425728795
3864.0,-0.0015606526425728795
3863.0,-0.001474096691732818
3862.0,-0.0014308122463981832
3861.0,-0.0014308122463981832
3860.0,-0.0014308122463981832
3859.0,-0.0013875234866409514
3858.0,-0.0013009330204178937
3857.0,-0.0011710149414008164
3856.0,-0.0010843812922201046
3855.0,-0.0011277002770349043
3854.0,-0.0011277002770349043
3853.0,-0.0010843812922201046
3852.0,-0.0010843812922201046
3851.0,-0.0011277002770349043
3850.0,-0.00121432528617893
3849.0,-0.001344230411601366
3848.0,-0.001474096691732818
3847.0,-0.0016039241497978196
3846.0,-0.0016471913460383014
3845.0,-0.0016471913460383014
3844.0,-0.0015606526425728795
3843.0,-0.001344230411601366
3842.0,-0.0011710149414008164
3841.0,-0.0010843812922201046
3840.0,-0.0011277002770349043
3839.0,-0.0011710149414008164
3838.0,-0.0013009330204178937
3837.0,-0.0014308122463981832
3836.0,-0.0015606526425728795
3835.0,-0.0016471913460383014
3834.0,-0.0016904542321527494
3833.0,-0.0016904542321527494
3832.0,-0.0016039241497978196
3831.0,-0.0015606526425728795
3830.0,-0.0015606526425728795
3829.0,-0.0015173768235041685
3828.0,-0.0015173768235041685
3827.0,-0.0014308122463981832
3826.0,-0.0013009330204178937
3825.0,-0.0011277002770349043
3824.0,-0.0009543984064577238
3823.0,-0.0009110621312231615
3822.0,-0.0008677215312267172
3821.0,-0.0007810273534953893
3820.0,-0.0007376737740329986
3819.0,-0.0007376737740329986
3818.0,-0.0008243766056055257
3817.0,-0.0009977303577937136
3816.0,-0.0011710149414008164
3815.0,-0.0013009330204178937
3814.0,-0.0014308122463981832
3813.0,-0.0016471913460383014
3812.0,-0.0018202170383281313
3811.0,-0.0019067040408846658
3810.0,-0.0018202170383281313
3809.0,-0.0016904542321527494
3808.0,-0.0016039241497978196
3807.0,-0.0015606526425728795
3806.0,-0.0015173768235041685
3805.0,-0.0015173768235041685
3804.0,-0.001474096691732818
3803.0,-0.0015173768235041685
3802.0,-0.0014308122463981832
3801.0,-0.0013009330204178937
3800.0,-0.001257631312230778
3799.0,-0.001257631312230778
3798.0,-0.001344230411601366
3797.0,-0.0014308122463981832
3796.0,-0.001474096691732818
3795.0,-0.001474096691732818
3794.0,-0.001474096691732818
3793.0,-0.0015173768235041685
3792.0,-0.0015606526425728795
3791.0,-0.0016039241497978196
3790.0,-0.0016039241497978196
3789.0,-0.0016471913460383014
3788.0,-0.0016471913460383014
3787.0,-0.0016039241497978196
3786.0,-0.0015606526425728795
3785.0,-0.0015173768235041685
3784.0,-0.001474096691732818
3783.0,-0.001474096691732818
3782.0,-0.0015173768235041685
3781.0,-0.0015606526425728795
3780.0,-0.0015173768235041685
3779.0,-0.0013875234866409514
3778.0,-0.0013009330204178937
3777.0,-0.001344230411601366
3776.0,-0.001474096691732818
3775.0,-0.0016039241497978196
3774.0,-0.001733712809000476
3773.0,-0.001776967077439462
3772.0,-0.001733712809000476
3771.0,-0.0016471913460383014
3770.0,-0.001474096691732818
3769.0,-0.001344230411601366
3768.0,-0.001344230411601366
3767.0,-0.0014308122463981832
3766.0,-0.0015606526425728795
3765.0,-0.0016471913460383014
3764.0,-0.0016904542321527494
3763.0,-0.0016904542321527494
3762.0,-0.001733712809000476
3761.0,-0.001776967077439462
3760.0,-0.001733712809000476
3759.0,-0.0016039241497978196
3758.0,-0.0015606526425728795
3757.0,-0.0015173768235041685
3756.0,-0.001474096691732818
3755.0,-0.001344230411601366
3754.0,-0.00121432528617893
3753.0,-0.0011277002770349043
3752.0,-0.0011710149414008164
3751.0,-0.001257631312230778
3750.0,-0.001344230411601366
3749.0,-0.001344230411601366
3748.0,-0.0013009330204178937
3747.0,-0.00121432528617893
3746.0,-0.0013009330204178937
3745.0,-0.001344230411601366
3744.0,-0.0013009330204178937
3743.0,-0.001257631312230778
3742.0,-0.0011710149414008164
3741.0,-0.0011277002770349043
3740.0,-0.0011277002770349043
3739.0,-0.0010843812922201046
3738.0,-0.0010843812922201046
3737.0,-0.0010843812922201046
3736.0,-0.001041057986093552
3735.0,-0.001041057986093552
3734.0,-0.0011277002770349043
3733.0,-0.001257631312230778
3732.0,-0.0014308122463981832
3731.0,-0.0015173768235041685
3730.0,-0.0015173768235041685
3729.0,-0.0015606526425728795
3728.0,-0.0015606526425728795
3727.0,-0.0015173768235041685
3726.0,-0.0014308122463981832
3725.0,-0.001474096691732818
3724.0,-0.0016039241497978196
3723.0,-0.001776967077439462
3722.0,-0.0018202170383281313
3721.0,-0.001733712809000476
3720.0,-0.0016471913460383014
3719.0,-0.0015606526425728795
3718.0,-0.001474096691732818
3717.0,-0.0013875234866409514
3716.0,-0.001344230411601366
3715.0,-0.0013875234866409514
3714.0,-0.001474096691732818
3713.0,-0.0016039241497978196
3712.0,-0.0016471913460383014
3711.0,-0.0016039241497978196
3710.0,-0.0015606526425728795
3709.0,-0.0015606526425728795
3708.0,-0.0015606526425728795
3707.0,-0.001474096691732818
3706.0,-0.001344230411601366
3705.0,-0.0011710149414008164
3704.0,-0.0011277002770349043
3703.0,-0.00121432528617893
3702.0,-0.0013009330204178937
3701.0,-0.001344230411601366
3700.0,-0.0013875234866409514
3699.0,-0.0013875234866409514
3698.0,-0.0014308122463981832
3697.0,-0.001474096691732818
3696.0,-0.0015173768235041685
3695.0,-0.0015606526425728795
3694.0,-0.0015606526425728795
3693.0,-0.0015173768235041685
3692.0,-0.0014308122463981832
3691.0,-0.0013875234866409514
3690.0,-0.001344230411601366
3689.0,-0.001344230411601366
3688.0,-0.0013009330204178937
3687.0,-0.001257631312230778
3686.0,-0.00121432528617893
3685.0,-0.001257631312230778
3684.0,-0.0013009330204178937
3683.0,-0.001344230411601366
3682.0,-0.0013875234866409514
3681.0,-0.0014308122463981832
3680.0,-0.0014308122463981832
3679.0,-0.0013875234866409514
3678.0,-0.0014308122463981832
3677.0,-0.0015173768235041685
3676.0,-0.0013875234866409514
3675.0,-0.0011277002770349043
3674.0,-0.0008677215312267172
3673.0,-0.0006943158663546001
3672.0,-0.0006943158663546001
3671.0,-0.0007810273534953893
3670.0,-0.0007810273534953893
3669.0,-0.0008677215312267172
3668.0,-0.0009977303577937136
3667.0,-0.0011277002770349043
3666.0,-0.001257631312230778
3665.0,-0.0013009330204178937
3664.0,-0.001257631312230778
3663.0,-0.0011710149414008164
3662.0,-0.0010843812922201046
3661.0,-0.001041057986093552
3660.0,-0.001041057986093552
3659.0,-0.001041057986093552
3658.0,-0.0011710149414008164
3657.0,-0.001344230411601366
3656.0,-0.0014308122463981832
3655.0,-0.0014308122463981832
3654.0,-0.0013875234866409514
3653.0,-0.0013875234866409514
3652.0,-0.001474096691732818
3651.0,-0.0016039241497978196
3650.0,-0.0015173768235041685
3649.0,-0.0011277002770349043
3648.0,-0.0008243766056055257
3647.0,-0.0007376737740329986
3646.0,-0.0007376737740329986
3645.0,-0.0007810273534953893
3644.0,-0.0008677215312267172
3643.0,-0.0009110621312231615
3642.0,-0.0009977303577937136
3641.0,-0.0010843812922201046
3640.0,-0.0011710149414008164
3639.0,-0.0013009330204178937
3638.0,-0.001344230411601366
3637.0,-0.001344230411601366
3636.0,-0.001344230411601366
3635.0,-0.0013009330204178937
3634.0,-0.0011710149414008164
3633.0,-0.001041057986093552
3632.0,-0.0008243766056055257
3631.0,-0.0006075870628903246
3630.0,-0.00043407747931878404
3629.0,-0.00030389978481260016
3628.0,-0.0003472966853634851
3627.0,-0.0005642161653756084
3626.0,-0.0007810273534953893
3625.0,-0.0009543984064577238
3624.0,-0.0009977303577937136
3623.0,-0.0009543984064577238
3622.0,-0.0008677215312267172
3621.0,-0.0008243766056055257
3620.0,-0.0007810273534953893
3619.0,-0.0007810273534953893
3618.0,-0.0006943158663546001
3617.0,-0.0005642161653756084
3616.0,-0.00043407747931878404
3615.0,-0.0003906892499099257
3614.0,-0.0003472966853634851
3613.0,-0.00030389978481260016
3612.0,-0.00030389978481260016
3611.0,-0.00030389978481260016
3610.0,-0.0003472966853634851
3609.0,-0.0003472966853634851
3608.0,-0.0003472966853634851
3607.0,-0.0003906892499099257
3606.0,-0.0004774613744551459
3605.0,-0.0006075870628903246
3604.0,-0.0006943158663546001
3603.0,-0.0006509536295951079
3602.0,-0.0005208409361854294
3601.0,-0.0003906892499099257
3600.0,-0.0003472966853634851
3599.0,-0.0003906892499099257
3598.0,-0.0005208409361854294
3597.0,-0.0006509536295951079
3596.0,-0.0007810273534953893
3595.0,-0.0007810273534953893
3594.0,-0.0007376737740329986
3593.0,-0.0006075870628903246
3592.0,-0.0004774613744551459
3591.0,-0.0003906892499099257
3590.0,-0.00030389978481260016
3589.0,-0.0002604985473904087
3588.0,-0.00021709297223004853
3587.0,-0.00030389978481260016
3586.0,-0.00043407747931878404
3585.0,-0.0005642161653756084
3584.0,-0.0006075870628903246
3583.0,-0.0006509536295951079
3582.0,-0.0006509536295951079
3581.0,-0.0006509536295951079
3580.0,-0.0006509536295951079
3579.0,-0.0005642161653756084
3578.0,-0.0005208409361854294
3577.0,-0.0005208409361854294
3576.0,-0.0004774613744551459
3575.0,-0.0004774613744551459
3574.0,-0.0005208409361854294
3573.0,-0.0006075870628903246
3572.0,-0.0006943158663546001
3571.0,-0.0006943158663546001
3570.0,-0.0006509536295951079
3569.0,-0.0005208409361854294
3568.0,-0.0003472966853634851
3567.0,-0.0002604985473904087
3566.0,-0.00021709297223004853
3565.0,-0.0002604985473904087
3564.0,-0.00030389978481260016
3563.0,-0.0003472966853634851
3562.0,-0.0003906892499099257
3561.0,-0.00043407747931878404
3560.0,-0.0003906892499099257
3559.0,-0.0003472966853634851
3558.0,-0.0002604985473904087
3557.0,-0.00013026880522692963
3556.0,-8.685021164911433e-05
3555.0,-8.685021164911433e-05
3554.0,-8.685021164911433e-05
3553.0,-8.685021164911433e-05
3552.0,-4.3427276862573194e-05
3551.0,0.0
3550.0,0.0
3549.0,0.0
3548.0,-4.3427276862573194e-05
3547.0,-4.3427276862573194e-05
3546.0,-4.3427276862573194e-05
3545.0,-4.3427276862573194e-05
3544.0,0.0
3543.0,-4.3427276862573194e-05
3542.0,-0.00013026880522692963
3541.0,-0.00021709297223004853
3540.0,-0.0002604985473904087
3539.0,-0.00021709297223004853
3538.0,-0.00013026880522692963
3537.0,-8.685021164911433e-05
3536.0,-4.3427276862573194e-05
3535.0,-8.685021164911433e-05
3534.0,-8.685021164911433e-05
3533.0,-8.685021164911433e-05
3532.0,-8.685021164911433e-05
3531.0,-8.685021164911433e-05
3530.0,-0.00013026880522692963
3529.0,-0.00017368305846510168
3528.0,-0.0002604985473904087
3527.0,-0.00030389978481260016
3526.0,-0.00030389978481260016
3525.0,-0.0002604985473904087
3524.0,-0.00021709297223004853
3523.0,-0.00013026880522692963
3522.0,-8.685021164911433e-05
3521.0,-4.3427276862573194e-05
3520.0,0.0
3519.0,8.686758342868472e-05
3518.0,0.0001303078917322953
3517.0,0.0001303078917322953
3516.0,4.343161980746579e-05
3515.0,-8.685021164911433e-05
3514.0,-0.00021709297223004853
3513.0,-0.0002604985473904087
3512.0,-0.00030389978481260016
3511.0,-0.00030389978481260016
3510.0,-0.0003472966853634851
3509.0,-0.00030389978481260016
3508.0,-0.00021709297223004853
3507.0,0.0
3506.0,0.00026065489343207737
3505.0,0.0004779868710962365
3504.0,0.0005649501236701937
3503.0,0.0004779868710962365
3502.0,0.0003475746339209884
3501.0,0.00021720154586435392
3500.0,8.686758342868472e-05
3499.0,0.0
3498.0,-8.685021164911433e-05
3497.0,-8.685021164911433e-05
3496.0,-8.685021164911433e-05
3495.0,-4.3427276862573194e-05
3494.0,4.343161980746579e-05
3493.0,8.686758342868472e-05
3492.0,0.0001303078917322953
3491.0,0.00017375254558760211
3490.0,0.00021720154586435392
3489.0,0.00026065489343207737
3488.0,0.0003475746339209884
3487.0,0.0003475746339209884
3486.0,0.00030411258916074324
3485.0,0.00021720154586435392
3484.0,0.00017375254558760211
3483.0,0.0001303078917322953
3482.0,0.00021720154586435392
3481.0,0.0003475746339209884
3480.0,0.00043451177401765406
3479.0,0.000521466320689834
3478.0,0.0004779868710962365
3477.0,0.0003910410285830057
3476.0,0.00030411258916074324
3475.0,0.0003475746339209884
3474.0,0.00043451177401765406
3473.0,0.0004779868710962365
3472.0,0.0004779868710962365
3471.0,0.0003910410285830057
3470.0,0.00030411258916074324
3469.0,0.00030411258916074324
3468.0,0.00030411258916074324
3467.0,0.0003910410285830057
3466.0,0.0004779868710962365
3465.0,0.000521466320689834
3464.0,0.000521466320689834
3463.0,0.0004779868710962365
3462.0,0.0004779868710962365
3461.0,0.0004779868710962365
3460.0,0.00043451177401765406
3459.0,0.0003475746339209884
3458.0,0.00021720154586435392
3457.0,0.0001303078917322953
3456.0,0.0001303078917322953
3455.0,0.00021720154586435392
3454.0,0.0003475746339209884
3453.0,0.0004779868710962365
3452.0,0.0004779868710962365
3451.0,0.00043451177401765406
3450.0,0.0003910410285830057
3449.0,0.0003910410285830057
3448.0,0.00043451177401765406
3447.0,0.0004779868710962365
3446.0,0.0005649501236701937
3445.0,0.0005649501236701937
3444.0,0.000521466320689834
3443.0,0.000521466320689834
3442.0,0.0006084382809090627
3441.0,0.0006954276616513155
3440.0,0.0007824344698965646
3439.0,0.000869458712629001
3438.0,0.000869458712629001
3437.0,0.0008259444115150671
3436.0,0.0008259444115150671
3435.0,0.0008259444115150671
3434.0,0.0008259444115150671
3433.0,0.0007824344698965646
3432.0,0.0007389288868995258
3431.0,0.0006954276616513155
3430.0,0.0006519307932786322
3429.0,0.0006084382809090627
3428.0,0.0005649501236701937
3427.0,0.000521466320689834
3426.0,0.00043451177401765406
3425.0,0.0004779868710962365
3424.0,0.0005649501236701937
3423.0,0.0006519307932786322
3422.0,0.0007389288868995258
3421.0,0.0007824344698965646
3420.0,0.0007824344698965646
3419.0,0.0007389288868995258
3418.0,0.0006954276616513155
3417.0,0.0006519307932786322
3416.0,0.0006084382809090627
3415.0,0.0006519307932786322
3414.0,0.0006954276616513155
3413.0,0.0007389288868995258
3412.0,0.0007389288868995258
3411.0,0.0007389288868995258
3410.0,0.0006954276616513155
3409.0,0.0007389288868995258
3408.0,0.0007389288868995258
3407.0,0.0007389288868995258
3406.0,0.0006519307932786322
3405.0,0.0005649501236701937
3404.0,0.0004779868710962365
3403.0,0.00043451177401765406
3402.0,0.00043451177401765406
3401.0,0.0004779868710962365
3400.0,0.0004779868710962365
3399.0,0.0004779868710962365
3398.0,0.00043451177401765406
3397.0,0.00043451177401765406
3396.0,0.0005649501236701937
3395.0,0.0006954276616513155
3394.0,0.0007824344698965646
3393.0,0.000869458712629001
3392.0,0.0008259444115150671
3391.0,0.0007824344698965646
3390.0,0.0007389288868995258
3389.0,0.0006954276616513155
3388.0,0.0006519307932786322
3387.0,0.0006084382809090627
3386.0,0.0005649501236701937
3385.0,0.0005649501236701937
3384.0,0.0005649501236701937
3383.0,0.0006084382809090627
3382.0,0.0006084382809090627
3381.0,0.0006084382809090627
3380.0,0.0006084382809090627
3379.0,0.0006084382809090627
3378.0,0.0006084382809090627
3377.0,0.0006519307932786322
3376.0,0.0006954276616513155
3375.0,0.0007389288868995258
3374.0,0.0006954276616513155
3373.0,0.0006954276616513155
3372.0,0.0006954276616513155
3371.0,0.0007389288868995258
3370.0,0.0008259444115150671
3369.0,0.0009129773741116676
3368.0,0.0010000277816797354
3367.0,0.0010000277816797354
3366.0,0.0009565003968372565
3365.0,0.000869458712629001
3364.0,0.0008259444115150671
3363.0,0.0008259444115150671
3362.0,0.0008259444115150671
3361.0,0.000869458712629001
3360.0,0.000869458712629001
3359.0,0.000869458712629001
3358.0,0.0007824344698965646
3357.0,0.0007389288868995258
3356.0,0.0007389288868995258
3355.0,0.0007824344698965646
3354.0,0.0008259444115150671
3353.0,0.0008259444115150671
3352.0,0.0008259444115150671
3351.0,0.000869458712629001
3350.0,0.0009565003968372565
3349.0,0.0010870956412141197
3348.0,0.0011741809597138886
3347.0,0.0011741809597138886
3346.0,0.0010435595295137379
3345.0,0.000869458712629001
3344.0,0.0007389288868995258
3343.0,0.0006954276616513155
3342.0,0.0006954276616513155
3341.0,0.0007824344698965646
3340.0,0.000869458712629001
3339.0,0.0010000277816797354
3338.0,0.0010870956412141197
3337.0,0.0010870956412141197
3336.0,0.0010000277816797354
3335.0,0.0009129773741116676
3334.0,0.0008259444115150671
3333.0,0.0007824344698965646
3332.0,0.0006954276616513155
3331.0,0.0006084382809090627
3330.0,0.0004779868710962365
3329.0,0.0004779868710962365
3328.0,0.0004779868710962365
3327.0,0.000521466320689834
3326.0,0.0005649501236701937
3325.0,0.0006519307932786322
3324.0,0.0007389288868995258
3323.0,0.000869458712629001
3322.0,0.0009129773741116676
3321.0,0.0009565003968372565
3320.0,0.0009129773741116676
3319.0,0.0008259444115150671
3318.0,0.0007824344698965646
3317.0,0.0007389288868995258
3316.0,0.0006954276616513155
3315.0,0.0007389288868995258
3314.0,0.0007389288868995258
3313.0,0.0007389288868995258
3312.0,0.0006954276616513155
3311.0,0.0006084382809090627
3310.0,0.0005649501236701937
3309.0,0.0006519307932786322
3308.0,0.0007389288868995258
3307.0,0.0008259444115150671
3306.0,0.000869458712629001
3305.0,0.000869458712629001
3304.0,0.000869458712629001
3303.0,0.000869458712629001
3302.0,0.000869458712629001
3301.0,0.0008259444115150671
3300.0,0.0007824344698965646
3299.0,0.0007389288868995258
3298.0,0.0006954276616513155
3297.0,0.0007389288868995258
3296.0,0.0008259444115150671
3295.0,0.000869458712629001
3294.0,0.000869458712629001
3293.0,0.0007824344698965646
3292.0,0.0007389288868995258
3291.0,0.0006954276616513155
3290.0,0.0006954276616513155
3289.0,0.0007389288868995258
3288.0,0.0007824344698965646
3287.0,0.0007824344698965646
3286.0,0.0008259444115150671
3285.0,0.0008259444115150671
3284.0,0.000869458712629001
3283.0,0.000869458712629001
3282.0,0.0008259444115150671
3281.0,0.0007389288868995258
3280.0,0.0006519307932786322
3279.0,0.0006519307932786322
3278.0,0.0006954276616513155
3277.0,0.0007824344698965646
3276.0,0.0008259444115150671
3275.0,0.0007389288868995258
3274.0,0.0006519307932786322
3273.0,0.0005649501236701937
3272.0,0.000521466320689834
3271.0,0.000521466320689834
3270.0,0.0006084382809090627
3269.0,0.0006084382809090627
3268.0,0.0006084382809090627
3267.0,0.0005649501236701937
3266.0,0.0004779868710962365
3265.0,0.00043451177401765406
3264.0,0.0004779868710962365
3263.0,0.000521466320689834
3262.0,0.0005649501236701937
3261.0,0.0006084382809090627
3260.0,0.0006084382809090627
3259.0,0.0006519307932786322
3258.0,0.0006954276616513155
3257.0,0.0007824344698965646
3256.0,0.0007824344698965646
3255.0,0.0007389288868995258
3254.0,0.0007389288868995258
3253.0,0.0007389288868995258
3252.0,0.0007824344698965646
3251.0,0.0007824344698965646
3250.0,0.0007389288868995258
3249.0,0.0007824344698965646
3248.0,0.0007824344698965646
3247.0,0.0007824344698965646
3246.0,0.0007824344698965646
3245.0,0.0006954276616513155
3244.0,0.0005649501236701937
3243.0,0.000521466320689834
3242.0,0.000521466320689834
3241.0,0.0006084382809090627
3240.0,0.0006954276616513155
3239.0,0.0007824344698965646
3238.0,0.0007824344698965646
3237.0,0.0007824344698965646
3236.0,0.0007389288868995258
3235.0,0.0006954276616513155
3234.0,0.0006519307932786322
3233.0,0.0006519307932786322
3232.0,0.0006084382809090627
3231.0,0.0006084382809090627
3230.0,0.0006084382809090627
3229.0,0.0006519307932786322
3228.0,0.0007389288868995258
3227.0,0.000869458712629001
3226.0,0.0009565003968372565
3225.0,0.0009565003968372565
3224.0,0.000869458712629001
3223.0,0.0008259444115150671
3222.0,0.0008259444115150671
3221.0,0.0008259444115150671
3220.0,0.0008259444115150671
3219.0,0.0007824344698965646
3218.0,0.0006954276616513155
3217.0,0.0006084382809090627
3216.0,0.0006084382809090627
3215.0,0.0006519307932786322
3214.0,0.0006519307932786322
3213.0,0.0006519307932786322
3212.0,0.0005649501236701937
3211.0,0.0004779868710962365
3210.0,0.00043451177401765406
3209.0,0.00043451177401765406
3208.0,0.000521466320689834
3207.0,0.0006084382809090627
3206.0,0.0006519307932786322
3205.0,0.0006084382809090627
3204.0,0.0005649501236701937
3203.0,0.00043451177401765406
3202.0,0.0003910410285830057
3201.0,0.0003910410285830057
3200.0,0.0003910410285830057
3199.0,0.0004779868710962365
3198.0,0.000521466320689834
3197.0,0.000521466320689834
3196.0,0.000521466320689834
3195.0,0.0005649501236701937
3194.0,0.0005649501236701937
3193.0,0.0006084382809090627
3192.0,0.0006084382809090627
3191.0,0.0006084382809090627
3190.0,0.0006084382809090627
3189.0,0.0005649501236701937
3188.0,0.0004779868710962365
3187.0,0.00043451177401765406
3186.0,0.0003910410285830057
3185.0,0.0003475746339209884
3184.0,0.0003910410285830057
3183.0,0.0003910410285830057
3182.0,0.00043451177401765406
3181.0,0.00043451177401765406
3180.0,0.00043451177401765406
3179.0,0.0003910410285830057
3178.0,0.00030411258916074324
3177.0,0.00021720154586435392
3176.0,0.00017375254558760211
3175.0,0.00017375254558760211
3174.0,0.00021720154586435392
3173.0,0.00026065489343207737
3172.0,0.00026065489343207737
3171.0,0.00026065489343207737
3170.0,0.00021720154586435392
3169.0,0.00021720154586435392
3168.0,0.00017375254558760211
3167.0,0.00017375254558760211
3166.0,0.0001303078917322953
3165.0,8.686758342868472e-05
3164.0,8.686758342868472e-05
3163.0,8.686758342868472e-05
3162.0,4.343161980746579e-05
3161.0,4.343161980746579e-05
3160.0,8.686758342868472e-05
3159.0,0.0001303078917322953
3158.0,0.00021720154586435392
3157.0,0.00021720154586435392
3156.0,0.00017375254558760211
3155.0,8.686758342868472e-05
3154.0,0.0
3153.0,4.343161980746579e-05
3152.0,0.0001303078917322953
3151.0,0.00026065489343207737
3150.0,0.00030411258916074324
3149.0,0.00021720154586435392
3148.0,8.686758342868472e-05
3147.0,0.0
3146.0,0.0
3145.0,4.343161980746579e-05
3144.0,8.686758342868472e-05
3143.0,8.686758342868472e-05
3142.0,0.0
3141.0,-8.685021164911433e-05
3140.0,-0.00017368305846510168
3139.0,-0.00021709297223004853
3138.0,-0.0002604985473904087
3137.0,-0.00030389978481260016
3136.0,-0.0003472966853634851
3135.0,-0.0003472966853634851
3134.0,-0.00030389978481260016
3133.0,-0.0002604985473904087
3132.0,-0.0002604985473904087
3131.0,-0.00030389978481260016
3130.0,-0.0003906892499099257
3129.0,-0.0004774613744551459
3128.0,-0.0005642161653756084
3127.0,-0.0006075870628903246
3126.0,-0.0006075870628903246
3125.0,-0.0005642161653756084
3124.0,-0.0005208409361854294
3123.0,-0.0005208409361854294
3122.0,-0.0006075870628903246
3121.0,-0.0006943158663546001
3120.0,-0.0007376737740329986
3119.0,-0.0007376737740329986
3118.0,-0.0006509536295951079
3117.0,-0.0005642161653756084
3116.0,-0.0005208409361854294
3115.0,-0.0005208409361854294
3114.0,-0.0004774613744551459
3113.0,-0.0004774613744551459
3112.0,-0.0004774613744551459
3111.0,-0.0005208409361854294
3110.0,-0.0005208409361854294
3109.0,-0.0005208409361854294
3108.0,-0.0004774613744551459
3107.0,-0.00043407747931878404
3106.0,-0.00043407747931878404
3105.0,-0.0004774613744551459
3104.0,-0.0005642161653756084
3103.0,-0.0006075870628903246
3102.0,-0.0005642161653756084
3101.0,-0.0005208409361854294
3100.0,-0.0004774613744551459
3099.0,-0.0004774613744551459
3098.0,-0.0005208409361854294
3097.0,-0.0006075870628903246
3096.0,-0.0006943158663546001
3095.0,-0.0007376737740329986
3094.0,-0.0007376737740329986
3093.0,-0.0007376737740329986
3092.0,-0.0006943158663546001
3091.0,-0.0006509536295951079
3090.0,-0.0006509536295951079
3089.0,-0.0006075870628903246
3088.0,-0.0006075870628903246
3087.0,-0.0005642161653756084
3086.0,-0.0005642161653756084
3085.0,-0.0006509536295951079
3084.0,-0.0007376737740329986
3083.0,-0.0008677215312267172
3082.0,-0.0009110621312231615
3081.0,-0.0008677215312267172
3080.0,-0.0007810273534953893
3079.0,-0.0006943158663546001
3078.0,-0.0006075870628903246
3077.0,-0.0005208409361854294
3076.0,-0.0005208409361854294
3075.0,-0.0006075870628903246
3074.0,-0.0007376737740329986
3073.0,-0.0009110621312231615
3072.0,-0.0009543984064577238
3071.0,-0.0009543984064577238
3070.0,-0.0009110621312231615
3069.0,-0.0009110621312231615
3068.0,-0.0008677215312267172
3067.0,-0.0008677215312267172
3066.0,-0.0008677215312267172
3065.0,-0.0008243766056055257
3064.0,-0.0008243766056055257
3063.0,-0.0007810273534953893
3062.0,-0.0007810273534953893
3061.0,-0.0008243766056055257
3060.0,-0.0008677215312267172
3059.0,-0.0009543984064577238
3058.0,-0.0009977303577937136
3057.0,-0.001041057986093552
3056.0,-0.001041057986093552
3055.0,-0.001041057986093552
3054.0,-0.0009977303577937136
3053.0,-0.0009110621312231615
3052.0,-0.0009110621312231615
3051.0,-0.0009977303577937136
3050.0,-0.0011277002770349043
3049.0,-0.001257631312230778
3048.0,-0.001344230411601366
3047.0,-0.0013009330204178937
3046.0,-0.00121432528617893
3045.0,-0.0011277002770349043
3044.0,-0.0010843812922201046
3043.0,-0.0011277002770349043
3042.0,-0.00121432528617893
3041.0,-0.0013009330204178937
3040.0,-0.0013009330204178937
3039.0,-0.0013009330204178937
3038.0,-0.0013009330204178937
3037.0,-0.001344230411601366
3036.0,-0.001344230411601366
3035.0,-0.001344230411601366
3034.0,-0.0013009330204178937
3033.0,-0.0013009330204178937
3032.0,-0.0013009330204178937
3031.0,-0.0013009330204178937
3030.0,-0.0013009330204178937
3029.0,-0.0013009330204178937
3028.0,-0.0013875234866409514
3027.0,-0.001474096691732818
3026.0,-0.0015173768235041685
3025.0,-0.0015173768235041685
3024.0,-0.0014308122463981832
3023.0,-0.001344230411601366
3022.0,-0.0013875234866409514
3021.0,-0.0015606526425728795
3020.0,-0.0016904542321527494
3019.0,-0.001776967077439462
3018.0,-0.0018202170383281313
3017.0,-0.001776967077439462
3016.0,-0.001733712809000476
3015.0,-0.001733712809000476
3014.0,-0.0018202170383281313
3013.0,-0.0019067040408846658
3012.0,-0.0019499410842680476
3011.0,-0.0019931738235303698
3010.0,-0.0019931738235303698
3009.0,-0.0019499410842680476
3008.0,-0.0019499410842680476
3007.0,-0.0019931738235303698
3006.0,-0.0019931738235303698
3005.0,-0.0020364022595291686
3004.0,-0.0020364022595291686
3003.0,-0.0020364022595291686
3002.0,-0.0020364022595291686
3001.0,-0.0021228462251614566
3000.0,-0.0022092729880145434
2999.0,-0.0022524799205383417
2998.0,-0.0022524799205383417
2997.0,-0.0022092729880145434
2996.0,-0.0021660617565077978
2995.0,-0.0021660617565077978
2994.0,-0.0021228462251614566
2993.0,-0.0020364022595291686
2992.0,-0.0020364022595291686
2991.0,-0.0020364022595291686
2990.0,-0.0020364022595291686
2989.0,-0.0020796263931210923
2988.0,-0.0020796263931210923
2987.0,-0.0021228462251614566
2986.0,-0.0021660617565077978
2985.0,-0.0021660617565077978
2984.0,-0.0021228462251614566
2983.0,-0.0020364022595291686
2982.0,-0.0019499410842680476
2981.0,-0.0018634626925240205
2980.0,-0.001776967077439462
2979.0,-0.0016904542321527494
2978.0,-0.0016039241497978196
2977.0,-0.0016039241497978196
2976.0,-0.0016039241497978196
2975.0,-0.0016039241497978196
2974.0,-0.0015173768235041685
2973.0,-0.0013875234866409514
2972.0,-0.001257631312230778
2971.0,-0.0010843812922201046
2970.0,-0.0008677215312267172
2969.0,-0.0006509536295951079
2968.0,-0.00043407747931878404
2967.0,-0.00021709297223004853
2966.0,-4.3427276862573194e-05
2965.0,0.00017375254558760211
2964.0,0.0003910410285830057
2963.0,0.0005649501236701937
2962.0,0.0007389288868995258
2961.0,0.0010000277816797354
2960.0,0.001304841688344327
2959.0,0.001609869681952425
2958.0,0.001915112063444413
2957.0,0.0021332737608552588
2956.0,0.002351545103793873
2955.0,0.002613615602686581
2954.0,0.0028321285541661467
2953.0,0.0030944893043338695
2952.0,0.0033570086445275926
2951.0,0.0036634819042162814
2950.0,0.0040578370074493275
2949.0,0.00458420145758498
2948.0,0.005199100705396198
2947.0,0.005946936412324799
2946.0,0.006784279525863024
2945.0,0.007711646202907652
2944.0,0.008773924307505121
2943.0,0.009972101229705377
2942.0,0.011307297450183107
2941.0,0.012736045877764557
2940.0,0.014304140310157809
2939.0,0.016013078034810446
2938.0,0.01781925440359733
2937.0,0.019769308608968306
2936.0,0.021819483062586187
2935.0,0.02406295751688936
2934.0,0.026502691267936695
2933.0,0.029188389127482228
2932.0,0.032031037121307726
2931.0,0.03517488211661135
2930.0,0.03857890593355173
2929.0,0.042344833056508824
2928.0,0.04653025674659861
2927.0,0.05119595406718891
2926.0,0.05635711724787096
2925.0,0.06208109735221967
2924.0,0.0684912781333824
2923.0,0.07546228222451012
2922.0,0.08301995267961781
2921.0,0.09108625997902897
2920.0,0.09952362861074304
2919.0,0.10801676914803293
2918.0,0.11599807523121286
2917.0,0.12251347193039863
2916.0,0.126621263590859
2915.0,0.1275523522109867
2914.0,0.1251124891538875
2913.0,0.11987267778337518
2912.0,0.112945621949043
2911.0,0.10540705207704448
2910.0,0.09816040794877057
2909.0,0.0916222275676053
2908.0,0.08608023504853413
2907.0,0.08134070657817682
2906.0,0.07727454200674
2905.0,0.07370901311513656
2904.0,0.07063217075990047
2903.0,0.06803388527182741
2902.0,0.06580465065211571
2901.0,0.06383825908884244
2900.0,0.06208109735221967
2899.0,0.060430831344098435
2898.0,0.058936011780097886
2897.0,0.05744631966579017
2896.0,0.055961719945581745
2895.0,0.05448217792216048
2894.0,0.05295859474477971
2893.0,0.05139145012356372
2892.0,0.04978123335813667
2891.0,0.04827402457540786
2890.0,0.04677202844014605
2889.0,0.045323413081356456
2888.0,0.04383156952463674
2887.0,0.04229695845116854
2886.0,0.04072004986906119
2885.0,0.03905380426616856
2884.0,0.037346595106788616
2883.0,0.035646070707806565
2882.0,0.03399914237121604
2881.0,0.03240522732811035
2880.0,0.030770520137356927
2879.0,0.029141943003497595
2878.0,0.027426919073445077
2877.0,0.025764722556973707
2876.0,0.024200690320592466
2875.0,0.022733787572707387
2874.0,0.0214542995372613
2873.0,0.02036058777709271
2872.0,0.01949668180660491
2871.0,0.018725167293411005
2870.0,0.01809082990920774
2869.0,0.017547848615010242
2868.0,0.017186237868137555
2867.0,0.017050711425501408
2866.0,0.017231422748988034
2865.0,0.017728766960431575
2864.0,0.018543833477873584
2863.0,0.019769308608968306
2862.0,0.02140867317992523
2861.0,0.02351246269481
2860.0,0.026271941311972746
2859.0,0.029839156962686353
2858.0,0.03432802877989327
2857.0,0.039909932095080425
2856.0,0.04672366333269573
2855.0,0.054876229877880656
2854.0,0.06434161389936577
2853.0,0.0748426728241014
2852.0,0.0856568428805593
2851.0,0.0957714836599215
2850.0,0.10397008760377302
2849.0,0.10890877353227624
2848.0,0.1098585399354226
2847.0,0.10701544928928342
2846.0,0.10116516193172598
2845.0,0.0935572061829677
2844.0,0.0854453014823664
2843.0,0.07753405470158659
2842.0,0.0702746216219956
2841.0,0.06388856832514578
2840.0,0.0582898510583536
2839.0,0.05354773498692689
2838.0,0.04944043838819989
2837.0,0.04595055323640551
2836.0,0.04291974034210022
2835.0,0.04019568349166214
2834.0,0.03777276864991497
2833.0,0.035693217696063595
2832.0,0.03385826726096752
2831.0,0.03226486821611996
2830.0,0.030863766403287585
2829.0,0.029560137048236124
2828.0,0.02839947976994095
2827.0,0.027288159452933503
2826.0,0.026271941311972746
2825.0,0.02539620791296726
2824.0,0.02461415101053266
2823.0,0.023925268380126097
2822.0,0.023237476732539397
2821.0,0.02259651912656535
2820.0,0.021956506090037076
2819.0,0.021363051615525652
2818.0,0.020770406977844713
2817.0,0.020315076172974234
2816.0,0.019860222254245663
2815.0,0.01940584422377989
2814.0,0.018951941086827073
2813.0,0.018543833477873584
2812.0,0.018136109008649592
2811.0,0.017774008325325275
2810.0,0.017412209298337533
2809.0,0.016960383953898095
2808.0,0.016554142658660398
2807.0,0.016193358021584725
2806.0,0.015832872853011715
2805.0,0.015517693597737248
2804.0,0.015202742910707112
2803.0,0.014977917890464765
2802.0,0.014798141635428141
2801.0,0.014663358264387139
2800.0,0.014438812226654996
2799.0,0.014214382227394795
2798.0,0.013945219230304673
2797.0,0.01372104409400876
2796.0,0.013496984613259544
2795.0,0.013273040668781544
2794.0,0.013093968619278806
2793.0,0.012870232340102872
2792.0,0.01264661126420652
2791.0,0.012423105273012602
2790.0,0.012199714248127602
2789.0,0.011931796607364653
2788.0,0.011708658092512314
2787.0,0.011485634166333858
2786.0,0.011307297450183107
2785.0,0.011129033935354915
2784.0,0.011039929609661936
2783.0,0.010906307389674463
2782.0,0.01077272626946324
2781.0,0.010683695010048622
2780.0,0.010550182333308289
2779.0,0.01037222925484893
2778.0,0.01023881228122181
2777.0,0.01001654169860089
2776.0,0.009838807101520963
2775.0,0.009705553871561357
2774.0,0.009616741093766423
2773.0,0.009527946474380489
2772.0,0.00939478857608056
2771.0,0.009261671492462709
2770.0,0.009172949432521227
2769.0,0.009128595198514056
2768.0,0.00908424549391551
2767.0,0.009039900317800775
2766.0,0.008906891951112605
2765.0,0.008685301823389224
2764.0,0.008463824699968647
2763.0,0.008242460465651913
2762.0,0.008109696063975047
2761.0,0.007976972236149349
2760.0,0.007976972236149349
2759.0,0.007976972236149349
2758.0,0.008021209005416363
2757.0,0.008021209005416363
2756.0,0.008065450281052211
2755.0,0.008021209005416363
2754.0,0.007932739972333236
2753.0,0.007800070204414977
2752.0,0.00762324020119709
2751.0,0.007490664932224611
2750.0,0.007402303897961815
2749.0,0.007313960837872058
2748.0,0.007225635744644521
2747.0,0.007181479933320523
2746.0,0.007137328610972382
2745.0,0.007137328610972382
2744.0,0.007137328610972382
2743.0,0.007093181776687496
2742.0,0.007093181776687496
2741.0,0.007049039429553483
2740.0,0.007049039429553483
2739.0,0.007093181776687496
2738.0,0.007049039429553483
2737.0,0.007004901568658406
2736.0,0.006872514894289861
2735.0,0.006740168563263094
2734.0,0.006607862550997545
2733.0,0.006519680930003435
2732.0,0.006475596832934416
2731.0,0.006475596832934416
2730.0,0.006475596832934416
2729.0,0.006475596832934416
2728.0,0.006431517210272464
2727.0,0.006387442061109638
2726.0,0.006343371384537999
2725.0,0.00625524344553785
2724.0,0.006167133386013823
2723.0,0.00612308505878878
2722.0,0.006035001804881146
2721.0,0.005990966876386672
2720.0,0.005946936412324799
2719.0,0.00590291041179003
2718.0,0.005858888873877532
2717.0,0.005814871797682919
2716.0,0.005814871797682919
2715.0,0.005726851026829571
2714.0,0.005638848091999105
2713.0,0.005594853310833647
2712.0,0.005638848091999105
2711.0,0.005682847330363394
2710.0,0.005726851026829571
2709.0,0.005726851026829571
2708.0,0.005682847330363394
2707.0,0.005638848091999105
2706.0,0.005594853310833647
2705.0,0.005594853310833647
2704.0,0.005550862985963967
2703.0,0.00541891874010525
2702.0,0.0052870145684298375
2701.0,0.005067263269958211
2700.0,0.00484762310854614
2699.0,0.004759798137184523
2698.0,0.004671990922590297
2697.0,0.004715892310740433
2696.0,0.004759798137184523
2695.0,0.00484762310854614
2694.0,0.004979393875242044
2693.0,0.005067263269958211
2692.0,0.005111204635089406
2691.0,0.005067263269958211
2690.0,0.004979393875242044
2689.0,0.00489154225525934
2688.0,0.004803708402820517
2687.0,0.004759798137184523
2686.0,0.004759798137184523
2685.0,0.00484762310854614
2684.0,0.00489154225525934
2683.0,0.004935465843858511
2682.0,0.004935465843858511
2681.0,0.00489154225525934
2680.0,0.004803708402820517
2679.0,0.004715892310740433
2678.0,0.004715892310740433
2677.0,0.004803708402820517
2676.0,0.00484762310854614
2675.0,0.004803708402820517
2674.0,0.004671990922590297
2673.0,0.0044964297349936455
2672.0,0.004452550524862486
2671.0,0.004452550524862486
2670.0,0.004540313378935901
2669.0,0.00458420145758498
2668.0,0.00458420145758498
2667.0,0.004540313378935901
2666.0,0.00458420145758498
2665.0,0.004628093971837721
2664.0,0.004715892310740433
2663.0,0.004715892310740433
2662.0,0.004628093971837721
2661.0,0.004540313378935901
2660.0,0.004452550524862486
2659.0,0.004408675747646695
2658.0,0.004408675747646695
2657.0,0.0043648054024501
2656.0,0.0043648054024501
2655.0,0.0043648054024501
2654.0,0.0043648054024501
2653.0,0.0043648054024501
2652.0,0.0043648054024501
2651.0,0.004320939488377862
2650.0,0.004320939488377862
2649.0,0.004320939488377862
2648.0,0.004320939488377862
2647.0,0.004320939488377862
2646.0,0.004233220950025984
2645.0,0.004145520125434121
2644.0,0.004101676353562844
2643.0,0.004101676353562844
2642.0,0.004101676353562844
2641.0,0.004189368323957332
2640.0,0.004277078004534696
2639.0,0.004320939488377862
2638.0,0.004320939488377862
2637.0,0.004277078004534696
2636.0,0.004233220950025984
2635.0,0.004233220950025984
2634.0,0.004277078004534696
2633.0,0.004320939488377862
2632.0,0.004277078004534696
2631.0,0.004189368323957332
2630.0,0.004101676353562844
2629.0,0.00401400208620073
2628.0,0.003970171588923321
2627.0,0.0038825238627120395
2626.0,0.0038387066319929275
2625.0,0.003794893821675638
2624.0,0.003794893821675638
2623.0,0.003794893821675638
2622.0,0.003794893821675638
2621.0,0.003794893821675638
2620.0,0.003707281458678491
2619.0,0.003619686766589858
2618.0,0.0035321097382827737
2617.0,0.003488327845821315
2616.0,0.003488327845821315
2615.0,0.0034445503666347133
2614.0,0.0034445503666347133
2613.0,0.003488327845821315
2612.0,0.0035321097382827737
2611.0,0.0035758960449088217
2610.0,0.0035321097382827737
2609.0,0.003488327845821315
2608.0,0.0034007772998332353
2607.0,0.0033570086445275926
2606.0,0.0032694845648473247
2605.0,0.0032257291386954545
2604.0,0.0031819781204844855
2603.0,0.0031819781204844855
2602.0,0.0031819781204844855
2601.0,0.0031819781204844855
2600.0,0.0031819781204844855
2599.0,0.0031819781204844855
2598.0,0.0031819781204844855
2597.0,0.0031819781204844855
2596.0,0.0031819781204844855
2595.0,0.0031819781204844855
2594.0,0.0031819781204844855
2593.0,0.0031819781204844855
2592.0,0.0030944893043338695
2591.0,0.0029632891174733444
2590.0,0.0027884171674950053
2589.0,0.002701007590486082
2588.0,0.002701007590486082
2587.0,0.0027447101798967477
2586.0,0.0028321285541661467
2585.0,0.0028758443407954637
2584.0,0.0029195645282691363
2583.0,0.0029195645282691363
2582.0,0.0028321285541661467
2581.0,0.002701007590486082
2580.0,0.002613615602686581
2579.0,0.002613615602686581
2578.0,0.0026573093983774942
2577.0,0.0027447101798967477
2576.0,0.0027447101798967477
2575.0,0.002701007590486082
2574.0,0.0026573093983774942
2573.0,0.0026573093983774942
2572.0,0.002613615602686581
2571.0,0.002613615602686581
2570.0,0.002569926202528716
2569.0,0.0025262411970197185
2568.0,0.002482560585275184
2567.0,0.0024388843664115978
2566.0,0.0024388843664115978
2565.0,0.0024388843664115978
2564.0,0.0024388843664115978
2563.0,0.0024388843664115978
2562.0,0.002395212539545666
2561.0,0.002395212539545666
2560.0,0.002395212539545666
2559.0,0.002351545103793873
2558.0,0.0023078820582733695
2557.0,0.0022642234021015284
2556.0,0.0022205691343961664
2555.0,0.0021332737608552588
2554.0,0.002089632653256679
2553.0,0.002089632653256679
2552.0,0.0020459959305969555
2551.0,0.0020459959305969555
2550.0,0.0020459959305969555
2549.0,0.0020459959305969555
2548.0,0.002089632653256679
2547.0,0.002089632653256679
2546.0,0.0021332737608552588
2545.0,0.0021332737608552588
2544.0,0.002089632653256679
2543.0,0.002089632653256679
2542.0,0.0020459959305969555
2541.0,0.0020023635919956817
2540.0,0.001915112063444413
2539.0,0.0018278780605593958
2538.0,0.0018278780605593958
2537.0,0.0018714928717336043
2536.0,0.0019587356365717845
2535.0,0.0020023635919956817
2534.0,0.0020459959305969555
2533.0,0.0020459959305969555
2532.0,0.0020023635919956817
2531.0,0.0019587356365717845
2530.0,0.001915112063444413
2529.0,0.0018714928717336043
2528.0,0.0018714928717336043
2527.0,0.0018714928717336043
2526.0,0.0018278780605593958
2525.0,0.0018278780605593958
2524.0,0.0017842676290416026
2523.0,0.0017406615763013722
2522.0,0.0016534626036355249
2521.0,0.0016534626036355249
2520.0,0.001609869681952425
2519.0,0.001609869681952425
2518.0,0.0016534626036355249
2517.0,0.0016534626036355249
2516.0,0.0016970599014589638
2515.0,0.0016970599014589638
2514.0,0.0017406615763013722
2513.0,0.0017842676290416026
2512.0,0.0018278780605593958
2511.0,0.0017842676290416026
2510.0,0.0017406615763013722
2509.0,0.0016534626036355249
2508.0,0.001609869681952425
2507.0,0.001609869681952425
2506.0,0.0015662811355310335
2505.0,0.0015662811355310335
2504.0,0.0015226969634936083
2503.0,0.0014791171649619628
2502.0,0.0014355417390583547
2501.0,0.0014355417390583547
2500.0,0.0014791171649619628
2499.0,0.0015226969634936083
2498.0,0.0015226969634936083
2497.0,0.0015226969634936083
2496.0,0.0015226969634936083
2495.0,0.0015662811355310335
2494.0,0.0015662811355310335
2493.0,0.0015226969634936083
2492.0,0.0014791171649619628
2491.0,0.0014355417390583547
2490.0,0.0013919706849057079
2489.0,0.001348404001626502
2488.0,0.001348404001626502
2487.0,0.0013919706849057079
2486.0,0.0014355417390583547
2485.0,0.0015226969634936083
2484.0,0.0015662811355310335
2483.0,0.0015662811355310335
2482.0,0.0015226969634936083
2481.0,0.0015226969634936083
2480.0,0.0014791171649619628
2479.0,0.0015226969634936083
2478.0,0.0014791171649619628
2477.0,0.0013919706849057079
2476.0,0.0012612837441823288
2475.0,0.0011741809597138886
2474.0,0.0011306361176557367
2473.0,0.0011741809597138886
2472.0,0.0012177301682640973
2471.0,0.001304841688344327
2470.0,0.001304841688344327
2469.0,0.001304841688344327
2468.0,0.001304841688344327
2467.0,0.0012612837441823288
2466.0,0.0012177301682640973
2465.0,0.0011306361176557367
2464.0,0.0010870956412141197
2463.0,0.0011306361176557367
2462.0,0.0011741809597138886
2461.0,0.0012177301682640973
2460.0,0.0011741809597138886
2459.0,0.0011741809597138886
2458.0,0.0011306361176557367
2457.0,0.0011306361176557367
2456.0,0.0011741809597138886
2455.0,0.0011741809597138886
2454.0,0.0011306361176557367
2453.0,0.0010435595295137379
2452.0,0.0009565003968372565
2451.0,0.0009129773741116676
2450.0,0.0009565003968372565
2449.0,0.0009565003968372565
2448.0,0.0010000277816797354
2447.0,0.0010000277816797354
2446.0,0.0010000277816797354
2445.0,0.0010000277816797354
2444.0,0.0010000277816797354
2443.0,0.0009565003968372565
2442.0,0.0009565003968372565
2441.0,0.0009565003968372565
2440.0,0.0009565003968372565
2439.0,0.0010000277816797354
2438.0,0.0010435595295137379
2437.0,0.0010000277816797354
2436.0,0.0009565003968372565
2435.0,0.0009129773741116676
2434.0,0.000869458712629001
2433.0,0.000869458712629001
2432.0,0.0009565003968372565
2431.0,0.0010000277816797354
2430.0,0.0010435595295137379
2429.0,0.0010870956412141197
2428.0,0.0010870956412141197
2427.0,0.0010870956412141197
2426.0,0.0010435595295137379
2425.0,0.0010000277816797354
2424.0,0.0009565003968372565
2423.0,0.0009565003968372565
2422.0,0.0010000277816797354
2421.0,0.0010435595295137379
2420.0,0.0010435595295137379
2419.0,0.0010435595295137379
2418.0,0.0010000277816797354
2417.0,0.0010000277816797354
2416.0,0.0009565003968372565
2415.0,0.0009565003968372565
2414.0,0.0009129773741116676
2413.0,0.000869458712629001
2412.0,0.0009129773741116676
2411.0,0.0009565003968372565
2410.0,0.0010000277816797354
2409.0,0.0009565003968372565
2408.0,0.000869458712629001
2407.0,0.0008259444115150671
2406.0,0.0008259444115150671
2405.0,0.0008259444115150671
2404.0,0.0008259444115150671
2403.0,0.0008259444115150671
2402.0,0.0008259444115150671
2401.0,0.0008259444115150671
2400.0,0.0007824344698965646
2399.0,0.0007389288868995258
2398.0,0.0007389288868995258
2397.0,0.0007389288868995258
2396.0,0.0006954276616513155
2395.0,0.0006954276616513155
2394.0,0.0006519307932786322
2393.0,0.0006519307932786322
2392.0,0.0006519307932786322
2391.0,0.0006954276616513155
2390.0,0.0006954276616513155
2389.0,0.0007389288868995258
2388.0,0.0006954276616513155
2387.0,0.0006084382809090627
2386.0,0.000521466320689834
2385.0,0.0004779868710962365
2384.0,0.000521466320689834
2383.0,0.0006084382809090627
2382.0,0.0006954276616513155
2381.0,0.0007824344698965646
2380.0,0.0007824344698965646
2379.0,0.0006954276616513155
2378.0,0.0005649501236701937
2377.0,0.00030411258916074324
2376.0,0.0
2375.0,-0.00030389978481260016
2374.0,-0.0002604985473904087
2373.0,0.0001303078917322953
2372.0,0.0006954276616513155
2371.0,0.0010435595295137379
2370.0,0.0012177301682640973
2369.0,0.0012177301682640973
2368.0,0.0009565003968372565
2367.0,0.00021720154586435392
2366.0,-0.0008243766056055257
2365.0,-0.001344230411601366
2364.0,-0.0011277002770349043
2363.0,-0.0003472966853634851
2362.0,0.000521466320689834
2361.0,0.0015226969634936083
2360.0,0.002351545103793873
2359.0,0.002482560585275184
2358.0,0.0017842676290416026
2357.0,0.0009129773741116676
2356.0,0.00043451177401765406
2355.0,0.00043451177401765406
2354.0,0.000521466320689834
2353.0,0.0006084382809090627
2352.0,0.0006084382809090627
2351.0,0.000521466320689834
2350.0,0.0004779868710962365
2349.0,0.0005649501236701937
2348.0,0.0006954276616513155
2347.0,0.0009565003968372565
2346.0,0.001304841688344327
2345.0,0.001304841688344327
2344.0,0.0006084382809090627
2343.0,-0.0006943158663546001
2342.0,-0.001733712809000476
2341.0,-0.0018202170383281313
2340.0,-0.00121432528617893
2339.0,-0.00043407747931878404
2338.0,0.00026065489343207737
2337.0,0.0009565003968372565
2336.0,0.0015226969634936083
2335.0,0.0018278780605593958
2334.0,0.001915112063444413
2333.0,0.0019587356365717845
2332.0,0.0020023635919956817
2331.0,0.0020023635919956817
2330.0,0.0017406615763013722
2329.0,0.0012612837441823288
2328.0,0.0006954276616513155
2327.0,0.0003910410285830057
2326.0,0.0005649501236701937
2325.0,0.0009565003968372565
2324.0,0.001304841688344327
2323.0,0.0013919706849057079
2322.0,0.001304841688344327
2321.0,0.0011306361176557367
2320.0,0.000869458712629001
2319.0,0.0005649501236701937
2318.0,0.00030411258916074324
2317.0,0.00017375254558760211
2316.0,0.0001303078917322953
2315.0,0.00017375254558760211
2314.0,0.0001303078917322953
2313.0,0.0001303078917322953
2312.0,0.00017375254558760211
2311.0,0.00030411258916074324
2310.0,0.0003910410285830057
2309.0,0.0004779868710962365
2308.0,0.00043451177401765406
2307.0,0.0003910410285830057
2306.0,0.0003475746339209884
2305.0,0.0003475746339209884
2304.0,0.0003910410285830057
2303.0,0.0004779868710962365
2302.0,0.000521466320689834
2301.0,0.0005649501236701937
2300.0,0.0005649501236701937
2299.0,0.0004779868710962365
2298.0,0.0003910410285830057
2297.0,0.0003475746339209884
2296.0,0.0003475746339209884
2295.0,0.0003910410285830057
2294.0,0.00043451177401765406
2293.0,0.000521466320689834
2292.0,0.0005649501236701937
2291.0,0.0006084382809090627
2290.0,0.0005649501236701937
2289.0,0.000521466320689834
2288.0,0.000521466320689834
2287.0,0.0004779868710962365
2286.0,0.0004779868710962365
2285.0,0.0004779868710962365
2284.0,0.0004779868710962365
2283.0,0.0004779868710962365
2282.0,0.000521466320689834
2281.0,0.000521466320689834
2280.0,0.0005649501236701937
2279.0,0.0005649501236701937
2278.0,0.000521466320689834
2277.0,0.000521466320689834
2276.0,0.0004779868710962365
2275.0,0.000521466320689834
2274.0,0.000521466320689834
2273.0,0.0005649501236701937
2272.0,0.0005649501236701937
2271.0,0.000521466320689834
2270.0,0.0004779868710962365
2269.0,0.0004779868710962365
2268.0,0.0004779868710962365
2267.0,0.0004779868710962365
2266.0,0.0004779868710962365
2265.0,0.000521466320689834
2264.0,0.000521466320689834
2263.0,0.0005649501236701937
2262.0,0.000521466320689834
2261.0,0.0004779868710962365
2260.0,0.0003910410285830057
2259.0,0.00026065489343207737
2258.0,0.00021720154586435392
2257.0,0.00017375254558760211
2256.0,0.00021720154586435392
2255.0,0.00026065489343207737
2254.0,0.00030411258916074324
2253.0,0.0003475746339209884
2252.0,0.00043451177401765406
2251.0,0.00043451177401765406
2250.0,0.00043451177401765406
2249.0,0.0003910410285830057
2248.0,0.00030411258916074324
2247.0,0.00030411258916074324
2246.0,0.00030411258916074324
2245.0,0.0003910410285830057
2244.0,0.00043451177401765406
2243.0,0.000521466320689834
2242.0,0.000521466320689834
2241.0,0.0004779868710962365
2240.0,0.0003910410285830057
2239.0,0.0003910410285830057
2238.0,0.0003910410285830057
2237.0,0.0003475746339209884
2236.0,0.00026065489343207737
2235.0,0.00017375254558760211
2234.0,8.686758342868472e-05
2233.0,0.0001303078917322953
2232.0,0.00017375254558760211
2231.0,0.00026065489343207737
2230.0,0.00030411258916074324
2229.0,0.00030411258916074324
2228.0,0.00030411258916074324
2227.0,0.00030411258916074324
2226.0,0.00021720154586435392
2225.0,0.0001303078917322953
2224.0,4.343161980746579e-05
2223.0,4.343161980746579e-05
2222.0,0.0001303078917322953
2221.0,0.00030411258916074324
2220.0,0.0003910410285830057
2219.0,0.00043451177401765406
2218.0,0.00043451177401765406
2217.0,0.0003475746339209884
2216.0,0.00026065489343207737
2215.0,0.00017375254558760211
2214.0,0.00017375254558760211
2213.0,0.00017375254558760211
2212.0,0.00021720154586435392
2211.0,0.00021720154586435392
2210.0,0.00021720154586435392
2209.0,0.00026065489343207737
2208.0,0.00030411258916074324
2207.0,0.00030411258916074324
2206.0,0.00030411258916074324
2205.0,0.00026065489343207737
2204.0,0.00026065489343207737
2203.0,0.00026065489343207737
2202.0,0.00021720154586435392
2201.0,0.00021720154586435392
2200.0,0.00021720154586435392
2199.0,0.00017375254558760211
2198.0,0.0001303078917322953
2197.0,4.343161980746579e-05
2196.0,0.0
2195.0,0.0
2194.0,4.343161980746579e-05
2193.0,4.343161980746579e-05
2192.0,4.343161980746579e-05
2191.0,4.343161980746579e-05
2190.0,4.343161980746579e-05
2189.0,8.686758342868472e-05
2188.0,8.686758342868472e-05
2187.0,8.686758342868472e-05
2186.0,4.343161980746579e-05
2185.0,4.343161980746579e-05
2184.0,0.0
2183.0,4.343161980746579e-05
2182.0,4.343161980746579e-05
2181.0,8.686758342868472e-05
2180.0,0.0001303078917322953
2179.0,0.00017375254558760211
2178.0,0.00021720154586435392
2177.0,0.00026065489343207737
2176.0,0.00026065489343207737
2175.0,0.00021720154586435392
2174.0,0.00017375254558760211
2173.0,0.0001303078917322953
2172.0,0.0001303078917322953
2171.0,4.343161980746579e-05
2170.0,0.0
2169.0,0.0
2168.0,0.0
2167.0,4.343161980746579e-05
2166.0,4.343161980746579e-05
2165.0,4.343161980746579e-05
2164.0,4.343161980746579e-05
2163.0,4.343161980746579e-05
2162.0,8.686758342868472e-05
2161.0,8.686758342868472e-05
2160.0,4.343161980746579e-05
2159.0,0.0
2158.0,-4.3427276862573194e-05
2157.0,-4.3427276862573194e-05
2156.0,0.0
2155.0,0.0
2154.0,0.0
2153.0,0.0
2152.0,4.343161980746579e-05
2151.0,8.686758342868472e-05
2150.0,0.0001303078917322953
2149.0,0.00017375254558760211
2148.0,0.0001303078917322953
2147.0,0.0001303078917322953
2146.0,0.0001303078917322953
2145.0,0.00017375254558760211
2144.0,0.00017375254558760211
2143.0,0.00017375254558760211
2142.0,0.0001303078917322953
2141.0,4.343161980746579e-05
2140.0,0.0
2139.0,-4.3427276862573194e-05
2138.0,-8.685021164911433e-05
2137.0,-8.685021164911433e-05
2136.0,-4.3427276862573194e-05
2135.0,-4.3427276862573194e-05
2134.0,-4.3427276862573194e-05
2133.0,-8.685021164911433e-05
2132.0,-0.00013026880522692963
2131.0,-0.00017368305846510168
2130.0,-0.00017368305846510168
2129.0,-0.00013026880522692963
2128.0,-4.3427276862573194e-05
2127.0,4.343161980746579e-05
2126.0,0.0
2125.0,-8.685021164911433e-05
2124.0,-0.00017368305846510168
2123.0,-0.00021709297223004853
2122.0,-0.0002604985473904087
2121.0,-0.0002604985473904087
2120.0,-0.0002604985473904087
2119.0,-0.0002604985473904087
2118.0,-0.0002604985473904087
2117.0,-0.0002604985473904087
2116.0,-0.00030389978481260016
2115.0,-0.0003472966853634851
2114.0,-0.0003472966853634851
2113.0,-0.00030389978481260016
2112.0,-0.00021709297223004853
2111.0,-0.00017368305846510168
2110.0,-0.00013026880522692963
2109.0,-8.685021164911433e-05
2108.0,-8.685021164911433e-05
2107.0,-4.3427276862573194e-05
2106.0,0.0
2105.0,0.0
2104.0,0.0
2103.0,0.0
2102.0,-4.3427276862573194e-05
2101.0,-8.685021164911433e-05
2100.0,-8.685021164911433e-05
2099.0,-0.00017368305846510168
2098.0,-0.00017368305846510168
2097.0,-0.00021709297223004853
2096.0,-0.00021709297223004853
2095.0,-0.00021709297223004853
2094.0,-0.00021709297223004853
2093.0,-0.00017368305846510168
2092.0,-8.685021164911433e-05
2091.0,-4.3427276862573194e-05
2090.0,-4.3427276862573194e-05
2089.0,-4.3427276862573194e-05
2088.0,-4.3427276862573194e-05
2087.0,-8.685021164911433e-05
2086.0,-0.00013026880522692963
2085.0,-0.00017368305846510168
2084.0,-0.00017368305846510168
2083.0,-0.00021709297223004853
2082.0,-0.00021709297223004853
2081.0,-0.00021709297223004853
2080.0,-0.00021709297223004853
2079.0,-0.0002604985473904087
2078.0,-0.0002604985473904087
2077.0,-0.00021709297223004853
2076.0,-0.00021709297223004853
2075.0,-0.00017368305846510168
2074.0,-0.00017368305846510168
2073.0,-0.00021709297223004853
2072.0,-0.00021709297223004853
2071.0,-0.00021709297223004853
2070.0,-0.00021709297223004853
2069.0,-0.00017368305846510168
2068.0,-0.00017368305846510168
2067.0,-0.00017368305846510168
2066.0,-0.00017368305846510168
2065.0,-0.00017368305846510168
2064.0,-0.00021709297223004853
2063.0,-0.0002604985473904087
2062.0,-0.00030389978481260016
2061.0,-0.0003472966853634851
2060.0,-0.0003472966853634851
2059.0,-0.0003906892499099257
2058.0,-0.0003906892499099257
2057.0,-0.0003472966853634851
2056.0,-0.0003472966853634851
2055.0,-0.00030389978481260016
2054.0,-0.00030389978481260016
2053.0,-0.00030389978481260016
2052.0,-0.00030389978481260016
2051.0,-0.00030389978481260016
2050.0,-0.0003472966853634851
2049.0,-0.0003472966853634851
2048.0,-0.0003472966853634851
2047.0,-0.0003472966853634851
2046.0,-0.0003472966853634851
2045.0,-0.0003472966853634851
2044.0,-0.0003472966853634851
2043.0,-0.0003906892499099257
2042.0,-0.0003906892499099257
2041.0,-0.00043407747931878404
2040.0,-0.0003906892499099257
2039.0,-0.0003906892499099257
2038.0,-0.0003472966853634851
2037.0,-0.0003472966853634851
2036.0,-0.0003472966853634851
2035.0,-0.0003472966853634851
2034.0,-0.00030389978481260016
2033.0,-0.0002604985473904087
2032.0,-0.00021709297223004853
2031.0,-0.00017368305846510168
2030.0,-0.00017368305846510168
2029.0,-0.00021709297223004853
2028.0,-0.00021709297223004853
2027.0,-0.00021709297223004853
2026.0,-0.00021709297223004853
2025.0,-0.00017368305846510168
2024.0,-0.00013026880522692963
2023.0,-0.00013026880522692963
2022.0,-8.685021164911433e-05
2021.0,-4.3427276862573194e-05
2020.0,-4.3427276862573194e-05
2019.0,0.0
2018.0,-4.3427276862573194e-05
2017.0,-4.3427276862573194e-05
2016.0,-0.00013026880522692963
2015.0,-0.00017368305846510168
2014.0,-0.00021709297223004853
2013.0,-0.00021709297223004853
2012.0,-0.00030389978481260016
2011.0,-0.0003472966853634851
2010.0,-0.0003906892499099257
2009.0,-0.0003906892499099257
2008.0,-0.00030389978481260016
2007.0,-0.00030389978481260016
2006.0,-0.00030389978481260016
2005.0,-0.0003906892499099257
2004.0,-0.0003906892499099257
2003.0,-0.0003906892499099257
2002.0,-0.0003472966853634851
2001.0,-0.0003906892499099257
2000.0,-0.00043407747931878404
1999.0,-0.0005642161653756084
1998.0,-0.0006509536295951079
1997.0,-0.0006509536295951079
1996.0,-0.0006509536295951079
1995.0,-0.0006075870628903246
1994.0,-0.0005642161653756084
1993.0,-0.0005642161653756084
1992.0,-0.0005642161653756084
1991.0,-0.0005642161653756084
1990.0,-0.0005642161653756084
1989.0,-0.0005208409361854294
1988.0,-0.0004774613744551459
1987.0,-0.00043407747931878404
1986.0,-0.00043407747931878404
1985.0,-0.0004774613744551459
1984.0,-0.0005642161653756084
1983.0,-0.0006075870628903246
1982.0,-0.0005642161653756084
1981.0,-0.0005208409361854294
1980.0,-0.0005208409361854294
1979.0,-0.0005642161653756084
1978.0,-0.0006075870628903246
1977.0,-0.0006509536295951079
1976.0,-0.0006509536295951079
1975.0,-0.0006509536295951079
1974.0,-0.0006075870628903246
1973.0,-0.0005642161653756084
1972.0,-0.0005208409361854294
1971.0,-0.0004774613744551459
1970.0,-0.0004774613744551459
1969.0,-0.0004774613744551459
1968.0,-0.0004774613744551459
1967.0,-0.0004774613744551459
1966.0,-0.0005208409361854294
1965.0,-0.0006075870628903246
1964.0,-0.0006943158663546001
1963.0,-0.0007376737740329986
1962.0,-0.0006509536295951079
1961.0,-0.0005642161653756084
1960.0,-0.0005208409361854294
1959.0,-0.0005208409361854294
1958.0,-0.0006075870628903246
1957.0,-0.0006509536295951079
1956.0,-0.0006943158663546001
1955.0,-0.0006509536295951079
1954.0,-0.0006509536295951079
1953.0,-0.0006075870628903246
1952.0,-0.0006075870628903246
1951.0,-0.0006075870628903246
1950.0,-0.0006075870628903246
1949.0,-0.0006075870628903246
1948.0,-0.0006509536295951079
1947.0,-0.0007376737740329986
1946.0,-0.0007376737740329986
1945.0,-0.0007810273534953893
1944.0,-0.0007810273534953893
1943.0,-0.0007810273534953893
1942.0,-0.0007810273534953893
1941.0,-0.0007810273534953893
1940.0,-0.0007810273534953893
1939.0,-0.0007376737740329986
1938.0,-0.0006943158663546001
1937.0,-0.0006509536295951079
1936.0,-0.0006943158663546001
1935.0,-0.0007376737740329986
1934.0,-0.0007810273534953893
1933.0,-0.0007376737740329986
1932.0,-0.0006943158663546001
1931.0,-0.0006509536295951079
1930.0,-0.0006075870628903246
1929.0,-0.0005642161653756084
1928.0,-0.0005642161653756084
1927.0,-0.0006075870628903246
1926.0,-0.0006509536295951079
1925.0,-0.0007376737740329986
1924.0,-0.0008243766056055257
1923.0,-0.0008243766056055257
1922.0,-0.0008243766056055257
1921.0,-0.0007810273534953893
1920.0,-0.0007376737740329986
1919.0,-0.0006943158663546001
1918.0,-0.0006943158663546001
1917.0,-0.0006509536295951079
1916.0,-0.0006943158663546001
1915.0,-0.0007376737740329986
1914.0,-0.0007810273534953893
1913.0,-0.0007810273534953893
1912.0,-0.0007376737740329986
1911.0,-0.0006509536295951079
1910.0,-0.0006075870628903246
1909.0,-0.0006075870628903246
1908.0,-0.0006509536295951079
1907.0,-0.0006943158663546001
1906.0,-0.0006943158663546001
1905.0,-0.0006509536295951079
1904.0,-0.0006075870628903246
1903.0,-0.0006075870628903246
1902.0,-0.0006075870628903246
1901.0,-0.0006509536295951079
1900.0,-0.0006509536295951079
1899.0,-0.0006075870628903246
1898.0,-0.0005208409361854294
1897.0,-0.00043407747931878404
1896.0,-0.00030389978481260016
1895.0,-0.0002604985473904087
1894.0,-0.00021709297223004853
1893.0,-0.0002604985473904087
1892.0,-0.00030389978481260016
1891.0,-0.00043407747931878404
1890.0,-0.0005642161653756084
1889.0,-0.0006075870628903246
1888.0,-0.0006509536295951079
1887.0,-0.0006509536295951079
1886.0,-0.0006943158663546001
1885.0,-0.0006943158663546001
1884.0,-0.0006943158663546001
1883.0,-0.0007376737740329986
1882.0,-0.0007810273534953893
1881.0,-0.0007810273534953893
1880.0,-0.0007376737740329986
1879.0,-0.0006943158663546001
1878.0,-0.0006943158663546001
1877.0,-0.0007376737740329986
1876.0,-0.0007810273534953893
1875.0,-0.0008677215312267172
1874.0,-0.0009110621312231615
1873.0,-0.0009543984064577238
1872.0,-0.0009977303577937136
1871.0,-0.001041057986093552
1870.0,-0.0010843812922201046
1869.0,-0.0010843812922201046
1868.0,-0.0009977303577937136
1867.0,-0.0009110621312231615
1866.0,-0.0008677215312267172
1865.0,-0.0008243766056055257
1864.0,-0.0008677215312267172
1863.0,-0.0009543984064577238
1862.0,-0.0009977303577937136
1861.0,-0.001041057986093552
1860.0,-0.0010843812922201046
1859.0,-0.0011277002770349043
1858.0,-0.0011710149414008164
1857.0,-0.00121432528617893
1856.0,-0.0011710149414008164
1855.0,-0.0011277002770349043
1854.0,-0.0011277002770349043
1853.0,-0.0011277002770349043
1852.0,-0.0011710149414008164
1851.0,-0.00121432528617893
1850.0,-0.00121432528617893
1849.0,-0.00121432528617893
1848.0,-0.00121432528617893
1847.0,-0.0011710149414008164
1846.0,-0.0011277002770349043
1845.0,-0.0010843812922201046
1844.0,-0.001041057986093552
1843.0,-0.001041057986093552
1842.0,-0.0011277002770349043
1841.0,-0.0011277002770349043
1840.0,-0.0011277002770349043
1839.0,-0.0011277002770349043
1838.0,-0.0010843812922201046
1837.0,-0.0010843812922201046
1836.0,-0.0011277002770349043
1835.0,-0.00121432528617893
1834.0,-0.0013009330204178937
1833.0,-0.001344230411601366
1832.0,-0.0013009330204178937
1831.0,-0.001257631312230778
1830.0,-0.001257631312230778
1829.0,-0.0013009330204178937
1828.0,-0.0013009330204178937
1827.0,-0.001344230411601366
1826.0,-0.001344230411601366
1825.0,-0.001344230411601366
1824.0,-0.001344230411601366
1823.0,-0.0013009330204178937
1822.0,-0.0013009330204178937
1821.0,-0.0013009330204178937
1820.0,-0.001344230411601366
1819.0,-0.001344230411601366
1818.0,-0.001344230411601366
1817.0,-0.0013009330204178937
1816.0,-0.001257631312230778
1815.0,-0.00121432528617893
1814.0,-0.0011277002770349043
1813.0,-0.0010843812922201046
1812.0,-0.0010843812922201046
1811.0,-0.0010843812922201046
1810.0,-0.0011710149414008164
1809.0,-0.00121432528617893
1808.0,-0.001257631312230778
1807.0,-0.001257631312230778
1806.0,-0.0013009330204178937
1805.0,-0.0013009330204178937
1804.0,-0.001344230411601366
1803.0,-0.001344230411601366
1802.0,-0.0013875234866409514
1801.0,-0.001474096691732818
1800.0,-0.0015173768235041685
1799.0,-0.0015606526425728795
1798.0,-0.0015173768235041685
1797.0,-0.001474096691732818
1796.0,-0.0014308122463981832
1795.0,-0.0014308122463981832
1794.0,-0.001474096691732818
1793.0,-0.0015173768235041685
1792.0,-0.0016039241497978196
1791.0,-0.0016904542321527494
1790.0,-0.001733712809000476
1789.0,-0.0016904542321527494
1788.0,-0.0015606526425728795
1787.0,-0.0014308122463981832
1786.0,-0.001344230411601366
1785.0,-0.001257631312230778
1784.0,-0.001257631312230778
1783.0,-0.0013009330204178937
1782.0,-0.001344230411601366
1781.0,-0.001344230411601366
1780.0,-0.001344230411601366
1779.0,-0.0013009330204178937
1778.0,-0.001257631312230778
1777.0,-0.001257631312230778
1776.0,-0.001257631312230778
1775.0,-0.001257631312230778
1774.0,-0.001257631312230778
1773.0,-0.001344230411601366
1772.0,-0.0014308122463981832
1771.0,-0.0015173768235041685
1770.0,-0.0015173768235041685
1769.0,-0.001474096691732818
1768.0,-0.0014308122463981832
1767.0,-0.0013875234866409514
1766.0,-0.0013875234866409514
1765.0,-0.001344230411601366
1764.0,-0.0013009330204178937
1763.0,-0.0013009330204178937
1762.0,-0.0013009330204178937
1761.0,-0.001344230411601366
1760.0,-0.0013875234866409514
1759.0,-0.0013875234866409514
1758.0,-0.0014308122463981832
1757.0,-0.0014308122463981832
1756.0,-0.0013875234866409514
1755.0,-0.001344230411601366
1754.0,-0.0013009330204178937
1753.0,-0.00121432528617893
1752.0,-0.0011710149414008164
1751.0,-0.0011277002770349043
1750.0,-0.001041057986093552
1749.0,-0.0009543984064577238
1748.0,-0.0009110621312231615
1747.0,-0.0009543984064577238
1746.0,-0.0009977303577937136
1745.0,-0.0009977303577937136
1744.0,-0.0009977303577937136
1743.0,-0.001041057986093552
1742.0,-0.001041057986093552
1741.0,-0.001041057986093552
1740.0,-0.0009977303577937136
1739.0,-0.0009977303577937136
1738.0,-0.001041057986093552
1737.0,-0.001041057986093552
1736.0,-0.001041057986093552
1735.0,-0.0010843812922201046
1734.0,-0.0011710149414008164
1733.0,-0.0011277002770349043
1732.0,-0.0010843812922201046
1731.0,-0.0009977303577937136
1730.0,-0.0009977303577937136
1729.0,-0.001041057986093552
1728.0,-0.0011277002770349043
1727.0,-0.0011277002770349043
1726.0,-0.0011277002770349043
1725.0,-0.0011277002770349043
1724.0,-0.0011277002770349043
1723.0,-0.0011277002770349043
1722.0,-0.0011277002770349043
1721.0,-0.001041057986093552
1720.0,-0.0009543984064577238
1719.0,-0.0009110621312231615
1718.0,-0.0009543984064577238
1717.0,-0.0010843812922201046
1716.0,-0.0011277002770349043
1715.0,-0.0011710149414008164
1714.0,-0.0011277002770349043
1713.0,-0.001041057986093552
1712.0,-0.0009543984064577238
1711.0,-0.0009110621312231615
1710.0,-0.0009110621312231615
1709.0,-0.0008677215312267172
1708.0,-0.0008677215312267172
1707.0,-0.0008677215312267172
1706.0,-0.0008677215312267172
1705.0,-0.0009110621312231615
1704.0,-0.0009110621312231615
1703.0,-0.0009110621312231615
1702.0,-0.0009110621312231615
1701.0,-0.0009543984064577238
1700.0,-0.001041057986093552
1699.0,-0.001041057986093552
1698.0,-0.0009977303577937136
1697.0,-0.0009110621312231615
1696.0,-0.0008677215312267172
1695.0,-0.0009110621312231615
1694.0,-0.0008677215312267172
1693.0,-0.0007810273534953893
1692.0,-0.0006943158663546001
1691.0,-0.0006075870628903246
1690.0,-0.0005642161653756084
1689.0,-0.0005642161653756084
1688.0,-0.0005642161653756084
1687.0,-0.0006509536295951079
1686.0,-0.0007376737740329986
1685.0,-0.0008243766056055257
1684.0,-0.0007810273534953893
1683.0,-0.0006943158663546001
1682.0,-0.0006943158663546001
1681.0,-0.0006075870628903246
1680.0,-0.0005208409361854294
1679.0,-0.0005208409361854294
1678.0,-0.0005642161653756084
1677.0,-0.0005642161653756084
1676.0,-0.0005642161653756084
1675.0,-0.0005642161653756084
1674.0,-0.0005642161653756084
1673.0,-0.0005642161653756084
1672.0,-0.0006075870628903246
1671.0,-0.0006943158663546001
1670.0,-0.0007376737740329986
1669.0,-0.0006943158663546001
1668.0,-0.0006509536295951079
1667.0,-0.0006075870628903246
1666.0,-0.0005642161653756084
1665.0,-0.0005208409361854294
1664.0,-0.0004774613744551459
1663.0,-0.00043407747931878404
1662.0,-0.00043407747931878404
1661.0,-0.0004774613744551459
1660.0,-0.0005208409361854294
1659.0,-0.0006075870628903246
1658.0,-0.0006509536295951079
1657.0,-0.0007376737740329986
1656.0,-0.0007376737740329986
1655.0,-0.0007376737740329986
1654.0,-0.0007376737740329986
1653.0,-0.0006943158663546001
1652.0,-0.0006509536295951079
1651.0,-0.0006943158663546001
1650.0,-0.0006509536295951079
1649.0,-0.0005642161653756084
1648.0,-0.0004774613744551459
1647.0,-0.0003906892499099257
1646.0,-0.0003472966853634851
1645.0,-0.0003906892499099257
1644.0,-0.0004774613744551459
1643.0,-0.0004774613744551459
1642.0,-0.0004774613744551459
1641.0,-0.0005208409361854294
1640.0,-0.0005642161653756084
1639.0,-0.0007376737740329986
1638.0,-0.0008677215312267172
1637.0,-0.0009110621312231615
1636.0,-0.0007376737740329986
1635.0,-0.0005642161653756084
1634.0,-0.0005208409361854294
1633.0,-0.0005208409361854294
1632.0,-0.0005642161653756084
1631.0,-0.0006075870628903246
1630.0,-0.0006943158663546001
1629.0,-0.0006943158663546001
1628.0,-0.0006509536295951079
1627.0,-0.0006509536295951079
1626.0,-0.0006075870628903246
1625.0,-0.0006075870628903246
1624.0,-0.0005642161653756084
1623.0,-0.0005642161653756084
1622.0,-0.0006075870628903246
1621.0,-0.0006509536295951079
1620.0,-0.0006509536295951079
1619.0,-0.0006943158663546001
1618.0,-0.0006943158663546001
1617.0,-0.0007810273534953893
1616.0,-0.0008243766056055257
1615.0,-0.0009110621312231615
1614.0,-0.0009543984064577238
1613.0,-0.0009543984064577238
1612.0,-0.0009543984064577238
1611.0,-0.0009543984064577238
1610.0,-0.0009543984064577238
1609.0,-0.0009543984064577238
1608.0,-0.0009543984064577238
1607.0,-0.0009543984064577238
1606.0,-0.0009977303577937136
1605.0,-0.0009977303577937136
1604.0,-0.0009977303577937136
1603.0,-0.001041057986093552
1602.0,-0.0010843812922201046
1601.0,-0.0011277002770349043
1600.0,-0.0011277002770349043
1599.0,-0.0011710149414008164
1598.0,-0.001257631312230778
1597.0,-0.0013009330204178937
1596.0,-0.001344230411601366
1595.0,-0.0013875234866409514
1594.0,-0.0013875234866409514
1593.0,-0.001344230411601366
1592.0,-0.001344230411601366
1591.0,-0.0013009330204178937
1590.0,-0.001344230411601366
1589.0,-0.001344230411601366
1588.0,-0.0013875234866409514
1587.0,-0.0013875234866409514
1586.0,-0.0014308122463981832
1585.0,-0.0014308122463981832
1584.0,-0.0014308122463981832
1583.0,-0.0014308122463981832
1582.0,-0.001474096691732818
1581.0,-0.001474096691732818
1580.0,-0.0015173768235041685
1579.0,-0.0015173768235041685
1578.0,-0.0015606526425728795
1577.0,-0.0015606526425728795
1576.0,-0.0016039241497978196
1575.0,-0.0016471913460383014
1574.0,-0.0016471913460383014
1573.0,-0.0016471913460383014
1572.0,-0.0016039241497978196
1571.0,-0.0016904542321527494
1570.0,-0.001776967077439462
1569.0,-0.0018202170383281313
1568.0,-0.001776967077439462
1567.0,-0.0016904542321527494
1566.0,-0.0016904542321527494
1565.0,-0.0016904542321527494
1564.0,-0.001776967077439462
1563.0,-0.0018202170383281313
1562.0,-0.001776967077439462
1561.0,-0.0016039241497978196
1560.0,-0.0013875234866409514
1559.0,-0.0013009330204178937
1558.0,-0.001474096691732818
1557.0,-0.0016904542321527494
1556.0,-0.001776967077439462
1555.0,-0.0019067040408846658
1554.0,-0.0019931738235303698
1553.0,-0.0020796263931210923
1552.0,-0.0020796263931210923
1551.0,-0.0020364022595291686
1550.0,-0.0020796263931210923
1549.0,-0.0020796263931210923
1548.0,-0.0021228462251614566
1547.0,-0.0021228462251614566
1546.0,-0.0021228462251614566
1545.0,-0.0020364022595291686
1544.0,-0.0019499410842680476
1543.0,-0.0019067040408846658
1542.0,-0.0020364022595291686
1541.0,-0.0021228462251614566
1540.0,-0.0021660617565077978
1539.0,-0.0022092729880145434
1538.0,-0.0022956825549340643
1537.0,-0.0022956825549340643
1536.0,-0.0022956825549340643
1535.0,-0.002338880892056583
1534.0,-0.0024252646779014952
1533.0,-0.0023820749327607693
1532.0,-0.0022956825549340643
1531.0,-0.0022524799205383417
1530.0,-0.0022956825549340643
1529.0,-0.002338880892056583
1528.0,-0.0023820749327607693
1527.0,-0.0024684501283323
1526.0,-0.0025548081484823015
1525.0,-0.002597980719908577
1524.0,-0.0025116312849080558
1523.0,-0.0025116312849080558
1522.0,-0.0025116312849080558
1521.0,-0.0024684501283323
1520.0,-0.0024684501283323
1519.0,-0.0025116312849080558
1518.0,-0.0025548081484823015
1517.0,-0.0025548081484823015
1516.0,-0.0026411490000399773
1515.0,-0.0028137792246734072
1514.0,-0.0029863408567849525
1513.0,-0.0029863408567849525
1512.0,-0.0029432068763250996
1511.0,-0.002900068611387585
1510.0,-0.0029432068763250996
1509.0,-0.002900068611387585
1508.0,-0.0028137792246734072
1507.0,-0.002856926061120646
1506.0,-0.0030725959676747294
1505.0,-0.003158833950862139
1504.0,-0.003158833950862139
1503.0,-0.003158833950862139
1502.0,-0.003201946521692367
1501.0,-0.003201946521692367
1500.0,-0.0032450548131470747
1499.0,-0.0033743540197499478
1498.0,-0.003546693102131737
1497.0,-0.003632837004408529
1496.0,-0.003546693102131737
1495.0,-0.003546693102131737
1494.0,-0.003546693102131737
1493.0,-0.0034605321095062536
1492.0,-0.0033312585613267665
1491.0,-0.0034174452021935586
1490.0,-0.003546693102131737
1489.0,-0.003503614742536687
1488.0,-0.0033743540197499478
1487.0,-0.0032881588260753603
1486.0,-0.0032450548131470747
1485.0,-0.003115717099805959
1484.0,-0.0029432068763250996
1483.0,-0.0027274726898296464
1482.0,-0.0023820749327607693
1481.0,-0.0016904542321527494
1480.0,-0.0006509536295951079
1479.0,0.0008259444115150671
1478.0,0.0037510854308679953
1477.0,0.009306039320248427
1476.0,0.017728766960431575
1475.0,0.028028723600243666
1474.0,0.039006291057664066
1473.0,0.04744970610179822
1472.0,0.04919717703534143
1471.0,0.04580574818413763
1470.0,0.041483896576958834
1469.0,0.03786753070176463
1468.0,0.03517488211661135
1467.0,0.03376437590141812
1466.0,0.03461012978487776
1465.0,0.03800971255993524
1464.0,0.04181850243505214
1463.0,0.043303435105349175
1462.0,0.04181850243505214
1461.0,0.03796231343498735
1460.0,0.03273290844021437
1459.0,0.027010773144651168
1458.0,0.021819483062586187
1457.0,0.01809082990920774
1456.0,0.01596801972881945
1455.0,0.014618439768003144
1454.0,0.013452186585275916
1453.0,0.012244383261476699
1452.0,0.011039929609661936
1451.0,0.010105436281226954
1450.0,0.009350411681145587
1449.0,0.0087296108049002
1448.0,0.008153946355103248
1447.0,0.007711646202907652
1446.0,0.007402303897961815
1445.0,0.007004901568658406
1444.0,0.006651960076740071
1443.0,0.006343371384537999
1442.0,0.00612308505878878
1441.0,0.005858888873877532
1440.0,0.005594853310833647
1439.0,0.00537494623139545
1438.0,0.005199100705396198
1437.0,0.004979393875242044
1436.0,0.004803708402820517
1435.0,0.004628093971837721
1434.0,0.004452550524862486
1433.0,0.004145520125434121
1432.0,0.003794893821675638
1431.0,0.0034445503666347133
1430.0,0.0030944893043338695
1429.0,0.0027884171674950053
1428.0,0.002482560585275184
1427.0,0.0023078820582733695
1426.0,0.002089632653256679
1425.0,0.0018278780605593958
1424.0,0.0014791171649619628
1423.0,0.0012177301682640973
1422.0,0.0010000277816797354
1421.0,0.0008259444115150671
1420.0,0.0006519307932786322
1419.0,0.0005649501236701937
1418.0,0.0005649501236701937
1417.0,0.000521466320689834
1416.0,0.00043451177401765406
1415.0,0.0003910410285830057
1414.0,0.0003910410285830057
1413.0,0.00030411258916074324
1412.0,0.00021720154586435392
1411.0,0.00017375254558760211
1410.0,8.686758342868472e-05
1409.0,-4.3427276862573194e-05
1408.0,-0.00017368305846510168
1407.0,-0.0002604985473904087
1406.0,-0.00030389978481260016
1405.0,-0.0003472966853634851
1404.0,-0.0003906892499099257
1403.0,-0.00043407747931878404
1402.0,-0.0004774613744551459
1401.0,-0.0005642161653756084
1400.0,-0.0006509536295951079
1399.0,-0.0006509536295951079
1398.0,-0.0006509536295951079
1397.0,-0.0006943158663546001
1396.0,-0.0008243766056055257
1395.0,-0.0008243766056055257
1394.0,-0.0008243766056055257
1393.0,-0.0008243766056055257
1392.0,-0.0008243766056055257
1391.0,-0.0008243766056055257
1390.0,-0.0008243766056055257
1389.0,-0.0008243766056055257
1388.0,-0.0008677215312267172
1387.0,-0.0009110621312231615
1386.0,-0.0009977303577937136
1385.0,-0.0009977303577937136
1384.0,-0.0009543984064577238
1383.0,-0.0008243766056055257
1382.0,-0.0006075870628903246
1381.0,-0.00043407747931878404
1380.0,-0.0002604985473904087
1379.0,-8.685021164911433e-05
1378.0,-4.3427276862573194e-05
1377.0,-8.685021164911433e-05
1376.0,-0.00017368305846510168
1375.0,-0.00017368305846510168
1374.0,-8.685021164911433e-05
1373.0,4.343161980746579e-05
1372.0,0.00017375254558760211
1371.0,0.00026065489343207737
1370.0,0.0003475746339209884
1369.0,0.0003910410285830057
1368.0,0.00043451177401765406
1367.0,0.0003910410285830057
1366.0,0.0003475746339209884
1365.0,0.00026065489343207737
1364.0,0.00017375254558760211
1363.0,0.0001303078917322953
1362.0,4.343161980746579e-05
1361.0,-4.3427276862573194e-05
1360.0,-0.00017368305846510168
1359.0,-0.0002604985473904087
1358.0,-0.0003472966853634851
1357.0,-0.00043407747931878404
1356.0,-0.0004774613744551459
1355.0,-0.00043407747931878404
1354.0,-0.0003906892499099257
1353.0,-0.0003472966853634851
1352.0,-0.0003906892499099257
1351.0,-0.00043407747931878404
1350.0,-0.0004774613744551459
1349.0,-0.0005642161653756084
1348.0,-0.0006509536295951079
1347.0,-0.0006943158663546001
1346.0,-0.0007810273534953893
1345.0,-0.0009110621312231615
1344.0,-0.0009543984064577238
1343.0,-0.0009977303577937136
1342.0,-0.0009977303577937136
1341.0,-0.001041057986093552
1340.0,-0.0010843812922201046
1339.0,-0.0011710149414008164
1338.0,-0.00121432528617893
1337.0,-0.001257631312230778
1336.0,-0.001344230411601366
1335.0,-0.0014308122463981832
1334.0,-0.0015606526425728795
1333.0,-0.0016904542321527494
1332.0,-0.001776967077439462
1331.0,-0.001776967077439462
1330.0,-0.001776967077439462
1329.0,-0.001776967077439462
1328.0,-0.001776967077439462
1327.0,-0.001776967077439462
1326.0,-0.001733712809000476
1325.0,-0.001733712809000476
1324.0,-0.0016904542321527494
1323.0,-0.0016471913460383014
1322.0,-0.0015606526425728795
1321.0,-0.0015173768235041685
1320.0,-0.0015173768235041685
1319.0,-0.001474096691732818
1318.0,-0.0014308122463981832
1317.0,-0.0014308122463981832
1316.0,-0.0014308122463981832
1315.0,-0.0013875234866409514
1314.0,-0.0013009330204178937
1313.0,-0.001257631312230778
1312.0,-0.00121432528617893
1311.0,-0.0011277002770349043
1310.0,-0.0010843812922201046
1309.0,-0.0010843812922201046
1308.0,-0.0010843812922201046
1307.0,-0.001041057986093552
1306.0,-0.001041057986093552
1305.0,-0.0009977303577937136
1304.0,-0.001041057986093552
1303.0,-0.0010843812922201046
1302.0,-0.0011710149414008164
1301.0,-0.00121432528617893
1300.0,-0.001257631312230778
1299.0,-0.0013009330204178937
1298.0,-0.0013009330204178937
1297.0,-0.001257631312230778
1296.0,-0.001257631312230778
1295.0,-0.001257631312230778
1294.0,-0.0013009330204178937
1293.0,-0.0013009330204178937
1292.0,-0.0013875234866409514
1291.0,-0.0014308122463981832
1290.0,-0.0015173768235041685
1289.0,-0.0016039241497978196
1288.0,-0.0016904542321527494
1287.0,-0.001733712809000476
1286.0,-0.001733712809000476
1285.0,-0.001776967077439462
1284.0,-0.0018202170383281313
1283.0,-0.001776967077439462
1282.0,-0.001776967077439462
1281.0,-0.0018202170383281313
1280.0,-0.0018202170383281313
1279.0,-0.001776967077439462
1278.0,-0.0016904542321527494
1277.0,-0.0016039241497978196
1276.0,-0.0015606526425728795
1275.0,-0.0015173768235041685
1274.0,-0.0015173768235041685
1273.0,-0.0015173768235041685
1272.0,-0.0015173768235041685
1271.0,-0.001474096691732818
1270.0,-0.001474096691732818
1269.0,-0.0014308122463981832
1268.0,-0.0013875234866409514
1267.0,-0.001344230411601366
1266.0,-0.0013009330204178937
1265.0,-0.00121432528617893
1264.0,-0.0011710149414008164
1263.0,-0.0011710149414008164
1262.0,-0.0010843812922201046
1261.0,-0.0009977303577937136
1260.0,-0.0009110621312231615
1259.0,-0.0007376737740329986
1258.0,-0.0006075870628903246
1257.0,-0.0004774613744551459
1256.0,-0.0003906892499099257
1255.0,-0.00030389978481260016
1254.0,-0.0002604985473904087
1253.0,-0.00017368305846510168
1252.0,-8.685021164911433e-05
1251.0,0.0001303078917322953
1250.0,0.00030411258916074324
1249.0,0.000521466320689834
1248.0,0.0006954276616513155
1247.0,0.000869458712629001
1246.0,0.0010870956412141197
1245.0,0.0012612837441823288
1244.0,0.001348404001626502
1243.0,0.0013919706849057079
1242.0,0.0014355417390583547
1241.0,0.0015662811355310335
1240.0,0.0016970599014589638
1239.0,0.0018714928717336043
1238.0,0.0020459959305969555
1237.0,0.0021769192542746563
1236.0,0.0023078820582733695
1235.0,0.0024388843664115978
1234.0,0.0025262411970197185
1233.0,0.0026573093983774942
1232.0,0.0027884171674950053
1231.0,0.0029195645282691363
1230.0,0.003050751504618754
1229.0,0.0031382315093266833
1228.0,0.0032257291386954545
1227.0,0.0033570086445275926
1226.0,0.0034445503666347133
1225.0,0.0035321097382827737
1224.0,0.003619686766589858
1223.0,0.0036634819042162814
1222.0,0.003707281458678491
1221.0,0.003707281458678491
1220.0,0.003707281458678491
1219.0,0.0037510854308679953
1218.0,0.003794893821675638
1217.0,0.0038387066319929275
1216.0,0.003926345514724705
1215.0,0.0040578370074493275
1214.0,0.004145520125434121
1213.0,0.004233220950025984
1212.0,0.004277078004534696
1211.0,0.004320939488377862
1210.0,0.0043648054024501
1209.0,0.004452550524862486
1208.0,0.004540313378935901
1207.0,0.004628093971837721
1206.0,0.004715892310740433
1205.0,0.004759798137184523
1204.0,0.004803708402820517
1203.0,0.00484762310854614
1202.0,0.00484762310854614
1201.0,0.00484762310854614
1200.0,0.00484762310854614
1199.0,0.00484762310854614
1198.0,0.00484762310854614
1197.0,0.00489154225525934
1196.0,0.00489154225525934
1195.0,0.00489154225525934
1194.0,0.004979393875242044
1193.0,0.005067263269958211
1192.0,0.005199100705396198
1191.0,0.005330978174470591
1190.0,0.005462895701502157
1189.0,0.005506877116487674
1188.0,0.005550862985963967
1187.0,0.005594853310833647
1186.0,0.005594853310833647
1185.0,0.005594853310833647
1184.0,0.005594853310833647
1183.0,0.005594853310833647
1182.0,0.005638848091999105
1181.0,0.005682847330363394
1180.0,0.005814871797682919
1179.0,0.005990966876386672
1178.0,0.00621118618129457
1177.0,0.006431517210272464
1176.0,0.006607862550997545
1175.0,0.006740168563263094
1174.0,0.006916639301937977
1173.0,0.007004901568658406
1172.0,0.007137328610972382
1171.0,0.007181479933320523
1170.0,0.007225635744644521
1169.0,0.007225635744644521
1168.0,0.007225635744644521
1167.0,0.007269796045857202
1166.0,0.007269796045857202
1165.0,0.007269796045857202
1164.0,0.007269796045857202
1163.0,0.007269796045857202
1162.0,0.007313960837872058
1161.0,0.007358130121602358
1160.0,0.007402303897961815
1159.0,0.0074464821678643656
1158.0,0.007534852191956709
1157.0,0.0075790439479759275
1156.0,0.007667440952535687
1155.0,0.007755855953228474
1154.0,0.007800070204414977
1153.0,0.007800070204414977
1152.0,0.007888512213050314
1151.0,0.007932739972333236
1150.0,0.007976972236149349
1149.0,0.007976972236149349
1148.0,0.007888512213050314
1147.0,0.007888512213050314
1146.0,0.007844288957383316
1145.0,0.007844288957383316
1144.0,0.007844288957383316
1143.0,0.007888512213050314
1142.0,0.007976972236149349
1141.0,0.008065450281052211
1140.0,0.008153946355103248
1139.0,0.008198201155356077
1138.0,0.008153946355103248
1137.0,0.008109696063975047
1136.0,0.008109696063975047
1135.0,0.008198201155356077
1134.0,0.008330992620051436
1133.0,0.00850811108984062
1132.0,0.0087296108049002
1131.0,0.008906891951112605
1130.0,0.008995559669244813
1129.0,0.008995559669244813
1128.0,0.009039900317800775
1127.0,0.009128595198514056
1126.0,0.009306039320248427
1125.0,0.009439170005980158
1124.0,0.009572341514736404
1123.0,0.00966114521239847
1122.0,0.00974996707218323
1121.0,0.009838807101520963
1120.0,0.01001654169860089
1119.0,0.01023881228122181
1118.0,0.01046119667949763
1117.0,0.010683695010048622
1116.0,0.01086177578421088
1115.0,0.010995384301463185
1114.0,0.01117359295472431
1113.0,0.011307297450183107
1112.0,0.011530229790124524
1111.0,0.011842527443247208
1110.0,0.012199714248127602
1109.0,0.012512493866907004
1108.0,0.012825498912458322
1107.0,0.013049212141483357
1106.0,0.01322826573375524
1105.0,0.013496984613259544
1104.0,0.013765869865004277
1103.0,0.014079779876432497
1102.0,0.014349026309051105
1101.0,0.014663358264387139
1100.0,0.014932966849499074
1099.0,0.015247721884586563
1098.0,0.015517693597737248
1097.0,0.015697768020096703
1096.0,0.015832872853011715
1095.0,0.01596801972881945
1094.0,0.016103208673694303
1093.0,0.01628352608625061
1092.0,0.01646391839700767
1091.0,0.016644385668211692
1090.0,0.01677978535189717
1089.0,0.016870075265299933
1088.0,0.016960383953898095
1087.0,0.017050711425501408
1086.0,0.017141057687924732
1085.0,0.017231422748988034
1084.0,0.01727661233145472
1083.0,0.01727661233145472
1082.0,0.017231422748988034
1081.0,0.017141057687924732
1080.0,0.017005545341335804
1079.0,0.016960383953898095
1078.0,0.017005545341335804
1077.0,0.017095882207371904
1076.0,0.017141057687924732
1075.0,0.017095882207371904
1074.0,0.017005545341335804
1073.0,0.016915227262211507
1072.0,0.016960383953898095
1071.0,0.016960383953898095
1070.0,0.016960383953898095
1069.0,0.016870075265299933
1068.0,0.016689514205884493
1067.0,0.016418813294209356
1066.0,0.016148281008528276
1065.0,0.01596801972881945
1064.0,0.015877917138889863
1063.0,0.015922966097169144
1062.0,0.015922966097169144
1061.0,0.01578783323856614
1060.0,0.015517693597737248
1059.0,0.015247721884586563
1058.0,0.014977917890464765
1057.0,0.014753209197138295
1056.0,0.0144837121472845
1055.0,0.014259258949925524
1054.0,0.01403492169512921
1053.0,0.01385553528947936
1052.0,0.013676222949234651
1051.0,0.013496984613259544
1050.0,0.013273040668781544
1049.0,0.013049212141483357
1048.0,0.012780770091995297
1047.0,0.012512493866907004
1046.0,0.012244383261476699
1045.0,0.012021084124518078
1044.0,0.011753276624621556
1043.0,0.011530229790124524
1042.0,0.011262724711199823
1041.0,0.011084479487313281
1040.0,0.01086177578421088
1039.0,0.010683695010048622
1038.0,0.01037222925484893
1037.0,0.01001654169860089
1036.0,0.009616741093766423
1035.0,0.009306039320248427
1034.0,0.00908424549391551
1033.0,0.008951223547323472
1032.0,0.008862564879688284
1031.0,0.0087296108049002
1030.0,0.00850811108984062
1029.0,0.008242460465651913
1028.0,0.007888512213050314
1027.0,0.007534852191956709
1026.0,0.007269796045857202
1025.0,0.007049039429553483
1024.0,0.006872514894289861
1023.0,0.006651960076740071
1022.0,0.006343371384537999
1021.0,0.006079041198713275
1020.0,0.005858888873877532
1019.0,0.005682847330363394
1018.0,0.005550862985963967
1017.0,0.00537494623139545
1016.0,0.005199100705396198
1015.0,0.005023326350308999
1014.0,0.00489154225525934
1013.0,0.004759798137184523
1012.0,0.00458420145758498
1011.0,0.004452550524862486
1010.0,0.004277078004534696
1009.0,0.004101676353562844
1008.0,0.003926345514724705
1007.0,0.0037510854308679953
1006.0,0.0035758960449088217
1005.0,0.0033570086445275926
1004.0,0.0031819781204844855
1003.0,0.0030070181092942683
1002.0,0.0028758443407954637
1001.0,0.0028321285541661467
1000.0,0.0027884171674950053
999.0,0.0027447101798967477
998.0,0.0026573093983774942
997.0,0.002482560585275184
996.0,0.0023078820582733695
995.0,0.0021332737608552588
994.0,0.0020459959305969555
993.0,0.0020023635919956817
992.0,0.002089632653256679
991.0,0.0021332737608552588
990.0,0.0021332737608552588
989.0,0.0020023635919956817
988.0,0.0017842676290416026
987.0,0.0015662811355310335
986.0,0.0013919706849057079
985.0,0.001304841688344327
984.0,0.0012612837441823288
983.0,0.001304841688344327
982.0,0.0014355417390583547
981.0,0.0015226969634936083
980.0,0.0015226969634936083
979.0,0.0014791171649619628
978.0,0.0014355417390583547
977.0,0.0013919706849057079
976.0,0.001348404001626502
975.0,0.001304841688344327
974.0,0.0012612837441823288
973.0,0.0011741809597138886
972.0,0.0010435595295137379
971.0,0.0009565003968372565
970.0,0.0009565003968372565
969.0,0.0009565003968372565
968.0,0.0009129773741116676
967.0,0.0008259444115150671
966.0,0.0008259444115150671
965.0,0.0009129773741116676
964.0,0.0010000277816797354
963.0,0.0010435595295137379
962.0,0.0010870956412141197
961.0,0.0010870956412141197
960.0,0.0010870956412141197
959.0,0.0011306361176557367
958.0,0.0011306361176557367
957.0,0.0011741809597138886
956.0,0.0012177301682640973
955.0,0.0012177301682640973
954.0,0.0012177301682640973
953.0,0.0012177301682640973
952.0,0.0012177301682640973
951.0,0.001304841688344327
950.0,0.001348404001626502
949.0,0.0014355417390583547
948.0,0.0014791171649619628
947.0,0.0015662811355310335
946.0,0.001609869681952425
945.0,0.001609869681952425
944.0,0.001609869681952425
943.0,0.0015662811355310335
942.0,0.0015226969634936083
941.0,0.0015662811355310335
940.0,0.001609869681952425
939.0,0.0016534626036355249
938.0,0.001609869681952425
937.0,0.0015662811355310335
936.0,0.0015226969634936083
935.0,0.0015226969634936083
934.0,0.0015226969634936083
933.0,0.0015662811355310335
932.0,0.0015226969634936083
931.0,0.0015226969634936083
930.0,0.0014791171649619628
929.0,0.0014355417390583547
928.0,0.0014355417390583547
927.0,0.0014355417390583547
926.0,0.0014791171649619628
925.0,0.0014791171649619628
924.0,0.0014791171649619628
923.0,0.0013919706849057079
922.0,0.001304841688344327
921.0,0.0012177301682640973
920.0,0.0011306361176557367
919.0,0.0010000277816797354
918.0,0.0009129773741116676
917.0,0.0008259444115150671
916.0,0.0008259444115150671
915.0,0.0008259444115150671
914.0,0.0007824344698965646
913.0,0.0007824344698965646
912.0,0.0007389288868995258
911.0,0.0006954276616513155
910.0,0.0006519307932786322
909.0,0.0005649501236701937
908.0,0.0004779868710962365
907.0,0.00043451177401765406
906.0,0.0003910410285830057
905.0,0.0003910410285830057
904.0,0.0003910410285830057
903.0,0.00030411258916074324
902.0,0.00021720154586435392
901.0,8.686758342868472e-05
900.0,-4.3427276862573194e-05
899.0,-0.00017368305846510168
898.0,-0.0002604985473904087
897.0,-0.00030389978481260016
896.0,-0.0003472966853634851
895.0,-0.0003906892499099257
894.0,-0.0003472966853634851
893.0,-0.00030389978481260016
892.0,-0.00030389978481260016
891.0,-0.00030389978481260016
890.0,-0.0003906892499099257
889.0,-0.00043407747931878404
888.0,-0.0004774613744551459
887.0,-0.0004774613744551459
886.0,-0.0004774613744551459
885.0,-0.0005208409361854294
884.0,-0.0005642161653756084
883.0,-0.0005208409361854294
882.0,-0.00043407747931878404
881.0,-0.0003906892499099257
880.0,-0.00043407747931878404
879.0,-0.0005208409361854294
878.0,-0.0005642161653756084
877.0,-0.0006509536295951079
876.0,-0.0006943158663546001
875.0,-0.0006943158663546001
874.0,-0.0006509536295951079
873.0,-0.0006509536295951079
872.0,-0.0006509536295951079
871.0,-0.0007376737740329986
870.0,-0.0008677215312267172
869.0,-0.0009543984064577238
868.0,-0.0009543984064577238
867.0,-0.0009977303577937136
866.0,-0.0009977303577937136
865.0,-0.001041057986093552
864.0,-0.0010843812922201046
863.0,-0.001041057986093552
862.0,-0.0008677215312267172
861.0,-0.0006943158663546001
860.0,-0.0005208409361854294
859.0,-0.0005208409361854294
858.0,-0.0006509536295951079
857.0,-0.0008243766056055257
856.0,-0.0009977303577937136
855.0,-0.0011277002770349043
854.0,-0.00121432528617893
853.0,-0.001257631312230778
852.0,-0.00121432528617893
851.0,-0.0010843812922201046
850.0,-0.0008243766056055257
849.0,-0.0006509536295951079
848.0,-0.0006075870628903246
847.0,-0.0007376737740329986
846.0,-0.0009543984064577238
845.0,-0.0011277002770349043
844.0,-0.0011710149414008164
843.0,-0.0010843812922201046
842.0,-0.0009110621312231615
841.0,-0.0008243766056055257
840.0,-0.0008243766056055257
839.0,-0.0008677215312267172
838.0,-0.0008677215312267172
837.0,-0.0009110621312231615
836.0,-0.0010843812922201046
835.0,-0.0013009330204178937
834.0,-0.001474096691732818
833.0,-0.0015606526425728795
832.0,-0.0016039241497978196
831.0,-0.0016039241497978196
830.0,-0.0016039241497978196
829.0,-0.0016039241497978196
828.0,-0.0015606526425728795
827.0,-0.001474096691732818
826.0,-0.0013875234866409514
825.0,-0.0013009330204178937
824.0,-0.001257631312230778
823.0,-0.001344230411601366
822.0,-0.001474096691732818
821.0,-0.0016039241497978196
820.0,-0.001733712809000476
819.0,-0.0016904542321527494
818.0,-0.0015606526425728795
817.0,-0.0014308122463981832
816.0,-0.0013875234866409514
815.0,-0.0014308122463981832
814.0,-0.0015173768235041685
813.0,-0.0015606526425728795
812.0,-0.0015173768235041685
811.0,-0.0013875234866409514
810.0,-0.0011710149414008164
809.0,-0.0009110621312231615
808.0,-0.0006075870628903246
807.0,-0.0003906892499099257
806.0,-0.0002604985473904087
805.0,-0.00021709297223004853
804.0,-0.00021709297223004853
803.0,-0.00017368305846510168
802.0,-0.00017368305846510168
801.0,-0.00021709297223004853
800.0,-0.00017368305846510168
799.0,-8.685021164911433e-05
798.0,-4.3427276862573194e-05
797.0,-8.685021164911433e-05
796.0,-0.00021709297223004853
795.0,-0.0002604985473904087
794.0,-0.00021709297223004853
793.0,-0.00017368305846510168
792.0,-0.00017368305846510168
791.0,-0.00021709297223004853
790.0,-0.00030389978481260016
789.0,-0.0004774613744551459
788.0,-0.0006075870628903246
787.0,-0.0007376737740329986
786.0,-0.0007810273534953893
785.0,-0.0008243766056055257
784.0,-0.0007810273534953893
783.0,-0.0006943158663546001
782.0,-0.0006509536295951079
781.0,-0.0005642161653756084
780.0,-0.0005208409361854294
779.0,-0.0006075870628903246
778.0,-0.0008677215312267172
777.0,-0.00121432528617893
776.0,-0.0015606526425728795
775.0,-0.001776967077439462
774.0,-0.0018202170383281313
773.0,-0.0018634626925240205
772.0,-0.0018202170383281313
771.0,-0.001776967077439462
770.0,-0.0018202170383281313
769.0,-0.0019499410842680476
768.0,-0.0022524799205383417
767.0,-0.0025548081484823015
766.0,-0.0027274726898296464
765.0,-0.0028137792246734072
764.0,-0.002856926061120646
763.0,-0.0029432068763250996
762.0,-0.0029863408567849525
761.0,-0.0029863408567849525
760.0,-0.002900068611387585
759.0,-0.002900068611387585
758.0,-0.0030725959676747294
757.0,-0.0032881588260753603
756.0,-0.0034605321095062536
755.0,-0.0034174452021935586
754.0,-0.0032450548131470747
753.0,-0.003029470553618019
752.0,-0.002856926061120646
751.0,-0.0027706281011936618
750.0,-0.0027706281011936618
749.0,-0.002900068611387585
748.0,-0.003029470553618019
747.0,-0.0030725959676747294
746.0,-0.002900068611387585
745.0,-0.0025548081484823015
744.0,-0.0020796263931210923
743.0,-0.0016039241497978196
742.0,-0.0013875234866409514
741.0,-0.0014308122463981832
740.0,-0.0016904542321527494
739.0,-0.0018202170383281313
738.0,-0.0014308122463981832
737.0,-0.0005208409361854294
736.0,0.0011306361176557367
735.0,0.00401400208620073
734.0,0.008906891951112605
733.0,0.016193358021584725
732.0,0.024568191490736968
731.0,0.03147035562516054
730.0,0.034469056377139484
729.0,0.0332483359486222
728.0,0.029792641193145286
727.0,0.026502691267936695
726.0,0.02498200236711723
725.0,0.02558042614771394
724.0,0.02849221828874393
723.0,0.03414006319292828
722.0,0.0433514207947967
721.0,0.05551732784983132
720.0,0.06767846801070698
719.0,0.07546228222451012
718.0,0.07670415934449615
717.0,0.07232173586200852
716.0,0.06408986356949264
715.0,0.053842605077627725
714.0,0.043303435105349175
713.0,0.03409308450480819
712.0,0.02691835039863255
711.0,0.021773818325474092
710.0,0.018045555530026514
709.0,0.015247721884586563
708.0,0.013317820220494436
707.0,0.012110390002254778
706.0,0.011262724711199823
705.0,0.01037222925484893
704.0,0.009306039320248427
703.0,0.008021209005416363
702.0,0.006651960076740071
701.0,0.005462895701502157
700.0,0.004715892310740433
699.0,0.004628093971837721
698.0,0.00484762310854614
697.0,0.004935465843858511
696.0,0.004628093971837721
695.0,0.004189368323957332
694.0,0.003794893821675638
693.0,0.0034007772998332353
692.0,0.0029195645282691363
691.0,0.0026573093983774942
690.0,0.0027884171674950053
689.0,0.0032694845648473247
688.0,0.0036634819042162814
687.0,0.003619686766589858
686.0,0.0033132443998284966
685.0,0.0030944893043338695
684.0,0.0030070181092942683
683.0,0.0029195645282691363
682.0,0.0027884171674950053
681.0,0.0027447101798967477
680.0,0.002701007590486082
679.0,0.0024388843664115978
678.0,0.0018714928717336043
677.0,0.0014355417390583547
676.0,0.0014355417390583547
675.0,0.0017406615763013722
674.0,0.002089632653256679
673.0,0.002395212539545666
672.0,0.0027447101798967477
671.0,0.0031819781204844855
670.0,0.0034007772998332353
669.0,0.0025262411970197185
668.0,0.0003475746339209884
667.0,-0.0015606526425728795
666.0,-0.002684312989729598
665.0,-0.0034174452021935586
664.0,-0.003675902548784027
663.0,-0.0032450548131470747
662.0,-0.0022956825549340643
661.0,-0.0013009330204178937
660.0,-0.00043407747931878404
659.0,0.0003910410285830057
658.0,0.0009565003968372565
657.0,0.0009129773741116676
656.0,0.00030411258916074324
655.0,-0.00030389978481260016
654.0,-0.0006075870628903246
653.0,-0.0007376737740329986
652.0,-0.0011277002770349043
651.0,-0.001776967077439462
650.0,-0.002338880892056583
649.0,-0.002597980719908577
648.0,-0.002597980719908577
647.0,-0.0026411490000399773
646.0,-0.0026411490000399773
645.0,-0.0025116312849080558
644.0,-0.0021228462251614566
643.0,-0.001776967077439462
642.0,-0.0016904542321527494
641.0,-0.0018202170383281313
640.0,-0.0020796263931210923
639.0,-0.0022524799205383417
638.0,-0.0022524799205383417
637.0,-0.0018634626925240205
636.0,-0.0011277002770349043
635.0,-0.0005208409361854294
634.0,-0.0003906892499099257
633.0,-0.0004774613744551459
632.0,-4.3427276862573194e-05
631.0,0.0007389288868995258
630.0,0.0010870956412141197
629.0,0.0006954276616513155
628.0,0.00017375254558760211
627.0,-4.3427276862573194e-05
626.0,-4.3427276862573194e-05
625.0,-8.685021164911433e-05
624.0,0.0
623.0,0.00043451177401765406
622.0,0.0011306361176557367
621.0,0.0017842676290416026
620.0,0.002351545103793873
619.0,0.0027447101798967477
618.0,0.003050751504618754
617.0,0.0030944893043338695
616.0,0.0026573093983774942
615.0,0.0018714928717336043
614.0,0.0010435595295137379
613.0,0.0005649501236701937
612.0,0.00043451177401765406
611.0,0.0006954276616513155
610.0,0.0014791171649619628
609.0,0.003050751504618754
608.0,0.00489154225525934
607.0,0.00577085918230158
606.0,0.005243055412371911
605.0,0.004277078004534696
604.0,0.004101676353562844
603.0,0.004189368323957332
602.0,0.0030070181092942683
601.0,0.0001303078917322953
600.0,-0.0034174452021935586
