cm-1,A
4000.0,0.041914151478914974
3999.0,0.04200982159316968
3998.0,0.04210551278710151
3997.0,0.042201225070002124
3996.0,0.04229695845116854
3995.0,0.04229695845116854
3994.0,0.042201225070002124
3993.0,0.04200982159316968
3992.0,0.04181850243505214
3991.0,0.041627267521392675
3990.0,0.04153168163305643
3989.0,0.04153168163305643
3988.0,0.041627267521392675
3987.0,0.0417706858116178
3986.0,0.041914151478914974
3985.0,0.04196198390166317
3984.0,0.04186632432376469
3983.0,0.0417706858116178
3982.0,0.04172287445230238
3981.0,0.0417706858116178
3980.0,0.04186632432376469
3979.0,0.041914151478914974
3978.0,0.04186632432376469
3977.0,0.0417706858116178
3976.0,0.041627267521392675
3975.0,0.04153168163305643
3974.0,0.041436116778032606
3973.0,0.041436116778032606
3972.0,0.041436116778032606
3971.0,0.04153168163305643
3970.0,0.04167506835594681
3969.0,0.04186632432376469
3968.0,0.04200982159316968
3967.0,0.042057664554595586
3966.0,0.04200982159316968
3965.0,0.04196198390166317
3964.0,0.041914151478914974
3963.0,0.04196198390166317
3962.0,0.04210551278710151
3961.0,0.04215336629184985
3960.0,0.042057664554595586
3959.0,0.041914151478914974
3958.0,0.04186632432376469
3957.0,0.041914151478914974
3956.0,0.04210551278710151
3955.0,0.04229695845116854
3954.0,0.042392712939904875
3953.0,0.042344833056508824
3952.0,0.04210551278710151
3951.0,0.04186632432376469
3950.0,0.041579471947481794
3949.0,0.041340572947066834
3948.0,0.041149548320321694
3947.0,0.04105406750606355
3946.0,0.04105406750606355
3945.0,0.041149548320321694
3944.0,0.041340572947066834
3943.0,0.041579471947481794
3942.0,0.04172287445230238
3941.0,0.0417706858116178
3940.0,0.041914151478914974
3939.0,0.04224908912272074
3938.0,0.042584285277331047
3937.0,0.042775942156833
3936.0,0.04272802000705722
3935.0,0.04248848854552012
3934.0,0.04229695845116854
3933.0,0.042201225070002124
3932.0,0.04215336629184985
3931.0,0.04224908912272074
3930.0,0.042344833056508824
3929.0,0.042344833056508824
3928.0,0.04224908912272074
3927.0,0.04215336629184985
3926.0,0.042057664554595586
3925.0,0.04196198390166317
3924.0,0.04181850243505214
3923.0,0.041579471947481794
3922.0,0.041483896576958834
3921.0,0.041436116778032606
3920.0,0.041436116778032606
3919.0,0.041483896576958834
3918.0,0.04167506835594681
3917.0,0.04210551278710151
3916.0,0.04253638427006878
3915.0,0.04272802000705722
3914.0,0.042775942156833
3913.0,0.04282386959515394
3912.0,0.04291974034210022
3911.0,0.042967683653061695
3910.0,0.04291974034210022
3909.0,0.04263219156847242
3908.0,0.042201225070002124
3907.0,0.04172287445230238
3906.0,0.04129280891271536
3905.0,0.041006334969674096
3904.0,0.04081545726880842
3903.0,0.04062466342415694
3902.0,0.04043395336207234
3901.0,0.040481623027001756
3900.0,0.04091088563260792
3899.0,0.041340572947066834
3898.0,0.041436116778032606
3897.0,0.041340572947066834
3896.0,0.04124505013091051
3895.0,0.04129280891271536
3894.0,0.04138834223512067
3893.0,0.041483896576958834
3892.0,0.0417706858116178
3891.0,0.042201225070002124
3890.0,0.04224908912272074
3889.0,0.04196198390166317
3888.0,0.041914151478914974
3887.0,0.04224908912272074
3886.0,0.04253638427006878
3885.0,0.04244059810252043
3884.0,0.04200982159316968
3883.0,0.041579471947481794
3882.0,0.041627267521392675
3881.0,0.04200982159316968
3880.0,0.04224908912272074
3879.0,0.04215336629184985
3878.0,0.0417706858116178
3877.0,0.04153168163305643
3876.0,0.041627267521392675
3875.0,0.04186632432376469
3874.0,0.04186632432376469
3873.0,0.041627267521392675
3872.0,0.041340572947066834
3871.0,0.04138834223512067
3870.0,0.041579471947481794
3869.0,0.041436116778032606
3868.0,0.04105406750606355
3867.0,0.040958607678906356
3866.0,0.04153168163305643
3865.0,0.04200982159316968
3864.0,0.042057664554595586
3863.0,0.04200982159316968
3862.0,0.042057664554595586
3861.0,0.04215336629184985
3860.0,0.04215336629184985
3859.0,0.04196198390166317
3858.0,0.04167506835594681
3857.0,0.041197296600497646
3856.0,0.040672354027829094
3855.0,0.0402909757535701
3854.0,0.04043395336207234
3853.0,0.04129280891271536
3852.0,0.04167506835594681
3851.0,0.041149548320321694
3850.0,0.041197296600497646
3849.0,0.04210551278710151
3848.0,0.04291974034210022
3847.0,0.04315950984076644
3846.0,0.0431115453499229
3845.0,0.04291974034210022
3844.0,0.042584285277331047
3843.0,0.04210551278710151
3842.0,0.041483896576958834
3841.0,0.040958607678906356
3840.0,0.04072004986906119
3839.0,0.04072004986906119
3838.0,0.04086316882962593
3837.0,0.04081545726880842
3836.0,0.040529297924893015
3835.0,0.04038628892895613
3834.0,0.040672354027829094
3833.0,0.04138834223512067
3832.0,0.04215336629184985
3831.0,0.04263219156847242
3830.0,0.042775942156833
3829.0,0.042775942156833
3828.0,0.042775942156833
3827.0,0.04291974034210022
3826.0,0.04282386959515394
3825.0,0.04253638427006878
3824.0,0.04215336629184985
3823.0,0.04215336629184985
3822.0,0.042392712939904875
3821.0,0.042584285277331047
3820.0,0.04224908912272074
3819.0,0.041436116778032606
3818.0,0.041149548320321694
3817.0,0.04181850243505214
3816.0,0.04268010314465909
3815.0,0.042967683653061695
3814.0,0.042775942156833
3813.0,0.04272802000705722
3812.0,0.0431115453499229
3811.0,0.0433514207947967
3810.0,0.04325545471730896
3809.0,0.0431115453499229
3808.0,0.043303435105349175
3807.0,0.04363944632667782
3806.0,0.04339941178682327
3805.0,0.04253638427006878
3804.0,0.04167506835594681
3803.0,0.041436116778032606
3802.0,0.04167506835594681
3801.0,0.04196198390166317
3800.0,0.041914151478914974
3799.0,0.041579471947481794
3798.0,0.04181850243505214
3797.0,0.04263219156847242
3796.0,0.04339941178682327
3795.0,0.04387961360698034
3794.0,0.044167989767578186
3793.0,0.04440844959427559
3792.0,0.04460091336073302
3791.0,0.04464904263234004
3790.0,0.04455278942230456
3789.0,0.044456557540257124
3788.0,0.044312249686494276
3787.0,0.04411991377462465
3786.0,0.04411991377462465
3785.0,0.04426415772233416
3784.0,0.044360346976747955
3783.0,0.04426415772233416
3782.0,0.04402377775167454
3781.0,0.04397571771932274
3780.0,0.044167989767578186
3779.0,0.044456557540257124
3778.0,0.04460091336073302
3777.0,0.04460091336073302
3776.0,0.04464904263234004
3775.0,0.044793462458058375
3774.0,0.04484161307420642
3773.0,0.04469717723830824
3772.0,0.04455278942230456
3771.0,0.04455278942230456
3770.0,0.04460091336073302
3769.0,0.04450467081587295
3768.0,0.04421607108308856
3767.0,0.044071843103049346
3766.0,0.04426415772233416
3765.0,0.04455278942230456
3764.0,0.04464904263234004
3763.0,0.04450467081587295
3762.0,0.04440844959427559
3761.0,0.044312249686494276
3760.0,0.04411991377462465
3759.0,0.04402377775167454
3758.0,0.04402377775167454
3757.0,0.0439276630048171
3756.0,0.04363944632667782
3755.0,0.04320747962950522
3754.0,0.04291974034210022
3753.0,0.04253638427006878
3752.0,0.04215336629184985
3751.0,0.04200982159316968
3750.0,0.04224908912272074
3749.0,0.04210551278710151
3748.0,0.041483896576958834
3747.0,0.04124505013091051
3746.0,0.04200982159316968
3745.0,0.043303435105349175
3744.0,0.044312249686494276
3743.0,0.044312249686494276
3742.0,0.0435434165901003
3741.0,0.0433514207947967
3740.0,0.04363944632667782
3739.0,0.04344740808260106
3738.0,0.04287180232318688
3737.0,0.042344833056508824
3736.0,0.042057664554595586
3735.0,0.042057664554595586
3734.0,0.042344833056508824
3733.0,0.04301563225723992
3732.0,0.04387961360698034
3731.0,0.044360346976747955
3730.0,0.044456557540257124
3729.0,0.044456557540257124
3728.0,0.04464904263234004
3727.0,0.04469717723830824
3726.0,0.04455278942230456
3725.0,0.04421607108308856
3724.0,0.04402377775167454
3723.0,0.04402377775167454
3722.0,0.044071843103049346
3721.0,0.044167989767578186
3720.0,0.044360346976747955
3719.0,0.04464904263234004
3718.0,0.044937930324967956
3717.0,0.044986096961949995
3716.0,0.044793462458058375
3715.0,0.04455278942230456
3714.0,0.04440844959427559
3713.0,0.044312249686494276
3712.0,0.04426415772233416
3711.0,0.044456557540257124
3710.0,0.044793462458058375
3709.0,0.04508244626504121
3708.0,0.045323413081356456
3707.0,0.045564513671517703
3706.0,0.04570923829887308
3705.0,0.04575749056067524
3704.0,0.04575749056067524
3703.0,0.04580574818413763
3702.0,0.04575749056067524
3701.0,0.045612749855485024
3700.0,0.04527520902093718
3699.0,0.044986096961949995
3698.0,0.044986096961949995
3697.0,0.04522701031028298
3696.0,0.045323413081356456
3695.0,0.0451788169482068
3694.0,0.04484161307420642
3693.0,0.044456557540257124
3692.0,0.0439276630048171
3691.0,0.0433514207947967
3690.0,0.04320747962950522
3689.0,0.04359142880416744
3688.0,0.0439276630048171
3687.0,0.0437835307566099
3686.0,0.04363944632667782
3685.0,0.0439276630048171
3684.0,0.04450467081587295
3683.0,0.04488976902944808
3682.0,0.04503426894157925
3681.0,0.04503426894157925
3680.0,0.04488976902944808
3679.0,0.04426415772233416
3678.0,0.043303435105349175
3677.0,0.04244059810252043
3676.0,0.04210551278710151
3675.0,0.04215336629184985
3674.0,0.04196198390166317
3673.0,0.041627267521392675
3672.0,0.042057664554595586
3671.0,0.042967683653061695
3670.0,0.04363944632667782
3669.0,0.0439276630048171
3668.0,0.04387961360698034
3667.0,0.0439276630048171
3666.0,0.044312249686494276
3665.0,0.04484161307420642
3664.0,0.04522701031028298
3663.0,0.045516282844447975
3662.0,0.04570923829887308
3661.0,0.04580574818413763
3660.0,0.04580574818413763
3659.0,0.04570923829887308
3658.0,0.04570923829887308
3657.0,0.04575749056067524
3656.0,0.04575749056067524
3655.0,0.04537162249272897
3654.0,0.04460091336073302
3653.0,0.04397571771932274
3652.0,0.0435434165901003
3651.0,0.04291974034210022
3650.0,0.042344833056508824
3649.0,0.04229695845116854
3648.0,0.04272802000705722
3647.0,0.042967683653061695
3646.0,0.04325545471730896
3645.0,0.04383156952463674
3644.0,0.04450467081587295
3643.0,0.04508244626504121
3642.0,0.04541983725624266
3641.0,0.045612749855485024
3640.0,0.04585401117045196
3639.0,0.046192002334692894
3638.0,0.04638525830935958
3637.0,0.04638525830935958
3636.0,0.04628861957244457
3635.0,0.04624030826677128
3634.0,0.046192002334692894
3633.0,0.04595055323640551
3632.0,0.045516282844447975
3631.0,0.0451788169482068
3630.0,0.04513062893352182
3629.0,0.045612749855485024
3628.0,0.04624030826677128
3627.0,0.04633693625290869
3626.0,0.046192002334692894
3625.0,0.046481918555007384
3624.0,0.04686877481655505
3623.0,0.04686877481655505
3622.0,0.04662694927330402
3621.0,0.04633693625290869
3620.0,0.046192002334692894
3619.0,0.04609540658654021
3618.0,0.045902279520810385
3617.0,0.045564513671517703
3616.0,0.04537162249272897
3615.0,0.04541983725624266
3614.0,0.045516282844447975
3613.0,0.04541983725624266
3612.0,0.04508244626504121
3611.0,0.044793462458058375
3610.0,0.04488976902944808
3609.0,0.04541983725624266
3608.0,0.046143701775014145
3607.0,0.04682039893436585
3606.0,0.04730440041308315
3605.0,0.047691990337874746
3604.0,0.047934409814949674
3603.0,0.04807992647970649
3602.0,0.04803141550708934
3601.0,0.047934409814949674
3600.0,0.04774046340917959
3599.0,0.04754660357696672
3598.0,0.047352830241056854
3597.0,0.04715914332429838
3596.0,0.04701393480294458
3595.0,0.047062332249019345
3594.0,0.04720755695590784
3593.0,0.04740126547022694
3592.0,0.04744970610179822
3591.0,0.04740126547022694
3590.0,0.04730440041308315
3589.0,0.047352830241056854
3588.0,0.04749815213697639
3587.0,0.0478374257855374
3586.0,0.047982909952573705
3585.0,0.047934409814949674
3584.0,0.04803141550708934
3583.0,0.04827402457540786
3582.0,0.048468209457651845
3581.0,0.048565334467987054
3580.0,0.048565334467987054
3579.0,0.048565334467987054
3578.0,0.048565334467987054
3577.0,0.048565334467987054
3576.0,0.04851676924770687
3575.0,0.048565334467987054
3574.0,0.04871106272232795
3573.0,0.048905443158337114
3572.0,0.04900266601119507
3571.0,0.048905443158337114
3570.0,0.048468209457651845
3569.0,0.047885915093007325
3568.0,0.04720755695590784
3567.0,0.04667530361081473
3566.0,0.04653025674659861
3565.0,0.04667530361081473
3564.0,0.04711073508906982
3563.0,0.047643522676209304
3562.0,0.04817696468408794
3561.0,0.048468209457651845
3560.0,0.0486139051197072
3559.0,0.0486139051197072
3558.0,0.04871106272232795
3557.0,0.048954051864180226
3556.0,0.04919717703534143
3555.0,0.04939177521576932
3554.0,0.04948910701400333
3553.0,0.04939177521576932
3552.0,0.049245818406496555
3551.0,0.04905128560059957
3550.0,0.04875964967565971
3549.0,0.04851676924770687
3548.0,0.04832256265669943
3547.0,0.04827402457540786
3546.0,0.04851676924770687
3545.0,0.04905128560059957
3544.0,0.04963514562387683
3543.0,0.050073556332087765
3542.0,0.05026854768429301
3541.0,0.05026854768429301
3540.0,0.050073556332087765
3539.0,0.04982994019179987
3538.0,0.04973253198641148
3537.0,0.04973253198641148
3536.0,0.04973253198641148
3535.0,0.04968383607539972
3534.0,0.04948910701400333
3533.0,0.04934311749548925
3532.0,0.049294465226138895
3531.0,0.049294465226138895
3530.0,0.04939177521576932
3529.0,0.04948910701400333
3528.0,0.04953778109440221
3527.0,0.04948910701400333
3526.0,0.04934311749548925
3525.0,0.049245818406496555
3524.0,0.04948910701400333
3523.0,0.049927370249842395
3522.0,0.050317309204795935
3521.0,0.050414848673348
3520.0,0.05026854768429301
3519.0,0.050073556332087765
3518.0,0.049927370249842395
3517.0,0.04987865248862655
3516.0,0.049927370249842395
3515.0,0.049927370249842395
3514.0,0.049927370249842395
3513.0,0.04987865248862655
3512.0,0.04973253198641148
3511.0,0.04963514562387683
3510.0,0.04963514562387683
3509.0,0.04978123335813667
3508.0,0.05002482217034632
3507.0,0.050171041064686284
3506.0,0.05021979163799939
3505.0,0.05021979163799939
3504.0,0.05012229596312534
3503.0,0.04997609347667353
3502.0,0.04982994019179987
3501.0,0.04973253198641148
3500.0,0.04973253198641148
3499.0,0.04978123335813667
3498.0,0.049927370249842395
3497.0,0.050073556332087765
3496.0,0.05021979163799939
3495.0,0.050414848673348
3494.0,0.050707598587974356
3493.0,0.05095170768433621
3492.0,0.051098239029786274
3491.0,0.051049389754451946
3490.0,0.05085404758005607
3489.0,0.05075640943173498
3488.0,0.05075640943173498
3487.0,0.05095170768433621
3486.0,0.051098239029786274
3485.0,0.05114709380028648
3484.0,0.05100054597304693
3483.0,0.050805225762017736
3482.0,0.05075640943173498
3481.0,0.050902874887084115
3480.0,0.051098239029786274
3479.0,0.05129369109514803
3478.0,0.05139145012356372
3477.0,0.05129369109514803
3476.0,0.05114709380028648
3475.0,0.05095170768433621
3474.0,0.05085404758005607
3473.0,0.050805225762017736
3472.0,0.05075640943173498
3471.0,0.050707598587974356
3470.0,0.0506099933550872
3469.0,0.05051241005349638
3468.0,0.050463626623857394
3467.0,0.05056119896349576
3466.0,0.05075640943173498
3465.0,0.05100054597304693
3464.0,0.051098239029786274
3463.0,0.05119595406718891
3462.0,0.05119595406718891
3461.0,0.051244819831730126
3460.0,0.05129369109514803
3459.0,0.05134256785867963
3458.0,0.05139145012356372
3457.0,0.05153812993871654
3456.0,0.05163594401163074
3455.0,0.051684859310652254
3454.0,0.0515870342213991
3453.0,0.05148923116234294
3452.0,0.05144033789103841
3451.0,0.05144033789103841
3450.0,0.05144033789103841
3449.0,0.05139145012356372
3448.0,0.051244819831730126
3447.0,0.05100054597304693
3446.0,0.05075640943173498
3445.0,0.0506099933550872
3444.0,0.0506099933550872
3443.0,0.05075640943173498
3442.0,0.05100054597304693
3441.0,0.05129369109514803
3440.0,0.05153812993871654
3439.0,0.05173378011970464
3438.0,0.0518316382728683
3437.0,0.0518316382728683
3436.0,0.05192951848105887
3435.0,0.05207638016827354
3434.0,0.05222329153526162
3433.0,0.05217431555754937
3432.0,0.05197846685889629
3431.0,0.05178270644002936
3430.0,0.05163594401163074
3429.0,0.05173378011970464
3428.0,0.05192951848105887
3427.0,0.05227227303668425
3426.0,0.0525172634430815
3425.0,0.05261529831525902
3424.0,0.0525172634430815
3423.0,0.05232126006306337
3422.0,0.05222329153526162
3421.0,0.05222329153526162
3420.0,0.05217431555754937
3419.0,0.052027420754219955
3418.0,0.0518316382728683
3417.0,0.051684859310652254
3416.0,0.05163594401163074
3415.0,0.05163594401163074
3414.0,0.05173378011970464
3413.0,0.05188057561946402
3412.0,0.05217431555754937
3411.0,0.0525172634430815
3410.0,0.05290953578037816
3409.0,0.0531548860393769
3408.0,0.053203972728539606
3407.0,0.05300765925162776
3406.0,0.05261529831525902
3405.0,0.05222329153526162
3404.0,0.05192951848105887
3403.0,0.05178270644002936
3402.0,0.05178270644002936
3401.0,0.05197846685889629
3400.0,0.05222329153526162
3399.0,0.052468254304406825
3398.0,0.05261529831525902
3397.0,0.05256627811294923
3396.0,0.05232126006306337
3395.0,0.05212534510230182
3394.0,0.05217431555754937
3393.0,0.052468254304406825
3392.0,0.05290953578037816
3391.0,0.0531548860393769
3390.0,0.05310580489767336
3389.0,0.05286048235717078
3388.0,0.05261529831525902
3387.0,0.052419250695677544
3386.0,0.05222329153526162
3385.0,0.05207638016827354
3384.0,0.05192951848105887
3383.0,0.05188057561946402
3382.0,0.05207638016827354
3381.0,0.05232126006306337
3380.0,0.05256627811294923
3379.0,0.05271335532220167
3378.0,0.052762392129333646
3377.0,0.05281143447390635
3376.0,0.05286048235717078
3375.0,0.05295859474477971
3374.0,0.05305672930217464
3373.0,0.0531548860393769
3372.0,0.0531548860393769
3371.0,0.053203972728539606
3370.0,0.05325306496641513
3369.0,0.05340037498486727
3368.0,0.053449489430144714
3367.0,0.053449489430144714
3366.0,0.05340037498486727
3365.0,0.05325306496641513
3364.0,0.05310580489767336
3363.0,0.05300765925162776
3362.0,0.05286048235717078
3361.0,0.05271335532220167
3360.0,0.05261529831525902
3359.0,0.052468254304406825
3358.0,0.05237025261564554
3357.0,0.05227227303668425
3356.0,0.05227227303668425
3355.0,0.05232126006306337
3354.0,0.05237025261564554
3353.0,0.052468254304406825
3352.0,0.05256627811294923
3351.0,0.052762392129333646
3350.0,0.05290953578037816
3349.0,0.05305672930217464
3348.0,0.05300765925162776
3347.0,0.05290953578037816
3346.0,0.05271335532220167
3345.0,0.05261529831525902
3344.0,0.05261529831525902
3343.0,0.05271335532220167
3342.0,0.05286048235717078
3341.0,0.05305672930217464
3340.0,0.05310580489767336
3339.0,0.05310580489767336
3338.0,0.05305672930217464
3337.0,0.05305672930217464
3336.0,0.05310580489767336
3335.0,0.05310580489767336
3334.0,0.05300765925162776
3333.0,0.05290953578037816
3332.0,0.05290953578037816
3331.0,0.05310580489767336
3330.0,0.05340037498486727
3329.0,0.053596866100945384
3328.0,0.053596866100945384
3327.0,0.053449489430144714
3326.0,0.053351266093323746
3325.0,0.05330216275425803
3324.0,0.05330216275425803
3323.0,0.053351266093323746
3322.0,0.05330216275425803
3321.0,0.053203972728539606
3320.0,0.05310580489767336
3319.0,0.05310580489767336
3318.0,0.053203972728539606
3317.0,0.05330216275425803
3316.0,0.053351266093323746
3315.0,0.05325306496641513
3314.0,0.0531548860393769
3313.0,0.05300765925162776
3312.0,0.05286048235717078
3311.0,0.05266432405126009
3310.0,0.0525172634430815
3309.0,0.052419250695677544
3308.0,0.05256627811294923
3307.0,0.052762392129333646
3306.0,0.05290953578037816
3305.0,0.05300765925162776
3304.0,0.05310580489767336
3303.0,0.05310580489767336
3302.0,0.05310580489767336
3301.0,0.05300765925162776
3300.0,0.05286048235717078
3299.0,0.052762392129333646
3298.0,0.052762392129333646
3297.0,0.05295859474477971
3296.0,0.053203972728539606
3295.0,0.053351266093323746
3294.0,0.053351266093323746
3293.0,0.05330216275425803
3292.0,0.05325306496641513
3291.0,0.053203972728539606
3290.0,0.0531548860393769
3289.0,0.05310580489767336
3288.0,0.05305672930217464
3287.0,0.05300765925162776
3286.0,0.05300765925162776
3285.0,0.0531548860393769
3284.0,0.053351266093323746
3283.0,0.05354773498692689
3282.0,0.053596866100945384
3281.0,0.0534986094304124
3280.0,0.05325306496641513
3279.0,0.05300765925162776
3278.0,0.05286048235717078
3277.0,0.05286048235717078
3276.0,0.05295859474477971
3275.0,0.0531548860393769
3274.0,0.053351266093323746
3273.0,0.05354773498692689
3272.0,0.053646002773725554
3271.0,0.05369514500652506
3270.0,0.053646002773725554
3269.0,0.05354773498692689
3268.0,0.053351266093323746
3267.0,0.05305672930217464
3266.0,0.05286048235717078
3265.0,0.05281143447390635
3264.0,0.05286048235717078
3263.0,0.05305672930217464
3262.0,0.05325306496641513
3261.0,0.053449489430144714
3260.0,0.053646002773725554
3259.0,0.05374429280060267
3258.0,0.05374429280060267
3257.0,0.053646002773725554
3256.0,0.053449489430144714
3255.0,0.05330216275425803
3254.0,0.053203972728539606
3253.0,0.053203972728539606
3252.0,0.05325306496641513
3251.0,0.05330216275425803
3250.0,0.05330216275425803
3249.0,0.05325306496641513
3248.0,0.0531548860393769
3247.0,0.05295859474477971
3246.0,0.05271335532220167
3245.0,0.052468254304406825
3244.0,0.05222329153526162
3243.0,0.052027420754219955
3242.0,0.05197846685889629
3241.0,0.05207638016827354
3240.0,0.05222329153526162
3239.0,0.05237025261564554
3238.0,0.052468254304406825
3237.0,0.05256627811294923
3236.0,0.05266432405126009
3235.0,0.05290953578037816
3234.0,0.05305672930217464
3233.0,0.05310580489767336
3232.0,0.05300765925162776
3231.0,0.05281143447390635
3230.0,0.05266432405126009
3229.0,0.05261529831525902
3228.0,0.0525172634430815
3227.0,0.052468254304406825
3226.0,0.052468254304406825
3225.0,0.05256627811294923
3224.0,0.05281143447390635
3223.0,0.05305672930217464
3222.0,0.053203972728539606
3221.0,0.05325306496641513
3220.0,0.05325306496641513
3219.0,0.053203972728539606
3218.0,0.05310580489767336
3217.0,0.05300765925162776
3216.0,0.05290953578037816
3215.0,0.05295859474477971
3214.0,0.05305672930217464
3213.0,0.05310580489767336
3212.0,0.05310580489767336
3211.0,0.05305672930217464
3210.0,0.0531548860393769
3209.0,0.05325306496641513
3208.0,0.053351266093323746
3207.0,0.053351266093323746
3206.0,0.05330216275425803
3205.0,0.0531548860393769
3204.0,0.05300765925162776
3203.0,0.05281143447390635
3202.0,0.052762392129333646
3201.0,0.05281143447390635
3200.0,0.05290953578037816
3199.0,0.05295859474477971
3198.0,0.05295859474477971
3197.0,0.05295859474477971
3196.0,0.05300765925162776
3195.0,0.05310580489767336
3194.0,0.0531548860393769
3193.0,0.0531548860393769
3192.0,0.053203972728539606
3191.0,0.05325306496641513
3190.0,0.05330216275425803
3189.0,0.053351266093323746
3188.0,0.053351266093323746
3187.0,0.05340037498486727
3186.0,0.053351266093323746
3185.0,0.0531548860393769
3184.0,0.05295859474477971
3183.0,0.05281143447390635
3182.0,0.05286048235717078
3181.0,0.05295859474477971
3180.0,0.05310580489767336
3179.0,0.0531548860393769
3178.0,0.0531548860393769
3177.0,0.0531548860393769
3176.0,0.053203972728539606
3175.0,0.05325306496641513
3174.0,0.05325306496641513
3173.0,0.05325306496641513
3172.0,0.05325306496641513
3171.0,0.053351266093323746
3170.0,0.053351266093323746
3169.0,0.053351266093323746
3168.0,0.0531548860393769
3167.0,0.05295859474477971
3166.0,0.05290953578037816
3165.0,0.05305672930217464
3164.0,0.05330216275425803
3163.0,0.05354773498692689
3162.0,0.053596866100945384
3161.0,0.0534986094304124
3160.0,0.05340037498486727
3159.0,0.053351266093323746
3158.0,0.05325306496641513
3157.0,0.05310580489767336
3156.0,0.05295859474477971
3155.0,0.052762392129333646
3154.0,0.05261529831525902
3153.0,0.05261529831525902
3152.0,0.05271335532220167
3151.0,0.05281143447390635
3150.0,0.05286048235717078
3149.0,0.052762392129333646
3148.0,0.05261529831525902
3147.0,0.0525172634430815
3146.0,0.052468254304406825
3145.0,0.052468254304406825
3144.0,0.0525172634430815
3143.0,0.05256627811294923
3142.0,0.05261529831525902
3141.0,0.05271335532220167
3140.0,0.05281143447390635
3139.0,0.05295859474477971
3138.0,0.05305672930217464
3137.0,0.05305672930217464
3136.0,0.05286048235717078
3135.0,0.05261529831525902
3134.0,0.0525172634430815
3133.0,0.05261529831525902
3132.0,0.052762392129333646
3131.0,0.05281143447390635
3130.0,0.05261529831525902
3129.0,0.05237025261564554
3128.0,0.05217431555754937
3127.0,0.05217431555754937
3126.0,0.05212534510230182
3125.0,0.05207638016827354
3124.0,0.05207638016827354
3123.0,0.05217431555754937
3122.0,0.05227227303668425
3121.0,0.05222329153526162
3120.0,0.05197846685889629
3119.0,0.05163594401163074
3118.0,0.05144033789103841
3117.0,0.05134256785867963
3116.0,0.05134256785867963
3115.0,0.051244819831730126
3114.0,0.05114709380028648
3113.0,0.051098239029786274
3112.0,0.051098239029786274
3111.0,0.051098239029786274
3110.0,0.051098239029786274
3109.0,0.051244819831730126
3108.0,0.05139145012356372
3107.0,0.05144033789103841
3106.0,0.05134256785867963
3105.0,0.05114709380028648
3104.0,0.050902874887084115
3103.0,0.050707598587974356
3102.0,0.05056119896349576
3101.0,0.05056119896349576
3100.0,0.0506099933550872
3099.0,0.05065879322950262
3098.0,0.0506099933550872
3097.0,0.05056119896349576
3096.0,0.05051241005349638
3095.0,0.050414848673348
3094.0,0.050317309204795935
3093.0,0.050171041064686284
3092.0,0.04997609347667353
3091.0,0.04982994019179987
3090.0,0.04963514562387683
3089.0,0.04948910701400333
3088.0,0.04944043838819989
3087.0,0.04948910701400333
3086.0,0.04968383607539972
3085.0,0.04982994019179987
3084.0,0.04982994019179987
3083.0,0.04973253198641148
3082.0,0.04958646063061889
3081.0,0.04948910701400333
3080.0,0.04948910701400333
3079.0,0.04944043838819989
3078.0,0.04939177521576932
3077.0,0.049245818406496555
3076.0,0.04905128560059957
3075.0,0.048808242065293994
3074.0,0.048565334467987054
3073.0,0.04841965509660828
3072.0,0.04832256265669943
3071.0,0.048225491918274965
3070.0,0.04817696468408794
3069.0,0.04807992647970649
3068.0,0.04807992647970649
3067.0,0.04807992647970649
3066.0,0.04803141550708934
3065.0,0.0478374257855374
3064.0,0.047595060422975566
3063.0,0.04740126547022694
3062.0,0.04730440041308315
3061.0,0.047352830241056854
3060.0,0.04740126547022694
3059.0,0.04740126547022694
3058.0,0.04730440041308315
3057.0,0.04711073508906982
3056.0,0.0469171560879138
3055.0,0.04672366333269573
3054.0,0.04657860031896477
3053.0,0.04653025674659861
3052.0,0.04653025674659861
3051.0,0.046481918555007384
3050.0,0.04643358574299339
3049.0,0.04638525830935958
3048.0,0.04633693625290869
3047.0,0.046192002334692894
3046.0,0.045902279520810385
3045.0,0.045516282844447975
3044.0,0.04522701031028298
3043.0,0.044986096961949995
3042.0,0.04488976902944808
3041.0,0.04474531717982
3040.0,0.04450467081587295
3039.0,0.04411991377462465
3038.0,0.043735497301724546
3037.0,0.04344740808260106
3036.0,0.0433514207947967
3035.0,0.0433514207947967
3034.0,0.04325545471730896
3033.0,0.043063586155803746
3032.0,0.04287180232318688
3031.0,0.042584285277331047
3030.0,0.04229695845116854
3029.0,0.04196198390166317
3028.0,0.04172287445230238
3027.0,0.041483896576958834
3026.0,0.04138834223512067
3025.0,0.04129280891271536
3024.0,0.041149548320321694
3023.0,0.04086316882962593
3022.0,0.04057697805689475
3021.0,0.0402909757535701
3020.0,0.0400527842915015
3019.0,0.03967194946985697
3018.0,0.03919637508823026
3017.0,0.038673844065289176
3016.0,0.03824678581321739
3015.0,0.03791491948264003
3014.0,0.03767802727041558
3013.0,0.03744126420403626
3012.0,0.0371100126082089
3011.0,0.036542739883292485
3010.0,0.03583468937826462
3009.0,0.03508070571335731
3008.0,0.034516075754861264
3007.0,0.03414006319292828
3006.0,0.033952178923546183
3005.0,0.03376437590141812
3004.0,0.03343591590268957
3003.0,0.032920265855503006
3002.0,0.032311649546687526
3001.0,0.03175060589208267
3000.0,0.031236951802751545
2999.0,0.030770520137356927
2998.0,0.030351159519274695
2997.0,0.029978734171634214
2996.0,0.029653123769906697
2995.0,0.02932775731028059
2994.0,0.028956208163971375
2993.0,0.02849221828874393
2992.0,0.02798240132598462
2991.0,0.027334407733889066
2990.0,0.026595025589939425
2989.0,0.025902996205869
2988.0,0.02539620791296726
2987.0,0.02512002699306959
2986.0,0.025028005701930978
2985.0,0.025028005701930978
2984.0,0.025028005701930978
2983.0,0.02498200236711723
2982.0,0.024936003904763915
2981.0,0.02498200236711723
2980.0,0.02512002699306959
2979.0,0.02539620791296726
2978.0,0.025764722556973707
2977.0,0.026225806029419818
2976.0,0.026872146400301444
2975.0,0.027797161620935595
2974.0,0.02904906565457588
2973.0,0.03067729388779794
2972.0,0.032686081712916426
2971.0,0.03522197797762394
2970.0,0.03829421599749461
2969.0,0.041914151478914974
2968.0,0.046047116768076934
2967.0,0.05065879322950262
2966.0,0.05561604235915585
2965.0,0.06093025007657582
2964.0,0.0666645899223488
2963.0,0.07273231918911849
2962.0,0.07904229404455076
2961.0,0.08512818245994969
2960.0,0.09071147583774919
2959.0,0.0955549589230904
2958.0,0.09952362861074304
2957.0,0.10270287794050348
2956.0,0.1052410056281079
2955.0,0.10746019534136453
2954.0,0.10969078310005154
2953.0,0.11215773489264302
2952.0,0.114865033936566
2951.0,0.11781711236973003
2950.0,0.12061736282565727
2949.0,0.12274386688641381
2948.0,0.12378215940835768
2947.0,0.1233203895807995
2946.0,0.12124847982699793
2945.0,0.1175323851046286
2944.0,0.11266406960083297
2943.0,0.1071265931112344
2942.0,0.10138450258381404
2941.0,0.09593394808549704
2940.0,0.09097914578884403
2939.0,0.08666307406737683
2938.0,0.08312512146131668
2937.0,0.08045124103115198
2936.0,0.07867775641617802
2935.0,0.07784567476894111
2934.0,0.07784567476894111
2933.0,0.07862570458152551
2932.0,0.08003329851661278
2931.0,0.08207457793525874
2930.0,0.08470571697731355
2929.0,0.08783110394037297
2928.0,0.09124698081546634
2927.0,0.09485199814398393
2926.0,0.09854167860388774
2925.0,0.1022080180607754
2924.0,0.10568393731556158
2923.0,0.10896458468468917
2922.0,0.11221396516162851
2921.0,0.11548784080960606
2920.0,0.1190150095132465
2919.0,0.12274386688641381
2918.0,0.12644690648638135
2917.0,0.12971317100740865
2916.0,0.1322379753497993
2915.0,0.13388996015562338
2914.0,0.1345998818206986
2913.0,0.134659094375416
2912.0,0.13430394008392943
2911.0,0.13371266091580503
2910.0,0.1331221856625011
2909.0,0.13259144347720886
2908.0,0.132179091954427
2907.0,0.1318847946727828
2906.0,0.13170831198214428
2905.0,0.13159069668503998
2904.0,0.13135556160517425
2903.0,0.1308269726783169
2902.0,0.12988884463559924
2901.0,0.12854382597704617
2900.0,0.12697018793895576
2899.0,0.1252863112422209
2898.0,0.12360893818081231
2897.0,0.12188051530283239
2896.0,0.12004441487725082
2895.0,0.11827306462358211
2894.0,0.1165089098110701
2893.0,0.11492161585077598
2892.0,0.11345287660889425
2891.0,0.11210151190312767
2890.0,0.11086644403327606
2889.0,0.10980261378997125
2888.0,0.10913206118855912
2887.0,0.10874138309586101
2886.0,0.10868560061785693
2885.0,0.10879717273970457
2884.0,0.10890877353227624
2883.0,0.10907622851098608
2882.0,0.10941133229451272
2881.0,0.11002636159600376
2880.0,0.11103465569966264
2879.0,0.11215773489264302
2878.0,0.11317099532301778
2877.0,0.11390426756225258
2876.0,0.11429961987167014
2875.0,0.11441264381034388
2874.0,0.11441264381034388
2873.0,0.11441264381034388
2872.0,0.1145256971708426
2871.0,0.114865033936566
2870.0,0.11554450392951199
2869.0,0.1165657063169907
2868.0,0.11787408022996826
2867.0,0.11930071078129845
2866.0,0.12067469921519258
2865.0,0.12153565465853111
2864.0,0.12153565465853111
2863.0,0.12050271275057156
2862.0,0.11844417020668851
2861.0,0.1157145376603248
2860.0,0.11272036546997688
2859.0,0.10969078310005154
2858.0,0.10679324694015202
2857.0,0.10408045468998406
2856.0,0.10165883427249067
2855.0,0.09952362861074304
2854.0,0.09767069414168117
2853.0,0.09620485725896466
2852.0,0.09496007192378841
2851.0,0.09404230090757282
2850.0,0.0935033402006471
2849.0,0.09334178232840018
2848.0,0.09361107884716913
2847.0,0.09431203228814788
2846.0,0.09544673702322726
2845.0,0.09707290398273716
2844.0,0.09930522554760213
2843.0,0.1022080180607754
2842.0,0.10590557267730127
2841.0,0.11025022473596224
2840.0,0.11514801725400226
2839.0,0.1202162199095842
2838.0,0.12476505354983503
2837.0,0.12842706445412122
2836.0,0.13076828026902376
2835.0,0.13176713157753506
2834.0,0.1314731132317961
2833.0,0.13018179202067182
2832.0,0.1280769681176266
2831.0,0.12546020292898974
2830.0,0.12257105921178035
2829.0,0.11981544717356662
2828.0,0.11736163830396129
2827.0,0.11526126223036814
2826.0,0.1133401021387972
2825.0,0.11153968196461372
2824.0,0.10991447328367476
2823.0,0.10846254232743546
2822.0,0.10723776538418317
2821.0,0.10623823794205656
2820.0,0.10535169620648288
2819.0,0.10463271122663809
2818.0,0.10385974855798041
2817.0,0.10297804393963661
2816.0,0.10204318999304807
2815.0,0.10116516193172598
2814.0,0.10045306890913297
2813.0,0.09990609845660159
2812.0,0.09946901754724413
2811.0,0.0990869322623309
2810.0,0.09865067458435761
2809.0,0.09821485469640057
2808.0,0.09772507952549825
2807.0,0.0972358560759139
2806.0,0.09685572959046151
2805.0,0.09658441423091357
2804.0,0.09631326826349751
2803.0,0.0960964733098364
2802.0,0.09587978652380036
2801.0,0.09560907998763835
2800.0,0.09528445472131919
2799.0,0.09496007192378841
2798.0,0.09452793807529569
2797.0,0.09415017335768128
2796.0,0.09388054245443844
2795.0,0.09366495819490939
2794.0,0.09344948089854999
2793.0,0.09323411045927221
2792.0,0.09291125492570451
2791.0,0.09248115389337075
2790.0,0.09205147838772776
2789.0,0.0917831469106074
2788.0,0.09156860103399356
2787.0,0.09130056764777605
2786.0,0.09097914578884403
2785.0,0.09060445403289452
2784.0,0.09028354676565531
2783.0,0.0900697402471693
2782.0,0.08974922769985194
2781.0,0.08942895151874142
2780.0,0.08916223500731646
2779.0,0.08900228368935714
2778.0,0.08894897967187343
2777.0,0.08884239126002336
2776.0,0.08862929288386212
2775.0,0.08830984124613894
2774.0,0.08799062441302175
2773.0,0.08772478950118767
2772.0,0.08751223866767632
2771.0,0.08735289378168276
2770.0,0.0872466963286771
2769.0,0.08719360733870762
2768.0,0.08719360733870762
2767.0,0.08714052483764512
2766.0,0.0870343792958963
2765.0,0.0867691288864394
2764.0,0.08645104209348209
2763.0,0.08618614761628329
2762.0,0.08602728844902896
2761.0,0.08602728844902896
2760.0,0.08602728844902896
2759.0,0.08597434830367123
2758.0,0.08586848736910624
2757.0,0.08576265223225898
2756.0,0.0856568428805593
2755.0,0.08555105930144569
2754.0,0.0854453014823664
2753.0,0.08533956941077814
2752.0,0.08528671302637614
2751.0,0.08523386307414738
2750.0,0.08518101955252688
2749.0,0.08507535179485148
2748.0,0.08496970974083906
2747.0,0.08491689834879956
2746.0,0.08481129482684358
2745.0,0.08470571697731355
2744.0,0.08449463824562353
2743.0,0.08438913733853282
2742.0,0.08423093401631587
2741.0,0.08412549714230844
2740.0,0.08396738981143059
2739.0,0.08396738981143059
2738.0,0.08412549714230844
2737.0,0.08438913733853282
2736.0,0.08460016478773014
2735.0,0.08460016478773014
2734.0,0.08449463824562353
2733.0,0.08438913733853282
2732.0,0.08428366205400617
2731.0,0.08412549714230844
2730.0,0.08407278830288423
2729.0,0.08402008585977572
2728.0,0.08412549714230844
2727.0,0.08433639649422697
2726.0,0.08449463824562353
2725.0,0.08460016478773014
2724.0,0.08460016478773014
2723.0,0.08460016478773014
2722.0,0.08465293767580806
2721.0,0.08481129482684358
2720.0,0.08491689834879956
2719.0,0.08491689834879956
2718.0,0.08486409337798806
2717.0,0.08486409337798806
2716.0,0.08491689834879956
2715.0,0.08491689834879956
2714.0,0.08475850269380558
2713.0,0.08449463824562353
2712.0,0.08423093401631587
2711.0,0.08407278830288423
2710.0,0.08407278830288423
2709.0,0.08412549714230844
2708.0,0.08417821237960132
2707.0,0.08412549714230844
2706.0,0.08402008585977572
2705.0,0.0838620168928248
2704.0,0.08370400543686918
2703.0,0.08359869639612438
2702.0,0.08354605145007499
2701.0,0.08359869639612438
2700.0,0.08354605145007499
2699.0,0.08349341288484435
2698.0,0.0833881548906541
2697.0,0.08333553545860273
2696.0,0.08328292240118751
2695.0,0.0832303157168639
2694.0,0.08317771540408803
2693.0,0.08312512146131668
2692.0,0.0830725338870073
2691.0,0.08312512146131668
2690.0,0.08317771540408803
2689.0,0.0832303157168639
2688.0,0.08317771540408803
2687.0,0.08312512146131668
2686.0,0.0830725338870073
2685.0,0.08286224724355584
2684.0,0.08254700807033655
2683.0,0.0823369756726251
2682.0,0.08228448344050654
2681.0,0.08244197917456386
2680.0,0.08259953204474924
2679.0,0.08259953204474924
2678.0,0.08249449044745338
2677.0,0.0823369756726251
2676.0,0.08228448344050654
2675.0,0.0823369756726251
2674.0,0.08254700807033655
2673.0,0.08270459905431071
2672.0,0.08275714209253371
2671.0,0.08280969148843575
2670.0,0.08280969148843575
2669.0,0.08286224724355584
2668.0,0.08286224724355584
2667.0,0.08280969148843575
2666.0,0.08275714209253371
2665.0,0.08270459905431071
2664.0,0.08270459905431071
2663.0,0.08275714209253371
2662.0,0.08280969148843575
2661.0,0.08286224724355584
2660.0,0.08280969148843575
2659.0,0.08265206237222844
2658.0,0.08238947425013277
2657.0,0.08217951800630297
2656.0,0.08202211740709164
2655.0,0.08202211740709164
2654.0,0.08202211740709164
2653.0,0.08202211740709164
2652.0,0.08191721535781271
2651.0,0.08170748724464438
2650.0,0.08160266115629988
2649.0,0.08160266115629988
2648.0,0.08170748724464438
2647.0,0.08186477383364066
2646.0,0.08202211740709164
2645.0,0.08212704480115218
2644.0,0.08217951800630297
2643.0,0.08212704480115218
2642.0,0.08202211740709164
2641.0,0.08191721535781271
2640.0,0.08186477383364066
2639.0,0.08175990977858505
2638.0,0.08170748724464438
2637.0,0.08160266115629988
2636.0,0.08160266115629988
2635.0,0.08165507103772507
2634.0,0.08175990977858505
2633.0,0.08191721535781271
2632.0,0.08191721535781271
2631.0,0.08181233864107451
2630.0,0.08175990977858505
2629.0,0.08175990977858505
2628.0,0.08181233864107451
2627.0,0.08175990977858505
2626.0,0.08170748724464438
2625.0,0.08175990977858505
2624.0,0.08186477383364066
2623.0,0.08202211740709164
2622.0,0.08207457793525874
2621.0,0.08212704480115218
2620.0,0.08207457793525874
2619.0,0.08202211740709164
2618.0,0.08202211740709164
2617.0,0.08196966321511989
2616.0,0.08191721535781271
2615.0,0.08175990977858505
2614.0,0.08165507103772507
2613.0,0.08165507103772507
2612.0,0.08170748724464438
2611.0,0.08186477383364066
2610.0,0.08196966321511989
2609.0,0.08207457793525874
2608.0,0.08217951800630297
2607.0,0.08223199755224364
2606.0,0.08212704480115218
2605.0,0.08196966321511989
2604.0,0.08170748724464438
2603.0,0.08155025759884227
2602.0,0.08155025759884227
2601.0,0.08165507103772507
2600.0,0.08181233864107451
2599.0,0.08181233864107451
2598.0,0.08175990977858505
2597.0,0.08165507103772507
2596.0,0.08160266115629988
2595.0,0.08155025759884227
2594.0,0.08165507103772507
2593.0,0.08181233864107451
2592.0,0.08196966321511989
2591.0,0.08202211740709164
2590.0,0.08196966321511989
2589.0,0.08181233864107451
2588.0,0.08160266115629988
2587.0,0.08155025759884227
2586.0,0.08160266115629988
2585.0,0.08170748724464438
2584.0,0.08186477383364066
2583.0,0.08191721535781271
2582.0,0.08202211740709164
2581.0,0.08207457793525874
2580.0,0.08212704480115218
2579.0,0.08217951800630297
2578.0,0.08217951800630297
2577.0,0.08212704480115218
2576.0,0.08212704480115218
2575.0,0.08212704480115218
2574.0,0.08217951800630297
2573.0,0.0823369756726251
2572.0,0.08244197917456386
2571.0,0.08249449044745338
2570.0,0.08244197917456386
2569.0,0.0823369756726251
2568.0,0.08228448344050654
2567.0,0.0823369756726251
2566.0,0.08238947425013277
2565.0,0.0823369756726251
2564.0,0.08223199755224364
2563.0,0.08207457793525874
2562.0,0.08196966321511989
2561.0,0.08191721535781271
2560.0,0.08196966321511989
2559.0,0.08202211740709164
2558.0,0.08207457793525874
2557.0,0.08212704480115218
2556.0,0.08207457793525874
2555.0,0.08196966321511989
2554.0,0.08191721535781271
2553.0,0.08181233864107451
2552.0,0.08175990977858505
2551.0,0.08175990977858505
2550.0,0.08170748724464438
2549.0,0.08170748724464438
2548.0,0.08175990977858505
2547.0,0.08175990977858505
2546.0,0.08175990977858505
2545.0,0.08175990977858505
2544.0,0.08181233864107451
2543.0,0.08191721535781271
2542.0,0.08196966321511989
2541.0,0.08207457793525874
2540.0,0.08217951800630297
2539.0,0.08223199755224364
2538.0,0.08223199755224364
2537.0,0.08217951800630297
2536.0,0.08207457793525874
2535.0,0.08207457793525874
2534.0,0.08217951800630297
2533.0,0.08238947425013277
2532.0,0.08254700807033655
2531.0,0.08265206237222844
2530.0,0.08265206237222844
2529.0,0.08259953204474924
2528.0,0.08249449044745338
2527.0,0.08244197917456386
2526.0,0.08238947425013277
2525.0,0.08238947425013277
2524.0,0.08238947425013277
2523.0,0.08244197917456386
2522.0,0.08244197917456386
2521.0,0.08244197917456386
2520.0,0.08238947425013277
2519.0,0.0823369756726251
2518.0,0.0823369756726251
2517.0,0.08238947425013277
2516.0,0.08244197917456386
2515.0,0.08249449044745338
2514.0,0.08244197917456386
2513.0,0.08238947425013277
2512.0,0.0823369756726251
2511.0,0.08223199755224364
2510.0,0.08217951800630297
2509.0,0.08207457793525874
2508.0,0.08207457793525874
2507.0,0.08212704480115218
2506.0,0.08217951800630297
2505.0,0.08217951800630297
2504.0,0.08212704480115218
2503.0,0.08207457793525874
2502.0,0.08196966321511989
2501.0,0.08196966321511989
2500.0,0.08202211740709164
2499.0,0.08212704480115218
2498.0,0.08228448344050654
2497.0,0.08238947425013277
2496.0,0.08238947425013277
2495.0,0.08223199755224364
2494.0,0.08207457793525874
2493.0,0.08186477383364066
2492.0,0.08175990977858505
2491.0,0.08170748724464438
2490.0,0.08181233864107451
2489.0,0.08202211740709164
2488.0,0.08223199755224364
2487.0,0.08238947425013277
2486.0,0.08249449044745338
2485.0,0.08244197917456386
2484.0,0.0823369756726251
2483.0,0.08223199755224364
2482.0,0.08217951800630297
2481.0,0.08223199755224364
2480.0,0.08223199755224364
2479.0,0.08223199755224364
2478.0,0.08223199755224364
2477.0,0.0823369756726251
2476.0,0.08249449044745338
2475.0,0.08265206237222844
2474.0,0.08275714209253371
2473.0,0.08280969148843575
2472.0,0.08280969148843575
2471.0,0.08275714209253371
2470.0,0.08275714209253371
2469.0,0.08275714209253371
2468.0,0.08280969148843575
2467.0,0.08286224724355584
2466.0,0.08296737783760655
2465.0,0.08296737783760655
2464.0,0.08291480935943274
2463.0,0.08280969148843575
2462.0,0.08270459905431071
2461.0,0.08265206237222844
2460.0,0.08270459905431071
2459.0,0.08270459905431071
2458.0,0.08270459905431071
2457.0,0.08270459905431071
2456.0,0.08270459905431071
2455.0,0.08270459905431071
2454.0,0.08270459905431071
2453.0,0.08270459905431071
2452.0,0.08265206237222844
2451.0,0.08254700807033655
2450.0,0.08249449044745338
2449.0,0.08254700807033655
2448.0,0.08270459905431071
2447.0,0.08280969148843575
2446.0,0.08286224724355584
2445.0,0.08286224724355584
2444.0,0.08291480935943274
2443.0,0.08296737783760655
2442.0,0.0830725338870073
2441.0,0.0830725338870073
2440.0,0.0830725338870073
2439.0,0.0830725338870073
2438.0,0.08312512146131668
2437.0,0.08317771540408803
2436.0,0.08333553545860273
2435.0,0.08344078069888616
2434.0,0.08354605145007499
2433.0,0.08354605145007499
2432.0,0.0833881548906541
2431.0,0.0832303157168639
2430.0,0.08312512146131668
2429.0,0.08312512146131668
2428.0,0.0832303157168639
2427.0,0.08333553545860273
2426.0,0.08344078069888616
2425.0,0.08365134772453975
2424.0,0.08380934001946239
2423.0,0.0838620168928248
2422.0,0.08380934001946239
2421.0,0.08370400543686918
2420.0,0.08365134772453975
2419.0,0.08359869639612438
2418.0,0.08354605145007499
2417.0,0.08365134772453975
2416.0,0.08375666953466032
2415.0,0.0839147001562972
2414.0,0.0839147001562972
2413.0,0.0839147001562972
2412.0,0.0838620168928248
2411.0,0.08380934001946239
2410.0,0.08380934001946239
2409.0,0.0838620168928248
2408.0,0.0838620168928248
2407.0,0.0838620168928248
2406.0,0.08380934001946239
2405.0,0.0838620168928248
2404.0,0.08396738981143059
2403.0,0.08402008585977572
2402.0,0.08407278830288423
2401.0,0.08407278830288423
2400.0,0.08417821237960132
2399.0,0.08423093401631587
2398.0,0.08428366205400617
2397.0,0.08428366205400617
2396.0,0.08417821237960132
2395.0,0.08412549714230844
2394.0,0.08412549714230844
2393.0,0.08423093401631587
2392.0,0.08444188458847957
2391.0,0.08454739831152125
2390.0,0.08454739831152125
2389.0,0.08449463824562353
2388.0,0.08444188458847957
2387.0,0.08454739831152125
2386.0,0.08470571697731355
2385.0,0.08481129482684358
2384.0,0.08481129482684358
2383.0,0.08465293767580806
2382.0,0.08433639649422697
2381.0,0.08402008585977572
2380.0,0.08375666953466032
2379.0,0.08354605145007499
2378.0,0.0833881548906541
2377.0,0.0832303157168639
2376.0,0.0832303157168639
2375.0,0.08354605145007499
2374.0,0.08433639649422697
2373.0,0.08549817717268593
2372.0,0.0867691288864394
2371.0,0.08783110394037297
2370.0,0.08868255767596933
2369.0,0.08937559511079884
2368.0,0.08985603893548699
2367.0,0.08974922769985194
2366.0,0.08884239126002336
2365.0,0.0872997918091396
2364.0,0.08560394787021397
2363.0,0.08423093401631587
2362.0,0.08354605145007499
2361.0,0.08349341288484435
2360.0,0.08380934001946239
2359.0,0.08428366205400617
2358.0,0.08491689834879956
2357.0,0.08592141461088798
2356.0,0.08719360733870762
2355.0,0.08830984124613894
2354.0,0.08873582900163002
2353.0,0.0884695376928375
2352.0,0.08740600224789441
2351.0,0.08581556657675371
2350.0,0.08412549714230844
2349.0,0.08275714209253371
2348.0,0.08202211740709164
2347.0,0.08207457793525874
2346.0,0.0830725338870073
2345.0,0.08475850269380558
2344.0,0.08618614761628329
2343.0,0.0867691288864394
2342.0,0.08687520961044104
2341.0,0.08655704514060414
2340.0,0.08549817717268593
2339.0,0.0839147001562972
2338.0,0.08249449044745338
2337.0,0.08191721535781271
2336.0,0.08202211740709164
2335.0,0.0823369756726251
2334.0,0.08254700807033655
2333.0,0.08249449044745338
2332.0,0.08228448344050654
2331.0,0.08202211740709164
2330.0,0.08212704480115218
2329.0,0.08280969148843575
2328.0,0.08412549714230844
2327.0,0.08539243222891946
2326.0,0.0861331881037608
2325.0,0.08634506491338012
2324.0,0.0861331881037608
2323.0,0.08581556657675371
2322.0,0.08560394787021397
2321.0,0.08555105930144569
2320.0,0.08576265223225898
2319.0,0.08608023504853413
2318.0,0.08639805027084257
2317.0,0.0867691288864394
2316.0,0.08708744882390307
2315.0,0.0872997918091396
2314.0,0.0872466963286771
2313.0,0.08687520961044104
2312.0,0.08634506491338012
2311.0,0.08576265223225898
2310.0,0.08533956941077814
2309.0,0.08507535179485148
2308.0,0.08507535179485148
2307.0,0.08528671302637614
2306.0,0.08549817717268593
2305.0,0.08549817717268593
2304.0,0.0854453014823664
2303.0,0.08549817717268593
2302.0,0.08576265223225898
2301.0,0.08602728844902896
2300.0,0.086239113587677
2299.0,0.08634506491338012
2298.0,0.08645104209348209
2297.0,0.08666307406737683
2296.0,0.08682216600953208
2295.0,0.08698131625203986
2294.0,0.08708744882390307
2293.0,0.08714052483764512
2292.0,0.08714052483764512
2291.0,0.0870343792958963
2290.0,0.08698131625203986
2289.0,0.0870343792958963
2288.0,0.08714052483764512
2287.0,0.0872466963286771
2286.0,0.08719360733870762
2285.0,0.08698131625203986
2284.0,0.0867691288864394
2283.0,0.08661005636824437
2282.0,0.08661005636824437
2281.0,0.0867160982395816
2280.0,0.08687520961044104
2279.0,0.08698131625203986
2278.0,0.0870343792958963
2277.0,0.08714052483764512
2276.0,0.08719360733870762
2275.0,0.0872997918091396
2274.0,0.08740600224789441
2273.0,0.08745911720936239
2272.0,0.08745911720936239
2271.0,0.08740600224789441
2270.0,0.08735289378168276
2269.0,0.08735289378168276
2268.0,0.08740600224789441
2267.0,0.08745911720936239
2266.0,0.08745911720936239
2265.0,0.08740600224789441
2264.0,0.08740600224789441
2263.0,0.08740600224789441
2262.0,0.08745911720936239
2261.0,0.08751223866767632
2260.0,0.08761850108119962
2259.0,0.0877779434675845
2258.0,0.08788427092114603
2257.0,0.08799062441302175
2256.0,0.08804381092731295
2255.0,0.08804381092731295
2254.0,0.08793744441149753
2253.0,0.08788427092114603
2252.0,0.08783110394037297
2251.0,0.08788427092114603
2250.0,0.08788427092114603
2249.0,0.08788427092114603
2248.0,0.08793744441149753
2247.0,0.08799062441302175
2246.0,0.08804381092731295
2245.0,0.08804381092731295
2244.0,0.08804381092731295
2243.0,0.08804381092731295
2242.0,0.08804381092731295
2241.0,0.08804381092731295
2240.0,0.08804381092731295
2239.0,0.0881502035005799
2238.0,0.08825662214406838
2237.0,0.08830984124613894
2236.0,0.08836306687055773
2235.0,0.08830984124613894
2234.0,0.08825662214406838
2233.0,0.08820340956274775
2232.0,0.08820340956274775
2231.0,0.0881502035005799
2230.0,0.0881502035005799
2229.0,0.08820340956274775
2228.0,0.08825662214406838
2227.0,0.08836306687055773
2226.0,0.0884695376928375
2225.0,0.08857603462370545
2224.0,0.08857603462370545
2223.0,0.0885227828938977
2222.0,0.0885227828938977
2221.0,0.0885227828938977
2220.0,0.08857603462370545
2219.0,0.08862929288386212
2218.0,0.08873582900163002
2217.0,0.08878910686244668
2216.0,0.08884239126002336
2215.0,0.08884239126002336
2214.0,0.08884239126002336
2213.0,0.08889568219596411
2212.0,0.08894897967187343
2211.0,0.08900228368935714
2210.0,0.08905559425002108
2209.0,0.08900228368935714
2208.0,0.08900228368935714
2207.0,0.08900228368935714
2206.0,0.08905559425002108
2205.0,0.08916223500731646
2204.0,0.0892689019566193
2203.0,0.08948231448273347
2202.0,0.08964244272712252
2201.0,0.08974922769985194
2200.0,0.08974922769985194
2199.0,0.08969583193143116
2198.0,0.08964244272712252
2197.0,0.08964244272712252
2196.0,0.08953568400438638
2195.0,0.08942895151874142
2194.0,0.08932224525729482
2193.0,0.08937559511079884
2192.0,0.08953568400438638
2191.0,0.08964244272712252
2190.0,0.08969583193143116
2189.0,0.08969583193143116
2188.0,0.08974922769985194
2187.0,0.08980263003399913
2186.0,0.08985603893548699
2185.0,0.08990945440593179
2184.0,0.08990945440593179
2183.0,0.08985603893548699
2182.0,0.08985603893548699
2181.0,0.08980263003399913
2180.0,0.08985603893548699
2179.0,0.08996287644694911
2178.0,0.0900697402471693
2177.0,0.09017663034908807
2176.0,0.09023008526723086
2175.0,0.09028354676565531
2174.0,0.09033701484598189
2173.0,0.09039048950983108
2172.0,0.09044397075882471
2171.0,0.09044397075882471
2170.0,0.09049745859458458
2169.0,0.09065796163869155
2168.0,0.09087205801073917
2167.0,0.09097914578884403
2166.0,0.09097914578884403
2165.0,0.0908185240221473
2164.0,0.09071147583774919
2163.0,0.09060445403289452
2162.0,0.09060445403289452
2161.0,0.09060445403289452
2160.0,0.0905509530187334
2159.0,0.0905509530187334
2158.0,0.0905509530187334
2157.0,0.09060445403289452
2156.0,0.09076499663169257
2155.0,0.09092559859909577
2154.0,0.09097914578884403
2153.0,0.09097914578884403
2152.0,0.09087205801073917
2151.0,0.09071147583774919
2150.0,0.09060445403289452
2149.0,0.09060445403289452
2148.0,0.09076499663169257
2147.0,0.09092559859909577
2146.0,0.09108625997902897
2145.0,0.09113982698272349
2144.0,0.09113982698272349
2143.0,0.09113982698272349
2142.0,0.09113982698272349
2141.0,0.09119340059432579
2140.0,0.09124698081546634
2139.0,0.09124698081546634
2138.0,0.09124698081546634
2137.0,0.09124698081546634
2136.0,0.09124698081546634
2135.0,0.09119340059432579
2134.0,0.09113982698272349
2133.0,0.09113982698272349
2132.0,0.09119340059432579
2131.0,0.09135416109288674
2130.0,0.09151498112135026
2129.0,0.0916222275676053
2128.0,0.09167586072382083
2127.0,0.09167586072382083
2126.0,0.09156860103399356
2125.0,0.09140776115243066
2124.0,0.09124698081546634
2123.0,0.09119340059432579
2122.0,0.09124698081546634
2121.0,0.09130056764777605
2120.0,0.09135416109288674
2119.0,0.09140776115243066
2118.0,0.09146136782804049
2117.0,0.09156860103399356
2116.0,0.09167586072382083
2115.0,0.0917831469106074
2114.0,0.09189045960744768
2113.0,0.0919441259012328
2112.0,0.0919441259012328
2111.0,0.09189045960744768
2110.0,0.09189045960744768
2109.0,0.09183679994445204
2108.0,0.0917831469106074
2107.0,0.09167586072382083
2106.0,0.09167586072382083
2105.0,0.0917295005042762
2104.0,0.0917295005042762
2103.0,0.09167586072382083
2102.0,0.09167586072382083
2101.0,0.0917831469106074
2100.0,0.0919441259012328
2099.0,0.09215885741705532
2098.0,0.09226626300234453
2097.0,0.09231997575758011
2096.0,0.09237369515673355
2095.0,0.09248115389337075
2094.0,0.09253489323414388
2093.0,0.09258863922541383
2092.0,0.09264239186882706
2091.0,0.09274991711867164
2090.0,0.09280368972839836
2089.0,0.09285746899685954
2088.0,0.09285746899685954
2087.0,0.09280368972839836
2086.0,0.09280368972839836
2085.0,0.09280368972839836
2084.0,0.09280368972839836
2083.0,0.09280368972839836
2082.0,0.09285746899685954
2081.0,0.09296504751658308
2080.0,0.09301884677114591
2079.0,0.09307265269104414
2078.0,0.09307265269104414
2077.0,0.09301884677114591
2076.0,0.09296504751658308
2075.0,0.09291125492570451
2074.0,0.09301884677114591
2073.0,0.09312646527792956
2072.0,0.09323411045927221
2071.0,0.09328794305703592
2070.0,0.09323411045927221
2069.0,0.09318028453345462
2068.0,0.09318028453345462
2067.0,0.09323411045927221
2066.0,0.09334178232840018
2065.0,0.09344948089854999
2064.0,0.0935572061829677
2063.0,0.09366495819490939
2062.0,0.0937727369476411
2061.0,0.09382663635595145
2060.0,0.09388054245443844
2059.0,0.09388054245443844
2058.0,0.0937727369476411
2057.0,0.09371884422784693
2056.0,0.0937727369476411
2055.0,0.09388054245443844
2054.0,0.09393445524476318
2053.0,0.09393445524476318
2052.0,0.09382663635595145
2051.0,0.09366495819490939
2050.0,0.0935572061829677
2049.0,0.0935033402006471
2048.0,0.09361107884716913
2047.0,0.09366495819490939
2046.0,0.0937727369476411
2045.0,0.09382663635595145
2044.0,0.09388054245443844
2043.0,0.09398837472858723
2042.0,0.09404230090757282
2041.0,0.09409623378338305
2040.0,0.09415017335768128
2039.0,0.09420411963213149
2038.0,0.09425807260839858
2037.0,0.09431203228814788
2036.0,0.09436599867304518
2035.0,0.09441997176475758
2034.0,0.09441997176475758
2033.0,0.09452793807529569
2032.0,0.09458193129745807
2031.0,0.09463593123310776
2030.0,0.09463593123310776
2029.0,0.09458193129745807
2028.0,0.09463593123310776
2027.0,0.09463593123310776
2026.0,0.09468993788391455
2025.0,0.09474395125154866
2024.0,0.09474395125154866
2023.0,0.09474395125154866
2022.0,0.09474395125154866
2021.0,0.09474395125154866
2020.0,0.09474395125154866
2019.0,0.09468993788391455
2018.0,0.09468993788391455
2017.0,0.09479797133768142
2016.0,0.0950141189006366
2015.0,0.09512223303659528
2014.0,0.09512223303659528
2013.0,0.09512223303659528
2012.0,0.09512223303659528
2011.0,0.09517630019905599
2010.0,0.09517630019905599
2009.0,0.09523037409340485
2008.0,0.09528445472131919
2007.0,0.09528445472131919
2006.0,0.09533854208447545
2005.0,0.09539263618455207
2004.0,0.09544673702322726
2003.0,0.09544673702322726
2002.0,0.09550084460218011
2001.0,0.09560907998763835
2000.0,0.09560907998763835
1999.0,0.0955549589230904
1998.0,0.09544673702322726
1997.0,0.09539263618455207
1996.0,0.09539263618455207
1995.0,0.09539263618455207
1994.0,0.09544673702322726
1993.0,0.09544673702322726
1992.0,0.0955549589230904
1991.0,0.09566320779750503
1990.0,0.09560907998763835
1989.0,0.0955549589230904
1988.0,0.0955549589230904
1987.0,0.09566320779750503
1986.0,0.0957714836599215
1985.0,0.09587978652380036
1984.0,0.09593394808549704
1983.0,0.09604229147682952
1982.0,0.0960964733098364
1981.0,0.09620485725896466
1980.0,0.09625905937846135
1979.0,0.09631326826349751
1978.0,0.09625905937846135
1977.0,0.09625905937846135
1976.0,0.09631326826349751
1975.0,0.09642170633694569
1974.0,0.0964759355287379
1973.0,0.09636748391576244
1972.0,0.096150661903319
1971.0,0.09604229147682952
1970.0,0.09604229147682952
1969.0,0.096150661903319
1968.0,0.09631326826349751
1967.0,0.0964759355287379
1966.0,0.0964759355287379
1965.0,0.0964759355287379
1964.0,0.0964759355287379
1963.0,0.09653017149282994
1962.0,0.09658441423091357
1961.0,0.09663866374468144
1960.0,0.09658441423091357
1959.0,0.09658441423091357
1958.0,0.09663866374468144
1957.0,0.09663866374468144
1956.0,0.09669292003582619
1955.0,0.09674718310604158
1954.0,0.09685572959046151
1953.0,0.09696430321150284
1952.0,0.09701860020249709
1951.0,0.09701860020249709
1950.0,0.09696430321150284
1949.0,0.09701860020249709
1948.0,0.09707290398273716
1947.0,0.09712721455392082
1946.0,0.09712721455392082
1945.0,0.09707290398273716
1944.0,0.09701860020249709
1943.0,0.09712721455392082
1942.0,0.0972358560759139
1941.0,0.09739886933346864
1940.0,0.09745322068600859
1939.0,0.09739886933346864
1938.0,0.09734452478207412
1937.0,0.09729018703012282
1936.0,0.09734452478207412
1935.0,0.09745322068600859
1934.0,0.0975619438013351
1933.0,0.09761631556752848
1932.0,0.09772507952549825
1931.0,0.09783387072894878
1930.0,0.0978882765519955
1929.0,0.09794268919153337
1928.0,0.0978882765519955
1927.0,0.09777947172068524
1926.0,0.09767069414168117
1925.0,0.09761631556752848
1924.0,0.09761631556752848
1923.0,0.09767069414168117
1922.0,0.09767069414168117
1921.0,0.09761631556752848
1920.0,0.09761631556752848
1919.0,0.09761631556752848
1918.0,0.09772507952549825
1917.0,0.0978882765519955
1916.0,0.09810596802617932
1915.0,0.09821485469640057
1914.0,0.09826930827078129
1913.0,0.09826930827078129
1912.0,0.09832376867362447
1911.0,0.09837823590664274
1910.0,0.09848719087006019
1909.0,0.09859617317474823
1908.0,0.09870518283443275
1907.0,0.09875969792669093
1906.0,0.09886874864462802
1905.0,0.0989778267519208
1904.0,0.09903237608087578
1903.0,0.09892328427374508
1902.0,0.09881421986284966
1901.0,0.09875969792669093
1900.0,0.09875969792669093
1899.0,0.09875969792669093
1898.0,0.09870518283443275
1897.0,0.09870518283443275
1896.0,0.09881421986284966
1895.0,0.0989778267519208
1894.0,0.09914149529800831
1893.0,0.09919606518963042
1892.0,0.09914149529800831
1891.0,0.0989778267519208
1890.0,0.09886874864462802
1889.0,0.09892328427374508
1888.0,0.0990869322623309
1887.0,0.09919606518963042
1886.0,0.09930522554760213
1885.0,0.09946901754724413
1884.0,0.09957824654226233
1883.0,0.09957824654226233
1882.0,0.09946901754724413
1881.0,0.09941441335003853
1880.0,0.09930522554760213
1879.0,0.09930522554760213
1878.0,0.09930522554760213
1877.0,0.09935981601739963
1876.0,0.09941441335003853
1875.0,0.09946901754724413
1874.0,0.09946901754724413
1873.0,0.09952362861074304
1872.0,0.09957824654226233
1871.0,0.09952362861074304
1870.0,0.09941441335003853
1869.0,0.09952362861074304
1868.0,0.09979678698310646
1867.0,0.10001543745060903
1866.0,0.10017949757290379
1865.0,0.10028890542885538
1864.0,0.10034361969436434
1863.0,0.10023419805561384
1862.0,0.10007011727213588
1861.0,0.10012480397898926
1860.0,0.10017949757290379
1859.0,0.10023419805561384
1858.0,0.10023419805561384
1857.0,0.10028890542885538
1856.0,0.10034361969436434
1855.0,0.10039834085387778
1854.0,0.1005078038618683
1853.0,0.10061729446673495
1852.0,0.10061729446673495
1851.0,0.10045306890913297
1850.0,0.10017949757290379
1849.0,0.09990609845660159
1848.0,0.09985143928065598
1847.0,0.09996076451267522
1846.0,0.10028890542885538
1845.0,0.10061729446673495
1844.0,0.10089114180660053
1843.0,0.10094593200182911
1842.0,0.10083635852278117
1841.0,0.10083635852278117
1840.0,0.10078158214862709
1839.0,0.10072681268239614
1838.0,0.10072681268239614
1837.0,0.10089114180660053
1836.0,0.10111034407341357
1835.0,0.10127481841050656
1834.0,0.10127481841050656
1833.0,0.10127481841050656
1832.0,0.1012199867101744
1831.0,0.10111034407341357
1830.0,0.10094593200182911
1829.0,0.10089114180660053
1828.0,0.10083635852278117
1827.0,0.10089114180660053
1826.0,0.10100072911021085
1825.0,0.10116516193172598
1824.0,0.10127481841050656
1823.0,0.10127481841050656
1822.0,0.1012199867101744
1821.0,0.1012199867101744
1820.0,0.10132965703447017
1819.0,0.1014393550602879
1818.0,0.10154908080162528
1817.0,0.10160395406999112
1816.0,0.10165883427249067
1815.0,0.10160395406999112
1814.0,0.10154908080162528
1813.0,0.10149421446564144
1812.0,0.10154908080162528
1811.0,0.10160395406999112
1810.0,0.10160395406999112
1809.0,0.10160395406999112
1808.0,0.10160395406999112
1807.0,0.10154908080162528
1806.0,0.1014393550602879
1805.0,0.10149421446564144
1804.0,0.10165883427249067
1803.0,0.10182351650232357
1802.0,0.10193333935836524
1801.0,0.10204318999304807
1800.0,0.10204318999304807
1799.0,0.10193333935836524
1798.0,0.10182351650232357
1797.0,0.10187842445889239
1796.0,0.10215306842042837
1795.0,0.10237290870955862
1794.0,0.10242788617426934
1793.0,0.10242788617426934
1792.0,0.10248287059947447
1791.0,0.10248287059947447
1790.0,0.10248287059947447
1789.0,0.10259286033841963
1788.0,0.10275789719463457
1787.0,0.10281292341984649
1786.0,0.10270287794050348
1785.0,0.10270287794050348
1784.0,0.10270287794050348
1783.0,0.10264786565568684
1782.0,0.10253786198693682
1781.0,0.10242788617426934
1780.0,0.10248287059947447
1779.0,0.10264786565568684
1778.0,0.10270287794050348
1777.0,0.10270287794050348
1776.0,0.10264786565568684
1775.0,0.10270287794050348
1774.0,0.10275789719463457
1773.0,0.10270287794050348
1772.0,0.10270287794050348
1771.0,0.10281292341984649
1770.0,0.10303309806684524
1769.0,0.1033635694704158
1768.0,0.10363915453068362
1767.0,0.10369429253391926
1766.0,0.10358402352687701
1765.0,0.10358402352687701
1764.0,0.10363915453068362
1763.0,0.10363915453068362
1762.0,0.10363915453068362
1761.0,0.10352889952072264
1760.0,0.10347378251044459
1759.0,0.10341867249426717
1758.0,0.10341867249426717
1757.0,0.10330847343711591
1756.0,0.10314322726279568
1755.0,0.10303309806684524
1754.0,0.10297804393963661
1753.0,0.10292299679057959
1752.0,0.10270287794050348
1751.0,0.10259286033841963
1750.0,0.10259286033841963
1749.0,0.10264786565568684
1748.0,0.10275789719463457
1747.0,0.10275789719463457
1746.0,0.10270287794050348
1745.0,0.10259286033841963
1744.0,0.10259286033841963
1743.0,0.1028679566179056
1742.0,0.10314322726279568
1741.0,0.10330847343711591
1740.0,0.10341867249426717
1739.0,0.10347378251044459
1738.0,0.10358402352687701
1737.0,0.10391491457671487
1736.0,0.10424605792627206
1735.0,0.10435649517592083
1734.0,0.10441172433373724
1733.0,0.10441172433373724
1732.0,0.10419084983086901
1731.0,0.10419084983086901
1730.0,0.10441172433373724
1729.0,0.10452220372428545
1728.0,0.10452220372428545
1727.0,0.10457745396059215
1726.0,0.10457745396059215
1725.0,0.10452220372428545
1724.0,0.10457745396059215
1723.0,0.10468797552421272
1722.0,0.10479852522110678
1721.0,0.10490910306560064
1720.0,0.10496440254767725
1719.0,0.1047432468551055
1718.0,0.10446696051592963
1717.0,0.10457745396059215
1716.0,0.10468797552421272
1715.0,0.1047432468551055
1714.0,0.10490910306560064
1713.0,0.1052410056281079
1712.0,0.10551778498990938
1711.0,0.10557316203581202
1710.0,0.10557316203581202
1709.0,0.10551778498990938
1708.0,0.10546241500425357
1707.0,0.10540705207704448
1706.0,0.10540705207704448
1705.0,0.10546241500425357
1704.0,0.10568393731556158
1703.0,0.10612732120491852
1702.0,0.10657115822045493
1701.0,0.10690433390377163
1700.0,0.1071265931112344
1699.0,0.10701544928928342
1698.0,0.10690433390377163
1697.0,0.10740457717110186
1696.0,0.10790539730951965
1695.0,0.10779405402422748
1694.0,0.10734896612269962
1693.0,0.10734896612269962
1692.0,0.10757145305477
1691.0,0.10746019534136453
1690.0,0.10718217569042365
1689.0,0.10707101764479421
1688.0,0.10718217569042365
1687.0,0.1075158206353124
1686.0,0.1075158206353124
1685.0,0.10723776538418317
1684.0,0.10723776538418317
1683.0,0.10729336219433439
1682.0,0.10723776538418317
1681.0,0.1075158206353124
1680.0,0.10779405402422748
1679.0,0.10790539730951965
1678.0,0.10812816955441629
1677.0,0.10823959854332843
1676.0,0.1082953237608173
1675.0,0.10823959854332843
1674.0,0.1081838804751396
1673.0,0.10801676914803293
1672.0,0.10796107965870849
1671.0,0.10784972209863586
1670.0,0.10790539730951965
1669.0,0.1081838804751396
1668.0,0.1082953237608173
1667.0,0.10840679565103484
1666.0,0.10857405715200596
1665.0,0.10874138309586101
1664.0,0.10868560061785693
1663.0,0.10868560061785693
1662.0,0.10879717273970457
1661.0,0.10890877353227624
1660.0,0.10890877353227624
1659.0,0.10896458468468917
1658.0,0.10896458468468917
1657.0,0.10902040301031102
1656.0,0.10929960230112479
1655.0,0.10963487855187593
1654.0,0.1098585399354226
1653.0,0.11041819785037621
1652.0,0.10974669484546551
1651.0,0.10835105612944096
1650.0,0.10823959854332843
1649.0,0.10846254232743546
1648.0,0.10846254232743546
1647.0,0.10885296955122903
1646.0,0.10946720807225518
1645.0,0.10963487855187593
1644.0,0.10957898119908571
1643.0,0.10963487855187593
1642.0,0.10957898119908571
1641.0,0.10935546370475246
1640.0,0.10907622851098608
1639.0,0.10896458468468917
1638.0,0.10913206118855912
1637.0,0.10941133229451272
1636.0,0.1098585399354226
1635.0,0.11019424813191447
1634.0,0.1098585399354226
1633.0,0.10963487855187593
1632.0,0.10969078310005154
1631.0,0.10969078310005154
1630.0,0.10963487855187593
1629.0,0.10957898119908571
1628.0,0.10952309103982927
1627.0,0.10952309103982927
1626.0,0.10957898119908571
1625.0,0.10957898119908571
1624.0,0.10957898119908571
1623.0,0.10969078310005154
1622.0,0.10997041383658313
1621.0,0.11013827874181148
1620.0,0.11036219959333216
1619.0,0.11058623595729111
1618.0,0.1106422631110684
1617.0,0.11053021603049262
1616.0,0.11025022473596224
1615.0,0.10991447328367476
1614.0,0.10991447328367476
1613.0,0.11008231656379408
1612.0,0.11013827874181148
1611.0,0.10997041383658313
1610.0,0.1098585399354226
1609.0,0.10974669484546551
1608.0,0.10974669484546551
1607.0,0.1098585399354226
1606.0,0.11008231656379408
1605.0,0.11025022473596224
1604.0,0.11019424813191447
1603.0,0.11013827874181148
1602.0,0.11013827874181148
1601.0,0.11019424813191447
1600.0,0.11019424813191447
1599.0,0.11013827874181148
1598.0,0.11008231656379408
1597.0,0.11002636159600376
1596.0,0.10991447328367476
1595.0,0.10997041383658313
1594.0,0.11013827874181148
1593.0,0.11030620855581463
1592.0,0.11041819785037621
1591.0,0.11047420332880886
1590.0,0.11047420332880886
1589.0,0.11041819785037621
1588.0,0.11041819785037621
1587.0,0.11047420332880886
1586.0,0.1106422631110684
1585.0,0.11069829749368965
1584.0,0.11058623595729111
1583.0,0.11047420332880886
1582.0,0.11053021603049262
1581.0,0.11058623595729111
1580.0,0.11053021603049262
1579.0,0.11047420332880886
1578.0,0.11041819785037621
1577.0,0.11036219959333216
1576.0,0.11053021603049262
1575.0,0.1106422631110684
1574.0,0.11058623595729111
1573.0,0.11058623595729111
1572.0,0.11058623595729111
1571.0,0.11036219959333216
1570.0,0.11030620855581463
1569.0,0.11047420332880886
1568.0,0.11058623595729111
1567.0,0.1106422631110684
1566.0,0.11069829749368965
1565.0,0.1106422631110684
1564.0,0.11053021603049262
1563.0,0.11075433910702048
1562.0,0.11103465569966264
1561.0,0.11081038795292675
1560.0,0.1098585399354226
1559.0,0.10991447328367476
1558.0,0.11109074073646874
1557.0,0.11097857790477517
1556.0,0.11114683301706374
1555.0,0.11142740314240007
1554.0,0.11142740314240007
1553.0,0.11114683301706374
1552.0,0.11092250734993603
1551.0,0.11086644403327606
1550.0,0.11086644403327606
1549.0,0.11086644403327606
1548.0,0.11086644403327606
1547.0,0.11092250734993603
1546.0,0.11086644403327606
1545.0,0.11075433910702048
1544.0,0.11081038795292675
1543.0,0.11103465569966264
1542.0,0.11103465569966264
1541.0,0.11103465569966264
1540.0,0.11125903931710734
1539.0,0.11092250734993603
1538.0,0.10997041383658313
1537.0,0.10957898119908571
1536.0,0.10974669484546551
1535.0,0.1098585399354226
1534.0,0.10991447328367476
1533.0,0.11008231656379408
1532.0,0.11019424813191447
1531.0,0.11008231656379408
1530.0,0.1098585399354226
1529.0,0.10963487855187593
1528.0,0.10957898119908571
1527.0,0.10963487855187593
1526.0,0.10974669484546551
1525.0,0.10974669484546551
1524.0,0.10969078310005154
1523.0,0.10957898119908571
1522.0,0.10941133229451272
1521.0,0.10929960230112479
1520.0,0.10907622851098608
1519.0,0.10879717273970457
1518.0,0.10862982530385179
1517.0,0.10846254232743546
1516.0,0.10846254232743546
1515.0,0.10846254232743546
1514.0,0.10846254232743546
1513.0,0.10840679565103484
1512.0,0.10835105612944096
1511.0,0.1081838804751396
1510.0,0.10801676914803293
1509.0,0.10773839308446487
1508.0,0.10757145305477
1507.0,0.10790539730951965
1506.0,0.10812816955441629
1505.0,0.10740457717110186
1504.0,0.10690433390377163
1503.0,0.10684878687013422
1502.0,0.10673771411200872
1501.0,0.10657115822045493
1500.0,0.10646015643533868
1499.0,0.10640466618011679
1498.0,0.1061827760325369
1497.0,0.10596099919539115
1496.0,0.10579474085791629
1495.0,0.10546241500425357
1494.0,0.10513034325474746
1493.0,0.10496440254767725
1492.0,0.1047432468551055
1491.0,0.10435649517592083
1490.0,0.10391491457671487
1489.0,0.10363915453068362
1488.0,0.10347378251044459
1487.0,0.10308815917397474
1486.0,0.10270287794050348
1485.0,0.10237290870955862
1484.0,0.10204318999304807
1483.0,0.10165883427249067
1482.0,0.1012199867101744
1481.0,0.10078158214862709
1480.0,0.1005078038618683
1479.0,0.10034361969436434
1478.0,0.10012480397898926
1477.0,0.09990609845660159
1476.0,0.09990609845660159
1475.0,0.09996076451267522
1474.0,0.10012480397898926
1473.0,0.10072681268239614
1472.0,0.10209812573177213
1471.0,0.10374943753836186
1470.0,0.10562854614376227
1469.0,0.10807246577932506
1468.0,0.11125903931710734
1467.0,0.11492161585077598
1466.0,0.11947222180119477
1465.0,0.12534426740189897
1464.0,0.13194363817695853
1463.0,0.13763006287711765
1462.0,0.14182386201765573
1461.0,0.14520830594601453
1460.0,0.14837479684669086
1459.0,0.15131834597604965
1458.0,0.15471587365200845
1457.0,0.15939212099070987
1456.0,0.16399254087446846
1455.0,0.1666616110606025
1454.0,0.1685141607513425
1453.0,0.1705032502798176
1452.0,0.17276000049435458
1451.0,0.17476867680009978
1450.0,0.17619984625012197
1449.0,0.17678668671733244
1448.0,0.1765909851074554
1447.0,0.1751585282462993
1446.0,0.17276000049435458
1445.0,0.16973219906635828
1444.0,0.16653413982930765
1443.0,0.16323295260579473
1442.0,0.1600822243213189
1441.0,0.15745316350498495
1440.0,0.15533647175976073
1439.0,0.15372475758778692
1438.0,0.15261244897260462
1437.0,0.1523039792658345
1436.0,0.1527358982292355
1435.0,0.15279763601907614
1434.0,0.15205736115477642
1433.0,0.1507034591652734
1432.0,0.14880282382583943
1431.0,0.14666689499766483
1430.0,0.14448084433219988
1429.0,0.14248658522331015
1428.0,0.1407415825326932
1427.0,0.13918303613546223
1426.0,0.13780896894840278
1425.0,0.13655817138629134
1424.0,0.13554825284181704
1423.0,0.13477754370982087
1422.0,0.13418561983203192
1421.0,0.13359450162194508
1420.0,0.13282724882135022
1419.0,0.13212021654162043
1418.0,0.13141433344123432
1417.0,0.13070959579060148
1416.0,0.13006458935314003
1415.0,0.12930354201075
1414.0,0.1284854412916181
1413.0,0.12761061158217912
1412.0,0.12685384867174432
1411.0,0.1263307072932056
1410.0,0.12586622117202761
1409.0,0.12534426740189897
1408.0,0.12476505354983503
1407.0,0.12412880927263426
1406.0,0.12355121312165873
1405.0,0.12297438413275108
1404.0,0.12251347193039863
1403.0,0.12211057462851604
1402.0,0.12170805075020397
1401.0,0.12119106764079435
1400.0,0.12056003400478299
1399.0,0.1199871616332282
1398.0,0.11941504393502012
1397.0,0.11878658374498086
1396.0,0.11781711236973003
1395.0,0.11679296664760996
1394.0,0.11582793047608719
1393.0,0.1149782051377024
1392.0,0.11418662533951118
1391.0,0.11345287660889425
1390.0,0.11272036546997688
1389.0,0.11176432672943282
1388.0,0.11047420332880886
1387.0,0.10907622851098608
1386.0,0.10796107965870849
1385.0,0.1075158206353124
1384.0,0.1081838804751396
1383.0,0.11058623595729111
1382.0,0.11531789579397489
1381.0,0.12280148472821018
1380.0,0.13329924395750092
1379.0,0.14697138528701026
1378.0,0.1627904721987936
1377.0,0.17861750025270084
1376.0,0.1921268679966679
1375.0,0.20169471797802352
1374.0,0.20565139610391725
1373.0,0.2040505010971967
1372.0,0.19893947015214453
1371.0,0.19253262431572216
1370.0,0.185819018959813
1369.0,0.17927323717616583
1368.0,0.17347169365934856
1367.0,0.16883436609055757
1366.0,0.165261481096159
1365.0,0.16247469055039865
1364.0,0.1603334431175667
1363.0,0.1590787998012282
1362.0,0.15882830550046778
1361.0,0.15939212099070987
1360.0,0.16045910703103106
1359.0,0.16171775008531153
1358.0,0.16272729749769965
1357.0,0.16323295260579473
1356.0,0.16316971351112097
1355.0,0.16253782851400533
1354.0,0.1614027471833437
1353.0,0.1600822243213189
1352.0,0.15870311250971825
1351.0,0.157390760389438
1350.0,0.15614457737683884
1349.0,0.15496400648658493
1348.0,0.15403423845451636
1347.0,0.15323004646278116
1346.0,0.15255073750082726
1345.0,0.15181088300860135
1344.0,0.15107228677292173
1343.0,0.15033494452126717
1342.0,0.14966014541652073
1341.0,0.1490476002065071
1340.0,0.14868048735125483
1339.0,0.14861933203440336
1338.0,0.14861933203440336
1337.0,0.14861933203440336
1336.0,0.14849704722945534
1335.0,0.14831368455757254
1334.0,0.14819148577176255
1333.0,0.14813039927023364
1332.0,0.14819148577176255
1331.0,0.14837479684669086
1330.0,0.14855818532794496
1329.0,0.14874165128092476
1328.0,0.14880282382583943
1327.0,0.148864004988426
1326.0,0.1489251947711132
1325.0,0.1489251947711132
1324.0,0.148864004988426
1323.0,0.14874165128092476
1322.0,0.14843591773651155
1321.0,0.1480693213597324
1320.0,0.14764201633217278
1319.0,0.14745901423020125
1318.0,0.14745901423020125
1317.0,0.14745901423020125
1316.0,0.14745901423020125
1315.0,0.14739803066176504
1314.0,0.1472760892087941
1313.0,0.1472151313194523
1312.0,0.1471541819850033
1311.0,0.14709324120304634
1310.0,0.14697138528701026
1309.0,0.14684956355215717
1308.0,0.14709324120304634
1307.0,0.14776406058811253
1306.0,0.1489251947711132
1305.0,0.1503963419175529
1304.0,0.1517492853229574
1303.0,0.15267416921457633
1302.0,0.15298290206464582
1301.0,0.15285938258659382
1300.0,0.15261244897260462
1299.0,0.1524890347967518
1298.0,0.15236565568174498
1297.0,0.15236565568174498
1296.0,0.15242734085788778
1295.0,0.15255073750082726
1294.0,0.15261244897260462
1293.0,0.1524890347967518
1292.0,0.1523039792658345
1291.0,0.15218065270476067
1290.0,0.15218065270476067
1289.0,0.15224231160766877
1288.0,0.1523039792658345
1287.0,0.15236565568174498
1286.0,0.15224231160766877
1285.0,0.15205736115477642
1284.0,0.15193410459600853
1283.0,0.1519957285027318
1282.0,0.15211900255462485
1281.0,0.15224231160766877
1280.0,0.15224231160766877
1279.0,0.15218065270476067
1278.0,0.1519957285027318
1277.0,0.15193410459600853
1276.0,0.15187248943212528
1275.0,0.15187248943212528
1274.0,0.15187248943212528
1273.0,0.15187248943212528
1272.0,0.15187248943212528
1271.0,0.15187248943212528
1270.0,0.15181088300860135
1269.0,0.15168769637271562
1268.0,0.1515645446685292
1267.0,0.1515645446685292
1266.0,0.1515645446685292
1265.0,0.1515645446685292
1264.0,0.15162611615539823
1263.0,0.15168769637271562
1262.0,0.15181088300860135
1261.0,0.15193410459600853
1260.0,0.15218065270476067
1259.0,0.15267416921457633
1258.0,0.15335367142288248
1257.0,0.15428198203334142
1256.0,0.15533647175976073
1255.0,0.1562690348879079
1254.0,0.1567049172634929
1253.0,0.1565803347950816
1252.0,0.1560823619936076
1251.0,0.15558495952617557
1250.0,0.15515019919336104
1249.0,0.1548399223480541
1248.0,0.15471587365200845
1247.0,0.15465386258859137
1246.0,0.15452986701832638
1245.0,0.15434394001645568
1244.0,0.1540961611012175
1243.0,0.1537866361206126
1242.0,0.15347733158371324
1241.0,0.1532918545439932
1240.0,0.15323004646278116
1239.0,0.1534154971019539
1238.0,0.15366288787019466
1237.0,0.1537866361206126
1236.0,0.15372475758778692
1235.0,0.15360102696532518
1234.0,0.15335367142288248
1233.0,0.15298290206464582
1232.0,0.15255073750082726
1231.0,0.15224231160766877
1230.0,0.15211900255462485
1229.0,0.15218065270476067
1228.0,0.15224231160766877
1227.0,0.15242734085788778
1226.0,0.15255073750082726
1225.0,0.15255073750082726
1224.0,0.15255073750082726
1223.0,0.15261244897260462
1222.0,0.1527358982292355
1221.0,0.15285938258659382
1220.0,0.15298290206464582
1219.0,0.15310645668337486
1218.0,0.1531682471767426
1217.0,0.15323004646278116
1216.0,0.15335367142288248
1215.0,0.15335367142288248
1214.0,0.15323004646278116
1213.0,0.15298290206464582
1212.0,0.1527358982292355
1211.0,0.15261244897260462
1210.0,0.15255073750082726
1209.0,0.1524890347967518
1208.0,0.15236565568174498
1207.0,0.15224231160766877
1206.0,0.15205736115477642
1205.0,0.15193410459600853
1204.0,0.15187248943212528
1203.0,0.15181088300860135
1202.0,0.1517492853229574
1201.0,0.15162611615539823
1200.0,0.1515645446685292
1199.0,0.15162611615539823
1198.0,0.15168769637271562
1197.0,0.15168769637271562
1196.0,0.15162611615539823
1195.0,0.1515029819096334
1194.0,0.1513798825658661
1193.0,0.15119529894819617
1192.0,0.1509493094304879
1191.0,0.15082636690117335
1190.0,0.15076490868527737
1189.0,0.15064201833870117
1188.0,0.15058058620310066
1187.0,0.15058058620310066
1186.0,0.15058058620310066
1185.0,0.15045774799498335
1184.0,0.1502121757623145
1183.0,0.1499667423102311
1182.0,0.14978275820161047
1181.0,0.1494762911210057
1180.0,0.14923127307111983
1179.0,0.14898639317633
1178.0,0.148864004988426
1177.0,0.148864004988426
1176.0,0.1491088158640761
1175.0,0.1495988520028415
1174.0,0.1503963419175529
1173.0,0.15162611615539823
1172.0,0.15347733158371324
1171.0,0.1560823619936076
1170.0,0.15939212099070987
1169.0,0.16298005145909156
1168.0,0.16647041824135633
1167.0,0.16921892439363884
1166.0,0.17088928984470542
1165.0,0.1714689933548985
1164.0,0.17121125181504682
1163.0,0.17056756638240134
1162.0,0.16979640107429583
1161.0,0.16896251435997467
1160.0,0.16819419132560887
1159.0,0.167618839752959
1158.0,0.16717187046064663
1157.0,0.1666616110606025
1156.0,0.166151950468852
1155.0,0.1657700971483227
1154.0,0.16557929631846746
1153.0,0.16557929631846746
1152.0,0.1657700971483227
1151.0,0.16589734428720626
1150.0,0.16583371605737995
1149.0,0.16564288728159493
1148.0,0.16532502553725603
1147.0,0.16488040957545036
1146.0,0.16424603248061653
1145.0,0.16361258067358908
1144.0,0.16304326294044946
1143.0,0.16266413198498508
1142.0,0.16234844215360744
1141.0,0.16203298163134527
1140.0,0.16159172150581314
1139.0,0.16115090926274478
1138.0,0.1607105439938532
1137.0,0.1603334431175667
1136.0,0.1600194423216572
1135.0,0.15976840504189105
1134.0,0.15939212099070987
1133.0,0.1588909155318461
1132.0,0.15851539066460685
1131.0,0.15832774992636556
1130.0,0.1582027011256446
1129.0,0.1582027011256446
1128.0,0.15807768832054925
1127.0,0.15795271149036205
1126.0,0.15776531365276036
1125.0,0.15745316350498495
1124.0,0.15720360482441986
1123.0,0.15701652987778258
1122.0,0.15695418946543072
1121.0,0.15689185800039307
1120.0,0.15682953548010214
1119.0,0.1567049172634929
1118.0,0.1565803347950816
1117.0,0.1565803347950816
1116.0,0.1565803347950816
1115.0,0.1565803347950816
1114.0,0.1565180569600424
1113.0,0.1562690348879079
1112.0,0.15602015552184012
1111.0,0.15589576930248672
1110.0,0.1558335895497993
1109.0,0.1558335895497993
1108.0,0.1558335895497993
1107.0,0.15570925674565683
1106.0,0.15564710368910672
1105.0,0.15570925674565683
1104.0,0.1560823619936076
1103.0,0.1567049172634929
1102.0,0.15726598105173029
1101.0,0.15757799664235028
1100.0,0.15776531365276036
1099.0,0.15782777061438424
1098.0,0.15782777061438424
1097.0,0.15776531365276036
1096.0,0.15757799664235028
1095.0,0.157390760389438
1094.0,0.15701652987778258
1093.0,0.15645578805436489
1092.0,0.15589576930248672
1091.0,0.15546069787099204
1090.0,0.15521228117215347
1089.0,0.15515019919336104
1088.0,0.15515019919336104
1087.0,0.15515019919336104
1086.0,0.15496400648658493
1085.0,0.15452986701832638
1084.0,0.15391041964201602
1083.0,0.1532918545439932
1082.0,0.15279763601907614
1081.0,0.1524890347967518
1080.0,0.15224231160766877
1079.0,0.15205736115477642
1078.0,0.15187248943212528
1077.0,0.15162611615539823
1076.0,0.1514414278762366
1075.0,0.15131834597604965
1074.0,0.15131834597604965
1073.0,0.1515029819096334
1072.0,0.15193410459600853
1071.0,0.15236565568174498
1070.0,0.15267416921457633
1069.0,0.15255073750082726
1068.0,0.15211900255462485
1067.0,0.1515645446685292
1066.0,0.15125681810431635
1065.0,0.15113378850522063
1064.0,0.15125681810431635
1063.0,0.1514414278762366
1062.0,0.15162611615539823
1061.0,0.1517492853229574
1060.0,0.15181088300860135
1059.0,0.15181088300860135
1058.0,0.1517492853229574
1057.0,0.15168769637271562
1056.0,0.1517492853229574
1055.0,0.1517492853229574
1054.0,0.15181088300860135
1053.0,0.15187248943212528
1052.0,0.15211900255462485
1051.0,0.15242734085788778
1050.0,0.1527358982292355
1049.0,0.15292113793428452
1048.0,0.15304467498017615
1047.0,0.15323004646278116
1046.0,0.15360102696532518
1045.0,0.15415809257824264
1044.0,0.15477789357098626
1043.0,0.15533647175976073
1042.0,0.15577141869837208
1041.0,0.1559579579589836
1040.0,0.15589576930248672
1039.0,0.1558335895497993
1038.0,0.15577141869837208
1037.0,0.15589576930248672
1036.0,0.15614457737683884
1035.0,0.1565180569600424
1034.0,0.15695418946543072
1033.0,0.157390760389438
1032.0,0.1576404266693252
1031.0,0.1576404266693252
1030.0,0.15732836623921154
1029.0,0.15689185800039307
1028.0,0.15664262156204445
1027.0,0.15682953548010214
1026.0,0.15720360482441986
1025.0,0.15751557558842988
1024.0,0.1576404266693252
1023.0,0.1576404266693252
1022.0,0.15757799664235028
1021.0,0.15757799664235028
1020.0,0.1576404266693252
1019.0,0.15757799664235028
1018.0,0.15751557558842988
1017.0,0.15757799664235028
1016.0,0.15776531365276036
1015.0,0.15801519540988607
1014.0,0.1582027011256446
1013.0,0.1582027011256446
1012.0,0.15814019022493886
1011.0,0.15807768832054925
1010.0,0.15807768832054925
1009.0,0.15814019022493886
1008.0,0.15814019022493886
1007.0,0.15814019022493886
1006.0,0.15814019022493886
1005.0,0.15826522102525642
1004.0,0.158765704493959
1003.0,0.15976840504189105
1002.0,0.16146572948813143
1001.0,0.16411926818260536
1000.0,0.16793838540927308
999.0,0.17263072694617465
998.0,0.17743966305730785
997.0,0.18131233655848633
996.0,0.18329481633348466
995.0,0.18329481633348466
994.0,0.1818401136028147
993.0,0.17966715510059017
992.0,0.17743966305730785
991.0,0.1755487299633871
990.0,0.1739900222088997
989.0,0.1724368887452763
988.0,0.17082492608291244
987.0,0.16928305056310244
986.0,0.16800232276410365
985.0,0.16717187046064663
984.0,0.1666616110606025
983.0,0.16640670600154372
982.0,0.16627930955536674
981.0,0.16640670600154372
980.0,0.16685288808721488
979.0,0.16781053893148679
978.0,0.16953964996903292
977.0,0.17224313702138327
976.0,0.17587416608345108
975.0,0.18039026724841478
974.0,0.18535293054814383
973.0,0.19003647828598602
972.0,0.19361649817583237
971.0,0.19538358301274483
970.0,0.19504320014250842
969.0,0.1930742231162681
968.0,0.19030564128307614
967.0,0.1875545971272441
966.0,0.18521985425419518
965.0,0.18336105510153855
964.0,0.18190613085336405
963.0,0.18071935302751885
962.0,0.17979854051435984
961.0,0.17907641211868253
960.0,0.17842097208799124
959.0,0.1778319206319825
958.0,0.17724366704860928
957.0,0.17672144304832926
956.0,0.17626501160126873
955.0,0.17593928258134706
954.0,0.17574396237031764
953.0,0.17567887514922864
952.0,0.1755487299633871
951.0,0.1752235375244544
950.0,0.1748985884019969
949.0,0.17457388223217696
948.0,0.1743791749964998
947.0,0.17431429197824166
946.0,0.17431429197824166
945.0,0.17431429197824166
944.0,0.1743791749964998
943.0,0.1745089701205691
942.0,0.17470373556903995
941.0,0.17496355877864622
940.0,0.1752235375244544
939.0,0.1755487299633871
938.0,0.17567887514922864
937.0,0.17574396237031764
936.0,0.17561379768122598
935.0,0.17535358528164813
934.0,0.17502853887630665
933.0,0.17470373556903995
932.0,0.17444406770964305
931.0,0.1743791749964998
930.0,0.17444406770964305
929.0,0.1743791749964998
928.0,0.1742494186519723
927.0,0.1739900222088997
926.0,0.17373078060627378
925.0,0.17353645090719882
924.0,0.17347169365934856
923.0,0.17340694606595197
922.0,0.17327747983100794
921.0,0.173212761183708
920.0,0.173212761183708
919.0,0.17327747983100794
918.0,0.17353645090719882
917.0,0.17392519729917355
916.0,0.17418455501479646
915.0,0.1742494186519723
914.0,0.1742494186519723
913.0,0.1742494186519723
912.0,0.1743791749964998
911.0,0.17444406770964305
910.0,0.17418455501479646
909.0,0.17379557650074728
908.0,0.17353645090719882
907.0,0.17360121781238225
906.0,0.17379557650074728
905.0,0.17405485679615196
904.0,0.17431429197824166
903.0,0.17476867680009978
902.0,0.17561379768122598
901.0,0.1769172034671962
900.0,0.17842097208799124
899.0,0.17992996568767428
898.0,0.18104868835982724
897.0,0.1818401136028147
896.0,0.1821703002543944
895.0,0.1821703002543944
894.0,0.18170810920000413
893.0,0.18091692425629735
892.0,0.180127178049454
891.0,0.17953580942231584
890.0,0.1791420105603001
889.0,0.17901082358395048
888.0,0.17901082358395048
887.0,0.17920761891179637
886.0,0.17940450345550985
885.0,0.17947015147648027
884.0,0.17940450345550985
883.0,0.17933886535640453
882.0,0.17933886535640453
881.0,0.17927323717616583
880.0,0.1791420105603001
879.0,0.17901082358395048
878.0,0.1789452449531117
877.0,0.17901082358395048
876.0,0.17920761891179637
875.0,0.17953580942231584
874.0,0.17979854051435984
873.0,0.17979854051435984
872.0,0.17966715510059017
871.0,0.17947015147648027
870.0,0.17940450345550985
869.0,0.17953580942231584
868.0,0.17986424812957003
867.0,0.18025870272698952
866.0,0.180587688790675
865.0,0.18065351591954726
864.0,0.18039026724841478
863.0,0.18006143064460467
862.0,0.17986424812957003
861.0,0.17992996568767428
860.0,0.18019293540924397
859.0,0.18039026724841478
858.0,0.18052187163787736
857.0,0.18052187163787736
856.0,0.180587688790675
855.0,0.18065351591954726
854.0,0.18071935302751885
853.0,0.18065351591954726
852.0,0.18032448000570733
851.0,0.18006143064460467
850.0,0.17986424812957003
849.0,0.17979854051435984
848.0,0.17979854051435984
847.0,0.17986424812957003
846.0,0.18019293540924397
845.0,0.1812464095022832
844.0,0.1838913292600961
843.0,0.18849202005467336
842.0,0.19449914184159978
841.0,0.20038379551850105
840.0,0.20425897913075608
839.0,0.20516354218543853
838.0,0.20328693671910347
837.0,0.20003947259401644
836.0,0.19688444510997294
835.0,0.19470308384201496
834.0,0.1934808659192948
833.0,0.1928710444075783
832.0,0.1926002872405146
831.0,0.19226207798589923
830.0,0.19192413190869306
829.0,0.19151894343404896
828.0,0.1911815749078758
827.0,0.19070969882368427
826.0,0.18996921359416064
825.0,0.18922998876563635
824.0,0.18889439298206967
823.0,0.18916284885951162
822.0,0.189767482004916
821.0,0.19010375339756092
820.0,0.18990195931885712
819.0,0.18936429972446267
818.0,0.18882730493344568
817.0,0.18849202005467336
816.0,0.18842499412940672
815.0,0.18869315991866387
814.0,0.18936429972446267
813.0,0.19037295810595034
812.0,0.19165396425960513
811.0,0.1928710444075783
810.0,0.1941594511853273
809.0,0.19545169161194398
808.0,0.196747788569543
807.0,0.1977052886025361
806.0,0.19797924822802404
805.0,0.19749993223560658
804.0,0.19661117501638659
803.0,0.19572423287090612
802.0,0.19497515557019485
801.0,0.1944311824514442
800.0,0.1941594511853273
799.0,0.1940236492824372
798.0,0.19395576425191186
797.0,0.19395576425191186
796.0,0.19422736806433094
795.0,0.19456711186786002
794.0,0.19490712165732704
793.0,0.19504320014250842
792.0,0.19517932127883775
791.0,0.19524739784953948
790.0,0.19511125537760865
789.0,0.1948390984005659
788.0,0.19449914184159978
787.0,0.19429529556613567
786.0,0.19429529556613567
785.0,0.19422736806433094
784.0,0.19409154492580294
783.0,0.1940236492824372
782.0,0.1941594511853273
781.0,0.1941594511853273
780.0,0.1941594511853273
779.0,0.1941594511853273
778.0,0.19436323369406505
777.0,0.1948390984005659
776.0,0.19531548509305963
775.0,0.19558794086228604
774.0,0.19551981089400727
773.0,0.19511125537760865
772.0,0.1946350925335547
771.0,0.19436323369406505
770.0,0.19449914184159978
769.0,0.19477108579657387
768.0,0.19497515557019485
767.0,0.19490712165732704
766.0,0.1948390984005659
765.0,0.1948390984005659
764.0,0.19497515557019485
763.0,0.19531548509305963
762.0,0.19545169161194398
761.0,0.19538358301274483
760.0,0.19511125537760865
759.0,0.19497515557019485
758.0,0.19524739784953948
757.0,0.19558794086228604
756.0,0.19565608152013425
755.0,0.19545169161194398
754.0,0.19531548509305963
753.0,0.19545169161194398
752.0,0.19592875111433883
751.0,0.19640633522865558
750.0,0.196747788569543
749.0,0.19688444510997294
748.0,0.196747788569543
747.0,0.19613336571501572
746.0,0.19538358301274483
745.0,0.19490712165732704
744.0,0.19490712165732704
743.0,0.19531548509305963
742.0,0.19572423287090612
741.0,0.19599694527038736
740.0,0.19613336571501572
739.0,0.1960651501361581
738.0,0.19586056766464965
737.0,0.19558794086228604
736.0,0.19579239491795852
735.0,0.19661117501638659
734.0,0.19777376230892996
733.0,0.19887081242029603
732.0,0.19928292171761486
731.0,0.19887081242029603
730.0,0.1979107421182673
729.0,0.1969527895088714
728.0,0.19640633522865558
727.0,0.19640633522865558
726.0,0.19688444510997294
725.0,0.19756837356927637
724.0,0.1981162928747604
723.0,0.19832194096410682
722.0,0.19797924822802404
721.0,0.19749993223560658
720.0,0.19729467292564795
719.0,0.1976368256904526
718.0,0.19832194096410682
717.0,0.19893947015214453
716.0,0.19914550849643908
715.0,0.19893947015214453
714.0,0.19832194096410682
713.0,0.19784224681303852
712.0,0.19784224681303852
711.0,0.19825338078053978
710.0,0.19887081242029603
709.0,0.1990081387398286
708.0,0.1985276864785288
707.0,0.1976368256904526
706.0,0.196747788569543
705.0,0.19640633522865558
704.0,0.19667947642124606
703.0,0.19749993223560658
702.0,0.19845909380968174
701.0,0.19928292171761486
700.0,0.19976421067264605
699.0,0.19969542244380145
698.0,0.1990768181867817
697.0,0.1985276864785288
696.0,0.1983905119726812
695.0,0.19893947015214453
694.0,0.19962664510865036
693.0,0.20010831534313467
692.0,0.20010831534313467
691.0,0.19955787866374353
690.0,0.1983905119726812
689.0,0.196747788569543
688.0,0.19504320014250842
687.0,0.19368433019188647
686.0,0.1928033392890527
685.0,0.19246497193114664
684.0,0.19266796070880954
683.0,0.1934808659192948
682.0,0.19436323369406505
681.0,0.19490712165732704
680.0,0.19490712165732704
679.0,0.1946350925335547
678.0,0.19470308384201496
677.0,0.19558794086228604
676.0,0.19708951058096025
675.0,0.1981162928747604
674.0,0.1981848314185628
673.0,0.1976368256904526
672.0,0.1969527895088714
671.0,0.19586056766464965
670.0,0.1941594511853273
669.0,0.1919917000896001
668.0,0.19084446825281964
667.0,0.19314197048118253
666.0,0.19592875111433883
665.0,0.19579239491795852
664.0,0.19456711186786002
663.0,0.19409154492580294
662.0,0.1944311824514442
661.0,0.19497515557019485
660.0,0.19531548509305963
659.0,0.19524739784953948
658.0,0.19477108579657387
657.0,0.1941594511853273
656.0,0.19436323369406505
655.0,0.19551981089400727
654.0,0.19654288435158618
653.0,0.1962698290254561
652.0,0.19470308384201496
651.0,0.192938760082761
650.0,0.19192413190869306
649.0,0.19165396425960513
648.0,0.1917214904172322
647.0,0.19226207798589923
646.0,0.19375217280420953
645.0,0.19620159201032594
644.0,0.1987335295103798
643.0,0.20017716900668026
642.0,0.19990181982522426
641.0,0.198596289982645
640.0,0.1981162928747604
639.0,0.19997064075586568
638.0,0.20391157131933157
637.0,0.20859008433283988
636.0,0.21232703531250707
635.0,0.2141009716156166
634.0,0.21339052735134012
633.0,0.21056031543282083
632.0,0.20669864638688495
631.0,0.20328693671910347
630.0,0.20114226825251436
629.0,0.20059052038487324
628.0,0.2009352806489919
627.0,0.20114226825251436
626.0,0.20010831534313467
625.0,0.1980477651457182
624.0,0.19613336571501572
623.0,0.19579239491795852
622.0,0.19736308191718943
621.0,0.200246033588114
620.0,0.20273245916928362
619.0,0.2032175882986922
618.0,0.2010042655561186
617.0,0.19729467292564795
616.0,0.19477108579657387
615.0,0.1946350925335547
614.0,0.19572423287090612
613.0,0.1962698290254561
612.0,0.1960651501361581
611.0,0.19647460442346754
610.0,0.1979107421182673
609.0,0.19962664510865036
608.0,0.20031490909089955
607.0,0.19955787866374353
606.0,0.1980477651457182
605.0,0.19654288435158618
604.0,0.19545169161194398
603.0,0.19524739784953948
602.0,0.1962698290254561
601.0,0.19777376230892996
600.0,0.19825338078053978
