cm-1,A
4000.0,0.0003910410285830057
3999.0,0.00021720154586435392
3998.0,8.686758342868472e-05
3997.0,-4.3427276862573194e-05
3996.0,-8.685021164911433e-05
3995.0,-4.3427276862573194e-05
3994.0,4.343161980746579e-05
3993.0,8.686758342868472e-05
3992.0,8.686758342868472e-05
3991.0,4.343161980746579e-05
3990.0,-4.3427276862573194e-05
3989.0,-0.00013026880522692963
3988.0,-0.00017368305846510168
3987.0,-0.00017368305846510168
3986.0,-0.00021709297223004853
3985.0,-0.00021709297223004853
3984.0,-0.00013026880522692963
3983.0,0.0
3982.0,0.00017375254558760211
3981.0,0.00021720154586435392
3980.0,0.00017375254558760211
3979.0,8.686758342868472e-05
3978.0,4.343161980746579e-05
3977.0,0.0
3976.0,4.343161980746579e-05
3975.0,4.343161980746579e-05
3974.0,8.686758342868472e-05
3973.0,8.686758342868472e-05
3972.0,0.0001303078917322953
3971.0,0.00017375254558760211
3970.0,0.00017375254558760211
3969.0,0.0001303078917322953
3968.0,8.686758342868472e-05
3967.0,-4.3427276862573194e-05
3966.0,-8.685021164911433e-05
3965.0,-0.00013026880522692963
3964.0,-0.00013026880522692963
3963.0,-0.00013026880522692963
3962.0,-0.00013026880522692963
3961.0,-0.00013026880522692963
3960.0,-0.00013026880522692963
3959.0,-0.00013026880522692963
3958.0,-0.00013026880522692963
3957.0,-0.00021709297223004853
3956.0,-0.00030389978481260016
3955.0,-0.0003906892499099257
3954.0,-0.0003906892499099257
3953.0,-0.0003472966853634851
3952.0,-0.0002604985473904087
3951.0,-0.00021709297223004853
3950.0,-0.00017368305846510168
3949.0,-0.00021709297223004853
3948.0,-0.00021709297223004853
3947.0,-0.00021709297223004853
3946.0,-0.00021709297223004853
3945.0,-0.00017368305846510168
3944.0,-0.00021709297223004853
3943.0,-0.0003472966853634851
3942.0,-0.0005208409361854294
3941.0,-0.0006075870628903246
3940.0,-0.0005642161653756084
3939.0,-0.0003906892499099257
3938.0,-0.00017368305846510168
3937.0,0.0
3936.0,0.0001303078917322953
3935.0,0.00017375254558760211
3934.0,0.0001303078917322953
3933.0,4.343161980746579e-05
3932.0,4.343161980746579e-05
3931.0,4.343161980746579e-05
3930.0,4.343161980746579e-05
3929.0,4.343161980746579e-05
3928.0,-4.3427276862573194e-05
3927.0,-0.00017368305846510168
3926.0,-0.00030389978481260016
3925.0,-0.0003906892499099257
3924.0,-0.0003472966853634851
3923.0,-0.00021709297223004853
3922.0,-8.685021164911433e-05
3921.0,-8.685021164911433e-05
3920.0,-0.00013026880522692963
3919.0,-0.00021709297223004853
3918.0,-0.0002604985473904087
3917.0,-0.0002604985473904087
3916.0,-0.00021709297223004853
3915.0,-8.685021164911433e-05
3914.0,0.0
3913.0,8.686758342868472e-05
3912.0,0.00017375254558760211
3911.0,0.00017375254558760211
3910.0,0.00017375254558760211
3909.0,8.686758342868472e-05
3908.0,-4.3427276862573194e-05
3907.0,-0.00017368305846510168
3906.0,-0.00021709297223004853
3905.0,-0.0002604985473904087
3904.0,-0.0002604985473904087
3903.0,-0.0003472966853634851
3902.0,-0.0003906892499099257
3901.0,-0.0003906892499099257
3900.0,-0.00030389978481260016
3899.0,-0.00021709297223004853
3898.0,-0.00013026880522692963
3897.0,-8.685021164911433e-05
3896.0,-8.685021164911433e-05
3895.0,-0.00013026880522692963
3894.0,-0.00017368305846510168
3893.0,-0.00013026880522692963
3892.0,-8.685021164911433e-05
3891.0,-0.00017368305846510168
3890.0,-0.00030389978481260016
3889.0,-0.0004774613744551459
3888.0,-0.0006075870628903246
3887.0,-0.0006943158663546001
3886.0,-0.0006943158663546001
3885.0,-0.0006509536295951079
3884.0,-0.0005642161653756084
3883.0,-0.00043407747931878404
3882.0,-0.0002604985473904087
3881.0,-0.00013026880522692963
3880.0,-4.3427276862573194e-05
3879.0,-4.3427276862573194e-05
3878.0,-8.685021164911433e-05
3877.0,-4.3427276862573194e-05
3876.0,-4.3427276862573194e-05
3875.0,-8.685021164911433e-05
3874.0,-0.00021709297223004853
3873.0,-0.00043407747931878404
3872.0,-0.0006075870628903246
3871.0,-0.0007376737740329986
3870.0,-0.0007810273534953893
3869.0,-0.0006943158663546001
3868.0,-0.0005642161653756084
3867.0,-0.0003906892499099257
3866.0,-0.0002604985473904087
3865.0,-0.00021709297223004853
3864.0,-0.00021709297223004853
3863.0,-0.0002604985473904087
3862.0,-0.0002604985473904087
3861.0,-0.00021709297223004853
3860.0,-0.00017368305846510168
3859.0,-0.00017368305846510168
3858.0,-0.0002604985473904087
3857.0,-0.0003906892499099257
3856.0,-0.0005642161653756084
3855.0,-0.0006075870628903246
3854.0,-0.0005642161653756084
3853.0,-0.0005642161653756084
3852.0,-0.0006075870628903246
3851.0,-0.0004774613744551459
3850.0,-0.0002604985473904087
3849.0,-0.00013026880522692963
3848.0,-8.685021164911433e-05
3847.0,-8.685021164911433e-05
3846.0,-8.685021164911433e-05
3845.0,-8.685021164911433e-05
3844.0,-0.00013026880522692963
3843.0,-0.00017368305846510168
3842.0,-0.00021709297223004853
3841.0,-0.00030389978481260016
3840.0,-0.00030389978481260016
3839.0,-0.00030389978481260016
3838.0,-0.0003472966853634851
3837.0,-0.0003472966853634851
3836.0,-0.00030389978481260016
3835.0,-0.00021709297223004853
3834.0,-8.685021164911433e-05
3833.0,-4.3427276862573194e-05
3832.0,-8.685021164911433e-05
3831.0,-0.00017368305846510168
3830.0,-0.00021709297223004853
3829.0,-0.00017368305846510168
3828.0,-8.685021164911433e-05
3827.0,0.0
3826.0,0.0
3825.0,-8.685021164911433e-05
3824.0,-0.00021709297223004853
3823.0,-0.0002604985473904087
3822.0,-0.00017368305846510168
3821.0,-8.685021164911433e-05
3820.0,-8.685021164911433e-05
3819.0,-4.3427276862573194e-05
3818.0,4.343161980746579e-05
3817.0,0.0001303078917322953
3816.0,0.0001303078917322953
3815.0,0.0
3814.0,-4.3427276862573194e-05
3813.0,0.0
3812.0,4.343161980746579e-05
3811.0,8.686758342868472e-05
3810.0,0.0001303078917322953
3809.0,0.00021720154586435392
3808.0,0.00030411258916074324
3807.0,0.0003475746339209884
3806.0,0.00017375254558760211
3805.0,-4.3427276862573194e-05
3804.0,-0.00017368305846510168
3803.0,-0.00021709297223004853
3802.0,-8.685021164911433e-05
3801.0,-8.685021164911433e-05
3800.0,-0.00013026880522692963
3799.0,-0.00017368305846510168
3798.0,-0.00013026880522692963
3797.0,-4.3427276862573194e-05
3796.0,0.0
3795.0,4.343161980746579e-05
3794.0,4.343161980746579e-05
3793.0,8.686758342868472e-05
3792.0,8.686758342868472e-05
3791.0,0.00017375254558760211
3790.0,0.00026065489343207737
3789.0,0.00030411258916074324
3788.0,0.00026065489343207737
3787.0,0.00021720154586435392
3786.0,0.0001303078917322953
3785.0,8.686758342868472e-05
3784.0,8.686758342868472e-05
3783.0,0.0001303078917322953
3782.0,0.00021720154586435392
3781.0,0.00026065489343207737
3780.0,0.00026065489343207737
3779.0,0.00021720154586435392
3778.0,0.0001303078917322953
3777.0,8.686758342868472e-05
3776.0,8.686758342868472e-05
3775.0,4.343161980746579e-05
3774.0,-4.3427276862573194e-05
3773.0,-0.00017368305846510168
3772.0,-0.00021709297223004853
3771.0,-0.00021709297223004853
3770.0,-0.00013026880522692963
3769.0,-8.685021164911433e-05
3768.0,-8.685021164911433e-05
3767.0,-0.00021709297223004853
3766.0,-0.0003472966853634851
3765.0,-0.0004774613744551459
3764.0,-0.0005208409361854294
3763.0,-0.00043407747931878404
3762.0,-0.00030389978481260016
3761.0,-0.00021709297223004853
3760.0,-0.00013026880522692963
3759.0,-0.00017368305846510168
3758.0,-0.0002604985473904087
3757.0,-0.0003472966853634851
3756.0,-0.0004774613744551459
3755.0,-0.0005642161653756084
3754.0,-0.0006509536295951079
3753.0,-0.0006509536295951079
3752.0,-0.0005642161653756084
3751.0,-0.0004774613744551459
3750.0,-0.0005642161653756084
3749.0,-0.0007376737740329986
3748.0,-0.0007376737740329986
3747.0,-0.0005642161653756084
3746.0,-0.00030389978481260016
3745.0,-0.00013026880522692963
3744.0,-0.0002604985473904087
3743.0,-0.0005642161653756084
3742.0,-0.0006075870628903246
3741.0,-0.0005208409361854294
3740.0,-0.0004774613744551459
3739.0,-0.00043407747931878404
3738.0,-0.0003906892499099257
3737.0,-0.00030389978481260016
3736.0,-0.00021709297223004853
3735.0,-0.00017368305846510168
3734.0,-0.0002604985473904087
3733.0,-0.0003472966853634851
3732.0,-0.0003472966853634851
3731.0,-0.00030389978481260016
3730.0,-0.00021709297223004853
3729.0,-8.685021164911433e-05
3728.0,0.0
3727.0,0.0
3726.0,-4.3427276862573194e-05
3725.0,-0.00013026880522692963
3724.0,-0.00017368305846510168
3723.0,-0.00017368305846510168
3722.0,-0.00021709297223004853
3721.0,-0.00021709297223004853
3720.0,-0.00021709297223004853
3719.0,-0.00021709297223004853
3718.0,-0.0002604985473904087
3717.0,-0.0003472966853634851
3716.0,-0.00043407747931878404
3715.0,-0.0005208409361854294
3714.0,-0.0004774613744551459
3713.0,-0.00030389978481260016
3712.0,4.343161980746579e-05
3711.0,0.00026065489343207737
3710.0,0.0003475746339209884
3709.0,0.0003475746339209884
3708.0,0.00030411258916074324
3707.0,0.00026065489343207737
3706.0,0.0001303078917322953
3705.0,-4.3427276862573194e-05
3704.0,-0.00017368305846510168
3703.0,-0.00021709297223004853
3702.0,-0.00017368305846510168
3701.0,-4.3427276862573194e-05
3700.0,4.343161980746579e-05
3699.0,0.0001303078917322953
3698.0,0.00026065489343207737
3697.0,0.00030411258916074324
3696.0,0.00030411258916074324
3695.0,0.00030411258916074324
3694.0,0.00030411258916074324
3693.0,0.00021720154586435392
3692.0,0.0001303078917322953
3691.0,4.343161980746579e-05
3690.0,-8.685021164911433e-05
3689.0,-0.00013026880522692963
3688.0,-0.00013026880522692963
3687.0,-4.3427276862573194e-05
3686.0,8.686758342868472e-05
3685.0,0.00017375254558760211
3684.0,0.00021720154586435392
3683.0,0.00017375254558760211
3682.0,0.0001303078917322953
3681.0,4.343161980746579e-05
3680.0,-8.685021164911433e-05
3679.0,-0.00021709297223004853
3678.0,-0.0003906892499099257
3677.0,-0.00043407747931878404
3676.0,-0.0003472966853634851
3675.0,-0.0003472966853634851
3674.0,-0.00043407747931878404
3673.0,-0.0003906892499099257
3672.0,-0.00030389978481260016
3671.0,-0.00017368305846510168
3670.0,-4.3427276862573194e-05
3669.0,-4.3427276862573194e-05
3668.0,-4.3427276862573194e-05
3667.0,0.0
3666.0,4.343161980746579e-05
3665.0,0.0001303078917322953
3664.0,0.00021720154586435392
3663.0,0.00026065489343207737
3662.0,0.00026065489343207737
3661.0,0.00017375254558760211
3660.0,8.686758342868472e-05
3659.0,4.343161980746579e-05
3658.0,8.686758342868472e-05
3657.0,8.686758342868472e-05
3656.0,-4.3427276862573194e-05
3655.0,-0.00021709297223004853
3654.0,-0.0003906892499099257
3653.0,-0.0004774613744551459
3652.0,-0.0005208409361854294
3651.0,-0.0004774613744551459
3650.0,-0.00030389978481260016
3649.0,-0.00021709297223004853
3648.0,-0.00017368305846510168
3647.0,-8.685021164911433e-05
3646.0,4.343161980746579e-05
3645.0,0.00017375254558760211
3644.0,0.00026065489343207737
3643.0,0.00030411258916074324
3642.0,0.00030411258916074324
3641.0,0.0003475746339209884
3640.0,0.00043451177401765406
3639.0,0.0005649501236701937
3638.0,0.0006954276616513155
3637.0,0.0007389288868995258
3636.0,0.0007389288868995258
3635.0,0.0005649501236701937
3634.0,0.0003910410285830057
3633.0,0.00021720154586435392
3632.0,8.686758342868472e-05
3631.0,0.0001303078917322953
3630.0,0.00030411258916074324
3629.0,0.0003910410285830057
3628.0,0.00026065489343207737
3627.0,0.0001303078917322953
3626.0,0.00021720154586435392
3625.0,0.0003475746339209884
3624.0,0.00043451177401765406
3623.0,0.00043451177401765406
3622.0,0.0003475746339209884
3621.0,0.00026065489343207737
3620.0,0.00021720154586435392
3619.0,0.0001303078917322953
3618.0,0.0
3617.0,-0.00013026880522692963
3616.0,-8.685021164911433e-05
3615.0,8.686758342868472e-05
3614.0,0.0003475746339209884
3613.0,0.000521466320689834
3612.0,0.0006084382809090627
3611.0,0.0006519307932786322
3610.0,0.0007389288868995258
3609.0,0.0008259444115150671
3608.0,0.000869458712629001
3607.0,0.0007389288868995258
3606.0,0.0006519307932786322
3605.0,0.0006084382809090627
3604.0,0.0006084382809090627
3603.0,0.0007389288868995258
3602.0,0.000869458712629001
3601.0,0.0010000277816797354
3600.0,0.0010870956412141197
3599.0,0.0010870956412141197
3598.0,0.0010870956412141197
3597.0,0.0010435595295137379
3596.0,0.0009129773741116676
3595.0,0.0008259444115150671
3594.0,0.0007389288868995258
3593.0,0.0006954276616513155
3592.0,0.0006519307932786322
3591.0,0.0006519307932786322
3590.0,0.0006519307932786322
3589.0,0.0007389288868995258
3588.0,0.0008259444115150671
3587.0,0.000869458712629001
3586.0,0.0009129773741116676
3585.0,0.0009565003968372565
3584.0,0.0010000277816797354
3583.0,0.0010435595295137379
3582.0,0.0010435595295137379
3581.0,0.0010000277816797354
3580.0,0.0010000277816797354
3579.0,0.0009565003968372565
3578.0,0.0009129773741116676
3577.0,0.0009565003968372565
3576.0,0.0010870956412141197
3575.0,0.0012612837441823288
3574.0,0.001348404001626502
3573.0,0.001348404001626502
3572.0,0.0012612837441823288
3571.0,0.0011741809597138886
3570.0,0.0011306361176557367
3569.0,0.0010870956412141197
3568.0,0.0010870956412141197
3567.0,0.0010870956412141197
3566.0,0.0010870956412141197
3565.0,0.0011741809597138886
3564.0,0.0012612837441823288
3563.0,0.001348404001626502
3562.0,0.0014355417390583547
3561.0,0.0014791171649619628
3560.0,0.0015226969634936083
3559.0,0.001609869681952425
3558.0,0.0016970599014589638
3557.0,0.0017406615763013722
3556.0,0.0016970599014589638
3555.0,0.001609869681952425
3554.0,0.0015662811355310335
3553.0,0.0014791171649619628
3552.0,0.0013919706849057079
3551.0,0.001348404001626502
3550.0,0.0012612837441823288
3549.0,0.0012177301682640973
3548.0,0.0012177301682640973
3547.0,0.001304841688344327
3546.0,0.0014355417390583547
3545.0,0.0016534626036355249
3544.0,0.0018278780605593958
3543.0,0.0019587356365717845
3542.0,0.0019587356365717845
3541.0,0.0018278780605593958
3540.0,0.0016970599014589638
3539.0,0.0016534626036355249
3538.0,0.001609869681952425
3537.0,0.0016970599014589638
3536.0,0.0017842676290416026
3535.0,0.0018278780605593958
3534.0,0.0018714928717336043
3533.0,0.0018278780605593958
3532.0,0.0017842676290416026
3531.0,0.0017406615763013722
3530.0,0.0017842676290416026
3529.0,0.0018278780605593958
3528.0,0.0018278780605593958
3527.0,0.0017842676290416026
3526.0,0.0017842676290416026
3525.0,0.0017842676290416026
3524.0,0.0018278780605593958
3523.0,0.001915112063444413
3522.0,0.0019587356365717845
3521.0,0.0020023635919956817
3520.0,0.0020023635919956817
3519.0,0.0020023635919956817
3518.0,0.0020023635919956817
3517.0,0.0020023635919956817
3516.0,0.0020459959305969555
3515.0,0.0021332737608552588
3514.0,0.0022205691343961664
3513.0,0.0022205691343961664
3512.0,0.0021332737608552588
3511.0,0.002089632653256679
3510.0,0.0021769192542746563
3509.0,0.0023078820582733695
3508.0,0.0024388843664115978
3507.0,0.0024388843664115978
3506.0,0.002351545103793873
3505.0,0.0022642234021015284
3504.0,0.0021332737608552588
3503.0,0.0021332737608552588
3502.0,0.0021332737608552588
3501.0,0.0022205691343961664
3500.0,0.0023078820582733695
3499.0,0.002395212539545666
3498.0,0.002482560585275184
3497.0,0.0025262411970197185
3496.0,0.0025262411970197185
3495.0,0.0025262411970197185
3494.0,0.0024388843664115978
3493.0,0.002395212539545666
3492.0,0.002351545103793873
3491.0,0.002351545103793873
3490.0,0.002395212539545666
3489.0,0.002482560585275184
3488.0,0.002569926202528716
3487.0,0.002613615602686581
3486.0,0.0026573093983774942
3485.0,0.002701007590486082
3484.0,0.002701007590486082
3483.0,0.0026573093983774942
3482.0,0.002613615602686581
3481.0,0.0025262411970197185
3480.0,0.0024388843664115978
3479.0,0.002395212539545666
3478.0,0.0024388843664115978
3477.0,0.002482560585275184
3476.0,0.0024388843664115978
3475.0,0.002351545103793873
3474.0,0.0022642234021015284
3473.0,0.0022205691343961664
3472.0,0.0022642234021015284
3471.0,0.0024388843664115978
3470.0,0.0026573093983774942
3469.0,0.0028758443407954637
3468.0,0.0030070181092942683
3467.0,0.003050751504618754
3466.0,0.0030070181092942683
3465.0,0.0028321285541661467
3464.0,0.002701007590486082
3463.0,0.002613615602686581
3462.0,0.002569926202528716
3461.0,0.002613615602686581
3460.0,0.0026573093983774942
3459.0,0.002701007590486082
3458.0,0.0027447101798967477
3457.0,0.0028321285541661467
3456.0,0.0029195645282691363
3455.0,0.0030944893043338695
3454.0,0.0032257291386954545
3453.0,0.0032257291386954545
3452.0,0.0030944893043338695
3451.0,0.0028758443407954637
3450.0,0.0027447101798967477
3449.0,0.0027447101798967477
3448.0,0.0027884171674950053
3447.0,0.0028321285541661467
3446.0,0.0028321285541661467
3445.0,0.0027884171674950053
3444.0,0.0027447101798967477
3443.0,0.0027884171674950053
3442.0,0.0028321285541661467
3441.0,0.0028321285541661467
3440.0,0.0027884171674950053
3439.0,0.0026573093983774942
3438.0,0.002613615602686581
3437.0,0.0026573093983774942
3436.0,0.0028321285541661467
3435.0,0.0030070181092942683
3434.0,0.0031819781204844855
3433.0,0.0031819781204844855
3432.0,0.0030944893043338695
3431.0,0.0029632891174733444
3430.0,0.0029195645282691363
3429.0,0.0029632891174733444
3428.0,0.0031382315093266833
3427.0,0.0032694845648473247
3426.0,0.0033570086445275926
3425.0,0.0034007772998332353
3424.0,0.0033570086445275926
3423.0,0.0032694845648473247
3422.0,0.0031819781204844855
3421.0,0.003050751504618754
3420.0,0.0029632891174733444
3419.0,0.0029195645282691363
3418.0,0.0029195645282691363
3417.0,0.0030070181092942683
3416.0,0.0030944893043338695
3415.0,0.0031819781204844855
3414.0,0.0032257291386954545
3413.0,0.0032257291386954545
3412.0,0.0032257291386954545
3411.0,0.0033132443998284966
3410.0,0.0034445503666347133
3409.0,0.0035321097382827737
3408.0,0.0035758960449088217
3407.0,0.0035321097382827737
3406.0,0.0034007772998332353
3405.0,0.0033570086445275926
3404.0,0.0034007772998332353
3403.0,0.0035321097382827737
3402.0,0.003619686766589858
3401.0,0.0036634819042162814
3400.0,0.003619686766589858
3399.0,0.0035758960449088217
3398.0,0.0035758960449088217
3397.0,0.0036634819042162814
3396.0,0.003794893821675638
3395.0,0.003970171588923321
3394.0,0.004101676353562844
3393.0,0.004189368323957332
3392.0,0.004145520125434121
3391.0,0.003970171588923321
3390.0,0.003707281458678491
3389.0,0.003488327845821315
3388.0,0.0034445503666347133
3387.0,0.0035321097382827737
3386.0,0.003707281458678491
3385.0,0.0038825238627120395
3384.0,0.003970171588923321
3383.0,0.003970171588923321
3382.0,0.003970171588923321
3381.0,0.0038825238627120395
3380.0,0.003794893821675638
3379.0,0.003619686766589858
3378.0,0.003488327845821315
3377.0,0.0034007772998332353
3376.0,0.0034007772998332353
3375.0,0.0034445503666347133
3374.0,0.0035321097382827737
3373.0,0.0035758960449088217
3372.0,0.0036634819042162814
3371.0,0.0037510854308679953
3370.0,0.0038387066319929275
3369.0,0.003926345514724705
3368.0,0.003970171588923321
3367.0,0.00401400208620073
3366.0,0.0040578370074493275
3365.0,0.0040578370074493275
3364.0,0.004101676353562844
3363.0,0.004101676353562844
3362.0,0.0040578370074493275
3361.0,0.00401400208620073
3360.0,0.003926345514724705
3359.0,0.003926345514724705
3358.0,0.003926345514724705
3357.0,0.003926345514724705
3356.0,0.003970171588923321
3355.0,0.003970171588923321
3354.0,0.003970171588923321
3353.0,0.0040578370074493275
3352.0,0.004189368323957332
3351.0,0.004277078004534696
3350.0,0.004277078004534696
3349.0,0.004233220950025984
3348.0,0.004145520125434121
3347.0,0.0040578370074493275
3346.0,0.003970171588923321
3345.0,0.003926345514724705
3344.0,0.003926345514724705
3343.0,0.00401400208620073
3342.0,0.004101676353562844
3341.0,0.004145520125434121
3340.0,0.004101676353562844
3339.0,0.0040578370074493275
3338.0,0.0040578370074493275
3337.0,0.004145520125434121
3336.0,0.004189368323957332
3335.0,0.004189368323957332
3334.0,0.004101676353562844
3333.0,0.004101676353562844
3332.0,0.004101676353562844
3331.0,0.004101676353562844
3330.0,0.00401400208620073
3329.0,0.0038825238627120395
3328.0,0.003707281458678491
3327.0,0.0036634819042162814
3326.0,0.0036634819042162814
3325.0,0.0036634819042162814
3324.0,0.0036634819042162814
3323.0,0.003707281458678491
3322.0,0.0038387066319929275
3321.0,0.003970171588923321
3320.0,0.0040578370074493275
3319.0,0.0040578370074493275
3318.0,0.003970171588923321
3317.0,0.0038387066319929275
3316.0,0.0037510854308679953
3315.0,0.0037510854308679953
3314.0,0.0037510854308679953
3313.0,0.0037510854308679953
3312.0,0.0037510854308679953
3311.0,0.003794893821675638
3310.0,0.0038387066319929275
3309.0,0.0038387066319929275
3308.0,0.003794893821675638
3307.0,0.003707281458678491
3306.0,0.003619686766589858
3305.0,0.0035758960449088217
3304.0,0.0035758960449088217
3303.0,0.003619686766589858
3302.0,0.003707281458678491
3301.0,0.003794893821675638
3300.0,0.003794893821675638
3299.0,0.0036634819042162814
3298.0,0.0034445503666347133
3297.0,0.0033132443998284966
3296.0,0.0033132443998284966
3295.0,0.0034007772998332353
3294.0,0.0035321097382827737
3293.0,0.003619686766589858
3292.0,0.0036634819042162814
3291.0,0.0036634819042162814
3290.0,0.0036634819042162814
3289.0,0.003619686766589858
3288.0,0.0035758960449088217
3287.0,0.003488327845821315
3286.0,0.0034007772998332353
3285.0,0.0034007772998332353
3284.0,0.0034445503666347133
3283.0,0.003488327845821315
3282.0,0.0035758960449088217
3281.0,0.003619686766589858
3280.0,0.0035758960449088217
3279.0,0.0035758960449088217
3278.0,0.0035758960449088217
3277.0,0.0035758960449088217
3276.0,0.003619686766589858
3275.0,0.0036634819042162814
3274.0,0.003707281458678491
3273.0,0.003707281458678491
3272.0,0.0036634819042162814
3271.0,0.0035758960449088217
3270.0,0.003488327845821315
3269.0,0.003488327845821315
3268.0,0.0035758960449088217
3267.0,0.003707281458678491
3266.0,0.0037510854308679953
3265.0,0.003619686766589858
3264.0,0.0034007772998332353
3263.0,0.0032694845648473247
3262.0,0.0031819781204844855
3261.0,0.0031382315093266833
3260.0,0.0031382315093266833
3259.0,0.0031382315093266833
3258.0,0.0031819781204844855
3257.0,0.0032694845648473247
3256.0,0.0033570086445275926
3255.0,0.003488327845821315
3254.0,0.003619686766589858
3253.0,0.003707281458678491
3252.0,0.003707281458678491
3251.0,0.003619686766589858
3250.0,0.0034445503666347133
3249.0,0.0031819781204844855
3248.0,0.0029632891174733444
3247.0,0.0028758443407954637
3246.0,0.0029195645282691363
3245.0,0.003050751504618754
3244.0,0.0031819781204844855
3243.0,0.0033570086445275926
3242.0,0.0035758960449088217
3241.0,0.003794893821675638
3240.0,0.003926345514724705
3239.0,0.00401400208620073
3238.0,0.003926345514724705
3237.0,0.0037510854308679953
3236.0,0.0035758960449088217
3235.0,0.0035321097382827737
3234.0,0.0035758960449088217
3233.0,0.003707281458678491
3232.0,0.0038387066319929275
3231.0,0.003970171588923321
3230.0,0.0040578370074493275
3229.0,0.00401400208620073
3228.0,0.0038825238627120395
3227.0,0.003707281458678491
3226.0,0.0035758960449088217
3225.0,0.0035758960449088217
3224.0,0.0035758960449088217
3223.0,0.003619686766589858
3222.0,0.003619686766589858
3221.0,0.003619686766589858
3220.0,0.0035321097382827737
3219.0,0.003488327845821315
3218.0,0.0034445503666347133
3217.0,0.0034007772998332353
3216.0,0.0033570086445275926
3215.0,0.0033132443998284966
3214.0,0.0032694845648473247
3213.0,0.0033132443998284966
3212.0,0.0034007772998332353
3211.0,0.003488327845821315
3210.0,0.0035758960449088217
3209.0,0.0035321097382827737
3208.0,0.0033570086445275926
3207.0,0.0031382315093266833
3206.0,0.003050751504618754
3205.0,0.0030944893043338695
3204.0,0.0032257291386954545
3203.0,0.0033132443998284966
3202.0,0.0032694845648473247
3201.0,0.0030944893043338695
3200.0,0.0030070181092942683
3199.0,0.003050751504618754
3198.0,0.0031819781204844855
3197.0,0.0032694845648473247
3196.0,0.0032694845648473247
3195.0,0.0032257291386954545
3194.0,0.0031819781204844855
3193.0,0.0031819781204844855
3192.0,0.0031819781204844855
3191.0,0.0031819781204844855
3190.0,0.0032257291386954545
3189.0,0.0031819781204844855
3188.0,0.0031382315093266833
3187.0,0.0029632891174733444
3186.0,0.0027447101798967477
3185.0,0.002613615602686581
3184.0,0.002613615602686581
3183.0,0.0027447101798967477
3182.0,0.0029195645282691363
3181.0,0.003050751504618754
3180.0,0.003050751504618754
3179.0,0.0030070181092942683
3178.0,0.0029632891174733444
3177.0,0.0029195645282691363
3176.0,0.0028758443407954637
3175.0,0.0027884171674950053
3174.0,0.002701007590486082
3173.0,0.0027447101798967477
3172.0,0.0028758443407954637
3171.0,0.003050751504618754
3170.0,0.0031819781204844855
3169.0,0.0031382315093266833
3168.0,0.0030070181092942683
3167.0,0.0027447101798967477
3166.0,0.002569926202528716
3165.0,0.0025262411970197185
3164.0,0.0025262411970197185
3163.0,0.0026573093983774942
3162.0,0.0027884171674950053
3161.0,0.0028758443407954637
3160.0,0.0028758443407954637
3159.0,0.0027884171674950053
3158.0,0.0026573093983774942
3157.0,0.0025262411970197185
3156.0,0.0024388843664115978
3155.0,0.0024388843664115978
3154.0,0.0024388843664115978
3153.0,0.0024388843664115978
3152.0,0.002395212539545666
3151.0,0.002395212539545666
3150.0,0.0024388843664115978
3149.0,0.002569926202528716
3148.0,0.002701007590486082
3147.0,0.0028321285541661467
3146.0,0.0029195645282691363
3145.0,0.0028758443407954637
3144.0,0.0027884171674950053
3143.0,0.0026573093983774942
3142.0,0.0025262411970197185
3141.0,0.002351545103793873
3140.0,0.0023078820582733695
3139.0,0.0023078820582733695
3138.0,0.002351545103793873
3137.0,0.0024388843664115978
3136.0,0.002482560585275184
3135.0,0.002482560585275184
3134.0,0.0024388843664115978
3133.0,0.002351545103793873
3132.0,0.0022205691343961664
3131.0,0.0021332737608552588
3130.0,0.0020459959305969555
3129.0,0.0020023635919956817
3128.0,0.0020023635919956817
3127.0,0.0020459959305969555
3126.0,0.0021332737608552588
3125.0,0.0021769192542746563
3124.0,0.0022205691343961664
3123.0,0.0022642234021015284
3122.0,0.0023078820582733695
3121.0,0.002395212539545666
3120.0,0.0024388843664115978
3119.0,0.002482560585275184
3118.0,0.0024388843664115978
3117.0,0.002395212539545666
3116.0,0.0022642234021015284
3115.0,0.002089632653256679
3114.0,0.001915112063444413
3113.0,0.0017842676290416026
3112.0,0.0017406615763013722
3111.0,0.0017406615763013722
3110.0,0.0017406615763013722
3109.0,0.0018278780605593958
3108.0,0.001915112063444413
3107.0,0.0019587356365717845
3106.0,0.0020023635919956817
3105.0,0.0020023635919956817
3104.0,0.0019587356365717845
3103.0,0.0018714928717336043
3102.0,0.0018278780605593958
3101.0,0.0018714928717336043
3100.0,0.0019587356365717845
3099.0,0.0020459959305969555
3098.0,0.0021769192542746563
3097.0,0.0022205691343961664
3096.0,0.0021769192542746563
3095.0,0.0020459959305969555
3094.0,0.0018278780605593958
3093.0,0.0016534626036355249
3092.0,0.0015662811355310335
3091.0,0.0015226969634936083
3090.0,0.0014791171649619628
3089.0,0.0015226969634936083
3088.0,0.001609869681952425
3087.0,0.0017406615763013722
3086.0,0.001915112063444413
3085.0,0.0019587356365717845
3084.0,0.001915112063444413
3083.0,0.0017842676290416026
3082.0,0.001609869681952425
3081.0,0.0015226969634936083
3080.0,0.0015226969634936083
3079.0,0.001609869681952425
3078.0,0.0016970599014589638
3077.0,0.0016970599014589638
3076.0,0.0016970599014589638
3075.0,0.0016970599014589638
3074.0,0.0016970599014589638
3073.0,0.0016970599014589638
3072.0,0.0016534626036355249
3071.0,0.0015662811355310335
3070.0,0.0015662811355310335
3069.0,0.0015662811355310335
3068.0,0.0015662811355310335
3067.0,0.001609869681952425
3066.0,0.001609869681952425
3065.0,0.001609869681952425
3064.0,0.0016534626036355249
3063.0,0.0016970599014589638
3062.0,0.0017842676290416026
3061.0,0.0018278780605593958
3060.0,0.0018714928717336043
3059.0,0.0017842676290416026
3058.0,0.0016970599014589638
3057.0,0.0015662811355310335
3056.0,0.0013919706849057079
3055.0,0.001348404001626502
3054.0,0.001348404001626502
3053.0,0.0014355417390583547
3052.0,0.0015662811355310335
3051.0,0.001609869681952425
3050.0,0.0015662811355310335
3049.0,0.0015226969634936083
3048.0,0.0014355417390583547
3047.0,0.0013919706849057079
3046.0,0.0013919706849057079
3045.0,0.0013919706849057079
3044.0,0.0013919706849057079
3043.0,0.0013919706849057079
3042.0,0.0013919706849057079
3041.0,0.0013919706849057079
3040.0,0.0014355417390583547
3039.0,0.0014791171649619628
3038.0,0.0015226969634936083
3037.0,0.0015226969634936083
3036.0,0.0014791171649619628
3035.0,0.0013919706849057079
3034.0,0.0013919706849057079
3033.0,0.0013919706849057079
3032.0,0.0014791171649619628
3031.0,0.001609869681952425
3030.0,0.0016970599014589638
3029.0,0.0016970599014589638
3028.0,0.001609869681952425
3027.0,0.0015226969634936083
3026.0,0.0014791171649619628
3025.0,0.0014791171649619628
3024.0,0.0014791171649619628
3023.0,0.0013919706849057079
3022.0,0.001348404001626502
3021.0,0.001304841688344327
3020.0,0.0012612837441823288
3019.0,0.0012612837441823288
3018.0,0.0012177301682640973
3017.0,0.0012177301682640973
3016.0,0.0012612837441823288
3015.0,0.001348404001626502
3014.0,0.001348404001626502
3013.0,0.0012612837441823288
3012.0,0.0011741809597138886
3011.0,0.0011306361176557367
3010.0,0.0011741809597138886
3009.0,0.0011741809597138886
3008.0,0.0012177301682640973
3007.0,0.0011741809597138886
3006.0,0.0011741809597138886
3005.0,0.0012177301682640973
3004.0,0.0012612837441823288
3003.0,0.0012612837441823288
3002.0,0.0012612837441823288
3001.0,0.0011741809597138886
3000.0,0.0010435595295137379
2999.0,0.0010000277816797354
2998.0,0.0010435595295137379
2997.0,0.0011306361176557367
2996.0,0.0011741809597138886
2995.0,0.0011306361176557367
2994.0,0.0010435595295137379
2993.0,0.0010000277816797354
2992.0,0.0010435595295137379
2991.0,0.0010870956412141197
2990.0,0.0011306361176557367
2989.0,0.0011306361176557367
2988.0,0.0010870956412141197
2987.0,0.0010870956412141197
2986.0,0.0010435595295137379
2985.0,0.0010435595295137379
2984.0,0.0010000277816797354
2983.0,0.0009565003968372565
2982.0,0.0009565003968372565
2981.0,0.0009129773741116676
2980.0,0.000869458712629001
2979.0,0.000869458712629001
2978.0,0.0009129773741116676
2977.0,0.0010000277816797354
2976.0,0.0010435595295137379
2975.0,0.0010000277816797354
2974.0,0.0009565003968372565
2973.0,0.000869458712629001
2972.0,0.000869458712629001
2971.0,0.0009129773741116676
2970.0,0.0009565003968372565
2969.0,0.0010000277816797354
2968.0,0.0010435595295137379
2967.0,0.0010435595295137379
2966.0,0.0010435595295137379
2965.0,0.0010000277816797354
2964.0,0.0010435595295137379
2963.0,0.0010435595295137379
2962.0,0.0010870956412141197
2961.0,0.0011306361176557367
2960.0,0.0011306361176557367
2959.0,0.0010870956412141197
2958.0,0.0010435595295137379
2957.0,0.0010435595295137379
2956.0,0.0010000277816797354
2955.0,0.0010000277816797354
2954.0,0.0009565003968372565
2953.0,0.0009565003968372565
2952.0,0.0009565003968372565
2951.0,0.0009565003968372565
2950.0,0.0009565003968372565
2949.0,0.0009565003968372565
2948.0,0.0009565003968372565
2947.0,0.0010000277816797354
2946.0,0.0010870956412141197
2945.0,0.0011306361176557367
2944.0,0.0011306361176557367
2943.0,0.0010435595295137379
2942.0,0.0010435595295137379
2941.0,0.0010870956412141197
2940.0,0.0011741809597138886
2939.0,0.0012612837441823288
2938.0,0.0012612837441823288
2937.0,0.0012177301682640973
2936.0,0.0011741809597138886
2935.0,0.0012177301682640973
2934.0,0.0012612837441823288
2933.0,0.001348404001626502
2932.0,0.0014355417390583547
2931.0,0.0014355417390583547
2930.0,0.0013919706849057079
2929.0,0.001348404001626502
2928.0,0.001348404001626502
2927.0,0.001348404001626502
2926.0,0.001348404001626502
2925.0,0.0013919706849057079
2924.0,0.0013919706849057079
2923.0,0.0013919706849057079
2922.0,0.001304841688344327
2921.0,0.0012612837441823288
2920.0,0.0012177301682640973
2919.0,0.0012177301682640973
2918.0,0.0012612837441823288
2917.0,0.001348404001626502
2916.0,0.001348404001626502
2915.0,0.001348404001626502
2914.0,0.001304841688344327
2913.0,0.0012612837441823288
2912.0,0.0012177301682640973
2911.0,0.0012177301682640973
2910.0,0.001304841688344327
2909.0,0.001348404001626502
2908.0,0.0013919706849057079
2907.0,0.001348404001626502
2906.0,0.0012612837441823288
2905.0,0.0012177301682640973
2904.0,0.0011741809597138886
2903.0,0.0011741809597138886
2902.0,0.0011741809597138886
2901.0,0.0011741809597138886
2900.0,0.0011741809597138886
2899.0,0.0011741809597138886
2898.0,0.0012177301682640973
2897.0,0.001304841688344327
2896.0,0.001348404001626502
2895.0,0.001348404001626502
2894.0,0.001304841688344327
2893.0,0.0012612837441823288
2892.0,0.001304841688344327
2891.0,0.001304841688344327
2890.0,0.0012612837441823288
2889.0,0.0012177301682640973
2888.0,0.0011306361176557367
2887.0,0.0010870956412141197
2886.0,0.0010435595295137379
2885.0,0.0010435595295137379
2884.0,0.0009565003968372565
2883.0,0.0009129773741116676
2882.0,0.0009129773741116676
2881.0,0.0009129773741116676
2880.0,0.0009129773741116676
2879.0,0.0009565003968372565
2878.0,0.0009565003968372565
2877.0,0.0010000277816797354
2876.0,0.0010000277816797354
2875.0,0.0010000277816797354
2874.0,0.0009565003968372565
2873.0,0.0008259444115150671
2872.0,0.0007389288868995258
2871.0,0.0007389288868995258
2870.0,0.0008259444115150671
2869.0,0.0009129773741116676
2868.0,0.0009565003968372565
2867.0,0.0009565003968372565
2866.0,0.0009129773741116676
2865.0,0.0009129773741116676
2864.0,0.0009129773741116676
2863.0,0.0009565003968372565
2862.0,0.0009565003968372565
2861.0,0.0009565003968372565
2860.0,0.0009565003968372565
2859.0,0.0009129773741116676
2858.0,0.0009129773741116676
2857.0,0.000869458712629001
2856.0,0.0009129773741116676
2855.0,0.0009565003968372565
2854.0,0.0010870956412141197
2853.0,0.0011741809597138886
2852.0,0.0012612837441823288
2851.0,0.0012177301682640973
2850.0,0.0011306361176557367
2849.0,0.0010435595295137379
2848.0,0.0010000277816797354
2847.0,0.0010000277816797354
2846.0,0.0009565003968372565
2845.0,0.0009129773741116676
2844.0,0.000869458712629001
2843.0,0.0008259444115150671
2842.0,0.000869458712629001
2841.0,0.0009129773741116676
2840.0,0.0009129773741116676
2839.0,0.0009129773741116676
2838.0,0.0009129773741116676
2837.0,0.0009129773741116676
2836.0,0.0008259444115150671
2835.0,0.0007389288868995258
2834.0,0.0006954276616513155
2833.0,0.0007389288868995258
2832.0,0.0007824344698965646
2831.0,0.000869458712629001
2830.0,0.000869458712629001
2829.0,0.0008259444115150671
2828.0,0.0007389288868995258
2827.0,0.0006519307932786322
2826.0,0.0006519307932786322
2825.0,0.0006954276616513155
2824.0,0.0007389288868995258
2823.0,0.0008259444115150671
2822.0,0.000869458712629001
2821.0,0.0009129773741116676
2820.0,0.0009129773741116676
2819.0,0.0009129773741116676
2818.0,0.0009129773741116676
2817.0,0.0009129773741116676
2816.0,0.0009129773741116676
2815.0,0.000869458712629001
2814.0,0.0007824344698965646
2813.0,0.0007389288868995258
2812.0,0.0006954276616513155
2811.0,0.0006954276616513155
2810.0,0.0006519307932786322
2809.0,0.0006084382809090627
2808.0,0.0005649501236701937
2807.0,0.000521466320689834
2806.0,0.0005649501236701937
2805.0,0.0006519307932786322
2804.0,0.0007389288868995258
2803.0,0.0007389288868995258
2802.0,0.0006954276616513155
2801.0,0.0006084382809090627
2800.0,0.000521466320689834
2799.0,0.000521466320689834
2798.0,0.0006084382809090627
2797.0,0.0006954276616513155
2796.0,0.0007389288868995258
2795.0,0.0007824344698965646
2794.0,0.0008259444115150671
2793.0,0.000869458712629001
2792.0,0.0009129773741116676
2791.0,0.0008259444115150671
2790.0,0.0007389288868995258
2789.0,0.0006519307932786322
2788.0,0.0006519307932786322
2787.0,0.0006954276616513155
2786.0,0.0006954276616513155
2785.0,0.0006954276616513155
2784.0,0.0006084382809090627
2783.0,0.0005649501236701937
2782.0,0.000521466320689834
2781.0,0.000521466320689834
2780.0,0.0005649501236701937
2779.0,0.0006084382809090627
2778.0,0.0005649501236701937
2777.0,0.000521466320689834
2776.0,0.0004779868710962365
2775.0,0.00043451177401765406
2774.0,0.00043451177401765406
2773.0,0.000521466320689834
2772.0,0.0006084382809090627
2771.0,0.0006084382809090627
2770.0,0.0006084382809090627
2769.0,0.0006084382809090627
2768.0,0.0006519307932786322
2767.0,0.0006519307932786322
2766.0,0.0006954276616513155
2765.0,0.0006519307932786322
2764.0,0.0006519307932786322
2763.0,0.0006954276616513155
2762.0,0.0007389288868995258
2761.0,0.0007824344698965646
2760.0,0.0008259444115150671
2759.0,0.000869458712629001
2758.0,0.0008259444115150671
2757.0,0.0007824344698965646
2756.0,0.0006954276616513155
2755.0,0.0006084382809090627
2754.0,0.000521466320689834
2753.0,0.00043451177401765406
2752.0,0.00043451177401765406
2751.0,0.0004779868710962365
2750.0,0.000521466320689834
2749.0,0.0005649501236701937
2748.0,0.0005649501236701937
2747.0,0.0005649501236701937
2746.0,0.000521466320689834
2745.0,0.0004779868710962365
2744.0,0.000521466320689834
2743.0,0.0005649501236701937
2742.0,0.0006084382809090627
2741.0,0.0006519307932786322
2740.0,0.0006519307932786322
2739.0,0.0006519307932786322
2738.0,0.0006084382809090627
2737.0,0.0005649501236701937
2736.0,0.000521466320689834
2735.0,0.0004779868710962365
2734.0,0.00043451177401765406
2733.0,0.0004779868710962365
2732.0,0.000521466320689834
2731.0,0.0006084382809090627
2730.0,0.0006954276616513155
2729.0,0.0006954276616513155
2728.0,0.0006954276616513155
2727.0,0.0006954276616513155
2726.0,0.0006954276616513155
2725.0,0.0006519307932786322
2724.0,0.0006084382809090627
2723.0,0.000521466320689834
2722.0,0.000521466320689834
2721.0,0.000521466320689834
2720.0,0.0005649501236701937
2719.0,0.0006519307932786322
2718.0,0.0006519307932786322
2717.0,0.0006954276616513155
2716.0,0.0006954276616513155
2715.0,0.0006519307932786322
2714.0,0.0006084382809090627
2713.0,0.0005649501236701937
2712.0,0.000521466320689834
2711.0,0.0005649501236701937
2710.0,0.0006084382809090627
2709.0,0.0006084382809090627
2708.0,0.0006084382809090627
2707.0,0.0006519307932786322
2706.0,0.0006954276616513155
2705.0,0.0007389288868995258
2704.0,0.0007389288868995258
2703.0,0.0007389288868995258
2702.0,0.0006954276616513155
2701.0,0.0006519307932786322
2700.0,0.0006084382809090627
2699.0,0.0006519307932786322
2698.0,0.0006954276616513155
2697.0,0.0006954276616513155
2696.0,0.0006954276616513155
2695.0,0.0006519307932786322
2694.0,0.0006519307932786322
2693.0,0.0006519307932786322
2692.0,0.0006954276616513155
2691.0,0.0006954276616513155
2690.0,0.0006084382809090627
2689.0,0.000521466320689834
2688.0,0.0004779868710962365
2687.0,0.00043451177401765406
2686.0,0.000521466320689834
2685.0,0.0005649501236701937
2684.0,0.0006519307932786322
2683.0,0.0006954276616513155
2682.0,0.0006954276616513155
2681.0,0.0006954276616513155
2680.0,0.0006084382809090627
2679.0,0.000521466320689834
2678.0,0.00043451177401765406
2677.0,0.00043451177401765406
2676.0,0.0003910410285830057
2675.0,0.00043451177401765406
2674.0,0.00043451177401765406
2673.0,0.0004779868710962365
2672.0,0.000521466320689834
2671.0,0.0005649501236701937
2670.0,0.0005649501236701937
2669.0,0.0005649501236701937
2668.0,0.000521466320689834
2667.0,0.00043451177401765406
2666.0,0.0004779868710962365
2665.0,0.000521466320689834
2664.0,0.0006084382809090627
2663.0,0.0006084382809090627
2662.0,0.000521466320689834
2661.0,0.00043451177401765406
2660.0,0.0003475746339209884
2659.0,0.0003475746339209884
2658.0,0.0003475746339209884
2657.0,0.0003475746339209884
2656.0,0.0003475746339209884
2655.0,0.0003475746339209884
2654.0,0.0003910410285830057
2653.0,0.0004779868710962365
2652.0,0.0004779868710962365
2651.0,0.0004779868710962365
2650.0,0.0004779868710962365
2649.0,0.0004779868710962365
2648.0,0.0004779868710962365
2647.0,0.0004779868710962365
2646.0,0.0004779868710962365
2645.0,0.000521466320689834
2644.0,0.000521466320689834
2643.0,0.0005649501236701937
2642.0,0.0006084382809090627
2641.0,0.0006084382809090627
2640.0,0.0005649501236701937
2639.0,0.000521466320689834
2638.0,0.000521466320689834
2637.0,0.0005649501236701937
2636.0,0.0005649501236701937
2635.0,0.000521466320689834
2634.0,0.000521466320689834
2633.0,0.0004779868710962365
2632.0,0.00043451177401765406
2631.0,0.00043451177401765406
2630.0,0.00043451177401765406
2629.0,0.0004779868710962365
2628.0,0.0005649501236701937
2627.0,0.0006954276616513155
2626.0,0.0007389288868995258
2625.0,0.0007389288868995258
2624.0,0.0006954276616513155
2623.0,0.0006519307932786322
2622.0,0.0006519307932786322
2621.0,0.0006084382809090627
2620.0,0.0005649501236701937
2619.0,0.000521466320689834
2618.0,0.0005649501236701937
2617.0,0.0006084382809090627
2616.0,0.0006084382809090627
2615.0,0.0005649501236701937
2614.0,0.0005649501236701937
2613.0,0.0004779868710962365
2612.0,0.0004779868710962365
2611.0,0.0004779868710962365
2610.0,0.000521466320689834
2609.0,0.0005649501236701937
2608.0,0.0006084382809090627
2607.0,0.0006519307932786322
2606.0,0.0006519307932786322
2605.0,0.0006519307932786322
2604.0,0.0006519307932786322
2603.0,0.0006084382809090627
2602.0,0.0006084382809090627
2601.0,0.0005649501236701937
2600.0,0.000521466320689834
2599.0,0.000521466320689834
2598.0,0.000521466320689834
2597.0,0.0004779868710962365
2596.0,0.0004779868710962365
2595.0,0.0004779868710962365
2594.0,0.0005649501236701937
2593.0,0.0006519307932786322
2592.0,0.0006954276616513155
2591.0,0.0006519307932786322
2590.0,0.0005649501236701937
2589.0,0.0003910410285830057
2588.0,0.00026065489343207737
2587.0,0.00017375254558760211
2586.0,0.00017375254558760211
2585.0,0.00021720154586435392
2584.0,0.00030411258916074324
2583.0,0.00043451177401765406
2582.0,0.0004779868710962365
2581.0,0.0004779868710962365
2580.0,0.0003475746339209884
2579.0,0.00021720154586435392
2578.0,0.0001303078917322953
2577.0,0.0001303078917322953
2576.0,0.00017375254558760211
2575.0,0.00026065489343207737
2574.0,0.0003475746339209884
2573.0,0.0003910410285830057
2572.0,0.0003910410285830057
2571.0,0.0003910410285830057
2570.0,0.0003475746339209884
2569.0,0.00030411258916074324
2568.0,0.00026065489343207737
2567.0,0.00030411258916074324
2566.0,0.0003475746339209884
2565.0,0.0003910410285830057
2564.0,0.0004779868710962365
2563.0,0.0005649501236701937
2562.0,0.0006084382809090627
2561.0,0.0005649501236701937
2560.0,0.000521466320689834
2559.0,0.0004779868710962365
2558.0,0.00043451177401765406
2557.0,0.00043451177401765406
2556.0,0.00043451177401765406
2555.0,0.00043451177401765406
2554.0,0.0003910410285830057
2553.0,0.0003475746339209884
2552.0,0.00030411258916074324
2551.0,0.0003475746339209884
2550.0,0.0003910410285830057
2549.0,0.0003910410285830057
2548.0,0.00043451177401765406
2547.0,0.0004779868710962365
2546.0,0.000521466320689834
2545.0,0.0005649501236701937
2544.0,0.0006084382809090627
2543.0,0.0006519307932786322
2542.0,0.0006084382809090627
2541.0,0.000521466320689834
2540.0,0.00043451177401765406
2539.0,0.00043451177401765406
2538.0,0.0004779868710962365
2537.0,0.0004779868710962365
2536.0,0.0004779868710962365
2535.0,0.00043451177401765406
2534.0,0.00043451177401765406
2533.0,0.00043451177401765406
2532.0,0.0004779868710962365
2531.0,0.000521466320689834
2530.0,0.000521466320689834
2529.0,0.000521466320689834
2528.0,0.0004779868710962365
2527.0,0.00043451177401765406
2526.0,0.0004779868710962365
2525.0,0.000521466320689834
2524.0,0.0005649501236701937
2523.0,0.000521466320689834
2522.0,0.0004779868710962365
2521.0,0.0003910410285830057
2520.0,0.0003475746339209884
2519.0,0.0003475746339209884
2518.0,0.0003475746339209884
2517.0,0.0003475746339209884
2516.0,0.0003910410285830057
2515.0,0.00043451177401765406
2514.0,0.0004779868710962365
2513.0,0.00043451177401765406
2512.0,0.0003910410285830057
2511.0,0.0003475746339209884
2510.0,0.0003475746339209884
2509.0,0.0003910410285830057
2508.0,0.00043451177401765406
2507.0,0.0004779868710962365
2506.0,0.000521466320689834
2505.0,0.000521466320689834
2504.0,0.0004779868710962365
2503.0,0.0003910410285830057
2502.0,0.00030411258916074324
2501.0,0.00030411258916074324
2500.0,0.00030411258916074324
2499.0,0.00030411258916074324
2498.0,0.00030411258916074324
2497.0,0.0003475746339209884
2496.0,0.0003475746339209884
2495.0,0.0003910410285830057
2494.0,0.0003910410285830057
2493.0,0.0003475746339209884
2492.0,0.00030411258916074324
2491.0,0.00030411258916074324
2490.0,0.00030411258916074324
2489.0,0.00030411258916074324
2488.0,0.0003910410285830057
2487.0,0.00043451177401765406
2486.0,0.000521466320689834
2485.0,0.000521466320689834
2484.0,0.000521466320689834
2483.0,0.0004779868710962365
2482.0,0.0003910410285830057
2481.0,0.0003475746339209884
2480.0,0.00030411258916074324
2479.0,0.0003475746339209884
2478.0,0.0003910410285830057
2477.0,0.00043451177401765406
2476.0,0.0004779868710962365
2475.0,0.00043451177401765406
2474.0,0.00030411258916074324
2473.0,0.00021720154586435392
2472.0,0.0001303078917322953
2471.0,8.686758342868472e-05
2470.0,0.0001303078917322953
2469.0,0.00017375254558760211
2468.0,0.00026065489343207737
2467.0,0.0003475746339209884
2466.0,0.0004779868710962365
2465.0,0.0005649501236701937
2464.0,0.0006084382809090627
2463.0,0.0005649501236701937
2462.0,0.00043451177401765406
2461.0,0.00030411258916074324
2460.0,0.00021720154586435392
2459.0,0.00026065489343207737
2458.0,0.0003475746339209884
2457.0,0.00043451177401765406
2456.0,0.000521466320689834
2455.0,0.000521466320689834
2454.0,0.0004779868710962365
2453.0,0.0004779868710962365
2452.0,0.00043451177401765406
2451.0,0.00043451177401765406
2450.0,0.0003910410285830057
2449.0,0.0003910410285830057
2448.0,0.00043451177401765406
2447.0,0.0004779868710962365
2446.0,0.000521466320689834
2445.0,0.0005649501236701937
2444.0,0.0006519307932786322
2443.0,0.0006519307932786322
2442.0,0.0006084382809090627
2441.0,0.000521466320689834
2440.0,0.0004779868710962365
2439.0,0.0004779868710962365
2438.0,0.00043451177401765406
2437.0,0.00043451177401765406
2436.0,0.00043451177401765406
2435.0,0.00043451177401765406
2434.0,0.0004779868710962365
2433.0,0.000521466320689834
2432.0,0.000521466320689834
2431.0,0.00043451177401765406
2430.0,0.0003475746339209884
2429.0,0.00030411258916074324
2428.0,0.00030411258916074324
2427.0,0.0003475746339209884
2426.0,0.0003910410285830057
2425.0,0.00043451177401765406
2424.0,0.00043451177401765406
2423.0,0.00043451177401765406
2422.0,0.00043451177401765406
2421.0,0.00043451177401765406
2420.0,0.0003910410285830057
2419.0,0.0003475746339209884
2418.0,0.0003475746339209884
2417.0,0.0003910410285830057
2416.0,0.00043451177401765406
2415.0,0.0004779868710962365
2414.0,0.0004779868710962365
2413.0,0.0004779868710962365
2412.0,0.0004779868710962365
2411.0,0.000521466320689834
2410.0,0.000521466320689834
2409.0,0.000521466320689834
2408.0,0.0004779868710962365
2407.0,0.0003910410285830057
2406.0,0.00030411258916074324
2405.0,0.00026065489343207737
2404.0,0.00030411258916074324
2403.0,0.0003475746339209884
2402.0,0.0003910410285830057
2401.0,0.0004779868710962365
2400.0,0.0005649501236701937
2399.0,0.0005649501236701937
2398.0,0.0005649501236701937
2397.0,0.0004779868710962365
2396.0,0.0004779868710962365
2395.0,0.0004779868710962365
2394.0,0.0004779868710962365
2393.0,0.000521466320689834
2392.0,0.000521466320689834
2391.0,0.000521466320689834
2390.0,0.000521466320689834
2389.0,0.000521466320689834
2388.0,0.0005649501236701937
2387.0,0.0005649501236701937
2386.0,0.0006084382809090627
2385.0,0.0006954276616513155
2384.0,0.0007389288868995258
2383.0,0.0007389288868995258
2382.0,0.0007389288868995258
2381.0,0.0006954276616513155
2380.0,0.0005649501236701937
2379.0,0.00043451177401765406
2378.0,0.0003910410285830057
2377.0,0.00043451177401765406
2376.0,0.0005649501236701937
2375.0,0.0006954276616513155
2374.0,0.000869458712629001
2373.0,0.0012177301682640973
2372.0,0.001609869681952425
2371.0,0.0018714928717336043
2370.0,0.0018278780605593958
2369.0,0.0014791171649619628
2368.0,0.000869458712629001
2367.0,0.0001303078917322953
2366.0,-0.00043407747931878404
2365.0,-0.00043407747931878404
2364.0,0.0001303078917322953
2363.0,0.000869458712629001
2362.0,0.0014355417390583547
2361.0,0.0016970599014589638
2360.0,0.0017406615763013722
2359.0,0.0016970599014589638
2358.0,0.001609869681952425
2357.0,0.0014355417390583547
2356.0,0.0010435595295137379
2355.0,0.00043451177401765406
2354.0,-4.3427276862573194e-05
2353.0,-0.00017368305846510168
2352.0,-4.3427276862573194e-05
2351.0,4.343161980746579e-05
2350.0,-4.3427276862573194e-05
2349.0,-0.00021709297223004853
2348.0,-0.0002604985473904087
2347.0,-8.685021164911433e-05
2346.0,0.00021720154586435392
2345.0,0.0004779868710962365
2344.0,0.0006084382809090627
2343.0,0.0005649501236701937
2342.0,0.0004779868710962365
2341.0,0.00043451177401765406
2340.0,0.0005649501236701937
2339.0,0.0007824344698965646
2338.0,0.0010435595295137379
2337.0,0.0011741809597138886
2336.0,0.0011306361176557367
2335.0,0.0009565003968372565
2334.0,0.0006954276616513155
2333.0,0.00043451177401765406
2332.0,0.00026065489343207737
2331.0,0.00017375254558760211
2330.0,0.00030411258916074324
2329.0,0.00043451177401765406
2328.0,0.0005649501236701937
2327.0,0.0006519307932786322
2326.0,0.0006954276616513155
2325.0,0.0006519307932786322
2324.0,0.0006084382809090627
2323.0,0.0006084382809090627
2322.0,0.0006519307932786322
2321.0,0.0007389288868995258
2320.0,0.0008259444115150671
2319.0,0.000869458712629001
2318.0,0.0009129773741116676
2317.0,0.0009565003968372565
2316.0,0.0010000277816797354
2315.0,0.0010000277816797354
2314.0,0.0010435595295137379
2313.0,0.0011306361176557367
2312.0,0.0011741809597138886
2311.0,0.0012177301682640973
2310.0,0.0011741809597138886
2309.0,0.0010870956412141197
2308.0,0.0010000277816797354
2307.0,0.0009129773741116676
2306.0,0.000869458712629001
2305.0,0.0009565003968372565
2304.0,0.0011306361176557367
2303.0,0.0012612837441823288
2302.0,0.001348404001626502
2301.0,0.0013919706849057079
2300.0,0.001348404001626502
2299.0,0.0012612837441823288
2298.0,0.0011741809597138886
2297.0,0.0010435595295137379
2296.0,0.0009565003968372565
2295.0,0.000869458712629001
2294.0,0.0008259444115150671
2293.0,0.0008259444115150671
2292.0,0.0009129773741116676
2291.0,0.0009565003968372565
2290.0,0.0010435595295137379
2289.0,0.0010870956412141197
2288.0,0.0010435595295137379
2287.0,0.0010000277816797354
2286.0,0.0009129773741116676
2285.0,0.000869458712629001
2284.0,0.0008259444115150671
2283.0,0.0007824344698965646
2282.0,0.0007389288868995258
2281.0,0.0007389288868995258
2280.0,0.0007389288868995258
2279.0,0.0007389288868995258
2278.0,0.0006954276616513155
2277.0,0.0006084382809090627
2276.0,0.0005649501236701937
2275.0,0.0005649501236701937
2274.0,0.0005649501236701937
2273.0,0.0006084382809090627
2272.0,0.0006519307932786322
2271.0,0.0006519307932786322
2270.0,0.0006084382809090627
2269.0,0.0006084382809090627
2268.0,0.0006084382809090627
2267.0,0.0006084382809090627
2266.0,0.0006084382809090627
2265.0,0.0006084382809090627
2264.0,0.0005649501236701937
2263.0,0.0005649501236701937
2262.0,0.000521466320689834
2261.0,0.000521466320689834
2260.0,0.000521466320689834
2259.0,0.000521466320689834
2258.0,0.0004779868710962365
2257.0,0.0004779868710962365
2256.0,0.0004779868710962365
2255.0,0.0004779868710962365
2254.0,0.000521466320689834
2253.0,0.0005649501236701937
2252.0,0.0005649501236701937
2251.0,0.0005649501236701937
2250.0,0.0005649501236701937
2249.0,0.0006084382809090627
2248.0,0.0006519307932786322
2247.0,0.0006954276616513155
2246.0,0.0006954276616513155
2245.0,0.0007389288868995258
2244.0,0.0007389288868995258
2243.0,0.0007824344698965646
2242.0,0.0007824344698965646
2241.0,0.0007824344698965646
2240.0,0.0007389288868995258
2239.0,0.0007389288868995258
2238.0,0.0006954276616513155
2237.0,0.0006954276616513155
2236.0,0.0007389288868995258
2235.0,0.0006954276616513155
2234.0,0.0006954276616513155
2233.0,0.0006954276616513155
2232.0,0.0007389288868995258
2231.0,0.0007389288868995258
2230.0,0.0006954276616513155
2229.0,0.0006084382809090627
2228.0,0.0005649501236701937
2227.0,0.000521466320689834
2226.0,0.000521466320689834
2225.0,0.0005649501236701937
2224.0,0.0006519307932786322
2223.0,0.0006954276616513155
2222.0,0.0006954276616513155
2221.0,0.0006519307932786322
2220.0,0.0006084382809090627
2219.0,0.000521466320689834
2218.0,0.000521466320689834
2217.0,0.0006084382809090627
2216.0,0.0006519307932786322
2215.0,0.0006519307932786322
2214.0,0.0006084382809090627
2213.0,0.0004779868710962365
2212.0,0.0003910410285830057
2211.0,0.0003910410285830057
2210.0,0.0003910410285830057
2209.0,0.00043451177401765406
2208.0,0.0004779868710962365
2207.0,0.000521466320689834
2206.0,0.000521466320689834
2205.0,0.000521466320689834
2204.0,0.000521466320689834
2203.0,0.0004779868710962365
2202.0,0.00043451177401765406
2201.0,0.00043451177401765406
2200.0,0.0004779868710962365
2199.0,0.000521466320689834
2198.0,0.0006084382809090627
2197.0,0.0006519307932786322
2196.0,0.0006954276616513155
2195.0,0.0007389288868995258
2194.0,0.0006954276616513155
2193.0,0.0006519307932786322
2192.0,0.0005649501236701937
2191.0,0.0005649501236701937
2190.0,0.0005649501236701937
2189.0,0.0006084382809090627
2188.0,0.0006954276616513155
2187.0,0.0006954276616513155
2186.0,0.0006519307932786322
2185.0,0.0006084382809090627
2184.0,0.0006084382809090627
2183.0,0.0006084382809090627
2182.0,0.0006084382809090627
2181.0,0.0006519307932786322
2180.0,0.0006519307932786322
2179.0,0.0006954276616513155
2178.0,0.0006519307932786322
2177.0,0.0006084382809090627
2176.0,0.0005649501236701937
2175.0,0.0005649501236701937
2174.0,0.000521466320689834
2173.0,0.000521466320689834
2172.0,0.000521466320689834
2171.0,0.000521466320689834
2170.0,0.000521466320689834
2169.0,0.000521466320689834
2168.0,0.000521466320689834
2167.0,0.0005649501236701937
2166.0,0.0006519307932786322
2165.0,0.0006954276616513155
2164.0,0.0007824344698965646
2163.0,0.0007824344698965646
2162.0,0.0007389288868995258
2161.0,0.0007389288868995258
2160.0,0.0006954276616513155
2159.0,0.0006519307932786322
2158.0,0.0006084382809090627
2157.0,0.0005649501236701937
2156.0,0.0005649501236701937
2155.0,0.0006084382809090627
2154.0,0.0006519307932786322
2153.0,0.0006954276616513155
2152.0,0.0006954276616513155
2151.0,0.0006954276616513155
2150.0,0.0006519307932786322
2149.0,0.0006519307932786322
2148.0,0.0006084382809090627
2147.0,0.0006084382809090627
2146.0,0.0006084382809090627
2145.0,0.0006519307932786322
2144.0,0.0006519307932786322
2143.0,0.0006519307932786322
2142.0,0.0006084382809090627
2141.0,0.0006084382809090627
2140.0,0.0006084382809090627
2139.0,0.0006519307932786322
2138.0,0.0006954276616513155
2137.0,0.0007389288868995258
2136.0,0.0006954276616513155
2135.0,0.0006519307932786322
2134.0,0.0006519307932786322
2133.0,0.0006954276616513155
2132.0,0.0007389288868995258
2131.0,0.0007389288868995258
2130.0,0.0006954276616513155
2129.0,0.0006519307932786322
2128.0,0.0005649501236701937
2127.0,0.000521466320689834
2126.0,0.000521466320689834
2125.0,0.0005649501236701937
2124.0,0.0006084382809090627
2123.0,0.0006084382809090627
2122.0,0.0005649501236701937
2121.0,0.000521466320689834
2120.0,0.000521466320689834
2119.0,0.000521466320689834
2118.0,0.000521466320689834
2117.0,0.000521466320689834
2116.0,0.000521466320689834
2115.0,0.000521466320689834
2114.0,0.0006084382809090627
2113.0,0.0006954276616513155
2112.0,0.0007824344698965646
2111.0,0.0007824344698965646
2110.0,0.0007824344698965646
2109.0,0.0007824344698965646
2108.0,0.0007824344698965646
2107.0,0.0007389288868995258
2106.0,0.0007389288868995258
2105.0,0.0007389288868995258
2104.0,0.0007824344698965646
2103.0,0.0007824344698965646
2102.0,0.0007389288868995258
2101.0,0.0006519307932786322
2100.0,0.000521466320689834
2099.0,0.00043451177401765406
2098.0,0.0003910410285830057
2097.0,0.00043451177401765406
2096.0,0.000521466320689834
2095.0,0.0006084382809090627
2094.0,0.0006519307932786322
2093.0,0.0006084382809090627
2092.0,0.0006084382809090627
2091.0,0.0006084382809090627
2090.0,0.0006519307932786322
2089.0,0.0006954276616513155
2088.0,0.0006954276616513155
2087.0,0.0006954276616513155
2086.0,0.0006954276616513155
2085.0,0.0006954276616513155
2084.0,0.0006954276616513155
2083.0,0.0007389288868995258
2082.0,0.0007389288868995258
2081.0,0.0007389288868995258
2080.0,0.0007824344698965646
2079.0,0.0007389288868995258
2078.0,0.0006954276616513155
2077.0,0.0006519307932786322
2076.0,0.0006084382809090627
2075.0,0.0006519307932786322
2074.0,0.0006954276616513155
2073.0,0.0007389288868995258
2072.0,0.0007824344698965646
2071.0,0.0007824344698965646
2070.0,0.0007389288868995258
2069.0,0.0006954276616513155
2068.0,0.0006519307932786322
2067.0,0.0006519307932786322
2066.0,0.0006519307932786322
2065.0,0.0006519307932786322
2064.0,0.0006519307932786322
2063.0,0.0006954276616513155
2062.0,0.0007389288868995258
2061.0,0.0007824344698965646
2060.0,0.0007824344698965646
2059.0,0.0007389288868995258
2058.0,0.0007389288868995258
2057.0,0.0007389288868995258
2056.0,0.0007824344698965646
2055.0,0.0007389288868995258
2054.0,0.0007389288868995258
2053.0,0.0006954276616513155
2052.0,0.0006519307932786322
2051.0,0.0006519307932786322
2050.0,0.0006519307932786322
2049.0,0.0006519307932786322
2048.0,0.0006519307932786322
2047.0,0.0006519307932786322
2046.0,0.0006519307932786322
2045.0,0.0006519307932786322
2044.0,0.0006519307932786322
2043.0,0.0006084382809090627
2042.0,0.0005649501236701937
2041.0,0.0005649501236701937
2040.0,0.0006084382809090627
2039.0,0.0006519307932786322
2038.0,0.0006519307932786322
2037.0,0.0005649501236701937
2036.0,0.00043451177401765406
2035.0,0.0003910410285830057
2034.0,0.00043451177401765406
2033.0,0.0004779868710962365
2032.0,0.000521466320689834
2031.0,0.000521466320689834
2030.0,0.000521466320689834
2029.0,0.0005649501236701937
2028.0,0.0006084382809090627
2027.0,0.0006084382809090627
2026.0,0.0006519307932786322
2025.0,0.0006519307932786322
2024.0,0.0006084382809090627
2023.0,0.0006084382809090627
2022.0,0.0006084382809090627
2021.0,0.0006084382809090627
2020.0,0.0005649501236701937
2019.0,0.0005649501236701937
2018.0,0.0006084382809090627
2017.0,0.0006519307932786322
2016.0,0.0006954276616513155
2015.0,0.0006954276616513155
2014.0,0.0006519307932786322
2013.0,0.0006519307932786322
2012.0,0.0006519307932786322
2011.0,0.0006084382809090627
2010.0,0.0006084382809090627
2009.0,0.0006519307932786322
2008.0,0.0006954276616513155
2007.0,0.0006954276616513155
2006.0,0.0006954276616513155
2005.0,0.0006954276616513155
2004.0,0.0006519307932786322
2003.0,0.0006519307932786322
2002.0,0.0006519307932786322
2001.0,0.0007389288868995258
2000.0,0.0007824344698965646
1999.0,0.0007824344698965646
1998.0,0.0007824344698965646
1997.0,0.0007389288868995258
1996.0,0.0007389288868995258
1995.0,0.0007389288868995258
1994.0,0.0006954276616513155
1993.0,0.0006954276616513155
1992.0,0.0006519307932786322
1991.0,0.0006519307932786322
1990.0,0.0006084382809090627
1989.0,0.0005649501236701937
1988.0,0.0006084382809090627
1987.0,0.0006084382809090627
1986.0,0.0006084382809090627
1985.0,0.0006084382809090627
1984.0,0.0005649501236701937
1983.0,0.0005649501236701937
1982.0,0.000521466320689834
1981.0,0.00043451177401765406
1980.0,0.0003910410285830057
1979.0,0.0003910410285830057
1978.0,0.0004779868710962365
1977.0,0.000521466320689834
1976.0,0.000521466320689834
1975.0,0.000521466320689834
1974.0,0.000521466320689834
1973.0,0.0005649501236701937
1972.0,0.0005649501236701937
1971.0,0.0005649501236701937
1970.0,0.0005649501236701937
1969.0,0.000521466320689834
1968.0,0.0004779868710962365
1967.0,0.000521466320689834
1966.0,0.000521466320689834
1965.0,0.0005649501236701937
1964.0,0.0006084382809090627
1963.0,0.0006519307932786322
1962.0,0.0006954276616513155
1961.0,0.0007824344698965646
1960.0,0.000869458712629001
1959.0,0.000869458712629001
1958.0,0.0008259444115150671
1957.0,0.0007389288868995258
1956.0,0.0006954276616513155
1955.0,0.0006954276616513155
1954.0,0.0007389288868995258
1953.0,0.0007389288868995258
1952.0,0.0007824344698965646
1951.0,0.0008259444115150671
1950.0,0.000869458712629001
1949.0,0.000869458712629001
1948.0,0.000869458712629001
1947.0,0.0008259444115150671
1946.0,0.0007824344698965646
1945.0,0.0008259444115150671
1944.0,0.0008259444115150671
1943.0,0.0009129773741116676
1942.0,0.0009129773741116676
1941.0,0.0009129773741116676
1940.0,0.000869458712629001
1939.0,0.0008259444115150671
1938.0,0.0008259444115150671
1937.0,0.0007824344698965646
1936.0,0.0008259444115150671
1935.0,0.0008259444115150671
1934.0,0.0007824344698965646
1933.0,0.0006954276616513155
1932.0,0.0006519307932786322
1931.0,0.0006084382809090627
1930.0,0.0006084382809090627
1929.0,0.0005649501236701937
1928.0,0.000521466320689834
1927.0,0.000521466320689834
1926.0,0.000521466320689834
1925.0,0.000521466320689834
1924.0,0.0005649501236701937
1923.0,0.0005649501236701937
1922.0,0.0006084382809090627
1921.0,0.0006084382809090627
1920.0,0.0006519307932786322
1919.0,0.0006084382809090627
1918.0,0.0005649501236701937
1917.0,0.000521466320689834
1916.0,0.0005649501236701937
1915.0,0.0006519307932786322
1914.0,0.0007389288868995258
1913.0,0.0007824344698965646
1912.0,0.0007824344698965646
1911.0,0.0007389288868995258
1910.0,0.0006954276616513155
1909.0,0.0006519307932786322
1908.0,0.0006954276616513155
1907.0,0.0006519307932786322
1906.0,0.0006519307932786322
1905.0,0.0006954276616513155
1904.0,0.0007389288868995258
1903.0,0.0008259444115150671
1902.0,0.0009565003968372565
1901.0,0.0010000277816797354
1900.0,0.0009129773741116676
1899.0,0.0008259444115150671
1898.0,0.0007389288868995258
1897.0,0.0006954276616513155
1896.0,0.0006954276616513155
1895.0,0.0006954276616513155
1894.0,0.0006954276616513155
1893.0,0.0006519307932786322
1892.0,0.0005649501236701937
1891.0,0.000521466320689834
1890.0,0.0005649501236701937
1889.0,0.0006084382809090627
1888.0,0.0006519307932786322
1887.0,0.0006954276616513155
1886.0,0.0006954276616513155
1885.0,0.0007389288868995258
1884.0,0.0007389288868995258
1883.0,0.0007389288868995258
1882.0,0.0007389288868995258
1881.0,0.0006954276616513155
1880.0,0.0006519307932786322
1879.0,0.0006084382809090627
1878.0,0.0005649501236701937
1877.0,0.0005649501236701937
1876.0,0.0005649501236701937
1875.0,0.0005649501236701937
1874.0,0.0006084382809090627
1873.0,0.0006084382809090627
1872.0,0.0006519307932786322
1871.0,0.0006954276616513155
1870.0,0.0007824344698965646
1869.0,0.0008259444115150671
1868.0,0.0008259444115150671
1867.0,0.0007824344698965646
1866.0,0.0007389288868995258
1865.0,0.0006954276616513155
1864.0,0.0006954276616513155
1863.0,0.0007824344698965646
1862.0,0.0008259444115150671
1861.0,0.000869458712629001
1860.0,0.000869458712629001
1859.0,0.0007824344698965646
1858.0,0.0007389288868995258
1857.0,0.0006954276616513155
1856.0,0.0006954276616513155
1855.0,0.0006954276616513155
1854.0,0.0006954276616513155
1853.0,0.0006954276616513155
1852.0,0.0006954276616513155
1851.0,0.0006519307932786322
1850.0,0.0006084382809090627
1849.0,0.0006519307932786322
1848.0,0.0006954276616513155
1847.0,0.0007389288868995258
1846.0,0.0007389288868995258
1845.0,0.0007389288868995258
1844.0,0.0006954276616513155
1843.0,0.0006954276616513155
1842.0,0.0006519307932786322
1841.0,0.0006084382809090627
1840.0,0.0006084382809090627
1839.0,0.0006519307932786322
1838.0,0.0006954276616513155
1837.0,0.0007389288868995258
1836.0,0.0007389288868995258
1835.0,0.0007389288868995258
1834.0,0.0007389288868995258
1833.0,0.0007824344698965646
1832.0,0.0008259444115150671
1831.0,0.0008259444115150671
1830.0,0.0008259444115150671
1829.0,0.0007824344698965646
1828.0,0.0007389288868995258
1827.0,0.0007389288868995258
1826.0,0.0006954276616513155
1825.0,0.0006084382809090627
1824.0,0.0005649501236701937
1823.0,0.0005649501236701937
1822.0,0.0006519307932786322
1821.0,0.0006954276616513155
1820.0,0.0006954276616513155
1819.0,0.0006519307932786322
1818.0,0.0006084382809090627
1817.0,0.0006084382809090627
1816.0,0.0006519307932786322
1815.0,0.0006954276616513155
1814.0,0.0006954276616513155
1813.0,0.0006519307932786322
1812.0,0.0006084382809090627
1811.0,0.000521466320689834
1810.0,0.000521466320689834
1809.0,0.0005649501236701937
1808.0,0.0006519307932786322
1807.0,0.0007389288868995258
1806.0,0.0007824344698965646
1805.0,0.0007824344698965646
1804.0,0.0007824344698965646
1803.0,0.0007389288868995258
1802.0,0.0006954276616513155
1801.0,0.0006954276616513155
1800.0,0.0007389288868995258
1799.0,0.0008259444115150671
1798.0,0.0009129773741116676
1797.0,0.0010000277816797354
1796.0,0.0010000277816797354
1795.0,0.0009565003968372565
1794.0,0.0009129773741116676
1793.0,0.000869458712629001
1792.0,0.0008259444115150671
1791.0,0.0008259444115150671
1790.0,0.0007824344698965646
1789.0,0.0007824344698965646
1788.0,0.0007824344698965646
1787.0,0.0007824344698965646
1786.0,0.0007824344698965646
1785.0,0.0008259444115150671
1784.0,0.0008259444115150671
1783.0,0.0007824344698965646
1782.0,0.0007389288868995258
1781.0,0.0007389288868995258
1780.0,0.0007824344698965646
1779.0,0.0007824344698965646
1778.0,0.0007389288868995258
1777.0,0.0007824344698965646
1776.0,0.0007824344698965646
1775.0,0.0008259444115150671
1774.0,0.0008259444115150671
1773.0,0.0007389288868995258
1772.0,0.0006519307932786322
1771.0,0.0005649501236701937
1770.0,0.000521466320689834
1769.0,0.0004779868710962365
1768.0,0.0004779868710962365
1767.0,0.000521466320689834
1766.0,0.0006084382809090627
1765.0,0.0006519307932786322
1764.0,0.0006519307932786322
1763.0,0.0006954276616513155
1762.0,0.0007389288868995258
1761.0,0.0007824344698965646
1760.0,0.0008259444115150671
1759.0,0.0009129773741116676
1758.0,0.0009565003968372565
1757.0,0.0009565003968372565
1756.0,0.0009129773741116676
1755.0,0.000869458712629001
1754.0,0.0008259444115150671
1753.0,0.0008259444115150671
1752.0,0.000869458712629001
1751.0,0.0010000277816797354
1750.0,0.0011306361176557367
1749.0,0.0011306361176557367
1748.0,0.0011306361176557367
1747.0,0.0010435595295137379
1746.0,0.0009565003968372565
1745.0,0.0009129773741116676
1744.0,0.0009129773741116676
1743.0,0.0009129773741116676
1742.0,0.0009129773741116676
1741.0,0.0009565003968372565
1740.0,0.0010000277816797354
1739.0,0.0010000277816797354
1738.0,0.0010000277816797354
1737.0,0.0010435595295137379
1736.0,0.0010435595295137379
1735.0,0.0010435595295137379
1734.0,0.0010870956412141197
1733.0,0.0010000277816797354
1732.0,0.0009129773741116676
1731.0,0.000869458712629001
1730.0,0.000869458712629001
1729.0,0.000869458712629001
1728.0,0.0009129773741116676
1727.0,0.0009129773741116676
1726.0,0.000869458712629001
1725.0,0.0008259444115150671
1724.0,0.000869458712629001
1723.0,0.0009129773741116676
1722.0,0.0009565003968372565
1721.0,0.0009565003968372565
1720.0,0.0009129773741116676
1719.0,0.000869458712629001
1718.0,0.0009129773741116676
1717.0,0.0010870956412141197
1716.0,0.0012177301682640973
1715.0,0.0012612837441823288
1714.0,0.0012177301682640973
1713.0,0.0011741809597138886
1712.0,0.0010870956412141197
1711.0,0.0010435595295137379
1710.0,0.0009565003968372565
1709.0,0.0009129773741116676
1708.0,0.0009565003968372565
1707.0,0.0010435595295137379
1706.0,0.0011741809597138886
1705.0,0.0012177301682640973
1704.0,0.0011741809597138886
1703.0,0.0011306361176557367
1702.0,0.0011306361176557367
1701.0,0.0012612837441823288
1700.0,0.0014791171649619628
1699.0,0.001609869681952425
1698.0,0.0016970599014589638
1697.0,0.0017406615763013722
1696.0,0.0016534626036355249
1695.0,0.0015226969634936083
1694.0,0.0014355417390583547
1693.0,0.0013919706849057079
1692.0,0.001348404001626502
1691.0,0.0012612837441823288
1690.0,0.0011741809597138886
1689.0,0.0011741809597138886
1688.0,0.0012177301682640973
1687.0,0.0012612837441823288
1686.0,0.001304841688344327
1685.0,0.001348404001626502
1684.0,0.0014355417390583547
1683.0,0.0014791171649619628
1682.0,0.0015662811355310335
1681.0,0.001609869681952425
1680.0,0.001609869681952425
1679.0,0.0016534626036355249
1678.0,0.0016970599014589638
1677.0,0.0017842676290416026
1676.0,0.0018278780605593958
1675.0,0.001915112063444413
1674.0,0.0019587356365717845
1673.0,0.001915112063444413
1672.0,0.0018714928717336043
1671.0,0.0018278780605593958
1670.0,0.0018278780605593958
1669.0,0.001915112063444413
1668.0,0.0020459959305969555
1667.0,0.0021769192542746563
1666.0,0.0022642234021015284
1665.0,0.0023078820582733695
1664.0,0.0023078820582733695
1663.0,0.0022642234021015284
1662.0,0.0021769192542746563
1661.0,0.0021769192542746563
1660.0,0.0021769192542746563
1659.0,0.0022205691343961664
1658.0,0.0022205691343961664
1657.0,0.0022205691343961664
1656.0,0.0021769192542746563
1655.0,0.0021769192542746563
1654.0,0.0023078820582733695
1653.0,0.002351545103793873
1652.0,0.0022642234021015284
1651.0,0.0023078820582733695
1650.0,0.002351545103793873
1649.0,0.002395212539545666
1648.0,0.0024388843664115978
1647.0,0.0025262411970197185
1646.0,0.002569926202528716
1645.0,0.0025262411970197185
1644.0,0.0025262411970197185
1643.0,0.002569926202528716
1642.0,0.002613615602686581
1641.0,0.002701007590486082
1640.0,0.0027447101798967477
1639.0,0.0027884171674950053
1638.0,0.0027884171674950053
1637.0,0.0027884171674950053
1636.0,0.0027447101798967477
1635.0,0.0027447101798967477
1634.0,0.0027447101798967477
1633.0,0.0027447101798967477
1632.0,0.002701007590486082
1631.0,0.002613615602686581
1630.0,0.002569926202528716
1629.0,0.0025262411970197185
1628.0,0.0024388843664115978
1627.0,0.002395212539545666
1626.0,0.0024388843664115978
1625.0,0.0025262411970197185
1624.0,0.0026573093983774942
1623.0,0.0027447101798967477
1622.0,0.002701007590486082
1621.0,0.002569926202528716
1620.0,0.002482560585275184
1619.0,0.002351545103793873
1618.0,0.0022642234021015284
1617.0,0.0022642234021015284
1616.0,0.0023078820582733695
1615.0,0.002395212539545666
1614.0,0.0024388843664115978
1613.0,0.0024388843664115978
1612.0,0.002395212539545666
1611.0,0.0023078820582733695
1610.0,0.0022642234021015284
1609.0,0.0021769192542746563
1608.0,0.0021332737608552588
1607.0,0.002089632653256679
1606.0,0.002089632653256679
1605.0,0.0021332737608552588
1604.0,0.0021769192542746563
1603.0,0.0022642234021015284
1602.0,0.0023078820582733695
1601.0,0.002351545103793873
1600.0,0.002395212539545666
1599.0,0.002395212539545666
1598.0,0.002351545103793873
1597.0,0.0022205691343961664
1596.0,0.0021332737608552588
1595.0,0.0020459959305969555
1594.0,0.0019587356365717845
1593.0,0.0018714928717336043
1592.0,0.0017842676290416026
1591.0,0.0017406615763013722
1590.0,0.0016970599014589638
1589.0,0.0016534626036355249
1588.0,0.0016534626036355249
1587.0,0.0016534626036355249
1586.0,0.0016970599014589638
1585.0,0.0017406615763013722
1584.0,0.0018278780605593958
1583.0,0.0018714928717336043
1582.0,0.0018278780605593958
1581.0,0.0017406615763013722
1580.0,0.0016534626036355249
1579.0,0.001609869681952425
1578.0,0.001609869681952425
1577.0,0.001609869681952425
1576.0,0.0015662811355310335
1575.0,0.0015226969634936083
1574.0,0.0015662811355310335
1573.0,0.0015662811355310335
1572.0,0.0015662811355310335
1571.0,0.001609869681952425
1570.0,0.001609869681952425
1569.0,0.0015662811355310335
1568.0,0.0015226969634936083
1567.0,0.0014791171649619628
1566.0,0.0014791171649619628
1565.0,0.0014791171649619628
1564.0,0.0014791171649619628
1563.0,0.0013919706849057079
1562.0,0.001348404001626502
1561.0,0.0011741809597138886
1560.0,0.0010435595295137379
1559.0,0.0010000277816797354
1558.0,0.0010435595295137379
1557.0,0.0012177301682640973
1556.0,0.0014355417390583547
1555.0,0.001609869681952425
1554.0,0.0016534626036355249
1553.0,0.001609869681952425
1552.0,0.0015662811355310335
1551.0,0.0015226969634936083
1550.0,0.0014355417390583547
1549.0,0.001348404001626502
1548.0,0.001348404001626502
1547.0,0.0014355417390583547
1546.0,0.0014791171649619628
1545.0,0.0015226969634936083
1544.0,0.0014791171649619628
1543.0,0.0014355417390583547
1542.0,0.0013919706849057079
1541.0,0.0014355417390583547
1540.0,0.0014791171649619628
1539.0,0.0014355417390583547
1538.0,0.0013919706849057079
1537.0,0.0013919706849057079
1536.0,0.001348404001626502
1535.0,0.001304841688344327
1534.0,0.0012612837441823288
1533.0,0.0012612837441823288
1532.0,0.0012612837441823288
1531.0,0.0012612837441823288
1530.0,0.0012612837441823288
1529.0,0.0012612837441823288
1528.0,0.0012612837441823288
1527.0,0.0012177301682640973
1526.0,0.0012177301682640973
1525.0,0.0012177301682640973
1524.0,0.0012177301682640973
1523.0,0.0012177301682640973
1522.0,0.0012177301682640973
1521.0,0.001304841688344327
1520.0,0.0013919706849057079
1519.0,0.0014791171649619628
1518.0,0.0014791171649619628
1517.0,0.0014791171649619628
1516.0,0.0014355417390583547
1515.0,0.0014791171649619628
1514.0,0.0015662811355310335
1513.0,0.0015662811355310335
1512.0,0.0015662811355310335
1511.0,0.0015226969634936083
1510.0,0.0014791171649619628
1509.0,0.001609869681952425
1508.0,0.0018714928717336043
1507.0,0.0020459959305969555
1506.0,0.0018278780605593958
1505.0,0.0015662811355310335
1504.0,0.0014355417390583547
1503.0,0.0013919706849057079
1502.0,0.0013919706849057079
1501.0,0.0013919706849057079
1500.0,0.0013919706849057079
1499.0,0.0014355417390583547
1498.0,0.001609869681952425
1497.0,0.0019587356365717845
1496.0,0.002395212539545666
1495.0,0.0027884171674950053
1494.0,0.0030944893043338695
1493.0,0.0032257291386954545
1492.0,0.0032694845648473247
1491.0,0.0030944893043338695
1490.0,0.0028321285541661467
1489.0,0.002613615602686581
1488.0,0.002395212539545666
1487.0,0.0022205691343961664
1486.0,0.002089632653256679
1485.0,0.0019587356365717845
1484.0,0.0018714928717336043
1483.0,0.0017842676290416026
1482.0,0.0016970599014589638
1481.0,0.0016534626036355249
1480.0,0.001609869681952425
1479.0,0.001609869681952425
1478.0,0.001609869681952425
1477.0,0.0016534626036355249
1476.0,0.0016534626036355249
1475.0,0.001609869681952425
1474.0,0.0015226969634936083
1473.0,0.0014355417390583547
1472.0,0.0014355417390583547
1471.0,0.0014355417390583547
1470.0,0.0014791171649619628
1469.0,0.0014355417390583547
1468.0,0.001348404001626502
1467.0,0.0012612837441823288
1466.0,0.0011741809597138886
1465.0,0.0012177301682640973
1464.0,0.001348404001626502
1463.0,0.0013919706849057079
1462.0,0.0014355417390583547
1461.0,0.0013919706849057079
1460.0,0.001348404001626502
1459.0,0.0013919706849057079
1458.0,0.0016534626036355249
1457.0,0.0022205691343961664
1456.0,0.0026573093983774942
1455.0,0.0030070181092942683
1454.0,0.0032257291386954545
1453.0,0.0034007772998332353
1452.0,0.0034445503666347133
1451.0,0.0034445503666347133
1450.0,0.0033570086445275926
1449.0,0.0032257291386954545
1448.0,0.0031819781204844855
1447.0,0.0031382315093266833
1446.0,0.003050751504618754
1445.0,0.0029632891174733444
1444.0,0.0028758443407954637
1443.0,0.0027447101798967477
1442.0,0.002701007590486082
1441.0,0.0026573093983774942
1440.0,0.0026573093983774942
1439.0,0.0026573093983774942
1438.0,0.0026573093983774942
1437.0,0.0026573093983774942
1436.0,0.002613615602686581
1435.0,0.0025262411970197185
1434.0,0.002395212539545666
1433.0,0.0022642234021015284
1432.0,0.0021769192542746563
1431.0,0.0021332737608552588
1430.0,0.0020459959305969555
1429.0,0.0019587356365717845
1428.0,0.0018714928717336043
1427.0,0.0017842676290416026
1426.0,0.0016970599014589638
1425.0,0.0016534626036355249
1424.0,0.0016534626036355249
1423.0,0.0016970599014589638
1422.0,0.0017406615763013722
1421.0,0.0016970599014589638
1420.0,0.0016534626036355249
1419.0,0.001609869681952425
1418.0,0.001609869681952425
1417.0,0.0015662811355310335
1416.0,0.0015662811355310335
1415.0,0.0014791171649619628
1414.0,0.0014355417390583547
1413.0,0.0014355417390583547
1412.0,0.0014355417390583547
1411.0,0.0014791171649619628
1410.0,0.0015226969634936083
1409.0,0.0015662811355310335
1408.0,0.001609869681952425
1407.0,0.0016534626036355249
1406.0,0.0016534626036355249
1405.0,0.0016534626036355249
1404.0,0.001609869681952425
1403.0,0.001609869681952425
1402.0,0.001609869681952425
1401.0,0.001609869681952425
1400.0,0.0015662811355310335
1399.0,0.0015662811355310335
1398.0,0.0015662811355310335
1397.0,0.0015226969634936083
1396.0,0.0014355417390583547
1395.0,0.0013919706849057079
1394.0,0.0014355417390583547
1393.0,0.0014791171649619628
1392.0,0.0015226969634936083
1391.0,0.0015226969634936083
1390.0,0.0014791171649619628
1389.0,0.0014355417390583547
1388.0,0.0014791171649619628
1387.0,0.0015226969634936083
1386.0,0.0015662811355310335
1385.0,0.0015662811355310335
1384.0,0.0014791171649619628
1383.0,0.0014355417390583547
1382.0,0.0013919706849057079
1381.0,0.0014355417390583547
1380.0,0.0014791171649619628
1379.0,0.0015226969634936083
1378.0,0.0015662811355310335
1377.0,0.0015662811355310335
1376.0,0.0015226969634936083
1375.0,0.0015662811355310335
1374.0,0.001609869681952425
1373.0,0.0016970599014589638
1372.0,0.0017842676290416026
1371.0,0.0017842676290416026
1370.0,0.0016970599014589638
1369.0,0.0016534626036355249
1368.0,0.001609869681952425
1367.0,0.0015662811355310335
1366.0,0.0015226969634936083
1365.0,0.0014791171649619628
1364.0,0.0014355417390583547
1363.0,0.0014791171649619628
1362.0,0.0015226969634936083
1361.0,0.0015226969634936083
1360.0,0.0015226969634936083
1359.0,0.0014791171649619628
1358.0,0.0014791171649619628
1357.0,0.0014355417390583547
1356.0,0.0014791171649619628
1355.0,0.0015226969634936083
1354.0,0.0015226969634936083
1353.0,0.0015662811355310335
1352.0,0.0015662811355310335
1351.0,0.001609869681952425
1350.0,0.001609869681952425
1349.0,0.001609869681952425
1348.0,0.0015662811355310335
1347.0,0.0015226969634936083
1346.0,0.0015226969634936083
1345.0,0.0015226969634936083
1344.0,0.0015226969634936083
1343.0,0.0015226969634936083
1342.0,0.0015662811355310335
1341.0,0.001609869681952425
1340.0,0.0016970599014589638
1339.0,0.0017406615763013722
1338.0,0.0017406615763013722
1337.0,0.0016534626036355249
1336.0,0.0016534626036355249
1335.0,0.0016534626036355249
1334.0,0.0016534626036355249
1333.0,0.0016534626036355249
1332.0,0.0016534626036355249
1331.0,0.0016534626036355249
1330.0,0.0016534626036355249
1329.0,0.0016970599014589638
1328.0,0.0016970599014589638
1327.0,0.0016534626036355249
1326.0,0.001609869681952425
1325.0,0.0015226969634936083
1324.0,0.0015226969634936083
1323.0,0.0015662811355310335
1322.0,0.001609869681952425
1321.0,0.001609869681952425
1320.0,0.0015662811355310335
1319.0,0.0015662811355310335
1318.0,0.0015226969634936083
1317.0,0.0015226969634936083
1316.0,0.0014791171649619628
1315.0,0.0014355417390583547
1314.0,0.0014791171649619628
1313.0,0.0014791171649619628
1312.0,0.0014791171649619628
1311.0,0.0014791171649619628
1310.0,0.0013919706849057079
1309.0,0.001348404001626502
1308.0,0.001348404001626502
1307.0,0.001348404001626502
1306.0,0.001348404001626502
1305.0,0.001348404001626502
1304.0,0.001304841688344327
1303.0,0.001348404001626502
1302.0,0.001348404001626502
1301.0,0.0013919706849057079
1300.0,0.0014355417390583547
1299.0,0.0013919706849057079
1298.0,0.0013919706849057079
1297.0,0.001348404001626502
1296.0,0.0013919706849057079
1295.0,0.0014355417390583547
1294.0,0.0015226969634936083
1293.0,0.0015662811355310335
1292.0,0.0015662811355310335
1291.0,0.0015226969634936083
1290.0,0.0015226969634936083
1289.0,0.0014791171649619628
1288.0,0.0015226969634936083
1287.0,0.0015662811355310335
1286.0,0.0015662811355310335
1285.0,0.0015662811355310335
1284.0,0.0015662811355310335
1283.0,0.0015662811355310335
1282.0,0.001609869681952425
1281.0,0.0016970599014589638
1280.0,0.0017406615763013722
1279.0,0.0017842676290416026
1278.0,0.0017406615763013722
1277.0,0.0016534626036355249
1276.0,0.0015662811355310335
1275.0,0.0015226969634936083
1274.0,0.0015226969634936083
1273.0,0.0015662811355310335
1272.0,0.001609869681952425
1271.0,0.001609869681952425
1270.0,0.001609869681952425
1269.0,0.0015662811355310335
1268.0,0.0015226969634936083
1267.0,0.0014791171649619628
1266.0,0.0014791171649619628
1265.0,0.0015226969634936083
1264.0,0.001609869681952425
1263.0,0.0016534626036355249
1262.0,0.0016534626036355249
1261.0,0.001609869681952425
1260.0,0.0015662811355310335
1259.0,0.0015226969634936083
1258.0,0.0014355417390583547
1257.0,0.0013919706849057079
1256.0,0.001348404001626502
1255.0,0.001348404001626502
1254.0,0.0013919706849057079
1253.0,0.001348404001626502
1252.0,0.001348404001626502
1251.0,0.001348404001626502
1250.0,0.001348404001626502
1249.0,0.001348404001626502
1248.0,0.0013919706849057079
1247.0,0.0014791171649619628
1246.0,0.0015226969634936083
1245.0,0.0015662811355310335
1244.0,0.0015662811355310335
1243.0,0.0014791171649619628
1242.0,0.0013919706849057079
1241.0,0.001348404001626502
1240.0,0.0013919706849057079
1239.0,0.0014791171649619628
1238.0,0.0015662811355310335
1237.0,0.001609869681952425
1236.0,0.0016534626036355249
1235.0,0.0016970599014589638
1234.0,0.0016534626036355249
1233.0,0.0016534626036355249
1232.0,0.001609869681952425
1231.0,0.001609869681952425
1230.0,0.001609869681952425
1229.0,0.0016534626036355249
1228.0,0.0016534626036355249
1227.0,0.0016534626036355249
1226.0,0.0016534626036355249
1225.0,0.0016534626036355249
1224.0,0.0016534626036355249
1223.0,0.0016534626036355249
1222.0,0.0016534626036355249
1221.0,0.0016970599014589638
1220.0,0.0017406615763013722
1219.0,0.0017842676290416026
1218.0,0.0018278780605593958
1217.0,0.0018278780605593958
1216.0,0.0018278780605593958
1215.0,0.0018714928717336043
1214.0,0.0018714928717336043
1213.0,0.0018714928717336043
1212.0,0.0018278780605593958
1211.0,0.0018278780605593958
1210.0,0.0017842676290416026
1209.0,0.0017842676290416026
1208.0,0.0017406615763013722
1207.0,0.0017842676290416026
1206.0,0.0018278780605593958
1205.0,0.0018714928717336043
1204.0,0.001915112063444413
1203.0,0.0018714928717336043
1202.0,0.0018714928717336043
1201.0,0.0018278780605593958
1200.0,0.0018714928717336043
1199.0,0.001915112063444413
1198.0,0.0019587356365717845
1197.0,0.0019587356365717845
1196.0,0.0020023635919956817
1195.0,0.0020459959305969555
1194.0,0.0020459959305969555
1193.0,0.002089632653256679
1192.0,0.0020459959305969555
1191.0,0.0020459959305969555
1190.0,0.002089632653256679
1189.0,0.0021332737608552588
1188.0,0.0021769192542746563
1187.0,0.0021769192542746563
1186.0,0.0022205691343961664
1185.0,0.002351545103793873
1184.0,0.002482560585275184
1183.0,0.002569926202528716
1182.0,0.0026573093983774942
1181.0,0.002701007590486082
1180.0,0.002701007590486082
1179.0,0.002701007590486082
1178.0,0.0026573093983774942
1177.0,0.002613615602686581
1176.0,0.002613615602686581
1175.0,0.0026573093983774942
1174.0,0.0026573093983774942
1173.0,0.002701007590486082
1172.0,0.0027447101798967477
1171.0,0.0028321285541661467
1170.0,0.0028321285541661467
1169.0,0.0028758443407954637
1168.0,0.0028758443407954637
1167.0,0.0028321285541661467
1166.0,0.0027447101798967477
1165.0,0.0026573093983774942
1164.0,0.0026573093983774942
1163.0,0.002701007590486082
1162.0,0.0027884171674950053
1161.0,0.0029195645282691363
1160.0,0.003050751504618754
1159.0,0.0031382315093266833
1158.0,0.0031819781204844855
1157.0,0.0032257291386954545
1156.0,0.0032694845648473247
1155.0,0.0033132443998284966
1154.0,0.0034007772998332353
1153.0,0.0034007772998332353
1152.0,0.0034007772998332353
1151.0,0.0034007772998332353
1150.0,0.0033570086445275926
1149.0,0.0033570086445275926
1148.0,0.0034007772998332353
1147.0,0.0034445503666347133
1146.0,0.0034445503666347133
1145.0,0.0034007772998332353
1144.0,0.0033570086445275926
1143.0,0.0033132443998284966
1142.0,0.0033132443998284966
1141.0,0.0034007772998332353
1140.0,0.0034445503666347133
1139.0,0.003488327845821315
1138.0,0.003488327845821315
1137.0,0.003488327845821315
1136.0,0.003488327845821315
1135.0,0.0035758960449088217
1134.0,0.0036634819042162814
1133.0,0.0037510854308679953
1132.0,0.0038825238627120395
1131.0,0.003926345514724705
1130.0,0.003926345514724705
1129.0,0.0038387066319929275
1128.0,0.003794893821675638
1127.0,0.0038387066319929275
1126.0,0.003926345514724705
1125.0,0.00401400208620073
1124.0,0.0040578370074493275
1123.0,0.004145520125434121
1122.0,0.004145520125434121
1121.0,0.004145520125434121
1120.0,0.004145520125434121
1119.0,0.004189368323957332
1118.0,0.004277078004534696
1117.0,0.0043648054024501
1116.0,0.004452550524862486
1115.0,0.004540313378935901
1114.0,0.004540313378935901
1113.0,0.00458420145758498
1112.0,0.00458420145758498
1111.0,0.00458420145758498
1110.0,0.004540313378935901
1109.0,0.004540313378935901
1108.0,0.004540313378935901
1107.0,0.00458420145758498
1106.0,0.004540313378935901
1105.0,0.0044964297349936455
1104.0,0.004452550524862486
1103.0,0.004452550524862486
1102.0,0.0044964297349936455
1101.0,0.00458420145758498
1100.0,0.004628093971837721
1099.0,0.004671990922590297
1098.0,0.004628093971837721
1097.0,0.004540313378935901
1096.0,0.004452550524862486
1095.0,0.004320939488377862
1094.0,0.004233220950025984
1093.0,0.004145520125434121
1092.0,0.004101676353562844
1091.0,0.004101676353562844
1090.0,0.004101676353562844
1089.0,0.004189368323957332
1088.0,0.004233220950025984
1087.0,0.004277078004534696
1086.0,0.004320939488377862
1085.0,0.0043648054024501
1084.0,0.0043648054024501
1083.0,0.0043648054024501
1082.0,0.0043648054024501
1081.0,0.0043648054024501
1080.0,0.004408675747646695
1079.0,0.004408675747646695
1078.0,0.0043648054024501
1077.0,0.004277078004534696
1076.0,0.004233220950025984
1075.0,0.004277078004534696
1074.0,0.004408675747646695
1073.0,0.004540313378935901
1072.0,0.004671990922590297
1071.0,0.004715892310740433
1070.0,0.004715892310740433
1069.0,0.00458420145758498
1068.0,0.004452550524862486
1067.0,0.004408675747646695
1066.0,0.004408675747646695
1065.0,0.0044964297349936455
1064.0,0.00458420145758498
1063.0,0.004628093971837721
1062.0,0.004628093971837721
1061.0,0.004628093971837721
1060.0,0.00458420145758498
1059.0,0.0044964297349936455
1058.0,0.004452550524862486
1057.0,0.004408675747646695
1056.0,0.0043648054024501
1055.0,0.004320939488377862
1054.0,0.004233220950025984
1053.0,0.0040578370074493275
1052.0,0.003926345514724705
1051.0,0.0038387066319929275
1050.0,0.003794893821675638
1049.0,0.003794893821675638
1048.0,0.003794893821675638
1047.0,0.0037510854308679953
1046.0,0.0036634819042162814
1045.0,0.0035758960449088217
1044.0,0.003488327845821315
1043.0,0.003488327845821315
1042.0,0.0034445503666347133
1041.0,0.0034445503666347133
1040.0,0.0034007772998332353
1039.0,0.0034007772998332353
1038.0,0.0033570086445275926
1037.0,0.0033570086445275926
1036.0,0.0033570086445275926
1035.0,0.0034007772998332353
1034.0,0.0035321097382827737
1033.0,0.0036634819042162814
1032.0,0.0038825238627120395
1031.0,0.00401400208620073
1030.0,0.004101676353562844
1029.0,0.004189368323957332
1028.0,0.004189368323957332
1027.0,0.004189368323957332
1026.0,0.004101676353562844
1025.0,0.00401400208620073
1024.0,0.0040578370074493275
1023.0,0.0040578370074493275
1022.0,0.0040578370074493275
1021.0,0.003970171588923321
1020.0,0.0037510854308679953
1019.0,0.0035758960449088217
1018.0,0.0034445503666347133
1017.0,0.0034007772998332353
1016.0,0.0034445503666347133
1015.0,0.003488327845821315
1014.0,0.0035321097382827737
1013.0,0.0035321097382827737
1012.0,0.0035758960449088217
1011.0,0.0035758960449088217
1010.0,0.0035758960449088217
1009.0,0.003619686766589858
1008.0,0.003619686766589858
1007.0,0.003619686766589858
1006.0,0.003619686766589858
1005.0,0.0035321097382827737
1004.0,0.0034445503666347133
1003.0,0.0034007772998332353
1002.0,0.0034007772998332353
1001.0,0.0034445503666347133
1000.0,0.0034445503666347133
999.0,0.003488327845821315
998.0,0.003488327845821315
997.0,0.003488327845821315
996.0,0.003488327845821315
995.0,0.0034445503666347133
994.0,0.0033570086445275926
993.0,0.0032257291386954545
992.0,0.0031382315093266833
991.0,0.003050751504618754
990.0,0.0030070181092942683
989.0,0.0030070181092942683
988.0,0.0030070181092942683
987.0,0.003050751504618754
986.0,0.0031382315093266833
985.0,0.0032694845648473247
984.0,0.0032694845648473247
983.0,0.0032257291386954545
982.0,0.0031382315093266833
981.0,0.003050751504618754
980.0,0.003050751504618754
979.0,0.0031382315093266833
978.0,0.0032257291386954545
977.0,0.0033132443998284966
976.0,0.0033570086445275926
975.0,0.0033570086445275926
974.0,0.0032694845648473247
973.0,0.0032257291386954545
972.0,0.0031382315093266833
971.0,0.003050751504618754
970.0,0.0030944893043338695
969.0,0.0031382315093266833
968.0,0.0032257291386954545
967.0,0.0032257291386954545
966.0,0.0031819781204844855
965.0,0.0030944893043338695
964.0,0.0030944893043338695
963.0,0.0031819781204844855
962.0,0.0032694845648473247
961.0,0.0033132443998284966
960.0,0.0032694845648473247
959.0,0.0032257291386954545
958.0,0.0031382315093266833
957.0,0.0031382315093266833
956.0,0.0031382315093266833
955.0,0.0031819781204844855
954.0,0.0032257291386954545
953.0,0.0032694845648473247
952.0,0.0033132443998284966
951.0,0.0033132443998284966
950.0,0.0032694845648473247
949.0,0.0031819781204844855
948.0,0.0031382315093266833
947.0,0.0031819781204844855
946.0,0.0032694845648473247
945.0,0.0033132443998284966
944.0,0.0033132443998284966
943.0,0.0033132443998284966
942.0,0.0033132443998284966
941.0,0.0033570086445275926
940.0,0.0034445503666347133
939.0,0.0034445503666347133
938.0,0.003488327845821315
937.0,0.003488327845821315
936.0,0.0035321097382827737
935.0,0.0035321097382827737
934.0,0.003488327845821315
933.0,0.0034007772998332353
932.0,0.0032694845648473247
931.0,0.0031819781204844855
930.0,0.0030944893043338695
929.0,0.003050751504618754
928.0,0.0030944893043338695
927.0,0.0030944893043338695
926.0,0.0030944893043338695
925.0,0.003050751504618754
924.0,0.0029632891174733444
923.0,0.0029195645282691363
922.0,0.0028758443407954637
921.0,0.0029195645282691363
920.0,0.0029632891174733444
919.0,0.003050751504618754
918.0,0.0031819781204844855
917.0,0.0032694845648473247
916.0,0.0034007772998332353
915.0,0.003488327845821315
914.0,0.003619686766589858
913.0,0.0036634819042162814
912.0,0.003619686766589858
911.0,0.0035758960449088217
910.0,0.003619686766589858
909.0,0.003794893821675638
908.0,0.0040578370074493275
907.0,0.004277078004534696
906.0,0.0044964297349936455
905.0,0.004628093971837721
904.0,0.004671990922590297
903.0,0.004628093971837721
902.0,0.004540313378935901
901.0,0.004452550524862486
900.0,0.0043648054024501
899.0,0.004233220950025984
898.0,0.004145520125434121
897.0,0.004101676353562844
896.0,0.0040578370074493275
895.0,0.0040578370074493275
894.0,0.004145520125434121
893.0,0.004233220950025984
892.0,0.004233220950025984
891.0,0.004233220950025984
890.0,0.004101676353562844
889.0,0.00401400208620073
888.0,0.003926345514724705
887.0,0.0038825238627120395
886.0,0.0038825238627120395
885.0,0.0038825238627120395
884.0,0.0038825238627120395
883.0,0.0038825238627120395
882.0,0.0038825238627120395
881.0,0.003926345514724705
880.0,0.003970171588923321
879.0,0.003970171588923321
878.0,0.00401400208620073
877.0,0.00401400208620073
876.0,0.004101676353562844
875.0,0.004145520125434121
874.0,0.004145520125434121
873.0,0.004101676353562844
872.0,0.0040578370074493275
871.0,0.00401400208620073
870.0,0.003970171588923321
869.0,0.0038825238627120395
868.0,0.0038387066319929275
867.0,0.003794893821675638
866.0,0.003707281458678491
865.0,0.003619686766589858
864.0,0.0035321097382827737
863.0,0.0035321097382827737
862.0,0.0035321097382827737
861.0,0.003488327845821315
860.0,0.003488327845821315
859.0,0.0035321097382827737
858.0,0.0036634819042162814
857.0,0.0038825238627120395
856.0,0.00401400208620073
855.0,0.0040578370074493275
854.0,0.0040578370074493275
853.0,0.004101676353562844
852.0,0.004189368323957332
851.0,0.004233220950025984
850.0,0.004233220950025984
849.0,0.004233220950025984
848.0,0.004189368323957332
847.0,0.004189368323957332
846.0,0.004189368323957332
845.0,0.004277078004534696
844.0,0.004408675747646695
843.0,0.004408675747646695
842.0,0.004320939488377862
841.0,0.004277078004534696
840.0,0.0043648054024501
839.0,0.004540313378935901
838.0,0.004671990922590297
837.0,0.004671990922590297
836.0,0.004671990922590297
835.0,0.004671990922590297
834.0,0.004628093971837721
833.0,0.00458420145758498
832.0,0.0044964297349936455
831.0,0.004408675747646695
830.0,0.0043648054024501
829.0,0.004320939488377862
828.0,0.004189368323957332
827.0,0.004101676353562844
826.0,0.00401400208620073
825.0,0.00401400208620073
824.0,0.00401400208620073
823.0,0.003970171588923321
822.0,0.0038825238627120395
821.0,0.0038387066319929275
820.0,0.003926345514724705
819.0,0.0040578370074493275
818.0,0.004145520125434121
817.0,0.004233220950025984
816.0,0.004189368323957332
815.0,0.004101676353562844
814.0,0.003970171588923321
813.0,0.0038825238627120395
812.0,0.003970171588923321
811.0,0.004145520125434121
810.0,0.004277078004534696
809.0,0.004189368323957332
808.0,0.0040578370074493275
807.0,0.003970171588923321
806.0,0.0038825238627120395
805.0,0.0038387066319929275
804.0,0.0038825238627120395
803.0,0.003926345514724705
802.0,0.003926345514724705
801.0,0.0038387066319929275
800.0,0.0037510854308679953
799.0,0.003794893821675638
798.0,0.0038825238627120395
797.0,0.00401400208620073
796.0,0.004101676353562844
795.0,0.004189368323957332
794.0,0.004233220950025984
793.0,0.004277078004534696
792.0,0.0043648054024501
791.0,0.0044964297349936455
790.0,0.004628093971837721
789.0,0.004715892310740433
788.0,0.004759798137184523
787.0,0.004715892310740433
786.0,0.004671990922590297
785.0,0.004671990922590297
784.0,0.004715892310740433
783.0,0.004803708402820517
782.0,0.00484762310854614
781.0,0.004715892310740433
780.0,0.004540313378935901
779.0,0.004452550524862486
778.0,0.004628093971837721
777.0,0.005067263269958211
776.0,0.005594853310833647
775.0,0.006035001804881146
774.0,0.006343371384537999
773.0,0.00656376950238835
772.0,0.006784279525863024
771.0,0.007093181776687496
770.0,0.0074464821678643656
769.0,0.007888512213050314
768.0,0.008330992620051436
767.0,0.0087296108049002
766.0,0.008951223547323472
765.0,0.009128595198514056
764.0,0.009306039320248427
763.0,0.009572341514736404
762.0,0.009927665307847056
761.0,0.01037222925484893
760.0,0.01077272626946324
759.0,0.010995384301463185
758.0,0.011084479487313281
757.0,0.011351874764248926
756.0,0.011797899741219142
755.0,0.012244383261476699
754.0,0.012467797270160563
753.0,0.012378417874516323
752.0,0.012333735073725371
751.0,0.012512493866907004
750.0,0.012870232340102872
749.0,0.013138729709955221
748.0,0.013273040668781544
747.0,0.013362604389846044
746.0,0.013496984613259544
745.0,0.013631406429727155
744.0,0.013452186585275916
743.0,0.012914970375878188
742.0,0.012065734767841452
741.0,0.011218156546359825
740.0,0.010683695010048622
739.0,0.010416710688994968
738.0,0.010283280051895272
737.0,0.01001654169860089
736.0,0.009572341514736404
735.0,0.00908424549391551
734.0,0.008596697419959609
733.0,0.008286724286910463
732.0,0.008153946355103248
731.0,0.008109696063975047
730.0,0.007976972236149349
729.0,0.00762324020119709
728.0,0.007181479933320523
727.0,0.006784279525863024
726.0,0.00656376950238835
725.0,0.00656376950238835
724.0,0.006696062080525422
723.0,0.006872514894289861
722.0,0.00696076819309055
721.0,0.006916639301937977
720.0,0.006696062080525422
719.0,0.006343371384537999
718.0,0.005946936412324799
717.0,0.005638848091999105
716.0,0.00541891874010525
715.0,0.005243055412371911
714.0,0.005111204635089406
713.0,0.005067263269958211
712.0,0.005243055412371911
711.0,0.005638848091999105
710.0,0.00621118618129457
709.0,0.00696076819309055
708.0,0.007932739972333236
707.0,0.00939478857608056
706.0,0.011351874764248926
705.0,0.013586594534531482
704.0,0.015832872853011715
703.0,0.017955020928509757
702.0,0.020178569969774962
701.0,0.022688026603074007
700.0,0.025488307262671706
699.0,0.028167720075074953
698.0,0.030444315779156517
697.0,0.03249882527715853
696.0,0.03428102975577918
695.0,0.03550466044490741
694.0,0.035740369803151095
693.0,0.03479829897408804
692.0,0.03301397488206215
691.0,0.030770520137356927
690.0,0.028445846553939003
689.0,0.026225806029419818
688.0,0.024246610963712723
687.0,0.02227639471115217
686.0,0.020497151212598652
685.0,0.019133445417920836
684.0,0.01858915983411169
683.0,0.018634490921455527
682.0,0.018543833477873584
681.0,0.017864505196230507
680.0,0.01677978535189717
679.0,0.015877917138889863
678.0,0.01547268665620738
677.0,0.015562705203923999
676.0,0.015877917138889863
675.0,0.016193358021584725
674.0,0.01632861713980338
673.0,0.016193358021584725
672.0,0.015652742414136167
671.0,0.014618439768003144
670.0,0.01318349541446362
669.0,0.012333735073725371
668.0,0.013093968619278806
667.0,0.014573525916998342
666.0,0.015517693597737248
665.0,0.015652742414136167
664.0,0.015292705517326866
663.0,0.014798141635428141
662.0,0.014393916947563534
661.0,0.014393916947563534
660.0,0.014888020460646079
659.0,0.01547268665620738
658.0,0.015607721475734415
657.0,0.014977917890464765
656.0,0.013631406429727155
655.0,0.011931796607364653
654.0,0.010283280051895272
653.0,0.008906891951112605
652.0,0.008286724286910463
651.0,0.0087296108049002
650.0,0.010149890396819572
649.0,0.012021084124518078
648.0,0.013541787262693505
647.0,0.014259258949925524
646.0,0.014259258949925524
645.0,0.01403492169512921
644.0,0.01385553528947936
643.0,0.013631406429727155
642.0,0.013407393177789162
641.0,0.01318349541446362
640.0,0.013138729709955221
639.0,0.013093968619278806
638.0,0.012780770091995297
637.0,0.01215504982870197
636.0,0.011396456654336085
635.0,0.010950843561779777
634.0,0.01117359295472431
633.0,0.012199714248127602
632.0,0.013452186585275916
631.0,0.014349026309051105
630.0,0.0144837121472845
629.0,0.013945219230304673
628.0,0.012959713020733288
627.0,0.0119764380713403
626.0,0.011664044143949504
625.0,0.012333735073725371
624.0,0.013631406429727155
623.0,0.014618439768003144
622.0,0.014977917890464765
621.0,0.015067833932588037
620.0,0.01538268676325183
619.0,0.015742798294583915
618.0,0.015742798294583915
617.0,0.015427684378367834
616.0,0.014977917890464765
615.0,0.014304140310157809
614.0,0.013273040668781544
613.0,0.012467797270160563
612.0,0.012825498912458322
611.0,0.014573525916998342
610.0,0.016870075265299933
609.0,0.01858915983411169
608.0,0.0192242260373785
607.0,0.018906576854070378
606.0,0.018181392829336396
605.0,0.017774008325325275
604.0,0.017909760704207134
603.0,0.017955020928509757
602.0,0.017321806616515723
601.0,0.016013078034810446
600.0,0.014798141635428141
