cm-1,A
4000.0,0.02004210665933459
3999.0,0.02004210665933459
3998.0,0.020087589665283012
3997.0,0.020087589665283012
3996.0,0.020087589665283012
3995.0,0.020087589665283012
3994.0,0.020087589665283012
3993.0,0.020087589665283012
3992.0,0.020178569969774962
3991.0,0.02022406727031445
3990.0,0.020315076172974234
3989.0,0.020315076172974234
3988.0,0.020315076172974234
3987.0,0.02026956933771462
3986.0,0.02022406727031445
3985.0,0.020178569969774962
3984.0,0.020178569969774962
3983.0,0.02013307743509718
3982.0,0.020178569969774962
3981.0,0.02022406727031445
3980.0,0.02026956933771462
3979.0,0.02036058777709271
3978.0,0.02036058777709271
3977.0,0.020315076172974234
3976.0,0.02026956933771462
3975.0,0.02026956933771462
3974.0,0.02026956933771462
3973.0,0.02026956933771462
3972.0,0.02026956933771462
3971.0,0.020315076172974234
3970.0,0.020315076172974234
3969.0,0.020315076172974234
3968.0,0.020315076172974234
3967.0,0.02026956933771462
3966.0,0.020315076172974234
3965.0,0.020315076172974234
3964.0,0.02036058777709271
3963.0,0.020406104151069693
3962.0,0.02036058777709271
3961.0,0.020315076172974234
3960.0,0.02026956933771462
3959.0,0.020315076172974234
3958.0,0.02036058777709271
3957.0,0.020406104151069693
3956.0,0.02045162529590483
3955.0,0.02045162529590483
3954.0,0.020406104151069693
3953.0,0.02036058777709271
3952.0,0.02026956933771462
3951.0,0.02026956933771462
3950.0,0.02022406727031445
3949.0,0.02022406727031445
3948.0,0.020178569969774962
3947.0,0.020178569969774962
3946.0,0.020178569969774962
3945.0,0.020315076172974234
3944.0,0.020406104151069693
3943.0,0.02045162529590483
3942.0,0.02036058777709271
3941.0,0.020315076172974234
3940.0,0.02036058777709271
3939.0,0.02045162529590483
3938.0,0.020497151212598652
3937.0,0.02045162529590483
3936.0,0.020406104151069693
3935.0,0.02036058777709271
3934.0,0.020406104151069693
3933.0,0.020406104151069693
3932.0,0.02045162529590483
3931.0,0.02045162529590483
3930.0,0.020406104151069693
3929.0,0.02036058777709271
3928.0,0.02036058777709271
3927.0,0.02036058777709271
3926.0,0.020406104151069693
3925.0,0.020406104151069693
3924.0,0.02036058777709271
3923.0,0.02036058777709271
3922.0,0.020406104151069693
3921.0,0.02045162529590483
3920.0,0.020497151212598652
3919.0,0.020542681902151694
3918.0,0.02058821736556471
3917.0,0.020633757603838898
3916.0,0.02058821736556471
3915.0,0.02058821736556471
3914.0,0.020633757603838898
3913.0,0.020770406977844713
3912.0,0.020861530453190058
3911.0,0.020907099361673565
3910.0,0.02081596632558158
3909.0,0.02067930261797568
3908.0,0.02045162529590483
3907.0,0.02026956933771462
3906.0,0.02013307743509718
3905.0,0.020087589665283012
3904.0,0.019996628416253603
3903.0,0.01995115493504329
3902.0,0.019996628416253603
3901.0,0.020178569969774962
3900.0,0.020406104151069693
3899.0,0.020542681902151694
3898.0,0.020542681902151694
3897.0,0.02058821736556471
3896.0,0.020633757603838898
3895.0,0.02058821736556471
3894.0,0.02058821736556471
3893.0,0.020724852408976924
3892.0,0.020861530453190058
3891.0,0.020724852408976924
3890.0,0.020497151212598652
3889.0,0.02045162529590483
3888.0,0.02058821736556471
3887.0,0.02067930261797568
3886.0,0.020633757603838898
3885.0,0.02036058777709271
3884.0,0.020087589665283012
3883.0,0.020178569969774962
3882.0,0.020406104151069693
3881.0,0.02058821736556471
3880.0,0.020542681902151694
3879.0,0.020315076172974234
3878.0,0.020315076172974234
3877.0,0.02045162529590483
3876.0,0.020542681902151694
3875.0,0.020497151212598652
3874.0,0.02022406727031445
3873.0,0.020087589665283012
3872.0,0.02022406727031445
3871.0,0.02058821736556471
3870.0,0.020724852408976924
3869.0,0.020497151212598652
3868.0,0.02036058777709271
3867.0,0.020542681902151694
3866.0,0.020770406977844713
3865.0,0.02081596632558158
3864.0,0.020770406977844713
3863.0,0.02067930261797568
3862.0,0.020633757603838898
3861.0,0.020724852408976924
3860.0,0.020770406977844713
3859.0,0.020770406977844713
3858.0,0.02058821736556471
3857.0,0.020315076172974234
3856.0,0.02004210665933459
3855.0,0.02022406727031445
3854.0,0.020770406977844713
3853.0,0.02081596632558158
3852.0,0.020497151212598652
3851.0,0.020633757603838898
3850.0,0.021089422824428272
3849.0,0.021317434843055594
3848.0,0.021271822861508305
3847.0,0.0211806132671577
3846.0,0.021043834782408455
3845.0,0.0209982515252789
3844.0,0.020907099361673565
3843.0,0.02081596632558158
3842.0,0.020633757603838898
3841.0,0.020497151212598652
3840.0,0.02045162529590483
3839.0,0.020406104151069693
3838.0,0.02036058777709271
3837.0,0.02026956933771462
3836.0,0.02036058777709271
3835.0,0.02058821736556471
3834.0,0.020907099361673565
3833.0,0.021135015652343103
3832.0,0.02122621566987748
3831.0,0.0211806132671577
3830.0,0.021135015652343103
3829.0,0.0211806132671577
3828.0,0.021271822861508305
3827.0,0.02122621566987748
3826.0,0.020952673052035298
3825.0,0.020633757603838898
3824.0,0.020497151212598652
3823.0,0.02058821736556471
3822.0,0.020861530453190058
3821.0,0.02081596632558158
3820.0,0.020497151212598652
3819.0,0.020406104151069693
3818.0,0.020861530453190058
3817.0,0.021363051615525652
3816.0,0.021545566634771474
3815.0,0.0214542995372613
3814.0,0.021499930688540836
3813.0,0.021728158389364705
3812.0,0.021865152601710403
3811.0,0.021728158389364705
3810.0,0.021545566634771474
3809.0,0.021545566634771474
3808.0,0.02168250325324883
3807.0,0.021636852916117055
3806.0,0.021271822861508305
3805.0,0.020952673052035298
3804.0,0.020952673052035298
3803.0,0.021089422824428272
3802.0,0.02122621566987748
3801.0,0.021043834782408455
3800.0,0.020770406977844713
3799.0,0.020907099361673565
3798.0,0.021317434843055594
3797.0,0.021636852916117055
3796.0,0.021728158389364705
3795.0,0.021773818325474092
3794.0,0.021956506090037076
3793.0,0.0221849739168134
3792.0,0.022367834754000393
3791.0,0.022367834754000393
3790.0,0.022322112326006227
3789.0,0.0221849739168134
3788.0,0.02204787879853809
3787.0,0.02200219004126036
3786.0,0.021956506090037076
3785.0,0.021910826943857264
3784.0,0.021773818325474092
3783.0,0.02159120737696063
3782.0,0.02159120737696063
3781.0,0.021728158389364705
3780.0,0.021865152601710403
3779.0,0.021910826943857264
3778.0,0.021865152601710403
3777.0,0.021956506090037076
3776.0,0.022093572362881675
3775.0,0.022139270735302752
3774.0,0.02200219004126036
3773.0,0.021865152601710403
3772.0,0.021819483062586187
3771.0,0.021865152601710403
3770.0,0.021865152601710403
3769.0,0.021773818325474092
3768.0,0.021773818325474092
3767.0,0.021910826943857264
3766.0,0.02204787879853809
3765.0,0.02200219004126036
3764.0,0.021865152601710403
3763.0,0.021819483062586187
3762.0,0.021773818325474092
3761.0,0.021728158389364705
3760.0,0.021636852916117055
3759.0,0.021499930688540836
3758.0,0.02140867317992523
3757.0,0.021271822861508305
3756.0,0.02122621566987748
3755.0,0.021135015652343103
3754.0,0.021043834782408455
3753.0,0.0209982515252789
3752.0,0.0211806132671577
3751.0,0.0214542995372613
3750.0,0.02140867317992523
3749.0,0.02122621566987748
3748.0,0.021271822861508305
3747.0,0.02159120737696063
3746.0,0.02204787879853809
3745.0,0.02227639471115217
3744.0,0.02200219004126036
3743.0,0.021636852916117055
3742.0,0.021819483062586187
3741.0,0.022139270735302752
3740.0,0.022093572362881675
3739.0,0.021773818325474092
3738.0,0.021499930688540836
3737.0,0.021499930688540836
3736.0,0.021545566634771474
3735.0,0.021499930688540836
3734.0,0.0214542995372613
3733.0,0.02159120737696063
3732.0,0.021773818325474092
3731.0,0.021865152601710403
3730.0,0.021956506090037076
3729.0,0.022139270735302752
3728.0,0.022322112326006227
3727.0,0.022413561996148967
3726.0,0.022413561996148967
3725.0,0.022367834754000393
3724.0,0.02227639471115217
3723.0,0.022230681908425698
3722.0,0.022230681908425698
3721.0,0.022322112326006227
3720.0,0.022413561996148967
3719.0,0.02255077261765881
3718.0,0.02259651912656535
3717.0,0.022505030926963654
3716.0,0.022367834754000393
3715.0,0.022230681908425698
3714.0,0.022093572362881675
3713.0,0.02204787879853809
3712.0,0.0221849739168134
3711.0,0.022230681908425698
3710.0,0.022230681908425698
3709.0,0.022367834754000393
3708.0,0.02255077261765881
3707.0,0.022733787572707387
3706.0,0.02277955336461468
3705.0,0.02277955336461468
3704.0,0.022733787572707387
3703.0,0.022733787572707387
3702.0,0.022733787572707387
3701.0,0.022688026603074007
3700.0,0.022688026603074007
3699.0,0.022871099419317753
3698.0,0.023100049017062307
3697.0,0.02314585342378117
3696.0,0.023100049017062307
3695.0,0.02291687968414724
3694.0,0.02277955336461468
3693.0,0.02255077261765881
3692.0,0.022413561996148967
3691.0,0.022367834754000393
3690.0,0.02245929405346514
3689.0,0.022505030926963654
3688.0,0.02255077261765881
3687.0,0.022733787572707387
3686.0,0.023100049017062307
3685.0,0.02342078135989012
3684.0,0.02351246269481
3683.0,0.02342078135989012
3682.0,0.023283295636617574
3681.0,0.02314585342378117
3680.0,0.022871099419317753
3679.0,0.022505030926963654
3678.0,0.022367834754000393
3677.0,0.022642270454698687
3676.0,0.02300845469384938
3675.0,0.02277955336461468
3674.0,0.022322112326006227
3673.0,0.022413561996148967
3672.0,0.02282532397981263
3671.0,0.023283295636617574
3670.0,0.023466619608062178
3669.0,0.023374947949272418
3668.0,0.023283295636617574
3667.0,0.023466619608062178
3666.0,0.023741750742954926
3665.0,0.023879381700184332
3664.0,0.023879381700184332
3663.0,0.023879381700184332
3662.0,0.023787622882622816
3661.0,0.023695883447997224
3660.0,0.02355831062115543
3659.0,0.023604163388120325
3658.0,0.023741750742954926
3657.0,0.023925268380126097
3656.0,0.023833499868024743
3655.0,0.02355831062115543
3654.0,0.023329119375188556
3653.0,0.023100049017062307
3652.0,0.02282532397981263
3651.0,0.022688026603074007
3650.0,0.02291687968414724
3649.0,0.023191662661933732
3648.0,0.023237476732539397
3647.0,0.023374947949272418
3646.0,0.023695883447997224
3645.0,0.024108863598207186
3644.0,0.024430342106337877
3643.0,0.02461415101053266
3642.0,0.02475205875931885
3641.0,0.024798037742147727
3640.0,0.02484402159331056
3639.0,0.02484402159331056
3638.0,0.024890010313838973
3637.0,0.024890010313838973
3636.0,0.024936003904763915
3635.0,0.025028005701930978
3634.0,0.02498200236711723
3633.0,0.02475205875931885
3632.0,0.024522236834125355
3631.0,0.024430342106337877
3630.0,0.024706084643793647
3629.0,0.025028005701930978
3628.0,0.025028005701930978
3627.0,0.025074013910237447
3626.0,0.02539620791296726
3625.0,0.025718641122169483
3624.0,0.025718641122169483
3623.0,0.02553436426275746
3622.0,0.02539620791296726
3621.0,0.025304128090317013
3620.0,0.025304128090317013
3619.0,0.02516604495145991
3618.0,0.024936003904763915
3617.0,0.02484402159331056
3616.0,0.024936003904763915
3615.0,0.02512002699306959
3614.0,0.025258095499050004
3613.0,0.025304128090317013
3612.0,0.025350165561278004
3611.0,0.02544225514642018
3610.0,0.025672564576383117
3609.0,0.025949097207122573
3608.0,0.02617967564731627
3607.0,0.026271941311972746
3606.0,0.026318081496016443
3605.0,0.026410376572743033
3604.0,0.026456531467510258
3603.0,0.02654885597506529
3602.0,0.026595025589939425
3601.0,0.02664120011360227
3600.0,0.02664120011360227
3599.0,0.02664120011360227
3598.0,0.02664120011360227
3597.0,0.026687379547098322
3596.0,0.026872146400301444
3595.0,0.027056991894431892
3594.0,0.027195677663422346
3593.0,0.027288159452933503
3592.0,0.027334407733889066
3591.0,0.027334407733889066
3590.0,0.027288159452933503
3589.0,0.02738066094037661
3588.0,0.02747318213414429
3587.0,0.02751945012352408
3586.0,0.02751945012352408
3585.0,0.0277045713888604
3584.0,0.02798240132598462
3583.0,0.02826040911222183
3582.0,0.028445846553939003
3581.0,0.028538594975413334
3580.0,0.028538594975413334
3579.0,0.028538594975413334
3578.0,0.02849221828874393
3577.0,0.028538594975413334
3576.0,0.02863136320857662
3575.0,0.02872415126189476
3574.0,0.028816959143838528
3573.0,0.028816959143838528
3572.0,0.028770552723758724
3571.0,0.028677754757187035
3570.0,0.02858497661500481
3569.0,0.028677754757187035
3568.0,0.02890978686288448
3567.0,0.029141943003497595
3566.0,0.029141943003497595
3565.0,0.029141943003497595
3564.0,0.02932775731028059
3563.0,0.029560137048236124
3562.0,0.029792641193145286
3561.0,0.029932203450862893
3560.0,0.03002526987828502
3559.0,0.030118356253500123
3558.0,0.03025802323714588
3557.0,0.030351159519274695
3556.0,0.030490901403433135
3555.0,0.030537492025363155
3554.0,0.030537492025363155
3553.0,0.030537492025363155
3552.0,0.030537492025363155
3551.0,0.030537492025363155
3550.0,0.030537492025363155
3549.0,0.03063068826647264
3548.0,0.0307239045110681
3547.0,0.030863766403287585
3546.0,0.030957032694186815
3545.0,0.03105031901865729
3544.0,0.031190286087141805
3543.0,0.03133029827960798
3542.0,0.03147035562516054
3541.0,0.031563752288295444
3540.0,0.031657169041054534
3539.0,0.03175060589208267
3538.0,0.03189079887180224
3537.0,0.032031037121307726
3536.0,0.03207779326948268
3535.0,0.03207779326948268
3534.0,0.032031037121307726
3533.0,0.031984286006358165
3532.0,0.031984286006358165
3531.0,0.032031037121307726
3530.0,0.03217132066984485
3529.0,0.03226486821611996
3528.0,0.032311649546687526
3527.0,0.032311649546687526
3526.0,0.032311649546687526
3525.0,0.03235843591698884
3524.0,0.03245202378113787
3523.0,0.032592443402527316
3522.0,0.032686081712916426
3521.0,0.03273290844021437
3520.0,0.03282657704446046
3519.0,0.0329671178412978
3518.0,0.033060836978886954
3517.0,0.033154576345083564
3516.0,0.0332483359486222
3515.0,0.03334211579824231
3514.0,0.03334211579824231
3513.0,0.0332483359486222
3512.0,0.0332483359486222
3511.0,0.033295223342125535
3510.0,0.03343591590268957
3509.0,0.03357665405630694
3508.0,0.03357665405630694
3507.0,0.03352973627071565
3506.0,0.033482823553208085
3505.0,0.033482823553208085
3504.0,0.03357665405630694
3503.0,0.03367050483612166
3502.0,0.03376437590141812
3501.0,0.03385826726096752
3500.0,0.033952178923546183
3499.0,0.034046110897937076
3498.0,0.03414006319292828
3497.0,0.03428102975577918
3496.0,0.03437503289075727
3495.0,0.034469056377139484
3494.0,0.034469056377139484
3493.0,0.034516075754861264
3492.0,0.034516075754861264
3491.0,0.034516075754861264
3490.0,0.034516075754861264
3489.0,0.03456310022373987
3488.0,0.03461012978487776
3487.0,0.03461012978487776
3486.0,0.03465716443937783
3485.0,0.03470420418834386
3484.0,0.03479829897408804
3483.0,0.03503362516890207
3482.0,0.03522197797762394
3481.0,0.03531618502395939
3480.0,0.03531618502395939
3479.0,0.03526907894637077
3478.0,0.03531618502395939
3477.0,0.035363296211498474
3476.0,0.03545753392086315
3475.0,0.03555179208333925
3474.0,0.03555179208333925
3473.0,0.03555179208333925
3472.0,0.03555179208333925
3471.0,0.03555179208333925
3470.0,0.03555179208333925
3469.0,0.03555179208333925
3468.0,0.03559892883726867
3467.0,0.035693217696063595
3466.0,0.03578752703018084
3465.0,0.03583468937826462
3464.0,0.03588185684851508
3463.0,0.03597620715996652
3462.0,0.0360705779734416
3461.0,0.03621217265444465
3460.0,0.03630659476198117
3459.0,0.03635381351515665
3458.0,0.036401037402758574
3457.0,0.03644826642590382
3456.0,0.03649550058570927
3455.0,0.036542739883292485
3454.0,0.036542739883292485
3453.0,0.03649550058570927
3452.0,0.03649550058570927
3451.0,0.036542739883292485
3450.0,0.03658998431977123
3449.0,0.03663723389626394
3448.0,0.03663723389626394
3447.0,0.03668448861388862
3446.0,0.036731748473764814
3445.0,0.036779013477011624
3444.0,0.036873558918095295
3443.0,0.03692083935817303
3442.0,0.03692083935817303
3441.0,0.0369681249461018
3440.0,0.03701541568300293
3439.0,0.0371573187987575
3438.0,0.037299268295658994
3437.0,0.03744126420403626
3436.0,0.037583306554248797
3435.0,0.03767802727041558
3434.0,0.03767802727041558
3433.0,0.03763066432997886
3432.0,0.037583306554248797
3431.0,0.037583306554248797
3430.0,0.03763066432997886
3429.0,0.03767802727041558
3428.0,0.03772539537668518
3427.0,0.03777276864991497
3426.0,0.03777276864991497
3425.0,0.03777276864991497
3424.0,0.03782014709123227
3423.0,0.03782014709123227
3422.0,0.03782014709123227
3421.0,0.03786753070176463
3420.0,0.03786753070176463
3419.0,0.03786753070176463
3418.0,0.03791491948264003
3417.0,0.03800971255993524
3416.0,0.038151940981675736
3415.0,0.03829421599749461
3414.0,0.038436537637930535
3413.0,0.03848398855105106
3412.0,0.038436537637930535
3411.0,0.03838909190871931
3410.0,0.038341651362284734
3409.0,0.03838909190871931
3408.0,0.03838909190871931
3407.0,0.038436537637930535
3406.0,0.038436537637930535
3405.0,0.038436537637930535
3404.0,0.038531444649213764
3403.0,0.038673844065289176
3402.0,0.03876880295533702
3401.0,0.03886378261277468
3400.0,0.038911280232103884
3399.0,0.03886378261277468
3398.0,0.038816290187564384
3397.0,0.038816290187564384
3396.0,0.038816290187564384
3395.0,0.038816290187564384
3394.0,0.038816290187564384
3393.0,0.038816290187564384
3392.0,0.03876880295533702
3391.0,0.03876880295533702
3390.0,0.03876880295533702
3389.0,0.038816290187564384
3388.0,0.03886378261277468
3387.0,0.038958783046687984
3386.0,0.039006291057664066
3385.0,0.039006291057664066
3384.0,0.039006291057664066
3383.0,0.039006291057664066
3382.0,0.03905380426616856
3381.0,0.03905380426616856
3380.0,0.03905380426616856
3379.0,0.039006291057664066
3378.0,0.038911280232103884
3377.0,0.03886378261277468
3376.0,0.03886378261277468
3375.0,0.038911280232103884
3374.0,0.038958783046687984
3373.0,0.039006291057664066
3372.0,0.039006291057664066
3371.0,0.039006291057664066
3370.0,0.039006291057664066
3369.0,0.038958783046687984
3368.0,0.039006291057664066
3367.0,0.03905380426616856
3366.0,0.03910132267333921
3365.0,0.03914884628031379
3364.0,0.03910132267333921
3363.0,0.03910132267333921
3362.0,0.03905380426616856
3361.0,0.03910132267333921
3360.0,0.03914884628031379
3359.0,0.03924390909822728
3358.0,0.03929144831144349
3357.0,0.03929144831144349
3356.0,0.03924390909822728
3355.0,0.03919637508823026
3354.0,0.03919637508823026
3353.0,0.03924390909822728
3352.0,0.039338992729018196
3351.0,0.03938654235209116
3350.0,0.039338992729018196
3349.0,0.03929144831144349
3348.0,0.03919637508823026
3347.0,0.03919637508823026
3346.0,0.03919637508823026
3345.0,0.03924390909822728
3344.0,0.03924390909822728
3343.0,0.03924390909822728
3342.0,0.03924390909822728
3341.0,0.03924390909822728
3340.0,0.03929144831144349
3339.0,0.039338992729018196
3338.0,0.03938654235209116
3337.0,0.03938654235209116
3336.0,0.03938654235209116
3335.0,0.03938654235209116
3334.0,0.03938654235209116
3333.0,0.03943409718180235
3332.0,0.03948165721929198
3331.0,0.03952922246570112
3330.0,0.03957679292217042
3329.0,0.03962436858984186
3328.0,0.03957679292217042
3327.0,0.03957679292217042
3326.0,0.03952922246570112
3325.0,0.03952922246570112
3324.0,0.03957679292217042
3323.0,0.03957679292217042
3322.0,0.03957679292217042
3321.0,0.03952922246570112
3320.0,0.03948165721929198
3319.0,0.03943409718180235
3318.0,0.03938654235209116
3317.0,0.03929144831144349
3316.0,0.03924390909822728
3315.0,0.03929144831144349
3314.0,0.039338992729018196
3313.0,0.03938654235209116
3312.0,0.03938654235209116
3311.0,0.03943409718180235
3310.0,0.03943409718180235
3309.0,0.03943409718180235
3308.0,0.03943409718180235
3307.0,0.03948165721929198
3306.0,0.03952922246570112
3305.0,0.03952922246570112
3304.0,0.03957679292217042
3303.0,0.03957679292217042
3302.0,0.03952922246570112
3301.0,0.03948165721929198
3300.0,0.03943409718180235
3299.0,0.03938654235209116
3298.0,0.03948165721929198
3297.0,0.03957679292217042
3296.0,0.03967194946985697
3295.0,0.039719535563357944
3294.0,0.039719535563357944
3293.0,0.03962436858984186
3292.0,0.03957679292217042
3291.0,0.03957679292217042
3290.0,0.03952922246570112
3289.0,0.03948165721929198
3288.0,0.03938654235209116
3287.0,0.039338992729018196
3286.0,0.03929144831144349
3285.0,0.03938654235209116
3284.0,0.03943409718180235
3283.0,0.03948165721929198
3282.0,0.03952922246570112
3281.0,0.03952922246570112
3280.0,0.03952922246570112
3279.0,0.03948165721929198
3278.0,0.03943409718180235
3277.0,0.03938654235209116
3276.0,0.03938654235209116
3275.0,0.03943409718180235
3274.0,0.03943409718180235
3273.0,0.03948165721929198
3272.0,0.03948165721929198
3271.0,0.03943409718180235
3270.0,0.03943409718180235
3269.0,0.03938654235209116
3268.0,0.039338992729018196
3267.0,0.03929144831144349
3266.0,0.03929144831144349
3265.0,0.03929144831144349
3264.0,0.03929144831144349
3263.0,0.03924390909822728
3262.0,0.03919637508823026
3261.0,0.03914884628031379
3260.0,0.03910132267333921
3259.0,0.03905380426616856
3258.0,0.03905380426616856
3257.0,0.03910132267333921
3256.0,0.03910132267333921
3255.0,0.03910132267333921
3254.0,0.03905380426616856
3253.0,0.039006291057664066
3252.0,0.038958783046687984
3251.0,0.038958783046687984
3250.0,0.038958783046687984
3249.0,0.038958783046687984
3248.0,0.038911280232103884
3247.0,0.038958783046687984
3246.0,0.038911280232103884
3245.0,0.03886378261277468
3244.0,0.038816290187564384
3243.0,0.03876880295533702
3242.0,0.038721320914956836
3241.0,0.038721320914956836
3240.0,0.03876880295533702
3239.0,0.03876880295533702
3238.0,0.03876880295533702
3237.0,0.038816290187564384
3236.0,0.03876880295533702
3235.0,0.03876880295533702
3234.0,0.038721320914956836
3233.0,0.038721320914956836
3232.0,0.038721320914956836
3231.0,0.038721320914956836
3230.0,0.038721320914956836
3229.0,0.038721320914956836
3228.0,0.038673844065289176
3227.0,0.03857890593355173
3226.0,0.03848398855105106
3225.0,0.03838909190871931
3224.0,0.038341651362284734
3223.0,0.038341651362284734
3222.0,0.038341651362284734
3221.0,0.03829421599749461
3220.0,0.03824678581321739
3219.0,0.038151940981675736
3218.0,0.03810452633214956
3217.0,0.038151940981675736
3216.0,0.03824678581321739
3215.0,0.03838909190871931
3214.0,0.03848398855105106
3213.0,0.03848398855105106
3212.0,0.038436537637930535
3211.0,0.038341651362284734
3210.0,0.03824678581321739
3209.0,0.03810452633214956
3208.0,0.03800971255993524
3207.0,0.03791491948264003
3206.0,0.03786753070176463
3205.0,0.03791491948264003
3204.0,0.03796231343498735
3203.0,0.038057116858612794
3202.0,0.03810452633214956
3201.0,0.038057116858612794
3200.0,0.03796231343498735
3199.0,0.03786753070176463
3198.0,0.03772539537668518
3197.0,0.03763066432997886
3196.0,0.037583306554248797
3195.0,0.037583306554248797
3194.0,0.03753595394209874
3193.0,0.03753595394209874
3192.0,0.037488606492403154
3191.0,0.037488606492403154
3190.0,0.037488606492403154
3189.0,0.03744126420403626
3188.0,0.03739392707587297
3187.0,0.037346595106788616
3186.0,0.037299268295658994
3185.0,0.037299268295658994
3184.0,0.037251946641359446
3183.0,0.03720463014276687
3182.0,0.0371100126082089
3181.0,0.03701541568300293
3180.0,0.03692083935817303
3179.0,0.036873558918095295
3178.0,0.036873558918095295
3177.0,0.036873558918095295
3176.0,0.036873558918095295
3175.0,0.03682628362474838
3174.0,0.036779013477011624
3173.0,0.036731748473764814
3172.0,0.03668448861388862
3171.0,0.03663723389626394
3170.0,0.036542739883292485
3169.0,0.03644826642590382
3168.0,0.036401037402758574
3167.0,0.036401037402758574
3166.0,0.03644826642590382
3165.0,0.03649550058570927
3164.0,0.036542739883292485
3163.0,0.03658998431977123
3162.0,0.036542739883292485
3161.0,0.03658998431977123
3160.0,0.03658998431977123
3159.0,0.03649550058570927
3158.0,0.03635381351515665
3157.0,0.03616496929785207
3156.0,0.03597620715996652
3155.0,0.03592902944204468
3154.0,0.03588185684851508
3153.0,0.03592902944204468
3152.0,0.03592902944204468
3151.0,0.03583468937826462
3150.0,0.035740369803151095
3149.0,0.03559892883726867
3148.0,0.03545753392086315
3147.0,0.03541041251009669
3146.0,0.035363296211498474
3145.0,0.035363296211498474
3144.0,0.03531618502395939
3143.0,0.035363296211498474
3142.0,0.035363296211498474
3141.0,0.03531618502395939
3140.0,0.03522197797762394
3139.0,0.03517488211661135
3138.0,0.03503362516890207
3137.0,0.0349394793888016
3136.0,0.03489241415094413
3135.0,0.03479829897408804
3134.0,0.03475124903287918
3133.0,0.03475124903287918
3132.0,0.03470420418834386
3131.0,0.03465716443937783
3130.0,0.03461012978487776
3129.0,0.03456310022373987
3128.0,0.03456310022373987
3127.0,0.034516075754861264
3126.0,0.034469056377139484
3125.0,0.03442204208947208
3124.0,0.03437503289075727
3123.0,0.03437503289075727
3122.0,0.03432802877989327
3121.0,0.03423403581731388
3120.0,0.03414006319292828
3119.0,0.03409308450480819
3118.0,0.03409308450480819
3117.0,0.03414006319292828
3116.0,0.034187046963396917
3115.0,0.03423403581731388
3114.0,0.03432802877989327
3113.0,0.03437503289075727
3112.0,0.034516075754861264
3111.0,0.03461012978487776
3110.0,0.03475124903287918
3109.0,0.03498654972775217
3108.0,0.03517488211661135
3107.0,0.03541041251009669
3106.0,0.03559892883726867
3105.0,0.035740369803151095
3104.0,0.03578752703018084
3103.0,0.03583468937826462
3102.0,0.03583468937826462
3101.0,0.03578752703018084
3100.0,0.035646070707806565
3099.0,0.03541041251009669
3098.0,0.03522197797762394
3097.0,0.03508070571335731
3096.0,0.03498654972775217
3095.0,0.03498654972775217
3094.0,0.03512779136222477
3093.0,0.035363296211498474
3092.0,0.035693217696063595
3091.0,0.03616496929785207
3090.0,0.036731748473764814
3089.0,0.037488606492403154
3088.0,0.03838909190871931
3087.0,0.039338992729018196
3086.0,0.040243327009005014
3085.0,0.041006334969674096
3084.0,0.041627267521392675
3083.0,0.04196198390166317
3082.0,0.04200982159316968
3081.0,0.0417706858116178
3080.0,0.041340572947066834
3079.0,0.04076775094900409
3078.0,0.04019568349166214
3077.0,0.03967194946985697
3076.0,0.03924390909822728
3075.0,0.038958783046687984
3074.0,0.038816290187564384
3073.0,0.03876880295533702
3072.0,0.038816290187564384
3071.0,0.03905380426616856
3070.0,0.039338992729018196
3069.0,0.039767126871487646
3068.0,0.0402909757535701
3067.0,0.041006334969674096
3066.0,0.041914151478914974
3065.0,0.04291974034210022
3064.0,0.04397571771932274
3063.0,0.044937930324967956
3062.0,0.04570923829887308
3061.0,0.04628861957244457
3060.0,0.04657860031896477
3059.0,0.046481918555007384
3058.0,0.04609540658654021
3057.0,0.04541983725624266
3056.0,0.04460091336073302
3055.0,0.043735497301724546
3054.0,0.04287180232318688
3053.0,0.04200982159316968
3052.0,0.04124505013091051
3051.0,0.040529297924893015
3050.0,0.03986232513620536
3049.0,0.039338992729018196
3048.0,0.038911280232103884
3047.0,0.03857890593355173
3046.0,0.038341651362284734
3045.0,0.038151940981675736
3044.0,0.03810452633214956
3043.0,0.038151940981675736
3042.0,0.03829421599749461
3041.0,0.03857890593355173
3040.0,0.038958783046687984
3039.0,0.03948165721929198
3038.0,0.04014804520039483
3037.0,0.041006334969674096
3036.0,0.042057664554595586
3035.0,0.04339941178682327
3034.0,0.04503426894157925
3033.0,0.047062332249019345
3032.0,0.04939177521576932
3031.0,0.05192951848105887
3030.0,0.05458065739693696
3029.0,0.05709945885970602
3028.0,0.05938391766259232
3027.0,0.06118017497378969
3026.0,0.06223143295006417
3025.0,0.062381820606176586
3024.0,0.06163040254819374
3023.0,0.0601813371786204
3022.0,0.05809122563440061
3021.0,0.05571477931124735
3020.0,0.05325306496641513
3019.0,0.050902874887084115
3018.0,0.048808242065293994
3017.0,0.04701393480294458
3016.0,0.0454680573730859
3015.0,0.04421607108308856
3014.0,0.0431115453499229
3013.0,0.042201225070002124
3012.0,0.041483896576958834
3011.0,0.040958607678906356
3010.0,0.04062466342415694
3009.0,0.040481623027001756
3008.0,0.04043395336207234
3007.0,0.040481623027001756
3006.0,0.04062466342415694
3005.0,0.04086316882962593
3004.0,0.041101805289228244
3003.0,0.04129280891271536
3002.0,0.04138834223512067
3001.0,0.04129280891271536
3000.0,0.04105406750606355
2999.0,0.04062466342415694
2998.0,0.04010041213405646
2997.0,0.03948165721929198
2996.0,0.03886378261277468
2995.0,0.03824678581321739
2994.0,0.03772539537668518
2993.0,0.037299268295658994
2992.0,0.03701541568300293
2991.0,0.036779013477011624
2990.0,0.03663723389626394
2989.0,0.03644826642590382
2988.0,0.03625938114211591
2987.0,0.0360705779734416
2986.0,0.03592902944204468
2985.0,0.03583468937826462
2984.0,0.03578752703018084
2983.0,0.03578752703018084
2982.0,0.03578752703018084
2981.0,0.035740369803151095
2980.0,0.035740369803151095
2979.0,0.035740369803151095
2978.0,0.03578752703018084
2977.0,0.03578752703018084
2976.0,0.03578752703018084
2975.0,0.035740369803151095
2974.0,0.035740369803151095
2973.0,0.035740369803151095
2972.0,0.03578752703018084
2971.0,0.03588185684851508
2970.0,0.03602339000339416
2969.0,0.03616496929785207
2968.0,0.03635381351515665
2967.0,0.03649550058570927
2966.0,0.03668448861388862
2965.0,0.03692083935817303
2964.0,0.0371573187987575
2963.0,0.03744126420403626
2962.0,0.03767802727041558
2961.0,0.03786753070176463
2960.0,0.038057116858612794
2959.0,0.03829421599749461
2958.0,0.038531444649213764
2957.0,0.03886378261277468
2956.0,0.03914884628031379
2955.0,0.03948165721929198
2954.0,0.03981472339538916
2953.0,0.04014804520039483
2952.0,0.040481623027001756
2951.0,0.04091088563260792
2950.0,0.04138834223512067
2949.0,0.041914151478914974
2948.0,0.04248848854552012
2947.0,0.043063586155803746
2946.0,0.043735497301724546
2945.0,0.044456557540257124
2944.0,0.045323413081356456
2943.0,0.04624030826677128
2942.0,0.047352830241056854
2941.0,0.04851676924770687
2940.0,0.04973253198641148
2939.0,0.051049389754451946
2938.0,0.0525172634430815
2937.0,0.054088483180726676
2936.0,0.05581353871631256
2935.0,0.05754547365752294
2934.0,0.05933412752417122
2933.0,0.06108018775522828
2932.0,0.06283329628496737
2931.0,0.06454311928839007
2930.0,0.06625970050306473
2929.0,0.06788152797087754
2928.0,0.06940751155740177
2927.0,0.07073438174693436
2926.0,0.07191154033502922
2925.0,0.07288638806623937
2924.0,0.07360609973031784
2923.0,0.07412091069849924
2922.0,0.07443009045662374
2921.0,0.07448164182257
2920.0,0.07437854520917098
2919.0,0.07406940213152868
2918.0,0.07360609973031784
2917.0,0.07309189829456408
2916.0,0.07247565912497134
2915.0,0.07186029312488018
2914.0,0.07114346641808922
2913.0,0.07037674848475972
2912.0,0.06950943469373039
2911.0,0.06864384953207203
2910.0,0.06777998612288094
2909.0,0.06691783763020887
2908.0,0.06600683616875758
2907.0,0.06509774167768612
2906.0,0.06414020196211956
2905.0,0.06318476880236723
2904.0,0.06218131530164395
2903.0,0.06118017497378969
2902.0,0.06028111764589528
2901.0,0.05938391766259232
2900.0,0.05848856736559682
2899.0,0.0575950591438934
2898.0,0.0567528748621382
2897.0,0.05586292684190197
2896.0,0.05507339001378431
2895.0,0.05433450056786593
2894.0,0.05369514500652506
2893.0,0.05305672930217464
2892.0,0.052419250695677544
2891.0,0.05188057561946402
2890.0,0.05134256785867963
2889.0,0.050902874887084115
2888.0,0.05051241005349638
2887.0,0.05012229596312534
2886.0,0.04968383607539972
2885.0,0.049294465226138895
2884.0,0.048905443158337114
2883.0,0.04851676924770687
2882.0,0.048128442871635535
2881.0,0.04774046340917959
2880.0,0.04740126547022694
2879.0,0.047062332249019345
2878.0,0.04682039893436585
2877.0,0.04657860031896477
2876.0,0.04638525830935958
2875.0,0.046143701775014145
2874.0,0.045902279520810385
2873.0,0.04570923829887308
2872.0,0.045564513671517703
2871.0,0.04541983725624266
2870.0,0.04527520902093718
2869.0,0.0451788169482068
2868.0,0.0451788169482068
2867.0,0.04527520902093718
2866.0,0.0454680573730859
2865.0,0.04575749056067524
2864.0,0.046047116768076934
2863.0,0.04638525830935958
2862.0,0.04682039893436585
2861.0,0.047352830241056854
2860.0,0.047934409814949674
2859.0,0.048565334467987054
2858.0,0.049294465226138895
2857.0,0.05002482217034632
2856.0,0.050805225762017736
2855.0,0.05153812993871654
2854.0,0.05222329153526162
2853.0,0.05281143447390635
2852.0,0.05325306496641513
2851.0,0.05354773498692689
2850.0,0.053646002773725554
2849.0,0.053646002773725554
2848.0,0.053449489430144714
2847.0,0.05310580489767336
2846.0,0.05261529831525902
2845.0,0.05197846685889629
2844.0,0.05119595406718891
2843.0,0.05026854768429301
2842.0,0.049294465226138895
2841.0,0.04827402457540786
2840.0,0.04720755695590784
2839.0,0.046143701775014145
2838.0,0.04513062893352182
2837.0,0.04421607108308856
2836.0,0.04339941178682327
2835.0,0.04268010314465909
2834.0,0.04210551278710151
2833.0,0.041627267521392675
2832.0,0.041197296600497646
2831.0,0.04076775094900409
2830.0,0.04038628892895613
2829.0,0.04010041213405646
2828.0,0.03981472339538916
2827.0,0.03962436858984186
2826.0,0.03943409718180235
2825.0,0.03924390909822728
2824.0,0.03905380426616856
2823.0,0.038911280232103884
2822.0,0.03876880295533702
2821.0,0.038673844065289176
2820.0,0.03857890593355173
2819.0,0.038436537637930535
2818.0,0.03838909190871931
2817.0,0.03829421599749461
2816.0,0.03824678581321739
2815.0,0.038199360808321536
2814.0,0.038057116858612794
2813.0,0.03791491948264003
2812.0,0.03782014709123227
2811.0,0.03772539537668518
2810.0,0.03763066432997886
2809.0,0.037583306554248797
2808.0,0.037488606492403154
2807.0,0.03739392707587297
2806.0,0.03720463014276687
2805.0,0.037062711569998186
2804.0,0.0369681249461018
2803.0,0.03692083935817303
2802.0,0.03692083935817303
2801.0,0.036873558918095295
2800.0,0.036873558918095295
2799.0,0.03682628362474838
2798.0,0.036779013477011624
2797.0,0.03668448861388862
2796.0,0.03663723389626394
2795.0,0.036542739883292485
2794.0,0.03649550058570927
2793.0,0.03644826642590382
2792.0,0.03635381351515665
2791.0,0.03630659476198117
2790.0,0.03621217265444465
2789.0,0.03616496929785207
2788.0,0.036117771071222604
2787.0,0.0360705779734416
2786.0,0.036117771071222604
2785.0,0.036117771071222604
2784.0,0.0360705779734416
2783.0,0.03597620715996652
2782.0,0.03588185684851508
2781.0,0.03588185684851508
2780.0,0.03588185684851508
2779.0,0.03588185684851508
2778.0,0.03583468937826462
2777.0,0.03583468937826462
2776.0,0.035740369803151095
2775.0,0.035693217696063595
2774.0,0.03559892883726867
2773.0,0.03559892883726867
2772.0,0.03555179208333925
2771.0,0.03555179208333925
2770.0,0.03555179208333925
2769.0,0.03545753392086315
2768.0,0.035363296211498474
2767.0,0.03531618502395939
2766.0,0.03526907894637077
2765.0,0.03522197797762394
2764.0,0.03522197797762394
2763.0,0.03526907894637077
2762.0,0.03522197797762394
2761.0,0.03522197797762394
2760.0,0.03522197797762394
2759.0,0.03517488211661135
2758.0,0.03508070571335731
2757.0,0.03498654972775217
2756.0,0.03489241415094413
2755.0,0.03484535401307465
2754.0,0.03479829897408804
2753.0,0.03479829897408804
2752.0,0.03475124903287918
2751.0,0.03479829897408804
2750.0,0.03479829897408804
2749.0,0.03479829897408804
2748.0,0.03475124903287918
2747.0,0.03470420418834386
2746.0,0.03470420418834386
2745.0,0.03470420418834386
2744.0,0.03475124903287918
2743.0,0.03475124903287918
2742.0,0.03470420418834386
2741.0,0.03465716443937783
2740.0,0.03465716443937783
2739.0,0.03461012978487776
2738.0,0.03461012978487776
2737.0,0.03456310022373987
2736.0,0.034516075754861264
2735.0,0.034516075754861264
2734.0,0.034469056377139484
2733.0,0.034469056377139484
2732.0,0.034469056377139484
2731.0,0.034469056377139484
2730.0,0.034469056377139484
2729.0,0.034469056377139484
2728.0,0.034469056377139484
2727.0,0.034469056377139484
2726.0,0.034516075754861264
2725.0,0.034469056377139484
2724.0,0.034469056377139484
2723.0,0.03442204208947208
2722.0,0.03437503289075727
2721.0,0.03432802877989327
2720.0,0.03432802877989327
2719.0,0.03432802877989327
2718.0,0.03437503289075727
2717.0,0.03442204208947208
2716.0,0.034469056377139484
2715.0,0.034469056377139484
2714.0,0.034469056377139484
2713.0,0.03437503289075727
2712.0,0.03428102975577918
2711.0,0.03423403581731388
2710.0,0.034187046963396917
2709.0,0.03414006319292828
2708.0,0.03414006319292828
2707.0,0.03414006319292828
2706.0,0.034187046963396917
2705.0,0.034187046963396917
2704.0,0.03414006319292828
2703.0,0.03409308450480819
2702.0,0.034046110897937076
2701.0,0.034046110897937076
2700.0,0.034046110897937076
2699.0,0.034046110897937076
2698.0,0.03399914237121604
2697.0,0.03399914237121604
2696.0,0.03399914237121604
2695.0,0.033952178923546183
2694.0,0.033905220553829274
2693.0,0.03385826726096752
2692.0,0.03385826726096752
2691.0,0.03385826726096752
2690.0,0.033905220553829274
2689.0,0.033905220553829274
2688.0,0.033905220553829274
2687.0,0.033952178923546183
2686.0,0.033952178923546183
2685.0,0.033905220553829274
2684.0,0.03385826726096752
2683.0,0.03385826726096752
2682.0,0.033905220553829274
2681.0,0.033905220553829274
2680.0,0.033905220553829274
2679.0,0.033905220553829274
2678.0,0.033905220553829274
2677.0,0.033905220553829274
2676.0,0.033905220553829274
2675.0,0.033905220553829274
2674.0,0.03385826726096752
2673.0,0.0338113190438627
2672.0,0.03376437590141812
2671.0,0.03371743783253667
2670.0,0.03371743783253667
2669.0,0.03371743783253667
2668.0,0.03371743783253667
2667.0,0.03371743783253667
2666.0,0.03367050483612166
2665.0,0.03362357691107709
2664.0,0.03357665405630694
2663.0,0.03352973627071565
2662.0,0.03352973627071565
2661.0,0.03352973627071565
2660.0,0.03352973627071565
2659.0,0.033482823553208085
2658.0,0.033482823553208085
2657.0,0.03343591590268957
2656.0,0.03343591590268957
2655.0,0.03343591590268957
2654.0,0.033482823553208085
2653.0,0.033482823553208085
2652.0,0.033482823553208085
2651.0,0.03343591590268957
2650.0,0.03338901331806565
2649.0,0.03338901331806565
2648.0,0.03338901331806565
2647.0,0.03338901331806565
2646.0,0.03334211579824231
2645.0,0.033295223342125535
2644.0,0.033295223342125535
2643.0,0.033295223342125535
2642.0,0.033295223342125535
2641.0,0.033295223342125535
2640.0,0.033295223342125535
2639.0,0.03334211579824231
2638.0,0.03334211579824231
2637.0,0.03334211579824231
2636.0,0.03334211579824231
2635.0,0.03334211579824231
2634.0,0.03334211579824231
2633.0,0.033295223342125535
2632.0,0.0332483359486222
2631.0,0.033201453616638954
2630.0,0.033201453616638954
2629.0,0.0332483359486222
2628.0,0.0332483359486222
2627.0,0.033295223342125535
2626.0,0.033295223342125535
2625.0,0.0332483359486222
2624.0,0.033201453616638954
2623.0,0.03310770413286357
2622.0,0.033060836978886954
2621.0,0.03301397488206215
2620.0,0.0329671178412978
2619.0,0.032873418923587305
2618.0,0.032873418923587305
2617.0,0.032920265855503006
2616.0,0.0329671178412978
2615.0,0.03301397488206215
2614.0,0.033060836978886954
2613.0,0.03301397488206215
2612.0,0.0329671178412978
2611.0,0.032873418923587305
2610.0,0.032873418923587305
2609.0,0.032920265855503006
2608.0,0.03301397488206215
2607.0,0.03310770413286357
2606.0,0.033154576345083564
2605.0,0.03310770413286357
2604.0,0.03310770413286357
2603.0,0.033060836978886954
2602.0,0.03301397488206215
2601.0,0.03301397488206215
2600.0,0.0329671178412978
2599.0,0.0329671178412978
2598.0,0.032920265855503006
2597.0,0.032873418923587305
2596.0,0.032873418923587305
2595.0,0.032920265855503006
2594.0,0.032920265855503006
2593.0,0.032873418923587305
2592.0,0.03282657704446046
2591.0,0.03282657704446046
2590.0,0.03282657704446046
2589.0,0.032873418923587305
2588.0,0.03282657704446046
2587.0,0.03282657704446046
2586.0,0.03277974021703267
2585.0,0.03277974021703267
2584.0,0.03282657704446046
2583.0,0.032873418923587305
2582.0,0.032873418923587305
2581.0,0.03282657704446046
2580.0,0.03277974021703267
2579.0,0.03277974021703267
2578.0,0.03273290844021437
2577.0,0.032686081712916426
2576.0,0.032686081712916426
2575.0,0.03263926003405038
2574.0,0.03263926003405038
2573.0,0.03263926003405038
2572.0,0.032592443402527316
2571.0,0.032545631817259224
2570.0,0.032545631817259224
2569.0,0.032545631817259224
2568.0,0.032545631817259224
2567.0,0.032592443402527316
2566.0,0.032592443402527316
2565.0,0.032592443402527316
2564.0,0.032592443402527316
2563.0,0.032592443402527316
2562.0,0.032545631817259224
2561.0,0.032545631817259224
2560.0,0.03249882527715853
2559.0,0.03245202378113787
2558.0,0.03245202378113787
2557.0,0.03249882527715853
2556.0,0.032545631817259224
2555.0,0.032545631817259224
2554.0,0.032545631817259224
2553.0,0.03249882527715853
2552.0,0.03245202378113787
2551.0,0.03235843591698884
2550.0,0.03235843591698884
2549.0,0.03235843591698884
2548.0,0.03240522732811035
2547.0,0.03240522732811035
2546.0,0.03235843591698884
2545.0,0.03235843591698884
2544.0,0.03235843591698884
2543.0,0.03240522732811035
2542.0,0.03245202378113787
2541.0,0.03245202378113787
2540.0,0.03245202378113787
2539.0,0.03240522732811035
2538.0,0.03240522732811035
2537.0,0.03240522732811035
2536.0,0.03245202378113787
2535.0,0.03249882527715853
2534.0,0.03249882527715853
2533.0,0.03249882527715853
2532.0,0.03245202378113787
2531.0,0.03240522732811035
2530.0,0.03240522732811035
2529.0,0.03235843591698884
2528.0,0.03235843591698884
2527.0,0.032311649546687526
2526.0,0.03226486821611996
2525.0,0.032218091924200776
2524.0,0.03217132066984485
2523.0,0.032218091924200776
2522.0,0.032218091924200776
2521.0,0.03226486821611996
2520.0,0.032218091924200776
2519.0,0.032218091924200776
2518.0,0.03217132066984485
2517.0,0.03217132066984485
2516.0,0.032218091924200776
2515.0,0.03226486821611996
2514.0,0.03226486821611996
2513.0,0.03226486821611996
2512.0,0.03226486821611996
2511.0,0.03226486821611996
2510.0,0.032218091924200776
2509.0,0.032218091924200776
2508.0,0.032218091924200776
2507.0,0.032218091924200776
2506.0,0.03226486821611996
2505.0,0.03226486821611996
2504.0,0.03226486821611996
2503.0,0.03226486821611996
2502.0,0.03226486821611996
2501.0,0.032218091924200776
2500.0,0.032218091924200776
2499.0,0.032218091924200776
2498.0,0.032218091924200776
2497.0,0.03217132066984485
2496.0,0.032124554451966825
2495.0,0.03207779326948268
2494.0,0.03207779326948268
2493.0,0.032031037121307726
2492.0,0.03207779326948268
2491.0,0.03207779326948268
2490.0,0.032124554451966825
2489.0,0.03217132066984485
2488.0,0.032218091924200776
2487.0,0.03226486821611996
2486.0,0.03226486821611996
2485.0,0.03226486821611996
2484.0,0.032218091924200776
2483.0,0.032218091924200776
2482.0,0.03217132066984485
2481.0,0.032124554451966825
2480.0,0.03207779326948268
2479.0,0.032031037121307726
2478.0,0.032031037121307726
2477.0,0.032031037121307726
2476.0,0.032031037121307726
2475.0,0.032031037121307726
2474.0,0.031984286006358165
2473.0,0.031984286006358165
2472.0,0.03193753992355086
2471.0,0.03193753992355086
2470.0,0.03189079887180224
2469.0,0.03189079887180224
2468.0,0.03193753992355086
2467.0,0.031984286006358165
2466.0,0.032031037121307726
2465.0,0.032031037121307726
2464.0,0.031984286006358165
2463.0,0.03193753992355086
2462.0,0.03189079887180224
2461.0,0.03189079887180224
2460.0,0.03189079887180224
2459.0,0.03189079887180224
2458.0,0.03189079887180224
2457.0,0.03189079887180224
2456.0,0.03184406285002961
2455.0,0.03184406285002961
2454.0,0.03189079887180224
2453.0,0.03189079887180224
2452.0,0.03189079887180224
2451.0,0.03189079887180224
2450.0,0.03184406285002961
2449.0,0.03184406285002961
2448.0,0.03189079887180224
2447.0,0.03193753992355086
2446.0,0.031984286006358165
2445.0,0.031984286006358165
2444.0,0.03193753992355086
2443.0,0.03184406285002961
2442.0,0.03175060589208267
2441.0,0.03170388495374454
2440.0,0.03170388495374454
2439.0,0.03175060589208267
2438.0,0.03179733185715028
2437.0,0.03179733185715028
2436.0,0.03179733185715028
2435.0,0.03179733185715028
2434.0,0.03179733185715028
2433.0,0.03179733185715028
2432.0,0.03179733185715028
2431.0,0.03179733185715028
2430.0,0.03184406285002961
2429.0,0.03179733185715028
2428.0,0.03179733185715028
2427.0,0.03179733185715028
2426.0,0.03179733185715028
2425.0,0.03179733185715028
2424.0,0.03179733185715028
2423.0,0.03175060589208267
2422.0,0.03175060589208267
2421.0,0.03175060589208267
2420.0,0.03179733185715028
2419.0,0.03179733185715028
2418.0,0.03175060589208267
2417.0,0.03175060589208267
2416.0,0.03170388495374454
2415.0,0.03170388495374454
2414.0,0.03175060589208267
2413.0,0.03175060589208267
2412.0,0.03184406285002961
2411.0,0.03189079887180224
2410.0,0.03193753992355086
2409.0,0.03193753992355086
2408.0,0.03193753992355086
2407.0,0.03193753992355086
2406.0,0.03189079887180224
2405.0,0.03189079887180224
2404.0,0.03184406285002961
2403.0,0.03179733185715028
2402.0,0.03179733185715028
2401.0,0.03184406285002961
2400.0,0.03184406285002961
2399.0,0.03189079887180224
2398.0,0.03189079887180224
2397.0,0.03184406285002961
2396.0,0.03184406285002961
2395.0,0.03184406285002961
2394.0,0.03184406285002961
2393.0,0.03184406285002961
2392.0,0.03179733185715028
2391.0,0.03179733185715028
2390.0,0.03179733185715028
2389.0,0.03184406285002961
2388.0,0.03189079887180224
2387.0,0.031984286006358165
2386.0,0.032124554451966825
2385.0,0.03226486821611996
2384.0,0.03235843591698884
2383.0,0.03240522732811035
2382.0,0.032311649546687526
2381.0,0.032218091924200776
2380.0,0.032124554451966825
2379.0,0.032124554451966825
2378.0,0.032124554451966825
2377.0,0.03226486821611996
2376.0,0.03245202378113787
2375.0,0.03273290844021437
2374.0,0.032920265855503006
2373.0,0.0329671178412978
2372.0,0.03277974021703267
2371.0,0.03245202378113787
2370.0,0.03217132066984485
2369.0,0.03207779326948268
2368.0,0.03207779326948268
2367.0,0.031984286006358165
2366.0,0.03179733185715028
2365.0,0.03170388495374454
2364.0,0.03175060589208267
2363.0,0.031657169041054534
2362.0,0.03142366482450232
2361.0,0.031236951802751545
2360.0,0.031143625385307683
2359.0,0.031003673351687855
2358.0,0.03081714076773867
2357.0,0.03081714076773867
2356.0,0.031143625385307683
2355.0,0.03175060589208267
2354.0,0.032311649546687526
2353.0,0.03245202378113787
2352.0,0.032311649546687526
2351.0,0.03207779326948268
2350.0,0.03189079887180224
2349.0,0.03175060589208267
2348.0,0.03179733185715028
2347.0,0.032031037121307726
2346.0,0.032545631817259224
2345.0,0.03310770413286357
2344.0,0.033295223342125535
2343.0,0.033201453616638954
2342.0,0.032920265855503006
2341.0,0.03273290844021437
2340.0,0.03263926003405038
2339.0,0.032545631817259224
2338.0,0.032311649546687526
2337.0,0.03189079887180224
2336.0,0.031657169041054534
2335.0,0.031657169041054534
2334.0,0.03170388495374454
2333.0,0.03137697904301118
2332.0,0.030863766403287585
2331.0,0.03063068826647264
2330.0,0.030863766403287585
2329.0,0.03147035562516054
2328.0,0.03207779326948268
2327.0,0.03249882527715853
2326.0,0.032592443402527316
2325.0,0.03240522732811035
2324.0,0.03217132066984485
2323.0,0.031984286006358165
2322.0,0.03193753992355086
2321.0,0.032124554451966825
2320.0,0.03240522732811035
2319.0,0.03273290844021437
2318.0,0.0329671178412978
2317.0,0.03310770413286357
2316.0,0.033154576345083564
2315.0,0.03310770413286357
2314.0,0.03301397488206215
2313.0,0.03301397488206215
2312.0,0.03310770413286357
2311.0,0.033201453616638954
2310.0,0.0332483359486222
2309.0,0.0332483359486222
2308.0,0.033201453616638954
2307.0,0.03310770413286357
2306.0,0.0329671178412978
2305.0,0.032873418923587305
2304.0,0.032873418923587305
2303.0,0.032920265855503006
2302.0,0.0329671178412978
2301.0,0.03301397488206215
2300.0,0.0329671178412978
2299.0,0.032920265855503006
2298.0,0.032873418923587305
2297.0,0.032873418923587305
2296.0,0.03282657704446046
2295.0,0.03282657704446046
2294.0,0.03277974021703267
2293.0,0.03277974021703267
2292.0,0.03277974021703267
2291.0,0.03273290844021437
2290.0,0.03273290844021437
2289.0,0.032686081712916426
2288.0,0.032592443402527316
2287.0,0.032545631817259224
2286.0,0.03249882527715853
2285.0,0.03245202378113787
2284.0,0.03245202378113787
2283.0,0.03245202378113787
2282.0,0.03245202378113787
2281.0,0.03245202378113787
2280.0,0.03245202378113787
2279.0,0.03245202378113787
2278.0,0.03240522732811035
2277.0,0.03240522732811035
2276.0,0.03240522732811035
2275.0,0.03240522732811035
2274.0,0.03240522732811035
2273.0,0.03235843591698884
2272.0,0.032311649546687526
2271.0,0.032311649546687526
2270.0,0.03226486821611996
2269.0,0.03226486821611996
2268.0,0.032311649546687526
2267.0,0.032311649546687526
2266.0,0.032311649546687526
2265.0,0.032311649546687526
2264.0,0.032311649546687526
2263.0,0.032311649546687526
2262.0,0.032311649546687526
2261.0,0.032311649546687526
2260.0,0.03235843591698884
2259.0,0.03240522732811035
2258.0,0.03245202378113787
2257.0,0.03245202378113787
2256.0,0.03249882527715853
2255.0,0.03249882527715853
2254.0,0.03249882527715853
2253.0,0.03249882527715853
2252.0,0.03249882527715853
2251.0,0.03249882527715853
2250.0,0.03245202378113787
2249.0,0.03245202378113787
2248.0,0.03249882527715853
2247.0,0.03249882527715853
2246.0,0.03249882527715853
2245.0,0.03245202378113787
2244.0,0.03240522732811035
2243.0,0.03235843591698884
2242.0,0.032311649546687526
2241.0,0.032311649546687526
2240.0,0.032311649546687526
2239.0,0.03235843591698884
2238.0,0.03235843591698884
2237.0,0.03240522732811035
2236.0,0.03240522732811035
2235.0,0.03240522732811035
2234.0,0.03240522732811035
2233.0,0.03240522732811035
2232.0,0.03240522732811035
2231.0,0.03240522732811035
2230.0,0.03240522732811035
2229.0,0.03235843591698884
2228.0,0.032311649546687526
2227.0,0.03226486821611996
2226.0,0.03226486821611996
2225.0,0.03226486821611996
2224.0,0.03226486821611996
2223.0,0.032311649546687526
2222.0,0.032311649546687526
2221.0,0.032311649546687526
2220.0,0.032311649546687526
2219.0,0.03235843591698884
2218.0,0.03235843591698884
2217.0,0.03240522732811035
2216.0,0.03240522732811035
2215.0,0.03235843591698884
2214.0,0.03235843591698884
2213.0,0.03240522732811035
2212.0,0.03240522732811035
2211.0,0.03240522732811035
2210.0,0.03235843591698884
2209.0,0.03235843591698884
2208.0,0.03235843591698884
2207.0,0.03235843591698884
2206.0,0.03235843591698884
2205.0,0.03235843591698884
2204.0,0.032311649546687526
2203.0,0.032311649546687526
2202.0,0.032311649546687526
2201.0,0.03235843591698884
2200.0,0.03240522732811035
2199.0,0.03240522732811035
2198.0,0.03245202378113787
2197.0,0.03240522732811035
2196.0,0.03240522732811035
2195.0,0.03235843591698884
2194.0,0.03235843591698884
2193.0,0.03240522732811035
2192.0,0.03245202378113787
2191.0,0.03245202378113787
2190.0,0.03249882527715853
2189.0,0.03249882527715853
2188.0,0.03249882527715853
2187.0,0.03249882527715853
2186.0,0.03249882527715853
2185.0,0.03245202378113787
2184.0,0.03245202378113787
2183.0,0.03245202378113787
2182.0,0.03249882527715853
2181.0,0.032545631817259224
2180.0,0.032592443402527316
2179.0,0.032592443402527316
2178.0,0.032545631817259224
2177.0,0.03245202378113787
2176.0,0.03245202378113787
2175.0,0.03245202378113787
2174.0,0.03249882527715853
2173.0,0.032545631817259224
2172.0,0.032545631817259224
2171.0,0.032545631817259224
2170.0,0.032545631817259224
2169.0,0.032545631817259224
2168.0,0.032545631817259224
2167.0,0.032545631817259224
2166.0,0.032592443402527316
2165.0,0.032545631817259224
2164.0,0.032545631817259224
2163.0,0.03249882527715853
2162.0,0.03249882527715853
2161.0,0.03249882527715853
2160.0,0.03249882527715853
2159.0,0.03249882527715853
2158.0,0.03249882527715853
2157.0,0.032545631817259224
2156.0,0.032592443402527316
2155.0,0.032592443402527316
2154.0,0.032592443402527316
2153.0,0.03263926003405038
2152.0,0.03263926003405038
2151.0,0.03263926003405038
2150.0,0.03263926003405038
2149.0,0.032545631817259224
2148.0,0.032545631817259224
2147.0,0.032545631817259224
2146.0,0.032545631817259224
2145.0,0.032592443402527316
2144.0,0.032592443402527316
2143.0,0.032592443402527316
2142.0,0.03263926003405038
2141.0,0.03263926003405038
2140.0,0.03263926003405038
2139.0,0.032592443402527316
2138.0,0.032592443402527316
2137.0,0.032592443402527316
2136.0,0.032592443402527316
2135.0,0.032545631817259224
2134.0,0.032545631817259224
2133.0,0.032545631817259224
2132.0,0.032545631817259224
2131.0,0.032592443402527316
2130.0,0.032592443402527316
2129.0,0.032592443402527316
2128.0,0.032545631817259224
2127.0,0.032545631817259224
2126.0,0.032545631817259224
2125.0,0.032545631817259224
2124.0,0.032592443402527316
2123.0,0.032545631817259224
2122.0,0.032545631817259224
2121.0,0.032545631817259224
2120.0,0.032545631817259224
2119.0,0.032592443402527316
2118.0,0.03263926003405038
2117.0,0.032686081712916426
2116.0,0.03263926003405038
2115.0,0.03263926003405038
2114.0,0.03263926003405038
2113.0,0.03263926003405038
2112.0,0.032686081712916426
2111.0,0.03263926003405038
2110.0,0.03263926003405038
2109.0,0.032592443402527316
2108.0,0.032592443402527316
2107.0,0.03263926003405038
2106.0,0.03263926003405038
2105.0,0.032686081712916426
2104.0,0.032686081712916426
2103.0,0.03263926003405038
2102.0,0.03263926003405038
2101.0,0.03263926003405038
2100.0,0.03263926003405038
2099.0,0.03263926003405038
2098.0,0.032686081712916426
2097.0,0.03273290844021437
2096.0,0.03273290844021437
2095.0,0.03273290844021437
2094.0,0.032686081712916426
2093.0,0.03263926003405038
2092.0,0.03263926003405038
2091.0,0.03263926003405038
2090.0,0.032592443402527316
2089.0,0.03263926003405038
2088.0,0.03263926003405038
2087.0,0.032686081712916426
2086.0,0.03273290844021437
2085.0,0.03273290844021437
2084.0,0.03273290844021437
2083.0,0.03273290844021437
2082.0,0.032686081712916426
2081.0,0.03263926003405038
2080.0,0.03263926003405038
2079.0,0.032686081712916426
2078.0,0.03273290844021437
2077.0,0.03273290844021437
2076.0,0.03273290844021437
2075.0,0.03273290844021437
2074.0,0.03273290844021437
2073.0,0.03273290844021437
2072.0,0.03273290844021437
2071.0,0.03273290844021437
2070.0,0.03277974021703267
2069.0,0.03277974021703267
2068.0,0.03277974021703267
2067.0,0.03277974021703267
2066.0,0.03282657704446046
2065.0,0.03282657704446046
2064.0,0.032873418923587305
2063.0,0.032873418923587305
2062.0,0.03282657704446046
2061.0,0.03277974021703267
2060.0,0.03273290844021437
2059.0,0.03277974021703267
2058.0,0.03277974021703267
2057.0,0.032873418923587305
2056.0,0.032873418923587305
2055.0,0.032873418923587305
2054.0,0.03282657704446046
2053.0,0.03277974021703267
2052.0,0.03273290844021437
2051.0,0.03273290844021437
2050.0,0.03277974021703267
2049.0,0.03282657704446046
2048.0,0.032920265855503006
2047.0,0.032920265855503006
2046.0,0.032920265855503006
2045.0,0.032873418923587305
2044.0,0.032873418923587305
2043.0,0.03282657704446046
2042.0,0.03282657704446046
2041.0,0.03277974021703267
2040.0,0.03277974021703267
2039.0,0.03273290844021437
2038.0,0.03273290844021437
2037.0,0.03273290844021437
2036.0,0.03277974021703267
2035.0,0.032873418923587305
2034.0,0.032873418923587305
2033.0,0.032873418923587305
2032.0,0.032920265855503006
2031.0,0.032920265855503006
2030.0,0.032920265855503006
2029.0,0.032920265855503006
2028.0,0.032920265855503006
2027.0,0.032873418923587305
2026.0,0.032873418923587305
2025.0,0.032873418923587305
2024.0,0.032873418923587305
2023.0,0.032873418923587305
2022.0,0.032873418923587305
2021.0,0.032873418923587305
2020.0,0.032873418923587305
2019.0,0.032920265855503006
2018.0,0.0329671178412978
2017.0,0.03301397488206215
2016.0,0.03301397488206215
2015.0,0.03301397488206215
2014.0,0.03301397488206215
2013.0,0.0329671178412978
2012.0,0.032920265855503006
2011.0,0.032920265855503006
2010.0,0.032920265855503006
2009.0,0.032920265855503006
2008.0,0.032873418923587305
2007.0,0.032873418923587305
2006.0,0.03282657704446046
2005.0,0.032873418923587305
2004.0,0.032920265855503006
2003.0,0.032920265855503006
2002.0,0.0329671178412978
2001.0,0.0329671178412978
2000.0,0.0329671178412978
1999.0,0.0329671178412978
1998.0,0.0329671178412978
1997.0,0.0329671178412978
1996.0,0.03301397488206215
1995.0,0.03301397488206215
1994.0,0.03301397488206215
1993.0,0.033060836978886954
1992.0,0.03310770413286357
1991.0,0.03310770413286357
1990.0,0.03310770413286357
1989.0,0.033154576345083564
1988.0,0.033154576345083564
1987.0,0.033201453616638954
1986.0,0.033201453616638954
1985.0,0.0332483359486222
1984.0,0.0332483359486222
1983.0,0.0332483359486222
1982.0,0.0332483359486222
1981.0,0.0332483359486222
1980.0,0.0332483359486222
1979.0,0.0332483359486222
1978.0,0.033201453616638954
1977.0,0.033201453616638954
1976.0,0.033201453616638954
1975.0,0.033201453616638954
1974.0,0.033295223342125535
1973.0,0.03334211579824231
1972.0,0.03338901331806565
1971.0,0.03343591590268957
1970.0,0.033482823553208085
1969.0,0.03357665405630694
1968.0,0.03371743783253667
1967.0,0.033952178923546183
1966.0,0.03414006319292828
1965.0,0.03432802877989327
1964.0,0.03442204208947208
1963.0,0.03456310022373987
1962.0,0.03465716443937783
1961.0,0.03479829897408804
1960.0,0.0349394793888016
1959.0,0.03508070571335731
1958.0,0.03517488211661135
1957.0,0.03526907894637077
1956.0,0.03541041251009669
1955.0,0.03555179208333925
1954.0,0.035646070707806565
1953.0,0.03578752703018084
1952.0,0.03592902944204468
1951.0,0.0360705779734416
1950.0,0.03630659476198117
1949.0,0.03649550058570927
1948.0,0.03668448861388862
1947.0,0.036873558918095295
1946.0,0.03701541568300293
1945.0,0.03720463014276687
1944.0,0.03739392707587297
1943.0,0.03753595394209874
1942.0,0.03763066432997886
1941.0,0.03763066432997886
1940.0,0.037583306554248797
1939.0,0.03744126420403626
1938.0,0.03720463014276687
1937.0,0.0369681249461018
1936.0,0.036731748473764814
1935.0,0.03644826642590382
1934.0,0.03616496929785207
1933.0,0.03588185684851508
1932.0,0.035693217696063595
1931.0,0.03550466044490741
1930.0,0.03541041251009669
1929.0,0.03526907894637077
1928.0,0.03512779136222477
1927.0,0.03498654972775217
1926.0,0.03489241415094413
1925.0,0.03475124903287918
1924.0,0.03465716443937783
1923.0,0.03456310022373987
1922.0,0.034469056377139484
1921.0,0.03442204208947208
1920.0,0.03437503289075727
1919.0,0.03432802877989327
1918.0,0.03423403581731388
1917.0,0.03414006319292828
1916.0,0.03409308450480819
1915.0,0.034046110897937076
1914.0,0.034046110897937076
1913.0,0.03399914237121604
1912.0,0.033905220553829274
1911.0,0.0338113190438627
1910.0,0.03376437590141812
1909.0,0.03376437590141812
1908.0,0.0338113190438627
1907.0,0.03385826726096752
1906.0,0.033905220553829274
1905.0,0.033952178923546183
1904.0,0.033952178923546183
1903.0,0.033952178923546183
1902.0,0.033952178923546183
1901.0,0.03399914237121604
1900.0,0.034046110897937076
1899.0,0.03409308450480819
1898.0,0.034187046963396917
1897.0,0.03428102975577918
1896.0,0.03432802877989327
1895.0,0.03442204208947208
1894.0,0.034469056377139484
1893.0,0.03456310022373987
1892.0,0.03465716443937783
1891.0,0.03479829897408804
1890.0,0.03498654972775217
1889.0,0.03517488211661135
1888.0,0.035363296211498474
1887.0,0.03550466044490741
1886.0,0.035646070707806565
1885.0,0.035693217696063595
1884.0,0.03578752703018084
1883.0,0.03583468937826462
1882.0,0.03597620715996652
1881.0,0.036117771071222604
1880.0,0.03621217265444465
1879.0,0.03630659476198117
1878.0,0.036401037402758574
1877.0,0.03649550058570927
1876.0,0.036542739883292485
1875.0,0.03658998431977123
1874.0,0.03663723389626394
1873.0,0.03668448861388862
1872.0,0.036731748473764814
1871.0,0.036779013477011624
1870.0,0.03682628362474838
1869.0,0.036873558918095295
1868.0,0.03692083935817303
1867.0,0.03692083935817303
1866.0,0.03692083935817303
1865.0,0.036873558918095295
1864.0,0.036731748473764814
1863.0,0.036542739883292485
1862.0,0.03635381351515665
1861.0,0.03616496929785207
1860.0,0.03592902944204468
1859.0,0.035740369803151095
1858.0,0.03555179208333925
1857.0,0.03541041251009669
1856.0,0.03522197797762394
1855.0,0.03508070571335731
1854.0,0.0349394793888016
1853.0,0.03479829897408804
1852.0,0.03470420418834386
1851.0,0.03456310022373987
1850.0,0.03442204208947208
1849.0,0.03437503289075727
1848.0,0.03432802877989327
1847.0,0.03442204208947208
1846.0,0.034469056377139484
1845.0,0.034469056377139484
1844.0,0.03442204208947208
1843.0,0.03432802877989327
1842.0,0.03428102975577918
1841.0,0.03428102975577918
1840.0,0.03423403581731388
1839.0,0.034187046963396917
1838.0,0.03409308450480819
1837.0,0.03409308450480819
1836.0,0.03409308450480819
1835.0,0.03409308450480819
1834.0,0.03409308450480819
1833.0,0.03409308450480819
1832.0,0.03409308450480819
1831.0,0.03409308450480819
1830.0,0.03414006319292828
1829.0,0.03423403581731388
1828.0,0.03437503289075727
1827.0,0.034469056377139484
1826.0,0.03456310022373987
1825.0,0.03465716443937783
1824.0,0.03475124903287918
1823.0,0.03484535401307465
1822.0,0.0349394793888016
1821.0,0.03503362516890207
1820.0,0.03512779136222477
1819.0,0.03526907894637077
1818.0,0.035363296211498474
1817.0,0.03550466044490741
1816.0,0.035646070707806565
1815.0,0.035740369803151095
1814.0,0.03583468937826462
1813.0,0.03592902944204468
1812.0,0.0360705779734416
1811.0,0.03621217265444465
1810.0,0.036401037402758574
1809.0,0.03658998431977123
1808.0,0.036731748473764814
1807.0,0.036873558918095295
1806.0,0.0369681249461018
1805.0,0.037062711569998186
1804.0,0.03720463014276687
1803.0,0.037299268295658994
1802.0,0.037346595106788616
1801.0,0.03739392707587297
1800.0,0.03739392707587297
1799.0,0.037251946641359446
1798.0,0.0371100126082089
1797.0,0.0369681249461018
1796.0,0.03682628362474838
1795.0,0.036731748473764814
1794.0,0.03658998431977123
1793.0,0.03644826642590382
1792.0,0.03621217265444465
1791.0,0.03592902944204468
1790.0,0.035740369803151095
1789.0,0.03559892883726867
1788.0,0.03550466044490741
1787.0,0.035363296211498474
1786.0,0.03526907894637077
1785.0,0.03522197797762394
1784.0,0.03508070571335731
1783.0,0.03498654972775217
1782.0,0.03489241415094413
1781.0,0.03484535401307465
1780.0,0.03484535401307465
1779.0,0.03489241415094413
1778.0,0.03484535401307465
1777.0,0.03479829897408804
1776.0,0.03479829897408804
1775.0,0.03479829897408804
1774.0,0.03479829897408804
1773.0,0.03475124903287918
1772.0,0.03470420418834386
1771.0,0.03475124903287918
1770.0,0.03489241415094413
1769.0,0.03508070571335731
1768.0,0.03517488211661135
1767.0,0.03508070571335731
1766.0,0.03498654972775217
1765.0,0.0349394793888016
1764.0,0.03498654972775217
1763.0,0.03508070571335731
1762.0,0.03522197797762394
1761.0,0.03531618502395939
1760.0,0.03541041251009669
1759.0,0.03555179208333925
1758.0,0.035693217696063595
1757.0,0.03583468937826462
1756.0,0.0360705779734416
1755.0,0.03625938114211591
1754.0,0.03644826642590382
1753.0,0.036542739883292485
1752.0,0.03668448861388862
1751.0,0.036779013477011624
1750.0,0.036873558918095295
1749.0,0.03701541568300293
1748.0,0.0371573187987575
1747.0,0.037299268295658994
1746.0,0.03739392707587297
1745.0,0.037488606492403154
1744.0,0.037583306554248797
1743.0,0.03767802727041558
1742.0,0.03772539537668518
1741.0,0.03772539537668518
1740.0,0.03767802727041558
1739.0,0.037583306554248797
1738.0,0.037583306554248797
1737.0,0.03763066432997886
1736.0,0.03767802727041558
1735.0,0.03763066432997886
1734.0,0.037583306554248797
1733.0,0.03739392707587297
1732.0,0.037346595106788616
1731.0,0.037299268295658994
1730.0,0.037251946641359446
1729.0,0.0371573187987575
1728.0,0.037062711569998186
1727.0,0.03701541568300293
1726.0,0.0369681249461018
1725.0,0.03692083935817303
1724.0,0.03692083935817303
1723.0,0.036873558918095295
1722.0,0.03682628362474838
1721.0,0.036873558918095295
1720.0,0.03682628362474838
1719.0,0.036731748473764814
1718.0,0.03663723389626394
1717.0,0.03663723389626394
1716.0,0.03668448861388862
1715.0,0.036731748473764814
1714.0,0.03682628362474838
1713.0,0.03692083935817303
1712.0,0.03692083935817303
1711.0,0.036873558918095295
1710.0,0.03682628362474838
1709.0,0.03682628362474838
1708.0,0.03682628362474838
1707.0,0.03682628362474838
1706.0,0.036873558918095295
1705.0,0.03701541568300293
1704.0,0.037251946641359446
1703.0,0.03763066432997886
1702.0,0.03791491948264003
1701.0,0.038151940981675736
1700.0,0.03824678581321739
1699.0,0.038151940981675736
1698.0,0.03824678581321739
1697.0,0.038531444649213764
1696.0,0.038816290187564384
1695.0,0.038911280232103884
1694.0,0.038958783046687984
1693.0,0.03914884628031379
1692.0,0.03919637508823026
1691.0,0.03914884628031379
1690.0,0.03919637508823026
1689.0,0.03938654235209116
1688.0,0.03967194946985697
1687.0,0.039909932095080425
1686.0,0.0400527842915015
1685.0,0.04038628892895613
1684.0,0.04086316882962593
1683.0,0.04105406750606355
1682.0,0.04129280891271536
1681.0,0.04153168163305643
1680.0,0.04172287445230238
1679.0,0.04186632432376469
1678.0,0.04210551278710151
1677.0,0.04229695845116854
1676.0,0.04253638427006878
1675.0,0.042775942156833
1674.0,0.04282386959515394
1673.0,0.04287180232318688
1672.0,0.04287180232318688
1671.0,0.042967683653061695
1670.0,0.04325545471730896
1669.0,0.04363944632667782
1668.0,0.0439276630048171
1667.0,0.04411991377462465
1666.0,0.04426415772233416
1665.0,0.04426415772233416
1664.0,0.044312249686494276
1663.0,0.04440844959427559
1662.0,0.04450467081587295
1661.0,0.04460091336073302
1660.0,0.04464904263234004
1659.0,0.04464904263234004
1658.0,0.04455278942230456
1657.0,0.044456557540257124
1656.0,0.044456557540257124
1655.0,0.04440844959427559
1654.0,0.04464904263234004
1653.0,0.044986096961949995
1652.0,0.04469717723830824
1651.0,0.04460091336073302
1650.0,0.044456557540257124
1649.0,0.044167989767578186
1648.0,0.04387961360698034
1647.0,0.04397571771932274
1646.0,0.04411991377462465
1645.0,0.044167989767578186
1644.0,0.044167989767578186
1643.0,0.04411991377462465
1642.0,0.04397571771932274
1641.0,0.0437835307566099
1640.0,0.0435434165901003
1639.0,0.04339941178682327
1638.0,0.04320747962950522
1637.0,0.0431115453499229
1636.0,0.04320747962950522
1635.0,0.04320747962950522
1634.0,0.0431115453499229
1633.0,0.0431115453499229
1632.0,0.042967683653061695
1631.0,0.042775942156833
1630.0,0.042584285277331047
1629.0,0.042392712939904875
1628.0,0.04224908912272074
1627.0,0.04215336629184985
1626.0,0.04215336629184985
1625.0,0.04210551278710151
1624.0,0.04200982159316968
1623.0,0.04186632432376469
1622.0,0.04167506835594681
1621.0,0.041483896576958834
1620.0,0.041340572947066834
1619.0,0.04124505013091051
1618.0,0.041149548320321694
1617.0,0.04105406750606355
1616.0,0.04105406750606355
1615.0,0.041101805289228244
1614.0,0.04129280891271536
1613.0,0.04153168163305643
1612.0,0.0417706858116178
1611.0,0.04224908912272074
1610.0,0.04315950984076644
1609.0,0.04464904263234004
1608.0,0.04682039893436585
1607.0,0.04973253198641148
1606.0,0.05325306496641513
1605.0,0.05709945885970602
1604.0,0.06118017497378969
1603.0,0.06489597884855036
1602.0,0.06742477650170953
1601.0,0.06823711151882228
1600.0,0.06747550294945781
1599.0,0.06545105233385295
1598.0,0.06268275223750575
1597.0,0.05968277842578207
1596.0,0.056950888991593285
1595.0,0.05458065739693696
1594.0,0.05266432405126009
1593.0,0.051098239029786274
1592.0,0.04987865248862655
1591.0,0.048905443158337114
1590.0,0.048128442871635535
1589.0,0.04774046340917959
1588.0,0.04778894189133087
1587.0,0.04837110616336182
1586.0,0.04939177521576932
1585.0,0.05051241005349638
1584.0,0.05139145012356372
1583.0,0.05163594401163074
1582.0,0.05100054597304693
1581.0,0.04978123335813667
1580.0,0.04841965509660828
1579.0,0.04720755695590784
1578.0,0.04609540658654021
1577.0,0.04503426894157925
1576.0,0.044167989767578186
1575.0,0.04363944632667782
1574.0,0.0433514207947967
1573.0,0.0431115453499229
1572.0,0.04282386959515394
1571.0,0.04244059810252043
1570.0,0.04215336629184985
1569.0,0.041914151478914974
1568.0,0.04181850243505214
1567.0,0.0417706858116178
1566.0,0.041579471947481794
1565.0,0.041340572947066834
1564.0,0.041197296600497646
1563.0,0.041197296600497646
1562.0,0.04129280891271536
1561.0,0.04105406750606355
1560.0,0.04086316882962593
1559.0,0.04138834223512067
1558.0,0.041436116778032606
1557.0,0.041436116778032606
1556.0,0.041627267521392675
1555.0,0.04172287445230238
1554.0,0.04172287445230238
1553.0,0.04167506835594681
1552.0,0.041627267521392675
1551.0,0.041627267521392675
1550.0,0.041627267521392675
1549.0,0.04172287445230238
1548.0,0.04181850243505214
1547.0,0.04196198390166317
1546.0,0.042057664554595586
1545.0,0.042057664554595586
1544.0,0.04215336629184985
1543.0,0.04210551278710151
1542.0,0.04186632432376469
1541.0,0.0417706858116178
1540.0,0.0417706858116178
1539.0,0.041579471947481794
1538.0,0.041436116778032606
1537.0,0.041436116778032606
1536.0,0.041340572947066834
1535.0,0.041149548320321694
1534.0,0.04081545726880842
1533.0,0.040529297924893015
1532.0,0.040338629726504704
1531.0,0.04014804520039483
1530.0,0.03986232513620536
1529.0,0.03952922246570112
1528.0,0.03924390909822728
1527.0,0.039006291057664066
1526.0,0.03876880295533702
1525.0,0.03857890593355173
1524.0,0.03838909190871931
1523.0,0.03824678581321739
1522.0,0.03810452633214956
1521.0,0.03796231343498735
1520.0,0.03786753070176463
1519.0,0.03782014709123227
1518.0,0.037583306554248797
1517.0,0.037299268295658994
1516.0,0.03720463014276687
1515.0,0.0371573187987575
1514.0,0.0371100126082089
1513.0,0.036873558918095295
1512.0,0.03663723389626394
1511.0,0.036401037402758574
1510.0,0.036117771071222604
1509.0,0.035740369803151095
1508.0,0.035646070707806565
1507.0,0.03578752703018084
1506.0,0.03559892883726867
1505.0,0.03541041251009669
1504.0,0.03555179208333925
1503.0,0.035740369803151095
1502.0,0.036117771071222604
1501.0,0.03701541568300293
1500.0,0.038958783046687984
1499.0,0.04287180232318688
1498.0,0.05065879322950262
1497.0,0.06424089625468832
1496.0,0.08118360963962057
1495.0,0.09642170633694569
1494.0,0.1071265931112344
1493.0,0.11266406960083297
1492.0,0.11227020271196975
1491.0,0.10468797552421272
1490.0,0.0919441259012328
1489.0,0.07977228854307139
1488.0,0.07124579782334672
1487.0,0.0654005617819271
1486.0,0.06098022355133348
1485.0,0.05754547365752294
1484.0,0.054728418492290265
1483.0,0.05222329153526162
1482.0,0.04997609347667353
1481.0,0.04832256265669943
1480.0,0.04715914332429838
1479.0,0.04624030826677128
1478.0,0.04541983725624266
1477.0,0.04469717723830824
1476.0,0.044071843103049346
1475.0,0.043495409683302455
1474.0,0.04301563225723992
1473.0,0.04287180232318688
1472.0,0.042967683653061695
1471.0,0.04291974034210022
1470.0,0.04287180232318688
1469.0,0.04287180232318688
1468.0,0.04287180232318688
1467.0,0.042775942156833
1466.0,0.04268010314465909
1465.0,0.04268010314465909
1464.0,0.04287180232318688
1463.0,0.04291974034210022
1462.0,0.042967683653061695
1461.0,0.04315950984076644
1460.0,0.0437835307566099
1459.0,0.04580574818413763
1458.0,0.05300765925162776
1457.0,0.06772922410050963
1456.0,0.08349341288484435
1455.0,0.09571734235437201
1454.0,0.10535169620648288
1453.0,0.11238269966426384
1452.0,0.11548784080960606
1451.0,0.1141301390960936
1450.0,0.10974669484546551
1449.0,0.10402526764093545
1448.0,0.09821485469640057
1447.0,0.09334178232840018
1446.0,0.08958906008531176
1445.0,0.08634506491338012
1444.0,0.08301995267961781
1443.0,0.07966792846041071
1442.0,0.07654873036034848
1441.0,0.07396640332115534
1440.0,0.07175781684269089
1439.0,0.06971335275448043
1438.0,0.0675769736232612
1437.0,0.06509774167768612
1436.0,0.06253226035662252
1435.0,0.06038092104330195
1434.0,0.05868737463933793
1433.0,0.057049929922901255
1432.0,0.05541863577307371
1431.0,0.05394093961487645
1430.0,0.052762392129333646
1429.0,0.0518316382728683
1428.0,0.051049389754451946
1427.0,0.05036607620073763
1426.0,0.04978123335813667
1425.0,0.049245818406496555
1424.0,0.048808242065293994
1423.0,0.048565334467987054
1422.0,0.04841965509660828
1421.0,0.04827402457540786
1420.0,0.04807992647970649
1419.0,0.047885915093007325
1418.0,0.04774046340917959
1417.0,0.04749815213697639
1416.0,0.04720755695590784
1415.0,0.0469171560879138
1414.0,0.04672366333269573
1413.0,0.04653025674659861
1412.0,0.04643358574299339
1411.0,0.04633693625290869
1410.0,0.046192002334692894
1409.0,0.04609540658654021
1408.0,0.04595055323640551
1407.0,0.04580574818413763
1406.0,0.04570923829887308
1405.0,0.045612749855485024
1404.0,0.045516282844447975
1403.0,0.04541983725624266
1402.0,0.04527520902093718
1401.0,0.04513062893352182
1400.0,0.044986096961949995
1399.0,0.044937930324967956
1398.0,0.044986096961949995
1397.0,0.04508244626504121
1396.0,0.04522701031028298
1395.0,0.0454680573730859
1394.0,0.04575749056067524
1393.0,0.04595055323640551
1392.0,0.046143701775014145
1391.0,0.04633693625290869
1390.0,0.04657860031896477
1389.0,0.0469171560879138
1388.0,0.04740126547022694
1387.0,0.04803141550708934
1386.0,0.04871106272232795
1385.0,0.049245818406496555
1384.0,0.04968383607539972
1383.0,0.050171041064686284
1382.0,0.05065879322950262
1381.0,0.05119595406718891
1380.0,0.05173378011970464
1379.0,0.05227227303668425
1378.0,0.052762392129333646
1377.0,0.0531548860393769
1376.0,0.0534986094304124
1375.0,0.053842605077627725
1374.0,0.054186873412661596
1373.0,0.05438372077326825
1372.0,0.05443294655761144
1371.0,0.05433450056786593
1370.0,0.054186873412661596
1369.0,0.054088483180726676
1368.0,0.05394093961487645
1367.0,0.05379344615721715
1366.0,0.053646002773725554
1365.0,0.0534986094304124
1364.0,0.053351266093323746
1363.0,0.05330216275425803
1362.0,0.053203972728539606
1361.0,0.05300765925162776
1360.0,0.05271335532220167
1359.0,0.05232126006306337
1358.0,0.05197846685889629
1357.0,0.05173378011970464
1356.0,0.05153812993871654
1355.0,0.05144033789103841
1354.0,0.05139145012356372
1353.0,0.05134256785867963
1352.0,0.051244819831730126
1351.0,0.05114709380028648
1350.0,0.051049389754451946
1349.0,0.05100054597304693
1348.0,0.05095170768433621
1347.0,0.050805225762017736
1346.0,0.05065879322950262
1345.0,0.050414848673348
1344.0,0.050171041064686284
1343.0,0.04987865248862655
1342.0,0.04953778109440221
1341.0,0.049294465226138895
1340.0,0.049148541111453614
1339.0,0.04909991063361274
1338.0,0.049148541111453614
1337.0,0.049245818406496555
1336.0,0.04934311749548925
1335.0,0.04948910701400333
1334.0,0.04973253198641148
1333.0,0.050073556332087765
1332.0,0.050414848673348
1331.0,0.05075640943173498
1330.0,0.05100054597304693
1329.0,0.05119595406718891
1328.0,0.05119595406718891
1327.0,0.05114709380028648
1326.0,0.05100054597304693
1325.0,0.05085404758005607
1324.0,0.05065879322950262
1323.0,0.05051241005349638
1322.0,0.050414848673348
1321.0,0.05036607620073763
1320.0,0.050317309204795935
1319.0,0.050317309204795935
1318.0,0.050414848673348
1317.0,0.05051241005349638
1316.0,0.0506099933550872
1315.0,0.05075640943173498
1314.0,0.05095170768433621
1313.0,0.051098239029786274
1312.0,0.05119595406718891
1311.0,0.05119595406718891
1310.0,0.05114709380028648
1309.0,0.051049389754451946
1308.0,0.050902874887084115
1307.0,0.050707598587974356
1306.0,0.05051241005349638
1305.0,0.05036607620073763
1304.0,0.050171041064686284
1303.0,0.05002482217034632
1302.0,0.04978123335813667
1301.0,0.04958646063061889
1300.0,0.04934311749548925
1299.0,0.049148541111453614
1298.0,0.04905128560059957
1297.0,0.048954051864180226
1296.0,0.04885683989244738
1295.0,0.04875964967565971
1294.0,0.04871106272232795
1293.0,0.04866248120408234
1292.0,0.0486139051197072
1291.0,0.048565334467987054
1290.0,0.04851676924770687
1289.0,0.048468209457651845
1288.0,0.048468209457651845
1287.0,0.04837110616336182
1286.0,0.04837110616336182
1285.0,0.04832256265669943
1284.0,0.04832256265669943
1283.0,0.04832256265669943
1282.0,0.04832256265669943
1281.0,0.04832256265669943
1280.0,0.04832256265669943
1279.0,0.04827402457540786
1278.0,0.04817696468408794
1277.0,0.04803141550708934
1276.0,0.047885915093007325
1275.0,0.047691990337874746
1274.0,0.04754660357696672
1273.0,0.04740126547022694
1272.0,0.047352830241056854
1271.0,0.04730440041308315
1270.0,0.04730440041308315
1269.0,0.04725597598510167
1268.0,0.04720755695590784
1267.0,0.04711073508906982
1266.0,0.047062332249019345
1265.0,0.04701393480294458
1264.0,0.04701393480294458
1263.0,0.04701393480294458
1262.0,0.04696554274964315
1261.0,0.0469171560879138
1260.0,0.04686877481655505
1259.0,0.04682039893436585
1258.0,0.04682039893436585
1257.0,0.04682039893436585
1256.0,0.04686877481655505
1255.0,0.0469171560879138
1254.0,0.04696554274964315
1253.0,0.047062332249019345
1252.0,0.04711073508906982
1251.0,0.04711073508906982
1250.0,0.04715914332429838
1249.0,0.04715914332429838
1248.0,0.04715914332429838
1247.0,0.04715914332429838
1246.0,0.04715914332429838
1245.0,0.04715914332429838
1244.0,0.04711073508906982
1243.0,0.04711073508906982
1242.0,0.047062332249019345
1241.0,0.04701393480294458
1240.0,0.04696554274964315
1239.0,0.0469171560879138
1238.0,0.04686877481655505
1237.0,0.04686877481655505
1236.0,0.04682039893436585
1235.0,0.04677202844014605
1234.0,0.04677202844014605
1233.0,0.04672366333269573
1232.0,0.04667530361081473
1231.0,0.04667530361081473
1230.0,0.04667530361081473
1229.0,0.04667530361081473
1228.0,0.04672366333269573
1227.0,0.04672366333269573
1226.0,0.04667530361081473
1225.0,0.04662694927330402
1224.0,0.04657860031896477
1223.0,0.04653025674659861
1222.0,0.04653025674659861
1221.0,0.04653025674659861
1220.0,0.046481918555007384
1219.0,0.046481918555007384
1218.0,0.046481918555007384
1217.0,0.04643358574299339
1216.0,0.04643358574299339
1215.0,0.04638525830935958
1214.0,0.04638525830935958
1213.0,0.04638525830935958
1212.0,0.04643358574299339
1211.0,0.04653025674659861
1210.0,0.04662694927330402
1209.0,0.04677202844014605
1208.0,0.04696554274964315
1207.0,0.04715914332429838
1206.0,0.04740126547022694
1205.0,0.047643522676209304
1204.0,0.047885915093007325
1203.0,0.048225491918274965
1202.0,0.048565334467987054
1201.0,0.048905443158337114
1200.0,0.04919717703534143
1199.0,0.04944043838819989
1198.0,0.04963514562387683
1197.0,0.04978123335813667
1196.0,0.049927370249842395
1195.0,0.050073556332087765
1194.0,0.050171041064686284
1193.0,0.05026854768429301
1192.0,0.05036607620073763
1191.0,0.050463626623857394
1190.0,0.0506099933550872
1189.0,0.05085404758005607
1188.0,0.051244819831730126
1187.0,0.05178270644002936
1186.0,0.052468254304406825
1185.0,0.05330216275425803
1184.0,0.054186873412661596
1183.0,0.05507339001378431
1182.0,0.05581353871631256
1181.0,0.05620880107069848
1180.0,0.05620880107069848
1179.0,0.05581353871631256
1178.0,0.055122694036304765
1177.0,0.05433450056786593
1176.0,0.053596866100945384
1175.0,0.05300765925162776
1174.0,0.05261529831525902
1173.0,0.05232126006306337
1172.0,0.05212534510230182
1171.0,0.05207638016827354
1170.0,0.05207638016827354
1169.0,0.05212534510230182
1168.0,0.05217431555754937
1167.0,0.05227227303668425
1166.0,0.05232126006306337
1165.0,0.052419250695677544
1164.0,0.05261529831525902
1163.0,0.05295859474477971
1162.0,0.05340037498486727
1161.0,0.05399011523423525
1160.0,0.05482695382609992
1159.0,0.05586292684190197
1158.0,0.057000406633959555
1157.0,0.05824018618530458
1156.0,0.05928434309333741
1155.0,0.060081579630943294
1154.0,0.060430831344098435
1153.0,0.060231224546650086
1152.0,0.05953332233647113
1151.0,0.05848856736559682
1150.0,0.057396751157843484
1149.0,0.056406567231630955
1148.0,0.055566682299785564
1147.0,0.0549747987575373
1146.0,0.05448217792216048
1145.0,0.05413767551038262
1144.0,0.05389176956309405
1143.0,0.053646002773725554
1142.0,0.05340037498486727
1141.0,0.0531548860393769
1140.0,0.05295859474477971
1139.0,0.05281143447390635
1138.0,0.05271335532220167
1137.0,0.05261529831525902
1136.0,0.0525172634430815
1135.0,0.052419250695677544
1134.0,0.05232126006306337
1133.0,0.05227227303668425
1132.0,0.05217431555754937
1131.0,0.05212534510230182
1130.0,0.052027420754219955
1129.0,0.05197846685889629
1128.0,0.05197846685889629
1127.0,0.052027420754219955
1126.0,0.05207638016827354
1125.0,0.05207638016827354
1124.0,0.05207638016827354
1123.0,0.05212534510230182
1122.0,0.05227227303668425
1121.0,0.052468254304406825
1120.0,0.05271335532220167
1119.0,0.05290953578037816
1118.0,0.05305672930217464
1117.0,0.05325306496641513
1116.0,0.0534986094304124
1115.0,0.05379344615721715
1114.0,0.05403929642243144
1113.0,0.05423607688882637
1112.0,0.05428528594013993
1111.0,0.05428528594013993
1110.0,0.054186873412661596
1109.0,0.054088483180726676
1108.0,0.05394093961487645
1107.0,0.05379344615721715
1106.0,0.05374429280060267
1105.0,0.05374429280060267
1104.0,0.053842605077627725
1103.0,0.05389176956309405
1102.0,0.05394093961487645
1101.0,0.05394093961487645
1100.0,0.05394093961487645
1099.0,0.05399011523423525
1098.0,0.05413767551038262
1097.0,0.05428528594013993
1096.0,0.05448217792216048
1095.0,0.05462990550969615
1094.0,0.054728418492290265
1093.0,0.054876229877880656
1092.0,0.05502409158795207
1091.0,0.055172003656783764
1090.0,0.05541863577307371
1089.0,0.05566540802921782
1088.0,0.055961719945581745
1087.0,0.05630767289398331
1086.0,0.05665390164340933
1085.0,0.057000406633959555
1084.0,0.05749589383191922
1083.0,0.05799194697768684
1082.0,0.058538260652670315
1081.0,0.059035506507200575
1080.0,0.05953332233647113
1079.0,0.06003170944866376
1078.0,0.060530669156469985
1077.0,0.0611301784870133
1076.0,0.061830653609679764
1075.0,0.06263258248271053
1074.0,0.06353652599525317
1073.0,0.06449273417528723
1072.0,0.06545105233385295
1071.0,0.06620911585658007
1070.0,0.06676587128519196
1069.0,0.06706985716921054
1068.0,0.06712054217620067
1067.0,0.06696850489759454
1066.0,0.06661395809694559
1065.0,0.06610796423578891
1064.0,0.06545105233385295
1063.0,0.06469430971007495
1062.0,0.06393888339001164
1061.0,0.06313454102437754
1060.0,0.06243196139961715
1059.0,0.061830653609679764
1058.0,0.061380218497318895
1057.0,0.06103020277710969
1056.0,0.06063052992534024
1055.0,0.060231224546650086
1054.0,0.05983228596592505
1053.0,0.05948351506743288
1052.0,0.05918479134919874
1051.0,0.058936011780097886
1050.0,0.058737090681050264
1049.0,0.05843887976392925
1048.0,0.05809122563440061
1047.0,0.057743849580535134
1046.0,0.05744631966579017
1045.0,0.057198533682059516
1044.0,0.056950888991593285
1043.0,0.05670338543334519
1042.0,0.05650548409389744
1041.0,0.05635711724787096
1040.0,0.05635711724787096
1039.0,0.05655495097496965
1038.0,0.0571489934456626
1037.0,0.058190526991161784
1036.0,0.05983228596592505
1035.0,0.06223143295006417
1034.0,0.0654005617819271
1033.0,0.06915280831750303
1032.0,0.07309189829456408
1031.0,0.07691148455760066
1030.0,0.08013774644446192
1029.0,0.08244197917456386
1028.0,0.08354605145007499
1027.0,0.08333553545860273
1026.0,0.08191721535781271
1025.0,0.07977228854307139
1024.0,0.07743023101428781
1023.0,0.07520400420208784
1022.0,0.07329750581735506
1021.0,0.07170658776779781
1020.0,0.07037674848475972
1019.0,0.0692037370166998
1018.0,0.0680846829187538
1017.0,0.06701917807680191
1016.0,0.06605739725873905
1015.0,0.06519865825346338
1014.0,0.06449273417528723
1013.0,0.06388856832514578
1012.0,0.06338573802478864
1011.0,0.06283329628496737
1010.0,0.062331685600995
1009.0,0.06193081377661436
1008.0,0.06173051653708872
1007.0,0.06173051653708872
1006.0,0.06193081377661436
1005.0,0.062281556382736136
1004.0,0.06258241852286206
1003.0,0.06263258248271053
1002.0,0.06218131530164395
1001.0,0.061380218497318895
1000.0,0.060430831344098435
999.0,0.05948351506743288
998.0,0.058786812414678646
997.0,0.0582898510583536
996.0,0.05794231615860479
995.0,0.05769424710410598
994.0,0.057396751157843484
993.0,0.0571489934456626
992.0,0.05690137699451481
991.0,0.05670338543334519
990.0,0.05670338543334519
989.0,0.05685187064143715
988.0,0.05709945885970602
987.0,0.057396751157843484
986.0,0.05769424710410598
985.0,0.05799194697768684
984.0,0.05824018618530458
983.0,0.05848856736559682
982.0,0.058737090681050264
981.0,0.05898575629443026
980.0,0.059135024033278416
979.0,0.059135024033278416
978.0,0.05898575629443026
977.0,0.05863766428823891
976.0,0.058190526991161784
975.0,0.05779345772290467
974.0,0.05749589383191922
973.0,0.05734718830678798
972.0,0.057396751157843484
971.0,0.05754547365752294
970.0,0.05789269101064454
969.0,0.0583395216116076
968.0,0.058836539841526925
967.0,0.05933412752417122
966.0,0.05983228596592505
965.0,0.060231224546650086
964.0,0.060530669156469985
963.0,0.060530669156469985
962.0,0.06028111764589528
961.0,0.05983228596592505
960.0,0.05923456436878238
959.0,0.058538260652670315
958.0,0.05784307153250956
957.0,0.05724807957018618
956.0,0.05680236993107379
955.0,0.05650548409389744
954.0,0.05630767289398331
953.0,0.05620880107069848
952.0,0.056159373598738904
951.0,0.056159373598738904
950.0,0.05620880107069848
949.0,0.05635711724787096
948.0,0.05655495097496965
947.0,0.05685187064143715
946.0,0.0571489934456626
945.0,0.05744631966579017
944.0,0.05764465029232335
943.0,0.05779345772290467
942.0,0.057743849580535134
941.0,0.05764465029232335
940.0,0.05744631966579017
939.0,0.05724807957018618
938.0,0.056950888991593285
937.0,0.05660442349104544
936.0,0.05625823416868636
935.0,0.05581353871631256
934.0,0.05531996611868961
933.0,0.054876229877880656
932.0,0.05453141486818014
931.0,0.05428528594013993
930.0,0.05413767551038262
929.0,0.05403929642243144
928.0,0.05394093961487645
927.0,0.05389176956309405
926.0,0.053842605077627725
925.0,0.053842605077627725
924.0,0.05389176956309405
923.0,0.05394093961487645
922.0,0.054088483180726676
921.0,0.05433450056786593
920.0,0.05462990550969615
919.0,0.0549747987575373
918.0,0.05541863577307371
917.0,0.05601112492622806
916.0,0.05685187064143715
915.0,0.05794231615860479
914.0,0.05928434309333741
913.0,0.06093025007657582
912.0,0.06278310913729457
911.0,0.06474471821595262
910.0,0.06661395809694559
909.0,0.06828793294324442
908.0,0.06971335275448043
907.0,0.07078549626260622
906.0,0.07139934015547578
905.0,0.0713481533463054
904.0,0.07073438174693436
903.0,0.06961138175567827
902.0,0.0680846829187538
901.0,0.06636088747507496
900.0,0.06469430971007495
899.0,0.06318476880236723
898.0,0.061830653609679764
897.0,0.06063052992534024
896.0,0.05963295401433477
895.0,0.0588862729628985
894.0,0.05824018618530458
893.0,0.05769424710410598
892.0,0.057198533682059516
891.0,0.05685187064143715
890.0,0.05665390164340933
889.0,0.056406567231630955
888.0,0.05610995175152733
887.0,0.05571477931124735
886.0,0.05531996611868961
885.0,0.05507339001378431
884.0,0.0549255115212699
883.0,0.05482695382609992
882.0,0.05477768336465916
881.0,0.054679159207724926
880.0,0.05458065739693696
879.0,0.05443294655761144
878.0,0.05428528594013993
877.0,0.054186873412661596
876.0,0.05403929642243144
875.0,0.053842605077627725
874.0,0.05369514500652506
873.0,0.053596866100945384
872.0,0.053449489430144714
871.0,0.053351266093323746
870.0,0.05325306496641513
869.0,0.0531548860393769
868.0,0.05310580489767336
867.0,0.05300765925162776
866.0,0.05290953578037816
865.0,0.05281143447390635
864.0,0.052762392129333646
863.0,0.052762392129333646
862.0,0.05266432405126009
861.0,0.05256627811294923
860.0,0.052468254304406825
859.0,0.052419250695677544
858.0,0.05237025261564554
857.0,0.05237025261564554
856.0,0.05237025261564554
855.0,0.052419250695677544
854.0,0.0525172634430815
853.0,0.05271335532220167
852.0,0.05290953578037816
851.0,0.05325306496641513
850.0,0.05369514500652506
849.0,0.05423607688882637
848.0,0.054876229877880656
847.0,0.055566682299785564
846.0,0.05630767289398331
845.0,0.057049929922901255
844.0,0.05769424710410598
843.0,0.058190526991161784
842.0,0.05843887976392925
841.0,0.058538260652670315
840.0,0.05848856736559682
839.0,0.0583395216116076
838.0,0.05809122563440061
837.0,0.05764465029232335
836.0,0.05690137699451481
835.0,0.05606053552778367
834.0,0.055172003656783764
833.0,0.05453141486818014
832.0,0.054088483180726676
831.0,0.05379344615721715
830.0,0.053449489430144714
829.0,0.05310580489767336
828.0,0.052762392129333646
827.0,0.05237025261564554
826.0,0.05207638016827354
825.0,0.05188057561946402
824.0,0.05178270644002936
823.0,0.05173378011970464
822.0,0.051684859310652254
821.0,0.05163594401163074
820.0,0.05153812993871654
819.0,0.05144033789103841
818.0,0.05134256785867963
817.0,0.051244819831730126
816.0,0.05114709380028648
815.0,0.051098239029786274
814.0,0.051098239029786274
813.0,0.05119595406718891
812.0,0.05119595406718891
811.0,0.051098239029786274
810.0,0.050902874887084115
809.0,0.050707598587974356
808.0,0.05051241005349638
807.0,0.05036607620073763
806.0,0.05026854768429301
805.0,0.050171041064686284
804.0,0.05002482217034632
803.0,0.04987865248862655
802.0,0.04973253198641148
801.0,0.04958646063061889
800.0,0.04948910701400333
799.0,0.04939177521576932
798.0,0.04948910701400333
797.0,0.04968383607539972
796.0,0.05002482217034632
795.0,0.050317309204795935
794.0,0.050463626623857394
793.0,0.05051241005349638
792.0,0.05056119896349576
791.0,0.050805225762017736
790.0,0.051244819831730126
789.0,0.0518316382728683
788.0,0.052419250695677544
787.0,0.05286048235717078
786.0,0.05325306496641513
785.0,0.05369514500652506
784.0,0.054186873412661596
783.0,0.05477768336465916
782.0,0.05561604235915585
781.0,0.0567528748621382
780.0,0.0582898510583536
779.0,0.06003170944866376
778.0,0.06203099704854709
777.0,0.06419054619006714
776.0,0.0666645899223488
775.0,0.06950943469373039
774.0,0.07283502570063005
773.0,0.07665234350217442
772.0,0.08102656950704579
771.0,0.08570974433405087
770.0,0.09060445403289452
769.0,0.09566320779750503
768.0,0.10067205012234592
767.0,0.10573933555301185
766.0,0.1106422631110684
765.0,0.11560117444331386
764.0,0.12067469921519258
763.0,0.12592425477696523
762.0,0.13135556160517425
761.0,0.13685565374733244
760.0,0.14230574221345038
759.0,0.14733705565543076
758.0,0.1515645446685292
757.0,0.1548399223480541
756.0,0.15701652987778258
755.0,0.15807768832054925
754.0,0.1583902878315646
753.0,0.15845283474344662
752.0,0.15857795559764076
751.0,0.15895353459069628
750.0,0.159517512786558
749.0,0.15989390554324223
748.0,0.159956669396506
747.0,0.15901616267962204
746.0,0.1567049172634929
745.0,0.15255073750082726
744.0,0.14684956355215717
743.0,0.14002155835797914
742.0,0.13270933014511588
741.0,0.12546020292898974
740.0,0.11872949607064243
739.0,0.11243895906999102
738.0,0.10668218838388821
737.0,0.10132965703447017
736.0,0.09625905937846135
735.0,0.09151498112135026
734.0,0.08687520961044104
733.0,0.08249449044745338
732.0,0.07831352451639795
731.0,0.07448164182257
730.0,0.07114346641808922
729.0,0.06828793294324442
728.0,0.0658551882075229
727.0,0.06378795567975115
726.0,0.06198090252378963
725.0,0.06028111764589528
724.0,0.05863766428823891
723.0,0.057049929922901255
722.0,0.05536929814372171
721.0,0.05369514500652506
720.0,0.05197846685889629
719.0,0.050317309204795935
718.0,0.0486139051197072
717.0,0.04701393480294458
716.0,0.045612749855485024
715.0,0.04460091336073302
714.0,0.04421607108308856
713.0,0.04455278942230456
712.0,0.04580574818413763
711.0,0.048468209457651845
710.0,0.0531548860393769
709.0,0.06078036414518184
708.0,0.07191154033502922
707.0,0.08692825969074924
706.0,0.10590557267730127
705.0,0.12901118623942476
704.0,0.1562690348879079
703.0,0.18775530319963063
702.0,0.22358941119265774
701.0,0.2640021159082062
700.0,0.3090069679001306
699.0,0.3574365628956122
698.0,0.4056074496245734
697.0,0.44551083999618113
696.0,0.46546624399488445
695.0,0.45680141436235333
694.0,0.42159002966876424
693.0,0.37232696823338407
692.0,0.32221060893113895
691.0,0.2788491562503159
690.0,0.24435378054332002
689.0,0.21802932608744796
688.0,0.19825338078053978
687.0,0.18336105510153855
686.0,0.17172688794793012
685.0,0.16222223044626682
684.0,0.1542200328881107
683.0,0.14739803066176504
682.0,0.14164329470222659
681.0,0.1370342410222376
680.0,0.13347637446715632
679.0,0.13041629228657614
678.0,0.12737762097471172
677.0,0.12436006299583169
676.0,0.12147820449879343
675.0,0.11895789180659433
674.0,0.11684980031672243
673.0,0.11503480179926728
672.0,0.11345287660889425
671.0,0.1117081546434846
670.0,0.10952309103982927
669.0,0.10668218838388821
668.0,0.10430127304069425
667.0,0.1038045895457893
666.0,0.1038045895457893
665.0,0.10314322726279568
664.0,0.10204318999304807
663.0,0.10072681268239614
662.0,0.09946901754724413
661.0,0.09832376867362447
660.0,0.09734452478207412
659.0,0.0964759355287379
658.0,0.09523037409340485
657.0,0.0935572061829677
656.0,0.0917831469106074
655.0,0.09028354676565531
654.0,0.08948231448273347
653.0,0.08916223500731646
652.0,0.08910891135547172
651.0,0.08884239126002336
650.0,0.08820340956274775
649.0,0.0872997918091396
648.0,0.08639805027084257
647.0,0.08586848736910624
646.0,0.08570974433405087
645.0,0.08570974433405087
644.0,0.08570974433405087
643.0,0.08549817717268593
642.0,0.08523386307414738
641.0,0.08507535179485148
640.0,0.08555105930144569
639.0,0.08687520961044104
638.0,0.08889568219596411
637.0,0.09124698081546634
636.0,0.09334178232840018
635.0,0.09463593123310776
634.0,0.09474395125154866
633.0,0.09382663635595145
632.0,0.09237369515673355
631.0,0.09087205801073917
630.0,0.08958906008531176
629.0,0.08862929288386212
628.0,0.0880970039559672
627.0,0.0880970039559672
626.0,0.08841629901892434
625.0,0.08889568219596411
624.0,0.08942895151874142
623.0,0.08990945440593179
622.0,0.09017663034908807
621.0,0.08996287644694911
620.0,0.08937559511079884
619.0,0.08878910686244668
618.0,0.08868255767596933
617.0,0.08894897967187343
616.0,0.08900228368935714
615.0,0.08836306687055773
614.0,0.0872997918091396
613.0,0.086239113587677
612.0,0.08560394787021397
611.0,0.0854453014823664
610.0,0.08576265223225898
609.0,0.0862920860195171
608.0,0.08666307406737683
607.0,0.0867160982395816
606.0,0.08655704514060414
605.0,0.08618614761628329
604.0,0.08560394787021397
603.0,0.08481129482684358
602.0,0.08402008585977572
601.0,0.0833881548906541
600.0,0.08286224724355584
599.0,0.08202211740709164
598.0,0.08092190762392604
597.0,0.08003329851661278
596.0,0.07977228854307139
595.0,0.07998108397108505
594.0,0.08003329851661278
593.0,0.07972010536705154
592.0,0.07914650387874067
591.0,0.07805354577058976
590.0,0.07618627890881036
589.0,0.07391491307485598
588.0,0.07242434530888953
587.0,0.07247565912497134
586.0,0.07340034609297241
585.0,0.07396640332115534
584.0,0.07386342893255127
583.0,0.07340034609297241
582.0,0.07216786713341827
581.0,0.06935655895783555
580.0,0.06580465065211571
579.0,0.06373765809652254
578.0,0.06313454102437754
577.0,0.06153031163235467
576.0,0.05724807957018618
575.0,0.05197846685889629
574.0,0.047643522676209304
573.0,0.044312249686494276
572.0,0.0417706858116178
571.0,0.04091088563260792
570.0,0.04091088563260792
569.0,0.038958783046687984
568.0,0.03428102975577918
567.0,0.030211462585061133
566.0,0.029885677714903025
565.0,0.032311649546687526
564.0,0.03428102975577918
563.0,0.034187046963396917
562.0,0.03240522732811035
561.0,0.030397735151460825
560.0,0.029932203450862893
559.0,0.032218091924200776
558.0,0.03625938114211591
557.0,0.03967194946985697
556.0,0.040958607678906356
555.0,0.04062466342415694
554.0,0.03957679292217042
553.0,0.03810452633214956
552.0,0.036542739883292485
551.0,0.03512779136222477
550.0,0.03338901331806565
549.0,0.031143625385307683
548.0,0.029792641193145286
547.0,0.031236951802751545
546.0,0.03484535401307465
545.0,0.037299268295658994
544.0,0.0360705779734416
543.0,0.03226486821611996
542.0,0.029141943003497595
541.0,0.02872415126189476
540.0,0.030071810571884017
539.0,0.030444315779156517
538.0,0.027565723042634938
537.0,0.021956506090037076
536.0,0.016554142658660398
535.0,0.01385553528947936
534.0,0.013990068146738865
533.0,0.015517693597737248
532.0,0.01759307113620534
531.0,0.01990568621470623
530.0,0.022093572362881675
529.0,0.024200690320592466
528.0,0.02677975314776626
527.0,0.029978734171634214
526.0,0.0329671178412978
525.0,0.03517488211661135
524.0,0.0371100126082089
523.0,0.03829421599749461
522.0,0.0360705779734416
521.0,0.029095501846216454
520.0,0.0209982515252789
519.0,0.017412209298337533
518.0,0.01940584422377989
517.0,0.02227639471115217
516.0,0.021545566634771474
515.0,0.017955020928509757
514.0,0.015607721475734415
513.0,0.016644385668211692
512.0,0.018725167293411005
511.0,0.018543833477873584
510.0,0.015742798294583915
509.0,0.013407393177789162
508.0,0.014259258949925524
507.0,0.01759307113620534
506.0,0.020087589665283012
505.0,0.01995115493504329
504.0,0.018815862601645694
503.0,0.018951941086827073
502.0,0.02026956933771462
501.0,0.021317434843055594
500.0,0.02168250325324883
499.0,0.022505030926963654
498.0,0.02475205875931885
497.0,0.02812138297373412
496.0,0.031096969696171817
495.0,0.03207779326948268
494.0,0.03058408764601861
493.0,0.027612000892527133
492.0,0.024660115394541604
491.0,0.0214542995372613
490.0,0.016644385668211692
489.0,0.011084479487313281
488.0,0.0087296108049002
487.0,0.012244383261476699
486.0,0.01954210772389997
485.0,0.026087429580295085
484.0,0.02904906565457588
483.0,0.02858497661500481
482.0,0.026456531467510258
481.0,0.025350165561278004
480.0,0.027843464140506313
479.0,0.033201453616638954
478.0,0.03701541568300293
477.0,0.03550466044490741
476.0,0.030397735151460825
475.0,0.026502691267936695
474.0,0.02539620791296726
473.0,0.02521206778644225
472.0,0.024936003904763915
471.0,0.025949097207122573
470.0,0.028816959143838528
469.0,0.032218091924200776
468.0,0.03475124903287918
467.0,0.03635381351515665
466.0,0.037062711569998186
465.0,0.03649550058570927
464.0,0.03456310022373987
463.0,0.03175060589208267
462.0,0.02798240132598462
461.0,0.023329119375188556
460.0,0.019451260640229506
459.0,0.018045555530026514
458.0,0.018770512579999288
457.0,0.02004210665933459
456.0,0.021956506090037076
455.0,0.02562649291857677
454.0,0.030397735151460825
453.0,0.03367050483612166
452.0,0.034469056377139484
451.0,0.03470420418834386
450.0,0.03588185684851508
