cm-1,A
4000.0,0.0013
3999.0,0.0012
3998.0,0.0011
3997.0,0.0011
3996.0,0.001
3995.0,0.0011
3994.0,0.0012
3993.0,0.0014
3992.0,0.0015
3991.0,0.0015
3990.0,0.0014
3989.0,0.0013
3988.0,0.0012
3987.0,0.0012
3986.0,0.0012
3985.0,0.0012
3984.0,0.0012
3983.0,0.0012
3982.0,0.0013
3981.0,0.0014
3980.0,0.0014
3979.0,0.0014
3978.0,0.0013
3977.0,0.0013
3976.0,0.0012
3975.0,0.0012
3974.0,0.0012
3973.0,0.0013
3972.0,0.0013
3971.0,0.0013
3970.0,0.0013
3969.0,0.0013
3968.0,0.0013
3967.0,0.0013
3966.0,0.0013
3965.0,0.0014
3964.0,0.0014
3963.0,0.0013
3962.0,0.0013
3961.0,0.0013
3960.0,0.0013
3959.0,0.0013
3958.0,0.0013
3957.0,0.0014
3956.0,0.0014
3955.0,0.0015
3954.0,0.0015
3953.0,0.0015
3952.0,0.0016
3951.0,0.0016
3950.0,0.0016
3949.0,0.0015
3948.0,0.0015
3947.0,0.0015
3946.0,0.0016
3945.0,0.0016
3944.0,0.0016
3943.0,0.0016
3942.0,0.0015
3941.0,0.0014
3940.0,0.0014
3939.0,0.0014
3938.0,0.0013
3937.0,0.0013
3936.0,0.0014
3935.0,0.0015
3934.0,0.0015
3933.0,0.0016
3932.0,0.0017
3931.0,0.0017
3930.0,0.0018
3929.0,0.0018
3928.0,0.0018
3927.0,0.0017
3926.0,0.0017
3925.0,0.0016
3924.0,0.0015
3923.0,0.0014
3922.0,0.0014
3921.0,0.0013
3920.0,0.0013
3919.0,0.0013
3918.0,0.0013
3917.0,0.0013
3916.0,0.0014
3915.0,0.0014
3914.0,0.0015
3913.0,0.0015
3912.0,0.0015
3911.0,0.0015
3910.0,0.0015
3909.0,0.0014
3908.0,0.0014
3907.0,0.0015
3906.0,0.0015
3905.0,0.0015
3904.0,0.0015
3903.0,0.0015
3902.0,0.0014
3901.0,0.0014
3900.0,0.0014
3899.0,0.0013
3898.0,0.0013
3897.0,0.0013
3896.0,0.0013
3895.0,0.0014
3894.0,0.0014
3893.0,0.0013
3892.0,0.0012
3891.0,0.0012
3890.0,0.0012
3889.0,0.0012
3888.0,0.0012
3887.0,0.0012
3886.0,0.0011
3885.0,0.0012
3884.0,0.0013
3883.0,0.0015
3882.0,0.0016
3881.0,0.0016
3880.0,0.0015
3879.0,0.0014
3878.0,0.0015
3877.0,0.0015
3876.0,0.0015
3875.0,0.0014
3874.0,0.0012
3873.0,0.0011
3872.0,0.0011
3871.0,0.0011
3870.0,0.0012
3869.0,0.0013
3868.0,0.0013
3867.0,0.0014
3866.0,0.0013
3865.0,0.0013
3864.0,0.0014
3863.0,0.0015
3862.0,0.0015
3861.0,0.0015
3860.0,0.0015
3859.0,0.0014
3858.0,0.0012
3857.0,0.001
3856.0,0.0009
3855.0,0.0009
3854.0,0.0011
3853.0,0.0014
3852.0,0.0016
3851.0,0.0016
3850.0,0.0015
3849.0,0.0014
3848.0,0.0014
3847.0,0.0014
3846.0,0.0015
3845.0,0.0016
3844.0,0.0016
3843.0,0.0015
3842.0,0.0015
3841.0,0.0014
3840.0,0.0013
3839.0,0.0012
3838.0,0.0011
3837.0,0.0012
3836.0,0.0013
3835.0,0.0013
3834.0,0.0014
3833.0,0.0014
3832.0,0.0013
3831.0,0.0014
3830.0,0.0014
3829.0,0.0015
3828.0,0.0015
3827.0,0.0015
3826.0,0.0014
3825.0,0.0013
3824.0,0.0012
3823.0,0.0011
3822.0,0.001
3821.0,0.0011
3820.0,0.0012
3819.0,0.0014
3818.0,0.0015
3817.0,0.0016
3816.0,0.0016
3815.0,0.0016
3814.0,0.0016
3813.0,0.0015
3812.0,0.0014
3811.0,0.0014
3810.0,0.0013
3809.0,0.0013
3808.0,0.0013
3807.0,0.0012
3806.0,0.0011
3805.0,0.0012
3804.0,0.0013
3803.0,0.0013
3802.0,0.0013
3801.0,0.0013
3800.0,0.0014
3799.0,0.0014
3798.0,0.0015
3797.0,0.0015
3796.0,0.0014
3795.0,0.0015
3794.0,0.0015
3793.0,0.0015
3792.0,0.0015
3791.0,0.0015
3790.0,0.0015
3789.0,0.0015
3788.0,0.0016
3787.0,0.0016
3786.0,0.0017
3785.0,0.0017
3784.0,0.0017
3783.0,0.0017
3782.0,0.0018
3781.0,0.0017
3780.0,0.0015
3779.0,0.0014
3778.0,0.0013
3777.0,0.0014
3776.0,0.0015
3775.0,0.0015
3774.0,0.0015
3773.0,0.0015
3772.0,0.0014
3771.0,0.0013
3770.0,0.0013
3769.0,0.0013
3768.0,0.0013
3767.0,0.0014
3766.0,0.0014
3765.0,0.0014
3764.0,0.0015
3763.0,0.0016
3762.0,0.0016
3761.0,0.0016
3760.0,0.0015
3759.0,0.0015
3758.0,0.0015
3757.0,0.0014
3756.0,0.0014
3755.0,0.0014
3754.0,0.0014
3753.0,0.0013
3752.0,0.0012
3751.0,0.0011
3750.0,0.0012
3749.0,0.0012
3748.0,0.0012
3747.0,0.0014
3746.0,0.0015
3745.0,0.0015
3744.0,0.0016
3743.0,0.0016
3742.0,0.0016
3741.0,0.0015
3740.0,0.0015
3739.0,0.0014
3738.0,0.0015
3737.0,0.0014
3736.0,0.0014
3735.0,0.0015
3734.0,0.0015
3733.0,0.0016
3732.0,0.0016
3731.0,0.0017
3730.0,0.0018
3729.0,0.0019
3728.0,0.002
3727.0,0.002
3726.0,0.0019
3725.0,0.0019
3724.0,0.0019
3723.0,0.0019
3722.0,0.0018
3721.0,0.0017
3720.0,0.0017
3719.0,0.0017
3718.0,0.0017
3717.0,0.0018
3716.0,0.0019
3715.0,0.002
3714.0,0.0021
3713.0,0.0021
3712.0,0.002
3711.0,0.0018
3710.0,0.0017
3709.0,0.0017
3708.0,0.0017
3707.0,0.0017
3706.0,0.0017
3705.0,0.0016
3704.0,0.0016
3703.0,0.0015
3702.0,0.0016
3701.0,0.0018
3700.0,0.0019
3699.0,0.002
3698.0,0.0021
3697.0,0.002
3696.0,0.0019
3695.0,0.0019
3694.0,0.0018
3693.0,0.0019
3692.0,0.0019
3691.0,0.0018
3690.0,0.0018
3689.0,0.0018
3688.0,0.0018
3687.0,0.0019
3686.0,0.002
3685.0,0.0021
3684.0,0.0021
3683.0,0.0021
3682.0,0.0021
3681.0,0.002
3680.0,0.0018
3679.0,0.0018
3678.0,0.0019
3677.0,0.002
3676.0,0.0018
3675.0,0.0017
3674.0,0.0016
3673.0,0.0017
3672.0,0.0019
3671.0,0.0019
3670.0,0.002
3669.0,0.0021
3668.0,0.0022
3667.0,0.0022
3666.0,0.0022
3665.0,0.0021
3664.0,0.0021
3663.0,0.0021
3662.0,0.0021
3661.0,0.0021
3660.0,0.0022
3659.0,0.0023
3658.0,0.0023
3657.0,0.0024
3656.0,0.0024
3655.0,0.0024
3654.0,0.0024
3653.0,0.0024
3652.0,0.0024
3651.0,0.0024
3650.0,0.0026
3649.0,0.0029
3648.0,0.003
3647.0,0.0029
3646.0,0.0028
3645.0,0.0027
3644.0,0.0027
3643.0,0.0027
3642.0,0.0028
3641.0,0.0028
3640.0,0.0028
3639.0,0.0028
3638.0,0.0028
3637.0,0.0029
3636.0,0.003
3635.0,0.003
3634.0,0.003
3633.0,0.003
3632.0,0.003
3631.0,0.0029
3630.0,0.0027
3629.0,0.0027
3628.0,0.0028
3627.0,0.003
3626.0,0.0032
3625.0,0.0034
3624.0,0.0034
3623.0,0.0035
3622.0,0.0035
3621.0,0.0035
3620.0,0.0034
3619.0,0.0033
3618.0,0.0033
3617.0,0.0034
3616.0,0.0034
3615.0,0.0034
3614.0,0.0034
3613.0,0.0034
3612.0,0.0036
3611.0,0.0038
3610.0,0.004
3609.0,0.004
3608.0,0.0041
3607.0,0.004
3606.0,0.004
3605.0,0.0041
3604.0,0.0042
3603.0,0.0043
3602.0,0.0045
3601.0,0.0045
3600.0,0.0044
3599.0,0.0043
3598.0,0.0043
3597.0,0.0043
3596.0,0.0044
3595.0,0.0045
3594.0,0.0046
3593.0,0.0046
3592.0,0.0046
3591.0,0.0047
3590.0,0.0047
3589.0,0.0047
3588.0,0.0047
3587.0,0.0048
3586.0,0.0048
3585.0,0.0049
3584.0,0.0049
3583.0,0.0049
3582.0,0.0049
3581.0,0.0049
3580.0,0.0049
3579.0,0.0049
3578.0,0.0049
3577.0,0.0049
3576.0,0.0049
3575.0,0.005
3574.0,0.0051
3573.0,0.0052
3572.0,0.0054
3571.0,0.0057
3570.0,0.006
3569.0,0.0062
3568.0,0.0063
3567.0,0.0062
3566.0,0.0061
3565.0,0.0059
3564.0,0.0058
3563.0,0.0058
3562.0,0.0058
3561.0,0.0058
3560.0,0.0059
3559.0,0.0059
3558.0,0.0058
3557.0,0.0058
3556.0,0.0057
3555.0,0.0058
3554.0,0.0059
3553.0,0.006
3552.0,0.0061
3551.0,0.0062
3550.0,0.0063
3549.0,0.0063
3548.0,0.0064
3547.0,0.0064
3546.0,0.0064
3545.0,0.0064
3544.0,0.0065
3543.0,0.0065
3542.0,0.0065
3541.0,0.0066
3540.0,0.0066
3539.0,0.0066
3538.0,0.0066
3537.0,0.0066
3536.0,0.0066
3535.0,0.0067
3534.0,0.0068
3533.0,0.0068
3532.0,0.0069
3531.0,0.007
3530.0,0.007
3529.0,0.007
3528.0,0.007
3527.0,0.007
3526.0,0.007
3525.0,0.0071
3524.0,0.0072
3523.0,0.0073
3522.0,0.0074
3521.0,0.0074
3520.0,0.0074
3519.0,0.0073
3518.0,0.0074
3517.0,0.0074
3516.0,0.0075
3515.0,0.0075
3514.0,0.0076
3513.0,0.0076
3512.0,0.0077
3511.0,0.0077
3510.0,0.0077
3509.0,0.0076
3508.0,0.0076
3507.0,0.0076
3506.0,0.0076
3505.0,0.0076
3504.0,0.0077
3503.0,0.0078
3502.0,0.0079
3501.0,0.008
3500.0,0.008
3499.0,0.008
3498.0,0.0079
3497.0,0.0079
3496.0,0.008
3495.0,0.0081
3494.0,0.0083
3493.0,0.0085
3492.0,0.0085
3491.0,0.0084
3490.0,0.0082
3489.0,0.0081
3488.0,0.0081
3487.0,0.0083
3486.0,0.0085
3485.0,0.0087
3484.0,0.0088
3483.0,0.0089
3482.0,0.0089
3481.0,0.0089
3480.0,0.009
3479.0,0.009
3478.0,0.009
3477.0,0.009
3476.0,0.0091
3475.0,0.0092
3474.0,0.0092
3473.0,0.0093
3472.0,0.0093
3471.0,0.0093
3470.0,0.0093
3469.0,0.0094
3468.0,0.0096
3467.0,0.0097
3466.0,0.0098
3465.0,0.0098
3464.0,0.0098
3463.0,0.0099
3462.0,0.0099
3461.0,0.01
3460.0,0.0099
3459.0,0.0099
3458.0,0.0099
3457.0,0.01
3456.0,0.0101
3455.0,0.0102
3454.0,0.0103
3453.0,0.0103
3452.0,0.0104
3451.0,0.0104
3450.0,0.0104
3449.0,0.0105
3448.0,0.0106
3447.0,0.0107
3446.0,0.0107
3445.0,0.0107
3444.0,0.0107
3443.0,0.0107
3442.0,0.0107
3441.0,0.0107
3440.0,0.0108
3439.0,0.0108
3438.0,0.0108
3437.0,0.0109
3436.0,0.011
3435.0,0.0111
3434.0,0.0112
3433.0,0.0113
3432.0,0.0113
3431.0,0.0113
3430.0,0.0113
3429.0,0.0114
3428.0,0.0114
3427.0,0.0115
3426.0,0.0115
3425.0,0.0115
3424.0,0.0114
3423.0,0.0114
3422.0,0.0114
3421.0,0.0114
3420.0,0.0116
3419.0,0.0118
3418.0,0.012
3417.0,0.0121
3416.0,0.0121
3415.0,0.012
3414.0,0.0119
3413.0,0.0119
3412.0,0.0118
3411.0,0.0118
3410.0,0.0118
3409.0,0.0119
3408.0,0.0121
3407.0,0.0123
3406.0,0.0124
3405.0,0.0125
3404.0,0.0124
3403.0,0.0124
3402.0,0.0124
3401.0,0.0125
3400.0,0.0126
3399.0,0.0127
3398.0,0.0128
3397.0,0.0128
3396.0,0.0128
3395.0,0.0128
3394.0,0.0127
3393.0,0.0127
3392.0,0.0127
3391.0,0.0127
3390.0,0.0127
3389.0,0.0127
3388.0,0.0126
3387.0,0.0125
3386.0,0.0125
3385.0,0.0126
3384.0,0.0128
3383.0,0.013
3382.0,0.0131
3381.0,0.0132
3380.0,0.0132
3379.0,0.0132
3378.0,0.0133
3377.0,0.0133
3376.0,0.0133
3375.0,0.0133
3374.0,0.0132
3373.0,0.0132
3372.0,0.0132
3371.0,0.0132
3370.0,0.0132
3369.0,0.0132
3368.0,0.0132
3367.0,0.0131
3366.0,0.0131
3365.0,0.0132
3364.0,0.0133
3363.0,0.0133
3362.0,0.0132
3361.0,0.013
3360.0,0.013
3359.0,0.0131
3358.0,0.0132
3357.0,0.0133
3356.0,0.0133
3355.0,0.0132
3354.0,0.0131
3353.0,0.013
3352.0,0.013
3351.0,0.0131
3350.0,0.0132
3349.0,0.0133
3348.0,0.0133
3347.0,0.0132
3346.0,0.0131
3345.0,0.013
3344.0,0.0129
3343.0,0.0129
3342.0,0.0129
3341.0,0.0129
3340.0,0.0129
3339.0,0.0129
3338.0,0.0128
3337.0,0.0128
3336.0,0.0128
3335.0,0.0128
3334.0,0.0128
3333.0,0.0129
3332.0,0.0129
3331.0,0.0129
3330.0,0.0129
3329.0,0.0129
3328.0,0.013
3327.0,0.013
3326.0,0.013
3325.0,0.0129
3324.0,0.0129
3323.0,0.0129
3322.0,0.0129
3321.0,0.0127
3320.0,0.0126
3319.0,0.0124
3318.0,0.0124
3317.0,0.0124
3316.0,0.0125
3315.0,0.0125
3314.0,0.0124
3313.0,0.0123
3312.0,0.0123
3311.0,0.0124
3310.0,0.0123
3309.0,0.0123
3308.0,0.0122
3307.0,0.0121
3306.0,0.0121
3305.0,0.0122
3304.0,0.0123
3303.0,0.0123
3302.0,0.0122
3301.0,0.0122
3300.0,0.0122
3299.0,0.0122
3298.0,0.0122
3297.0,0.0122
3296.0,0.0121
3295.0,0.0121
3294.0,0.0121
3293.0,0.0121
3292.0,0.0121
3291.0,0.0122
3290.0,0.0121
3289.0,0.012
3288.0,0.0119
3287.0,0.0118
3286.0,0.0118
3285.0,0.0118
3284.0,0.0119
3283.0,0.012
3282.0,0.012
3281.0,0.012
3280.0,0.012
3279.0,0.012
3278.0,0.012
3277.0,0.012
3276.0,0.012
3275.0,0.0119
3274.0,0.0117
3273.0,0.0116
3272.0,0.0116
3271.0,0.0115
3270.0,0.0115
3269.0,0.0115
3268.0,0.0115
3267.0,0.0115
3266.0,0.0116
3265.0,0.0117
3264.0,0.0117
3263.0,0.0117
3262.0,0.0116
3261.0,0.0115
3260.0,0.0115
3259.0,0.0115
3258.0,0.0115
3257.0,0.0115
3256.0,0.0116
3255.0,0.0115
3254.0,0.0115
3253.0,0.0114
3252.0,0.0113
3251.0,0.0113
3250.0,0.0112
3249.0,0.0111
3248.0,0.0111
3247.0,0.011
3246.0,0.011
3245.0,0.0111
3244.0,0.0111
3243.0,0.0112
3242.0,0.0112
3241.0,0.0113
3240.0,0.0113
3239.0,0.0112
3238.0,0.011
3237.0,0.0109
3236.0,0.0108
3235.0,0.0108
3234.0,0.0107
3233.0,0.0106
3232.0,0.0105
3231.0,0.0105
3230.0,0.0105
3229.0,0.0106
3228.0,0.0106
3227.0,0.0107
3226.0,0.0107
3225.0,0.0107
3224.0,0.0107
3223.0,0.0107
3222.0,0.0107
3221.0,0.0107
3220.0,0.0106
3219.0,0.0106
3218.0,0.0105
3217.0,0.0105
3216.0,0.0105
3215.0,0.0104
3214.0,0.0104
3213.0,0.0104
3212.0,0.0104
3211.0,0.0103
3210.0,0.0103
3209.0,0.0103
3208.0,0.0102
3207.0,0.0101
3206.0,0.01
3205.0,0.0099
3204.0,0.0099
3203.0,0.0098
3202.0,0.0098
3201.0,0.0097
3200.0,0.0097
3199.0,0.0097
3198.0,0.0096
3197.0,0.0096
3196.0,0.0097
3195.0,0.0097
3194.0,0.0098
3193.0,0.0097
3192.0,0.0096
3191.0,0.0095
3190.0,0.0094
3189.0,0.0093
3188.0,0.0092
3187.0,0.0092
3186.0,0.0092
3185.0,0.0093
3184.0,0.0094
3183.0,0.0094
3182.0,0.0093
3181.0,0.0091
3180.0,0.009
3179.0,0.0089
3178.0,0.0089
3177.0,0.0088
3176.0,0.0088
3175.0,0.0088
3174.0,0.0087
3173.0,0.0087
3172.0,0.0088
3171.0,0.0088
3170.0,0.0089
3169.0,0.0088
3168.0,0.0088
3167.0,0.0087
3166.0,0.0085
3165.0,0.0084
3164.0,0.0084
3163.0,0.0083
3162.0,0.0083
3161.0,0.0083
3160.0,0.0083
3159.0,0.0082
3158.0,0.0082
3157.0,0.0081
3156.0,0.0081
3155.0,0.008
3154.0,0.0079
3153.0,0.0079
3152.0,0.0079
3151.0,0.008
3150.0,0.0081
3149.0,0.0082
3148.0,0.0083
3147.0,0.0083
3146.0,0.0082
3145.0,0.0081
3144.0,0.008
3143.0,0.008
3142.0,0.0079
3141.0,0.0079
3140.0,0.0078
3139.0,0.0077
3138.0,0.0076
3137.0,0.0074
3136.0,0.0073
3135.0,0.0072
3134.0,0.0072
3133.0,0.0071
3132.0,0.0071
3131.0,0.007
3130.0,0.007
3129.0,0.007
3128.0,0.007
3127.0,0.0071
3126.0,0.0071
3125.0,0.0071
3124.0,0.007
3123.0,0.0069
3122.0,0.0069
3121.0,0.0068
3120.0,0.0068
3119.0,0.0068
3118.0,0.0067
3117.0,0.0067
3116.0,0.0067
3115.0,0.0066
3114.0,0.0066
3113.0,0.0066
3112.0,0.0066
3111.0,0.0067
3110.0,0.0067
3109.0,0.0067
3108.0,0.0066
3107.0,0.0066
3106.0,0.0065
3105.0,0.0065
3104.0,0.0065
3103.0,0.0065
3102.0,0.0065
3101.0,0.0065
3100.0,0.0065
3099.0,0.0064
3098.0,0.0064
3097.0,0.0063
3096.0,0.0063
3095.0,0.0063
3094.0,0.0064
3093.0,0.0064
3092.0,0.0064
3091.0,0.0063
3090.0,0.0062
3089.0,0.0062
3088.0,0.0062
3087.0,0.0062
3086.0,0.0062
3085.0,0.0061
3084.0,0.006
3083.0,0.0061
3082.0,0.0062
3081.0,0.0063
3080.0,0.0064
3079.0,0.0063
3078.0,0.0063
3077.0,0.0062
3076.0,0.0062
3075.0,0.0061
3074.0,0.006
3073.0,0.006
3072.0,0.0059
3071.0,0.0059
3070.0,0.0058
3069.0,0.0058
3068.0,0.0058
3067.0,0.0058
3066.0,0.0058
3065.0,0.0058
3064.0,0.0058
3063.0,0.0057
3062.0,0.0057
3061.0,0.0057
3060.0,0.0057
3059.0,0.0057
3058.0,0.0058
3057.0,0.0057
3056.0,0.0057
3055.0,0.0056
3054.0,0.0056
3053.0,0.0057
3052.0,0.0058
3051.0,0.0058
3050.0,0.0058
3049.0,0.0057
3048.0,0.0057
3047.0,0.0056
3046.0,0.0055
3045.0,0.0054
3044.0,0.0053
3043.0,0.0053
3042.0,0.0052
3041.0,0.0053
3040.0,0.0053
3039.0,0.0053
3038.0,0.0053
3037.0,0.0053
3036.0,0.0053
3035.0,0.0053
3034.0,0.0053
3033.0,0.0054
3032.0,0.0055
3031.0,0.0056
3030.0,0.0057
3029.0,0.0059
3028.0,0.006
3027.0,0.006
3026.0,0.0061
3025.0,0.0061
3024.0,0.0062
3023.0,0.0061
3022.0,0.006
3021.0,0.0059
3020.0,0.0057
3019.0,0.0056
3018.0,0.0056
3017.0,0.0056
3016.0,0.0056
3015.0,0.0055
3014.0,0.0054
3013.0,0.0053
3012.0,0.0052
3011.0,0.0051
3010.0,0.005
3009.0,0.005
3008.0,0.0049
3007.0,0.0049
3006.0,0.0049
3005.0,0.0049
3004.0,0.0049
3003.0,0.0049
3002.0,0.0048
3001.0,0.0047
3000.0,0.0047
2999.0,0.0046
2998.0,0.0046
2997.0,0.0046
2996.0,0.0046
2995.0,0.0046
2994.0,0.0046
2993.0,0.0046
2992.0,0.0045
2991.0,0.0045
2990.0,0.0045
2989.0,0.0044
2988.0,0.0044
2987.0,0.0044
2986.0,0.0044
2985.0,0.0043
2984.0,0.0043
2983.0,0.0043
2982.0,0.0043
2981.0,0.0043
2980.0,0.0043
2979.0,0.0043
2978.0,0.0043
2977.0,0.0043
2976.0,0.0043
2975.0,0.0043
2974.0,0.0043
2973.0,0.0044
2972.0,0.0044
2971.0,0.0044
2970.0,0.0044
2969.0,0.0044
2968.0,0.0044
2967.0,0.0043
2966.0,0.0043
2965.0,0.0043
2964.0,0.0043
2963.0,0.0043
2962.0,0.0043
2961.0,0.0043
2960.0,0.0043
2959.0,0.0043
2958.0,0.0043
2957.0,0.0043
2956.0,0.0043
2955.0,0.0043
2954.0,0.0043
2953.0,0.0042
2952.0,0.0043
2951.0,0.0043
2950.0,0.0044
2949.0,0.0045
2948.0,0.0045
2947.0,0.0045
2946.0,0.0045
2945.0,0.0045
2944.0,0.0046
2943.0,0.0046
2942.0,0.0046
2941.0,0.0046
2940.0,0.0046
2939.0,0.0046
2938.0,0.0048
2937.0,0.005
2936.0,0.0051
2935.0,0.0052
2934.0,0.0053
2933.0,0.0054
2932.0,0.0055
2931.0,0.0056
2930.0,0.0056
2929.0,0.0056
2928.0,0.0057
2927.0,0.0058
2926.0,0.0059
2925.0,0.0061
2924.0,0.0062
2923.0,0.0063
2922.0,0.0063
2921.0,0.0063
2920.0,0.0063
2919.0,0.0063
2918.0,0.0063
2917.0,0.0062
2916.0,0.0061
2915.0,0.006
2914.0,0.006
2913.0,0.0059
2912.0,0.0058
2911.0,0.0058
2910.0,0.0057
2909.0,0.0057
2908.0,0.0057
2907.0,0.0057
2906.0,0.0057
2905.0,0.0056
2904.0,0.0055
2903.0,0.0054
2902.0,0.0052
2901.0,0.0052
2900.0,0.0051
2899.0,0.0051
2898.0,0.005
2897.0,0.005
2896.0,0.005
2895.0,0.005
2894.0,0.005
2893.0,0.005
2892.0,0.0049
2891.0,0.0048
2890.0,0.0047
2889.0,0.0047
2888.0,0.0047
2887.0,0.0047
2886.0,0.0048
2885.0,0.0048
2884.0,0.0048
2883.0,0.0048
2882.0,0.0047
2881.0,0.0047
2880.0,0.0047
2879.0,0.0047
2878.0,0.0046
2877.0,0.0045
2876.0,0.0045
2875.0,0.0045
2874.0,0.0044
2873.0,0.0044
2872.0,0.0044
2871.0,0.0044
2870.0,0.0045
2869.0,0.0044
2868.0,0.0044
2867.0,0.0043
2866.0,0.0044
2865.0,0.0044
2864.0,0.0045
2863.0,0.0045
2862.0,0.0044
2861.0,0.0044
2860.0,0.0044
2859.0,0.0045
2858.0,0.0046
2857.0,0.0047
2856.0,0.0048
2855.0,0.0049
2854.0,0.0049
2853.0,0.005
2852.0,0.0051
2851.0,0.0051
2850.0,0.0051
2849.0,0.005
2848.0,0.005
2847.0,0.0049
2846.0,0.0049
2845.0,0.0049
2844.0,0.0048
2843.0,0.0048
2842.0,0.0047
2841.0,0.0046
2840.0,0.0046
2839.0,0.0045
2838.0,0.0044
2837.0,0.0043
2836.0,0.0043
2835.0,0.0042
2834.0,0.0043
2833.0,0.0043
2832.0,0.0044
2831.0,0.0044
2830.0,0.0044
2829.0,0.0043
2828.0,0.0043
2827.0,0.0043
2826.0,0.0043
2825.0,0.0043
2824.0,0.0043
2823.0,0.0043
2822.0,0.0043
2821.0,0.0042
2820.0,0.0042
2819.0,0.0042
2818.0,0.0042
2817.0,0.0042
2816.0,0.0042
2815.0,0.0041
2814.0,0.0041
2813.0,0.0041
2812.0,0.0041
2811.0,0.0042
2810.0,0.0042
2809.0,0.0042
2808.0,0.0041
2807.0,0.0041
2806.0,0.004
2805.0,0.0041
2804.0,0.0041
2803.0,0.0041
2802.0,0.0041
2801.0,0.004
2800.0,0.004
2799.0,0.004
2798.0,0.004
2797.0,0.004
2796.0,0.004
2795.0,0.004
2794.0,0.004
2793.0,0.004
2792.0,0.004
2791.0,0.004
2790.0,0.0039
2789.0,0.0039
2788.0,0.0039
2787.0,0.0039
2786.0,0.004
2785.0,0.004
2784.0,0.0041
2783.0,0.0041
2782.0,0.0041
2781.0,0.0041
2780.0,0.0041
2779.0,0.004
2778.0,0.0039
2777.0,0.0038
2776.0,0.0038
2775.0,0.0039
2774.0,0.0039
2773.0,0.004
2772.0,0.004
2771.0,0.0041
2770.0,0.0041
2769.0,0.004
2768.0,0.004
2767.0,0.004
2766.0,0.0041
2765.0,0.0041
2764.0,0.004
2763.0,0.004
2762.0,0.004
2761.0,0.004
2760.0,0.004
2759.0,0.0039
2758.0,0.0039
2757.0,0.0039
2756.0,0.004
2755.0,0.004
2754.0,0.0041
2753.0,0.0041
2752.0,0.004
2751.0,0.004
2750.0,0.0039
2749.0,0.0039
2748.0,0.0039
2747.0,0.0039
2746.0,0.004
2745.0,0.004
2744.0,0.004
2743.0,0.004
2742.0,0.0039
2741.0,0.0039
2740.0,0.0039
2739.0,0.0039
2738.0,0.004
2737.0,0.004
2736.0,0.0041
2735.0,0.0041
2734.0,0.004
2733.0,0.004
2732.0,0.0039
2731.0,0.0039
2730.0,0.0039
2729.0,0.0039
2728.0,0.0039
2727.0,0.0039
2726.0,0.004
2725.0,0.0041
2724.0,0.0041
2723.0,0.0041
2722.0,0.004
2721.0,0.004
2720.0,0.004
2719.0,0.004
2718.0,0.004
2717.0,0.0039
2716.0,0.0039
2715.0,0.0039
2714.0,0.0039
2713.0,0.0039
2712.0,0.0039
2711.0,0.0039
2710.0,0.0039
2709.0,0.0039
2708.0,0.0039
2707.0,0.0039
2706.0,0.0039
2705.0,0.0039
2704.0,0.0039
2703.0,0.004
2702.0,0.004
2701.0,0.004
2700.0,0.004
2699.0,0.004
2698.0,0.004
2697.0,0.004
2696.0,0.0039
2695.0,0.0039
2694.0,0.0038
2693.0,0.0038
2692.0,0.0039
2691.0,0.0039
2690.0,0.004
2689.0,0.004
2688.0,0.0039
2687.0,0.004
2686.0,0.004
2685.0,0.004
2684.0,0.004
2683.0,0.0039
2682.0,0.0038
2681.0,0.0038
2680.0,0.0038
2679.0,0.0039
2678.0,0.0039
2677.0,0.0039
2676.0,0.0038
2675.0,0.0038
2674.0,0.0038
2673.0,0.0039
2672.0,0.0039
2671.0,0.0039
2670.0,0.0039
2669.0,0.0038
2668.0,0.0038
2667.0,0.0039
2666.0,0.004
2665.0,0.004
2664.0,0.004
2663.0,0.004
2662.0,0.0039
2661.0,0.0039
2660.0,0.0038
2659.0,0.0038
2658.0,0.0038
2657.0,0.0038
2656.0,0.0039
2655.0,0.0039
2654.0,0.0039
2653.0,0.0039
2652.0,0.0039
2651.0,0.0039
2650.0,0.0039
2649.0,0.0039
2648.0,0.004
2647.0,0.0039
2646.0,0.0039
2645.0,0.0038
2644.0,0.0038
2643.0,0.0038
2642.0,0.0039
2641.0,0.0039
2640.0,0.0039
2639.0,0.004
2638.0,0.004
2637.0,0.004
2636.0,0.004
2635.0,0.004
2634.0,0.004
2633.0,0.004
2632.0,0.004
2631.0,0.004
2630.0,0.004
2629.0,0.004
2628.0,0.0039
2627.0,0.0039
2626.0,0.0039
2625.0,0.0039
2624.0,0.0039
2623.0,0.004
2622.0,0.004
2621.0,0.0039
2620.0,0.0039
2619.0,0.0039
2618.0,0.0038
2617.0,0.0038
2616.0,0.0038
2615.0,0.0038
2614.0,0.0039
2613.0,0.0038
2612.0,0.0038
2611.0,0.0039
2610.0,0.0039
2609.0,0.004
2608.0,0.004
2607.0,0.0039
2606.0,0.0039
2605.0,0.0038
2604.0,0.0038
2603.0,0.0039
2602.0,0.0039
2601.0,0.004
2600.0,0.0041
2599.0,0.0041
2598.0,0.004
2597.0,0.004
2596.0,0.004
2595.0,0.004
2594.0,0.004
2593.0,0.004
2592.0,0.004
2591.0,0.004
2590.0,0.004
2589.0,0.004
2588.0,0.004
2587.0,0.0041
2586.0,0.0041
2585.0,0.0041
2584.0,0.0041
2583.0,0.0041
2582.0,0.0041
2581.0,0.0041
2580.0,0.0041
2579.0,0.0041
2578.0,0.004
2577.0,0.004
2576.0,0.004
2575.0,0.004
2574.0,0.004
2573.0,0.004
2572.0,0.0041
2571.0,0.004
2570.0,0.004
2569.0,0.0041
2568.0,0.0041
2567.0,0.0042
2566.0,0.0042
2565.0,0.0042
2564.0,0.0041
2563.0,0.004
2562.0,0.004
2561.0,0.004
2560.0,0.004
2559.0,0.004
2558.0,0.004
2557.0,0.0041
2556.0,0.0041
2555.0,0.0042
2554.0,0.0042
2553.0,0.0041
2552.0,0.0041
2551.0,0.0041
2550.0,0.004
2549.0,0.0041
2548.0,0.0041
2547.0,0.0041
2546.0,0.0042
2545.0,0.0042
2544.0,0.0042
2543.0,0.0042
2542.0,0.0042
2541.0,0.0041
2540.0,0.004
2539.0,0.004
2538.0,0.0041
2537.0,0.0041
2536.0,0.0042
2535.0,0.0042
2534.0,0.0042
2533.0,0.0043
2532.0,0.0044
2531.0,0.0044
2530.0,0.0044
2529.0,0.0044
2528.0,0.0043
2527.0,0.0042
2526.0,0.0041
2525.0,0.004
2524.0,0.004
2523.0,0.004
2522.0,0.004
2521.0,0.0041
2520.0,0.0041
2519.0,0.0041
2518.0,0.0042
2517.0,0.0042
2516.0,0.0042
2515.0,0.0042
2514.0,0.0042
2513.0,0.0042
2512.0,0.0042
2511.0,0.0042
2510.0,0.0042
2509.0,0.0042
2508.0,0.0041
2507.0,0.0041
2506.0,0.0041
2505.0,0.0042
2504.0,0.0042
2503.0,0.0042
2502.0,0.0042
2501.0,0.0042
2500.0,0.0042
2499.0,0.0042
2498.0,0.0042
2497.0,0.0043
2496.0,0.0043
2495.0,0.0044
2494.0,0.0044
2493.0,0.0044
2492.0,0.0044
2491.0,0.0044
2490.0,0.0044
2489.0,0.0043
2488.0,0.0043
2487.0,0.0042
2486.0,0.0041
2485.0,0.0041
2484.0,0.0041
2483.0,0.0041
2482.0,0.0041
2481.0,0.0041
2480.0,0.0041
2479.0,0.004
2478.0,0.0041
2477.0,0.0041
2476.0,0.0042
2475.0,0.0043
2474.0,0.0043
2473.0,0.0043
2472.0,0.0042
2471.0,0.0042
2470.0,0.0042
2469.0,0.0043
2468.0,0.0043
2467.0,0.0043
2466.0,0.0042
2465.0,0.0042
2464.0,0.0042
2463.0,0.0043
2462.0,0.0043
2461.0,0.0043
2460.0,0.0043
2459.0,0.0043
2458.0,0.0043
2457.0,0.0044
2456.0,0.0044
2455.0,0.0044
2454.0,0.0044
2453.0,0.0044
2452.0,0.0044
2451.0,0.0044
2450.0,0.0044
2449.0,0.0043
2448.0,0.0042
2447.0,0.0041
2446.0,0.0041
2445.0,0.0041
2444.0,0.0042
2443.0,0.0042
2442.0,0.0043
2441.0,0.0043
2440.0,0.0043
2439.0,0.0043
2438.0,0.0043
2437.0,0.0043
2436.0,0.0043
2435.0,0.0043
2434.0,0.0043
2433.0,0.0043
2432.0,0.0043
2431.0,0.0043
2430.0,0.0043
2429.0,0.0043
2428.0,0.0044
2427.0,0.0043
2426.0,0.0043
2425.0,0.0043
2424.0,0.0043
2423.0,0.0043
2422.0,0.0043
2421.0,0.0043
2420.0,0.0043
2419.0,0.0043
2418.0,0.0043
2417.0,0.0043
2416.0,0.0043
2415.0,0.0042
2414.0,0.0042
2413.0,0.0042
2412.0,0.0043
2411.0,0.0044
2410.0,0.0044
2409.0,0.0044
2408.0,0.0044
2407.0,0.0043
2406.0,0.0042
2405.0,0.0043
2404.0,0.0044
2403.0,0.0044
2402.0,0.0044
2401.0,0.0044
2400.0,0.0044
2399.0,0.0044
2398.0,0.0043
2397.0,0.0043
2396.0,0.0043
2395.0,0.0043
2394.0,0.0044
2393.0,0.0044
2392.0,0.0044
2391.0,0.0044
2390.0,0.0045
2389.0,0.0045
2388.0,0.0046
2387.0,0.0046
2386.0,0.0047
2385.0,0.0047
2384.0,0.0047
2383.0,0.0047
2382.0,0.0047
2381.0,0.0046
2380.0,0.0046
2379.0,0.0046
2378.0,0.0045
2377.0,0.0044
2376.0,0.0043
2375.0,0.0042
2374.0,0.0041
2373.0,0.0041
2372.0,0.0042
2371.0,0.0044
2370.0,0.0048
2369.0,0.0051
2368.0,0.0053
2367.0,0.0051
2366.0,0.0048
2365.0,0.0047
2364.0,0.0049
2363.0,0.005
2362.0,0.0048
2361.0,0.0042
2360.0,0.0035
2359.0,0.0037
2358.0,0.0049
2357.0,0.0061
2356.0,0.0065
2355.0,0.006
2354.0,0.0051
2353.0,0.0044
2352.0,0.0043
2351.0,0.0048
2350.0,0.0053
2349.0,0.0053
2348.0,0.0048
2347.0,0.0043
2346.0,0.0042
2345.0,0.0047
2344.0,0.0053
2343.0,0.0055
2342.0,0.0053
2341.0,0.0049
2340.0,0.0045
2339.0,0.0043
2338.0,0.0044
2337.0,0.0046
2336.0,0.005
2335.0,0.0053
2334.0,0.0052
2333.0,0.0048
2332.0,0.0042
2331.0,0.004
2330.0,0.0044
2329.0,0.0054
2328.0,0.0063
2327.0,0.0066
2326.0,0.0062
2325.0,0.0056
2324.0,0.0051
2323.0,0.0049
2322.0,0.005
2321.0,0.0052
2320.0,0.0054
2319.0,0.0056
2318.0,0.0058
2317.0,0.0058
2316.0,0.0057
2315.0,0.0055
2314.0,0.0054
2313.0,0.0053
2312.0,0.0053
2311.0,0.0053
2310.0,0.0053
2309.0,0.0054
2308.0,0.0055
2307.0,0.0055
2306.0,0.0054
2305.0,0.0053
2304.0,0.0053
2303.0,0.0052
2302.0,0.0053
2301.0,0.0054
2300.0,0.0054
2299.0,0.0055
2298.0,0.0054
2297.0,0.0053
2296.0,0.0052
2295.0,0.0051
2294.0,0.0051
2293.0,0.0051
2292.0,0.0051
2291.0,0.0051
2290.0,0.0051
2289.0,0.0051
2288.0,0.0051
2287.0,0.005
2286.0,0.005
2285.0,0.0049
2284.0,0.0048
2283.0,0.0048
2282.0,0.0048
2281.0,0.0048
2280.0,0.0049
2279.0,0.0049
2278.0,0.0049
2277.0,0.0049
2276.0,0.0049
2275.0,0.0049
2274.0,0.0048
2273.0,0.0048
2272.0,0.0048
2271.0,0.0048
2270.0,0.0049
2269.0,0.0049
2268.0,0.0048
2267.0,0.0048
2266.0,0.0048
2265.0,0.0048
2264.0,0.0049
2263.0,0.0049
2262.0,0.0049
2261.0,0.0048
2260.0,0.0047
2259.0,0.0047
2258.0,0.0048
2257.0,0.0048
2256.0,0.0049
2255.0,0.0049
2254.0,0.0049
2253.0,0.0049
2252.0,0.0048
2251.0,0.0048
2250.0,0.0047
2249.0,0.0047
2248.0,0.0047
2247.0,0.0047
2246.0,0.0047
2245.0,0.0047
2244.0,0.0047
2243.0,0.0047
2242.0,0.0048
2241.0,0.0049
2240.0,0.0049
2239.0,0.0049
2238.0,0.0049
2237.0,0.0048
2236.0,0.0048
2235.0,0.0048
2234.0,0.0048
2233.0,0.0049
2232.0,0.0049
2231.0,0.0049
2230.0,0.0049
2229.0,0.0048
2228.0,0.0048
2227.0,0.0047
2226.0,0.0047
2225.0,0.0047
2224.0,0.0047
2223.0,0.0048
2222.0,0.0048
2221.0,0.0048
2220.0,0.0048
2219.0,0.0048
2218.0,0.0049
2217.0,0.0049
2216.0,0.0049
2215.0,0.0049
2214.0,0.005
2213.0,0.005
2212.0,0.005
2211.0,0.0049
2210.0,0.0049
2209.0,0.0049
2208.0,0.0048
2207.0,0.0049
2206.0,0.0049
2205.0,0.005
2204.0,0.005
2203.0,0.0049
2202.0,0.0049
2201.0,0.0048
2200.0,0.0048
2199.0,0.0048
2198.0,0.0048
2197.0,0.0048
2196.0,0.0048
2195.0,0.0048
2194.0,0.0048
2193.0,0.0048
2192.0,0.0048
2191.0,0.0048
2190.0,0.0048
2189.0,0.0048
2188.0,0.0048
2187.0,0.0049
2186.0,0.0049
2185.0,0.0049
2184.0,0.0049
2183.0,0.0048
2182.0,0.0048
2181.0,0.0048
2180.0,0.0048
2179.0,0.0049
2178.0,0.0049
2177.0,0.0049
2176.0,0.0048
2175.0,0.0048
2174.0,0.0048
2173.0,0.0048
2172.0,0.0048
2171.0,0.0048
2170.0,0.0048
2169.0,0.0048
2168.0,0.0048
2167.0,0.0049
2166.0,0.0049
2165.0,0.005
2164.0,0.005
2163.0,0.0049
2162.0,0.0049
2161.0,0.0048
2160.0,0.0048
2159.0,0.0048
2158.0,0.0048
2157.0,0.0049
2156.0,0.0049
2155.0,0.0049
2154.0,0.0049
2153.0,0.0048
2152.0,0.0048
2151.0,0.0048
2150.0,0.0048
2149.0,0.0048
2148.0,0.0049
2147.0,0.0049
2146.0,0.005
2145.0,0.005
2144.0,0.005
2143.0,0.005
2142.0,0.005
2141.0,0.005
2140.0,0.005
2139.0,0.005
2138.0,0.005
2137.0,0.005
2136.0,0.005
2135.0,0.005
2134.0,0.0051
2133.0,0.0051
2132.0,0.005
2131.0,0.005
2130.0,0.005
2129.0,0.005
2128.0,0.0051
2127.0,0.0051
2126.0,0.0051
2125.0,0.005
2124.0,0.005
2123.0,0.005
2122.0,0.005
2121.0,0.005
2120.0,0.005
2119.0,0.005
2118.0,0.005
2117.0,0.005
2116.0,0.005
2115.0,0.0051
2114.0,0.0051
2113.0,0.0051
2112.0,0.0051
2111.0,0.005
2110.0,0.005
2109.0,0.005
2108.0,0.005
2107.0,0.005
2106.0,0.0051
2105.0,0.0051
2104.0,0.005
2103.0,0.005
2102.0,0.005
2101.0,0.005
2100.0,0.005
2099.0,0.0051
2098.0,0.0051
2097.0,0.005
2096.0,0.005
2095.0,0.005
2094.0,0.005
2093.0,0.0051
2092.0,0.0051
2091.0,0.0051
2090.0,0.0051
2089.0,0.0051
2088.0,0.0051
2087.0,0.0051
2086.0,0.0051
2085.0,0.0051
2084.0,0.0051
2083.0,0.0051
2082.0,0.0051
2081.0,0.005
2080.0,0.005
2079.0,0.005
2078.0,0.005
2077.0,0.005
2076.0,0.0051
2075.0,0.0051
2074.0,0.0051
2073.0,0.0051
2072.0,0.0051
2071.0,0.0051
2070.0,0.0051
2069.0,0.0051
2068.0,0.0052
2067.0,0.0052
2066.0,0.0052
2065.0,0.0051
2064.0,0.0051
2063.0,0.0051
2062.0,0.005
2061.0,0.0051
2060.0,0.0051
2059.0,0.0051
2058.0,0.0052
2057.0,0.0052
2056.0,0.0051
2055.0,0.0051
2054.0,0.0051
2053.0,0.0051
2052.0,0.0052
2051.0,0.0052
2050.0,0.0052
2049.0,0.0053
2048.0,0.0053
2047.0,0.0053
2046.0,0.0052
2045.0,0.0052
2044.0,0.0052
2043.0,0.0052
2042.0,0.0052
2041.0,0.0052
2040.0,0.0051
2039.0,0.0051
2038.0,0.0051
2037.0,0.0051
2036.0,0.0051
2035.0,0.0051
2034.0,0.0051
2033.0,0.0051
2032.0,0.0051
2031.0,0.0051
2030.0,0.0051
2029.0,0.0052
2028.0,0.0053
2027.0,0.0053
2026.0,0.0053
2025.0,0.0053
2024.0,0.0053
2023.0,0.0052
2022.0,0.0052
2021.0,0.0052
2020.0,0.0051
2019.0,0.0051
2018.0,0.0051
2017.0,0.0051
2016.0,0.0052
2015.0,0.0052
2014.0,0.0053
2013.0,0.0053
2012.0,0.0053
2011.0,0.0053
2010.0,0.0053
2009.0,0.0052
2008.0,0.0052
2007.0,0.0052
2006.0,0.0052
2005.0,0.0053
2004.0,0.0054
2003.0,0.0054
2002.0,0.0053
2001.0,0.0053
2000.0,0.0053
1999.0,0.0053
1998.0,0.0053
1997.0,0.0053
1996.0,0.0054
1995.0,0.0054
1994.0,0.0054
1993.0,0.0054
1992.0,0.0054
1991.0,0.0054
1990.0,0.0053
1989.0,0.0053
1988.0,0.0054
1987.0,0.0054
1986.0,0.0054
1985.0,0.0054
1984.0,0.0054
1983.0,0.0054
1982.0,0.0054
1981.0,0.0054
1980.0,0.0054
1979.0,0.0054
1978.0,0.0054
1977.0,0.0054
1976.0,0.0054
1975.0,0.0054
1974.0,0.0054
1973.0,0.0054
1972.0,0.0055
1971.0,0.0055
1970.0,0.0055
1969.0,0.0055
1968.0,0.0054
1967.0,0.0054
1966.0,0.0055
1965.0,0.0055
1964.0,0.0055
1963.0,0.0055
1962.0,0.0055
1961.0,0.0055
1960.0,0.0055
1959.0,0.0055
1958.0,0.0055
1957.0,0.0056
1956.0,0.0056
1955.0,0.0056
1954.0,0.0056
1953.0,0.0057
1952.0,0.0057
1951.0,0.0057
1950.0,0.0058
1949.0,0.0057
1948.0,0.0057
1947.0,0.0057
1946.0,0.0057
1945.0,0.0058
1944.0,0.0058
1943.0,0.0057
1942.0,0.0057
1941.0,0.0057
1940.0,0.0058
1939.0,0.0059
1938.0,0.006
1937.0,0.006
1936.0,0.006
1935.0,0.0059
1934.0,0.0059
1933.0,0.0058
1932.0,0.0058
1931.0,0.0058
1930.0,0.0058
1929.0,0.0058
1928.0,0.0058
1927.0,0.0058
1926.0,0.0058
1925.0,0.0057
1924.0,0.0057
1923.0,0.0057
1922.0,0.0057
1921.0,0.0057
1920.0,0.0057
1919.0,0.0057
1918.0,0.0057
1917.0,0.0057
1916.0,0.0057
1915.0,0.0057
1914.0,0.0056
1913.0,0.0056
1912.0,0.0056
1911.0,0.0057
1910.0,0.0057
1909.0,0.0057
1908.0,0.0057
1907.0,0.0056
1906.0,0.0056
1905.0,0.0057
1904.0,0.0057
1903.0,0.0057
1902.0,0.0057
1901.0,0.0057
1900.0,0.0057
1899.0,0.0057
1898.0,0.0057
1897.0,0.0058
1896.0,0.0058
1895.0,0.0058
1894.0,0.0058
1893.0,0.0058
1892.0,0.0058
1891.0,0.0059
1890.0,0.0059
1889.0,0.0059
1888.0,0.0059
1887.0,0.0059
1886.0,0.0059
1885.0,0.0059
1884.0,0.0059
1883.0,0.0059
1882.0,0.006
1881.0,0.006
1880.0,0.006
1879.0,0.006
1878.0,0.006
1877.0,0.006
1876.0,0.006
1875.0,0.0059
1874.0,0.0059
1873.0,0.006
1872.0,0.0061
1871.0,0.0061
1870.0,0.0061
1869.0,0.0061
1868.0,0.0061
1867.0,0.0061
1866.0,0.0061
1865.0,0.0061
1864.0,0.0061
1863.0,0.0061
1862.0,0.0062
1861.0,0.0062
1860.0,0.0062
1859.0,0.0062
1858.0,0.0062
1857.0,0.0061
1856.0,0.006
1855.0,0.006
1854.0,0.0059
1853.0,0.0059
1852.0,0.0059
1851.0,0.006
1850.0,0.006
1849.0,0.0061
1848.0,0.0061
1847.0,0.0061
1846.0,0.006
1845.0,0.006
1844.0,0.006
1843.0,0.006
1842.0,0.006
1841.0,0.006
1840.0,0.006
1839.0,0.006
1838.0,0.0061
1837.0,0.0061
1836.0,0.0061
1835.0,0.0061
1834.0,0.006
1833.0,0.006
1832.0,0.006
1831.0,0.006
1830.0,0.006
1829.0,0.006
1828.0,0.0061
1827.0,0.0062
1826.0,0.0063
1825.0,0.0063
1824.0,0.0063
1823.0,0.0063
1822.0,0.0062
1821.0,0.0062
1820.0,0.0062
1819.0,0.0062
1818.0,0.0062
1817.0,0.0062
1816.0,0.0062
1815.0,0.0062
1814.0,0.0062
1813.0,0.0063
1812.0,0.0064
1811.0,0.0064
1810.0,0.0065
1809.0,0.0065
1808.0,0.0065
1807.0,0.0065
1806.0,0.0065
1805.0,0.0066
1804.0,0.0066
1803.0,0.0066
1802.0,0.0067
1801.0,0.0067
1800.0,0.0067
1799.0,0.0067
1798.0,0.0066
1797.0,0.0066
1796.0,0.0066
1795.0,0.0066
1794.0,0.0067
1793.0,0.0067
1792.0,0.0066
1791.0,0.0066
1790.0,0.0066
1789.0,0.0066
1788.0,0.0066
1787.0,0.0066
1786.0,0.0065
1785.0,0.0065
1784.0,0.0065
1783.0,0.0066
1782.0,0.0066
1781.0,0.0066
1780.0,0.0066
1779.0,0.0066
1778.0,0.0066
1777.0,0.0066
1776.0,0.0067
1775.0,0.0067
1774.0,0.0067
1773.0,0.0067
1772.0,0.0067
1771.0,0.0067
1770.0,0.0067
1769.0,0.0067
1768.0,0.0068
1767.0,0.0068
1766.0,0.0068
1765.0,0.0067
1764.0,0.0067
1763.0,0.0067
1762.0,0.0067
1761.0,0.0068
1760.0,0.0068
1759.0,0.0068
1758.0,0.0069
1757.0,0.0069
1756.0,0.0069
1755.0,0.0069
1754.0,0.0069
1753.0,0.0069
1752.0,0.007
1751.0,0.007
1750.0,0.0071
1749.0,0.0072
1748.0,0.0072
1747.0,0.0073
1746.0,0.0073
1745.0,0.0073
1744.0,0.0074
1743.0,0.0074
1742.0,0.0074
1741.0,0.0074
1740.0,0.0074
1739.0,0.0074
1738.0,0.0074
1737.0,0.0074
1736.0,0.0075
1735.0,0.0075
1734.0,0.0075
1733.0,0.0075
1732.0,0.0075
1731.0,0.0076
1730.0,0.0076
1729.0,0.0076
1728.0,0.0075
1727.0,0.0075
1726.0,0.0075
1725.0,0.0075
1724.0,0.0075
1723.0,0.0076
1722.0,0.0076
1721.0,0.0076
1720.0,0.0077
1719.0,0.0077
1718.0,0.0076
1717.0,0.0076
1716.0,0.0077
1715.0,0.0077
1714.0,0.0078
1713.0,0.0079
1712.0,0.0079
1711.0,0.008
1710.0,0.0081
1709.0,0.0081
1708.0,0.0081
1707.0,0.0081
1706.0,0.0082
1705.0,0.0082
1704.0,0.0082
1703.0,0.0082
1702.0,0.0082
1701.0,0.0083
1700.0,0.0084
1699.0,0.0086
1698.0,0.0088
1697.0,0.0089
1696.0,0.0091
1695.0,0.0091
1694.0,0.0091
1693.0,0.0092
1692.0,0.0093
1691.0,0.0094
1690.0,0.0096
1689.0,0.0097
1688.0,0.0098
1687.0,0.0099
1686.0,0.01
1685.0,0.0102
1684.0,0.0103
1683.0,0.0104
1682.0,0.0104
1681.0,0.0105
1680.0,0.0106
1679.0,0.0107
1678.0,0.0107
1677.0,0.0108
1676.0,0.0109
1675.0,0.0111
1674.0,0.0113
1673.0,0.0113
1672.0,0.0114
1671.0,0.0115
1670.0,0.0116
1669.0,0.0118
1668.0,0.012
1667.0,0.0121
1666.0,0.0122
1665.0,0.0122
1664.0,0.0124
1663.0,0.0125
1662.0,0.0126
1661.0,0.0128
1660.0,0.0129
1659.0,0.0129
1658.0,0.013
1657.0,0.013
1656.0,0.013
1655.0,0.013
1654.0,0.0132
1653.0,0.0135
1652.0,0.0137
1651.0,0.0137
1650.0,0.0137
1649.0,0.0138
1648.0,0.0138
1647.0,0.0139
1646.0,0.014
1645.0,0.014
1644.0,0.014
1643.0,0.0139
1642.0,0.0138
1641.0,0.0138
1640.0,0.0137
1639.0,0.0137
1638.0,0.0136
1637.0,0.0135
1636.0,0.0132
1635.0,0.0131
1634.0,0.013
1633.0,0.013
1632.0,0.013
1631.0,0.013
1630.0,0.013
1629.0,0.0129
1628.0,0.0129
1627.0,0.0128
1626.0,0.0127
1625.0,0.0126
1624.0,0.0125
1623.0,0.0124
1622.0,0.0122
1621.0,0.0122
1620.0,0.0121
1619.0,0.012
1618.0,0.0119
1617.0,0.0118
1616.0,0.0117
1615.0,0.0117
1614.0,0.0117
1613.0,0.0116
1612.0,0.0116
1611.0,0.0116
1610.0,0.0116
1609.0,0.0117
1608.0,0.0118
1607.0,0.012
1606.0,0.0123
1605.0,0.0126
1604.0,0.0131
1603.0,0.0136
1602.0,0.014
1601.0,0.0142
1600.0,0.0142
1599.0,0.014
1598.0,0.0136
1597.0,0.0132
1596.0,0.0128
1595.0,0.0125
1594.0,0.0122
1593.0,0.012
1592.0,0.0119
1591.0,0.0117
1590.0,0.0115
1589.0,0.0114
1588.0,0.0113
1587.0,0.0113
1586.0,0.0114
1585.0,0.0115
1584.0,0.0116
1583.0,0.0117
1582.0,0.0116
1581.0,0.0115
1580.0,0.0113
1579.0,0.0112
1578.0,0.011
1577.0,0.0107
1576.0,0.0106
1575.0,0.0105
1574.0,0.0105
1573.0,0.0105
1572.0,0.0104
1571.0,0.0104
1570.0,0.0104
1569.0,0.0103
1568.0,0.0102
1567.0,0.0102
1566.0,0.0101
1565.0,0.0101
1564.0,0.0101
1563.0,0.0101
1562.0,0.0101
1561.0,0.0101
1560.0,0.0099
1559.0,0.0098
1558.0,0.0098
1557.0,0.0098
1556.0,0.0097
1555.0,0.0097
1554.0,0.0097
1553.0,0.0097
1552.0,0.0097
1551.0,0.0098
1550.0,0.0098
1549.0,0.0099
1548.0,0.0098
1547.0,0.0098
1546.0,0.0098
1545.0,0.0098
1544.0,0.0099
1543.0,0.01
1542.0,0.0099
1541.0,0.0098
1540.0,0.0097
1539.0,0.0098
1538.0,0.0099
1537.0,0.0099
1536.0,0.0099
1535.0,0.0099
1534.0,0.01
1533.0,0.01
1532.0,0.01
1531.0,0.0099
1530.0,0.0099
1529.0,0.0098
1528.0,0.0098
1527.0,0.0098
1526.0,0.0098
1525.0,0.0098
1524.0,0.0098
1523.0,0.0099
1522.0,0.0099
1521.0,0.0098
1520.0,0.0097
1519.0,0.0096
1518.0,0.0095
1517.0,0.0094
1516.0,0.0092
1515.0,0.0091
1514.0,0.009
1513.0,0.009
1512.0,0.009
1511.0,0.009
1510.0,0.009
1509.0,0.0089
1508.0,0.0087
1507.0,0.0086
1506.0,0.0087
1505.0,0.0086
1504.0,0.0086
1503.0,0.0085
1502.0,0.0085
1501.0,0.0086
1500.0,0.0087
1499.0,0.0091
1498.0,0.01
1497.0,0.0117
1496.0,0.014
1495.0,0.0161
1494.0,0.0178
1493.0,0.0188
1492.0,0.0191
1491.0,0.0184
1490.0,0.017
1489.0,0.0156
1488.0,0.0146
1487.0,0.0139
1486.0,0.0133
1485.0,0.0129
1484.0,0.0126
1483.0,0.0122
1482.0,0.0119
1481.0,0.0118
1480.0,0.0117
1479.0,0.0116
1478.0,0.0115
1477.0,0.0115
1476.0,0.0114
1475.0,0.0112
1474.0,0.011
1473.0,0.0109
1472.0,0.0108
1471.0,0.0108
1470.0,0.0107
1469.0,0.0107
1468.0,0.0106
1467.0,0.0106
1466.0,0.0105
1465.0,0.0105
1464.0,0.0105
1463.0,0.0104
1462.0,0.0104
1461.0,0.0104
1460.0,0.0104
1459.0,0.0105
1458.0,0.0113
1457.0,0.0132
1456.0,0.0154
1455.0,0.0172
1454.0,0.0186
1453.0,0.0198
1452.0,0.0205
1451.0,0.0206
1450.0,0.0202
1449.0,0.0196
1448.0,0.019
1447.0,0.0184
1446.0,0.018
1445.0,0.0177
1444.0,0.0174
1443.0,0.017
1442.0,0.0167
1441.0,0.0164
1440.0,0.0161
1439.0,0.0158
1438.0,0.0154
1437.0,0.015
1436.0,0.0146
1435.0,0.0143
1434.0,0.0141
1433.0,0.0139
1432.0,0.0137
1431.0,0.0135
1430.0,0.0132
1429.0,0.013
1428.0,0.0129
1427.0,0.0128
1426.0,0.0127
1425.0,0.0125
1424.0,0.0124
1423.0,0.0122
1422.0,0.0122
1421.0,0.0121
1420.0,0.0121
1419.0,0.012
1418.0,0.012
1417.0,0.0119
1416.0,0.0118
1415.0,0.0118
1414.0,0.0118
1413.0,0.0118
1412.0,0.0118
1411.0,0.0117
1410.0,0.0117
1409.0,0.0117
1408.0,0.0116
1407.0,0.0116
1406.0,0.0116
1405.0,0.0116
1404.0,0.0116
1403.0,0.0116
1402.0,0.0115
1401.0,0.0115
1400.0,0.0115
1399.0,0.0115
1398.0,0.0116
1397.0,0.0116
1396.0,0.0116
1395.0,0.0115
1394.0,0.0115
1393.0,0.0115
1392.0,0.0115
1391.0,0.0116
1390.0,0.0116
1389.0,0.0116
1388.0,0.0117
1387.0,0.0118
1386.0,0.0119
1385.0,0.0121
1384.0,0.0122
1383.0,0.0123
1382.0,0.0125
1381.0,0.0126
1380.0,0.0127
1379.0,0.0129
1378.0,0.013
1377.0,0.0131
1376.0,0.0132
1375.0,0.0133
1374.0,0.0133
1373.0,0.0134
1372.0,0.0134
1371.0,0.0134
1370.0,0.0134
1369.0,0.0134
1368.0,0.0134
1367.0,0.0135
1366.0,0.0135
1365.0,0.0135
1364.0,0.0134
1363.0,0.0133
1362.0,0.0132
1361.0,0.0132
1360.0,0.0132
1359.0,0.0131
1358.0,0.0131
1357.0,0.013
1356.0,0.0129
1355.0,0.0129
1354.0,0.0129
1353.0,0.0129
1352.0,0.013
1351.0,0.013
1350.0,0.013
1349.0,0.013
1348.0,0.013
1347.0,0.013
1346.0,0.0129
1345.0,0.0129
1344.0,0.0128
1343.0,0.0128
1342.0,0.0127
1341.0,0.0126
1340.0,0.0126
1339.0,0.0126
1338.0,0.0126
1337.0,0.0126
1336.0,0.0126
1335.0,0.0126
1334.0,0.0126
1333.0,0.0126
1332.0,0.0127
1331.0,0.0128
1330.0,0.0129
1329.0,0.0131
1328.0,0.0132
1327.0,0.0132
1326.0,0.0132
1325.0,0.0131
1324.0,0.0131
1323.0,0.0131
1322.0,0.013
1321.0,0.013
1320.0,0.013
1319.0,0.013
1318.0,0.013
1317.0,0.013
1316.0,0.013
1315.0,0.0131
1314.0,0.0131
1313.0,0.0132
1312.0,0.0132
1311.0,0.0133
1310.0,0.0133
1309.0,0.0133
1308.0,0.0133
1307.0,0.0133
1306.0,0.0133
1305.0,0.0133
1304.0,0.0133
1303.0,0.0132
1302.0,0.0132
1301.0,0.0132
1300.0,0.0131
1299.0,0.0131
1298.0,0.0131
1297.0,0.0131
1296.0,0.0131
1295.0,0.0131
1294.0,0.0131
1293.0,0.0132
1292.0,0.0132
1291.0,0.0132
1290.0,0.0132
1289.0,0.0132
1288.0,0.0132
1287.0,0.0132
1286.0,0.0132
1285.0,0.0132
1284.0,0.0132
1283.0,0.0133
1282.0,0.0133
1281.0,0.0133
1280.0,0.0133
1279.0,0.0133
1278.0,0.0133
1277.0,0.0133
1276.0,0.0133
1275.0,0.0133
1274.0,0.0133
1273.0,0.0133
1272.0,0.0132
1271.0,0.0132
1270.0,0.0131
1269.0,0.0131
1268.0,0.0131
1267.0,0.0131
1266.0,0.0132
1265.0,0.0132
1264.0,0.0133
1263.0,0.0133
1262.0,0.0133
1261.0,0.0133
1260.0,0.0133
1259.0,0.0133
1258.0,0.0133
1257.0,0.0133
1256.0,0.0133
1255.0,0.0133
1254.0,0.0133
1253.0,0.0133
1252.0,0.0133
1251.0,0.0133
1250.0,0.0132
1249.0,0.0132
1248.0,0.0132
1247.0,0.0133
1246.0,0.0133
1245.0,0.0133
1244.0,0.0133
1243.0,0.0133
1242.0,0.0133
1241.0,0.0133
1240.0,0.0133
1239.0,0.0133
1238.0,0.0133
1237.0,0.0133
1236.0,0.0133
1235.0,0.0133
1234.0,0.0134
1233.0,0.0134
1232.0,0.0133
1231.0,0.0133
1230.0,0.0133
1229.0,0.0134
1228.0,0.0135
1227.0,0.0135
1226.0,0.0135
1225.0,0.0135
1224.0,0.0135
1223.0,0.0135
1222.0,0.0135
1221.0,0.0135
1220.0,0.0135
1219.0,0.0136
1218.0,0.0136
1217.0,0.0136
1216.0,0.0136
1215.0,0.0137
1214.0,0.0137
1213.0,0.0137
1212.0,0.0137
1211.0,0.0138
1210.0,0.0138
1209.0,0.0138
1208.0,0.0139
1207.0,0.0139
1206.0,0.014
1205.0,0.014
1204.0,0.014
1203.0,0.014
1202.0,0.014
1201.0,0.0141
1200.0,0.0142
1199.0,0.0143
1198.0,0.0144
1197.0,0.0145
1196.0,0.0145
1195.0,0.0146
1194.0,0.0147
1193.0,0.0147
1192.0,0.0148
1191.0,0.0149
1190.0,0.0149
1189.0,0.015
1188.0,0.0152
1187.0,0.0153
1186.0,0.0154
1185.0,0.0155
1184.0,0.0156
1183.0,0.0158
1182.0,0.016
1181.0,0.0161
1180.0,0.0162
1179.0,0.0161
1178.0,0.0161
1177.0,0.016
1176.0,0.0159
1175.0,0.0159
1174.0,0.0159
1173.0,0.016
1172.0,0.016
1171.0,0.016
1170.0,0.016
1169.0,0.016
1168.0,0.0159
1167.0,0.0159
1166.0,0.0158
1165.0,0.0159
1164.0,0.016
1163.0,0.0161
1162.0,0.0162
1161.0,0.0162
1160.0,0.0163
1159.0,0.0164
1158.0,0.0166
1157.0,0.0168
1156.0,0.0171
1155.0,0.0174
1154.0,0.0176
1153.0,0.0176
1152.0,0.0176
1151.0,0.0175
1150.0,0.0174
1149.0,0.0172
1148.0,0.0171
1147.0,0.017
1146.0,0.017
1145.0,0.0169
1144.0,0.0168
1143.0,0.0168
1142.0,0.0168
1141.0,0.0168
1140.0,0.0168
1139.0,0.0169
1138.0,0.0169
1137.0,0.0169
1136.0,0.0169
1135.0,0.0169
1134.0,0.0169
1133.0,0.0169
1132.0,0.017
1131.0,0.0171
1130.0,0.0171
1129.0,0.0171
1128.0,0.0171
1127.0,0.017
1126.0,0.017
1125.0,0.017
1124.0,0.017
1123.0,0.017
1122.0,0.0171
1121.0,0.0171
1120.0,0.0171
1119.0,0.017
1118.0,0.017
1117.0,0.017
1116.0,0.017
1115.0,0.017
1114.0,0.017
1113.0,0.017
1112.0,0.0171
1111.0,0.0171
1110.0,0.0172
1109.0,0.0172
1108.0,0.0172
1107.0,0.0171
1106.0,0.0171
1105.0,0.017
1104.0,0.017
1103.0,0.0169
1102.0,0.0169
1101.0,0.0169
1100.0,0.0169
1099.0,0.0169
1098.0,0.0168
1097.0,0.0167
1096.0,0.0167
1095.0,0.0166
1094.0,0.0166
1093.0,0.0167
1092.0,0.0167
1091.0,0.0167
1090.0,0.0167
1089.0,0.0166
1088.0,0.0166
1087.0,0.0165
1086.0,0.0165
1085.0,0.0165
1084.0,0.0166
1083.0,0.0166
1082.0,0.0167
1081.0,0.0167
1080.0,0.0169
1079.0,0.0169
1078.0,0.017
1077.0,0.017
1076.0,0.017
1075.0,0.0171
1074.0,0.0174
1073.0,0.0176
1072.0,0.0179
1071.0,0.0181
1070.0,0.0182
1069.0,0.0183
1068.0,0.0183
1067.0,0.0183
1066.0,0.0182
1065.0,0.0181
1064.0,0.018
1063.0,0.0179
1062.0,0.0177
1061.0,0.0175
1060.0,0.0174
1059.0,0.0172
1058.0,0.0171
1057.0,0.017
1056.0,0.017
1055.0,0.0169
1054.0,0.0169
1053.0,0.0168
1052.0,0.0167
1051.0,0.0166
1050.0,0.0166
1049.0,0.0166
1048.0,0.0166
1047.0,0.0166
1046.0,0.0166
1045.0,0.0166
1044.0,0.0165
1043.0,0.0164
1042.0,0.0163
1041.0,0.0163
1040.0,0.0163
1039.0,0.0163
1038.0,0.0164
1037.0,0.0166
1036.0,0.0168
1035.0,0.0173
1034.0,0.018
1033.0,0.0187
1032.0,0.0196
1031.0,0.0204
1030.0,0.0211
1029.0,0.0216
1028.0,0.0218
1027.0,0.0219
1026.0,0.0217
1025.0,0.0214
1024.0,0.0211
1023.0,0.0208
1022.0,0.0205
1021.0,0.0203
1020.0,0.02
1019.0,0.0198
1018.0,0.0195
1017.0,0.0194
1016.0,0.0192
1015.0,0.0191
1014.0,0.019
1013.0,0.0189
1012.0,0.0189
1011.0,0.0188
1010.0,0.0188
1009.0,0.0187
1008.0,0.0188
1007.0,0.0188
1006.0,0.019
1005.0,0.0192
1004.0,0.0193
1003.0,0.0194
1002.0,0.0193
1001.0,0.0192
1000.0,0.0191
999.0,0.0189
998.0,0.0188
997.0,0.0186
996.0,0.0185
995.0,0.0185
994.0,0.0184
993.0,0.0184
992.0,0.0184
991.0,0.0184
990.0,0.0184
989.0,0.0185
988.0,0.0187
987.0,0.0188
986.0,0.0189
985.0,0.019
984.0,0.019
983.0,0.0191
982.0,0.0192
981.0,0.0192
980.0,0.0193
979.0,0.0193
978.0,0.0194
977.0,0.0194
976.0,0.0194
975.0,0.0194
974.0,0.0194
973.0,0.0194
972.0,0.0194
971.0,0.0195
970.0,0.0195
969.0,0.0195
968.0,0.0197
967.0,0.0199
966.0,0.0201
965.0,0.0202
964.0,0.0203
963.0,0.0203
962.0,0.0203
961.0,0.0203
960.0,0.0204
959.0,0.0203
958.0,0.0202
957.0,0.0201
956.0,0.0201
955.0,0.02
954.0,0.02
953.0,0.0199
952.0,0.0199
951.0,0.0198
950.0,0.0199
949.0,0.0199
948.0,0.0201
947.0,0.0203
946.0,0.0204
945.0,0.0205
944.0,0.0206
943.0,0.0208
942.0,0.0209
941.0,0.0211
940.0,0.0211
939.0,0.021
938.0,0.0209
937.0,0.0208
936.0,0.0208
935.0,0.0208
934.0,0.0208
933.0,0.0209
932.0,0.0208
931.0,0.0207
930.0,0.0206
929.0,0.0206
928.0,0.0207
927.0,0.0208
926.0,0.0209
925.0,0.0209
924.0,0.0209
923.0,0.0209
922.0,0.021
921.0,0.0211
920.0,0.0213
919.0,0.0215
918.0,0.0216
917.0,0.0218
916.0,0.0219
915.0,0.0221
914.0,0.0225
913.0,0.0229
912.0,0.0234
911.0,0.0239
910.0,0.0243
909.0,0.0246
908.0,0.0251
907.0,0.0256
906.0,0.026
905.0,0.0262
904.0,0.0261
903.0,0.026
902.0,0.0257
901.0,0.0254
900.0,0.0251
899.0,0.0247
898.0,0.0244
897.0,0.0241
896.0,0.0239
895.0,0.0238
894.0,0.0238
893.0,0.0238
892.0,0.0238
891.0,0.0238
890.0,0.0238
889.0,0.0237
888.0,0.0236
887.0,0.0236
886.0,0.0237
885.0,0.0237
884.0,0.0237
883.0,0.0237
882.0,0.0237
881.0,0.0238
880.0,0.0239
879.0,0.024
878.0,0.0241
877.0,0.0241
876.0,0.024
875.0,0.0238
874.0,0.0237
873.0,0.0236
872.0,0.0236
871.0,0.0237
870.0,0.0239
869.0,0.024
868.0,0.024
867.0,0.0239
866.0,0.0239
865.0,0.0238
864.0,0.0238
863.0,0.0238
862.0,0.0239
861.0,0.024
860.0,0.024
859.0,0.024
858.0,0.0239
857.0,0.0238
856.0,0.0238
855.0,0.0238
854.0,0.0238
853.0,0.0239
852.0,0.0241
851.0,0.0244
850.0,0.0246
849.0,0.025
848.0,0.0252
847.0,0.0255
846.0,0.0257
845.0,0.0259
844.0,0.0261
843.0,0.0262
842.0,0.0263
841.0,0.0263
840.0,0.0263
839.0,0.0262
838.0,0.0261
837.0,0.026
836.0,0.0259
835.0,0.0259
834.0,0.0258
833.0,0.0258
832.0,0.0257
831.0,0.0256
830.0,0.0255
829.0,0.0254
828.0,0.0254
827.0,0.0254
826.0,0.0254
825.0,0.0255
824.0,0.0255
823.0,0.0255
822.0,0.0254
821.0,0.0254
820.0,0.0255
819.0,0.0256
818.0,0.0256
817.0,0.0256
816.0,0.0257
815.0,0.0257
814.0,0.0256
813.0,0.0256
812.0,0.0257
811.0,0.0259
810.0,0.0262
809.0,0.0263
808.0,0.0263
807.0,0.0262
806.0,0.026
805.0,0.0259
804.0,0.0258
803.0,0.0258
802.0,0.0258
801.0,0.0258
800.0,0.0259
799.0,0.0259
798.0,0.026
797.0,0.0261
796.0,0.0262
795.0,0.0263
794.0,0.0264
793.0,0.0264
792.0,0.0264
791.0,0.0264
790.0,0.0265
789.0,0.0269
788.0,0.0274
787.0,0.0278
786.0,0.028
785.0,0.028
784.0,0.0279
783.0,0.0279
782.0,0.028
781.0,0.0283
780.0,0.0286
779.0,0.029
778.0,0.0294
777.0,0.0299
776.0,0.0305
775.0,0.0312
774.0,0.0321
773.0,0.0333
772.0,0.0347
771.0,0.0363
770.0,0.0378
769.0,0.0392
768.0,0.0405
767.0,0.0418
766.0,0.043
765.0,0.0443
764.0,0.0457
763.0,0.0471
762.0,0.0486
761.0,0.0502
760.0,0.0519
759.0,0.0536
758.0,0.0553
757.0,0.0568
756.0,0.058
755.0,0.0587
754.0,0.0591
753.0,0.0592
752.0,0.0594
751.0,0.0598
750.0,0.0602
749.0,0.0607
748.0,0.0611
747.0,0.061
746.0,0.0605
745.0,0.0596
744.0,0.0583
743.0,0.0567
742.0,0.0549
741.0,0.0533
740.0,0.0518
739.0,0.0504
738.0,0.0488
737.0,0.0474
736.0,0.0462
735.0,0.0451
734.0,0.0441
733.0,0.0429
732.0,0.0418
731.0,0.0407
730.0,0.0397
729.0,0.0387
728.0,0.0378
727.0,0.0371
726.0,0.0365
725.0,0.0361
724.0,0.0359
723.0,0.0355
722.0,0.035
721.0,0.0345
720.0,0.0339
719.0,0.0333
718.0,0.0325
717.0,0.0318
716.0,0.031
715.0,0.0303
714.0,0.0297
713.0,0.0294
712.0,0.0295
711.0,0.03
710.0,0.0311
709.0,0.0332
708.0,0.0365
707.0,0.0414
706.0,0.048
705.0,0.0563
704.0,0.0664
703.0,0.0781
702.0,0.091
701.0,0.1051
700.0,0.1199
699.0,0.1345
698.0,0.1479
697.0,0.1588
696.0,0.1652
695.0,0.1651
694.0,0.158
693.0,0.1457
692.0,0.1314
691.0,0.1176
690.0,0.1059
689.0,0.0971
688.0,0.0909
687.0,0.0867
686.0,0.0834
685.0,0.0806
684.0,0.0778
683.0,0.0751
682.0,0.0727
681.0,0.0706
680.0,0.0687
679.0,0.067
678.0,0.0654
677.0,0.0644
676.0,0.0639
675.0,0.0635
674.0,0.0626
673.0,0.0614
672.0,0.0601
671.0,0.0587
670.0,0.0574
669.0,0.0571
668.0,0.0583
667.0,0.0591
666.0,0.0587
665.0,0.0578
664.0,0.0569
663.0,0.0564
662.0,0.0563
661.0,0.0564
660.0,0.0563
659.0,0.0556
658.0,0.0545
657.0,0.0535
656.0,0.0528
655.0,0.0523
654.0,0.0521
653.0,0.0525
652.0,0.0531
651.0,0.0536
650.0,0.0535
649.0,0.0531
648.0,0.0527
647.0,0.0521
646.0,0.0514
645.0,0.0507
644.0,0.0504
643.0,0.0504
642.0,0.0504
641.0,0.0507
640.0,0.0513
639.0,0.052
638.0,0.0527
637.0,0.0533
636.0,0.054
635.0,0.0539
634.0,0.0527
633.0,0.051
632.0,0.0501
631.0,0.0504
630.0,0.0511
629.0,0.0517
628.0,0.0519
627.0,0.052
626.0,0.0522
625.0,0.0528
624.0,0.0536
623.0,0.0543
622.0,0.0547
621.0,0.0548
620.0,0.0544
619.0,0.0535
618.0,0.0526
617.0,0.0525
616.0,0.0534
615.0,0.0547
614.0,0.0554
613.0,0.0554
612.0,0.0549
611.0,0.0543
610.0,0.054
609.0,0.0541
608.0,0.0542
607.0,0.0543
606.0,0.0547
605.0,0.0558
604.0,0.057
603.0,0.0569
602.0,0.0554
601.0,0.0539
600.0,0.0535
