cm-1,A
4000.0,0.007800070204414977
3999.0,0.007755855953228474
3998.0,0.007755855953228474
3997.0,0.007755855953228474
3996.0,0.007711646202907652
3995.0,0.007800070204414977
3994.0,0.007932739972333236
3993.0,0.008109696063975047
3992.0,0.008242460465651913
3991.0,0.008286724286910463
3990.0,0.008198201155356077
3989.0,0.008198201155356077
3988.0,0.008286724286910463
3987.0,0.008463824699968647
3986.0,0.008685301823389224
3985.0,0.008773924307505121
3984.0,0.008640997362049818
3983.0,0.008463824699968647
3982.0,0.008375265465994541
3981.0,0.008375265465994541
3980.0,0.008419542825660153
3979.0,0.00850811108984062
3978.0,0.00850811108984062
3977.0,0.008419542825660153
3976.0,0.008286724286910463
3975.0,0.008109696063975047
3974.0,0.007976972236149349
3973.0,0.007844288957383316
3972.0,0.007755855953228474
3971.0,0.007711646202907652
3970.0,0.007755855953228474
3969.0,0.007888512213050314
3968.0,0.008153946355103248
3967.0,0.008330992620051436
3966.0,0.008375265465994541
3965.0,0.008242460465651913
3964.0,0.008109696063975047
3963.0,0.008109696063975047
3962.0,0.008198201155356077
3961.0,0.008330992620051436
3960.0,0.008330992620051436
3959.0,0.008242460465651913
3958.0,0.008153946355103248
3957.0,0.008109696063975047
3956.0,0.008065450281052211
3955.0,0.008065450281052211
3954.0,0.008065450281052211
3953.0,0.008109696063975047
3952.0,0.008109696063975047
3951.0,0.008065450281052211
3950.0,0.008021209005416363
3949.0,0.008021209005416363
3948.0,0.007976972236149349
3947.0,0.007844288957383316
3946.0,0.0075790439479759275
3945.0,0.007225635744644521
3944.0,0.007004901568658406
3943.0,0.007049039429553483
3942.0,0.007269796045857202
3941.0,0.007534852191956709
3940.0,0.007755855953228474
3939.0,0.007976972236149349
3938.0,0.008153946355103248
3937.0,0.008286724286910463
3936.0,0.008286724286910463
3935.0,0.008286724286910463
3934.0,0.008286724286910463
3933.0,0.008242460465651913
3932.0,0.008109696063975047
3931.0,0.007932739972333236
3930.0,0.007888512213050314
3929.0,0.008021209005416363
3928.0,0.008153946355103248
3927.0,0.008242460465651913
3926.0,0.008286724286910463
3925.0,0.008330992620051436
3924.0,0.008198201155356077
3923.0,0.007932739972333236
3922.0,0.00762324020119709
3921.0,0.007358130121602358
3920.0,0.007269796045857202
3919.0,0.007313960837872058
3918.0,0.007534852191956709
3917.0,0.007976972236149349
3916.0,0.008375265465994541
3915.0,0.008463824699968647
3914.0,0.008375265465994541
3913.0,0.008286724286910463
3912.0,0.008330992620051436
3911.0,0.008375265465994541
3910.0,0.008419542825660153
3909.0,0.008330992620051436
3908.0,0.008242460465651913
3907.0,0.008065450281052211
3906.0,0.007844288957383316
3905.0,0.00762324020119709
3904.0,0.007402303897961815
3903.0,0.007137328610972382
3902.0,0.00696076819309055
3901.0,0.007137328610972382
3900.0,0.007755855953228474
3899.0,0.008463824699968647
3898.0,0.008773924307505121
3897.0,0.008640997362049818
3896.0,0.008330992620051436
3895.0,0.008153946355103248
3894.0,0.008065450281052211
3893.0,0.008109696063975047
3892.0,0.00850811108984062
3891.0,0.008995559669244813
3890.0,0.008995559669244813
3889.0,0.008375265465994541
3888.0,0.007976972236149349
3887.0,0.008286724286910463
3886.0,0.008906891951112605
3885.0,0.009261671492462709
3884.0,0.008995559669244813
3883.0,0.008463824699968647
3882.0,0.008463824699968647
3881.0,0.009039900317800775
3880.0,0.009572341514736404
3879.0,0.009483555971770974
3878.0,0.008818242332126802
3877.0,0.008198201155356077
3876.0,0.008153946355103248
3875.0,0.008286724286910463
3874.0,0.008153946355103248
3873.0,0.007534852191956709
3872.0,0.006828394969235152
3871.0,0.006696062080525422
3870.0,0.007181479933320523
3869.0,0.007711646202907652
3868.0,0.007667440952535687
3867.0,0.00762324020119709
3866.0,0.008198201155356077
3865.0,0.008951223547323472
3864.0,0.009172949432521227
3863.0,0.008906891951112605
3862.0,0.00850811108984062
3861.0,0.008198201155356077
3860.0,0.008109696063975047
3859.0,0.008153946355103248
3858.0,0.008153946355103248
3857.0,0.008065450281052211
3856.0,0.007844288957383316
3855.0,0.007667440952535687
3854.0,0.007800070204414977
3853.0,0.008552401996197112
3852.0,0.009039900317800775
3851.0,0.008596697419959609
3850.0,0.00850811108984062
3849.0,0.009217308196862062
3848.0,0.009794384815193347
3847.0,0.00974996707218323
3846.0,0.009439170005980158
3845.0,0.009128595198514056
3844.0,0.008906891951112605
3843.0,0.008640997362049818
3842.0,0.008375265465994541
3841.0,0.008065450281052211
3840.0,0.008065450281052211
3839.0,0.008330992620051436
3838.0,0.008818242332126802
3837.0,0.009172949432521227
3836.0,0.009128595198514056
3835.0,0.008951223547323472
3834.0,0.008906891951112605
3833.0,0.009217308196862062
3832.0,0.00966114521239847
3831.0,0.009972101229705377
3830.0,0.010060986715464404
3829.0,0.01001654169860089
3828.0,0.01001654169860089
3827.0,0.010149890396819572
3826.0,0.010149890396819572
3825.0,0.00974996707218323
3824.0,0.00908424549391551
3823.0,0.008596697419959609
3822.0,0.008552401996197112
3821.0,0.008862564879688284
3820.0,0.008951223547323472
3819.0,0.008375265465994541
3818.0,0.008065450281052211
3817.0,0.008773924307505121
3816.0,0.010060986715464404
3815.0,0.010817248744452446
3814.0,0.010683695010048622
3813.0,0.010149890396819572
3812.0,0.01001654169860089
3811.0,0.01001654169860089
3810.0,0.009794384815193347
3809.0,0.009527946474380489
3808.0,0.009616741093766423
3807.0,0.009927665307847056
3806.0,0.01001654169860089
3805.0,0.009483555971770974
3804.0,0.008951223547323472
3803.0,0.00908424549391551
3802.0,0.009705553871561357
3801.0,0.010194349063173958
3800.0,0.010060986715464404
3799.0,0.009350411681145587
3798.0,0.009172949432521227
3797.0,0.009838807101520963
3796.0,0.010550182333308289
3795.0,0.010906307389674463
3794.0,0.010906307389674463
3793.0,0.010950843561779777
3792.0,0.011129033935354915
3791.0,0.011262724711199823
3790.0,0.011307297450183107
3789.0,0.011218156546359825
3788.0,0.011084479487313281
3787.0,0.01086177578421088
3786.0,0.010683695010048622
3785.0,0.010683695010048622
3784.0,0.010728208358306901
3783.0,0.010639186223752484
3782.0,0.010416710688994968
3781.0,0.010327752376126709
3780.0,0.010416710688994968
3779.0,0.010550182333308289
3778.0,0.010550182333308289
3777.0,0.01046119667949763
3776.0,0.010505687227290839
3775.0,0.010683695010048622
3774.0,0.010817248744452446
3773.0,0.010728208358306901
3772.0,0.010505687227290839
3771.0,0.010505687227290839
3770.0,0.010594681998483901
3769.0,0.010594681998483901
3768.0,0.010416710688994968
3767.0,0.010283280051895272
3766.0,0.01046119667949763
3765.0,0.010728208358306901
3764.0,0.010683695010048622
3763.0,0.010416710688994968
3762.0,0.010283280051895272
3761.0,0.010416710688994968
3760.0,0.010639186223752484
3759.0,0.01077272626946324
3758.0,0.01077272626946324
3757.0,0.010594681998483901
3756.0,0.010194349063173958
3755.0,0.00974996707218323
3754.0,0.009483555971770974
3753.0,0.009350411681145587
3752.0,0.009306039320248427
3751.0,0.00966114521239847
3750.0,0.010505687227290839
3749.0,0.010906307389674463
3748.0,0.010327752376126709
3747.0,0.009616741093766423
3746.0,0.009616741093766423
3745.0,0.010416710688994968
3744.0,0.011351874764248926
3743.0,0.011351874764248926
3742.0,0.010283280051895272
3741.0,0.009838807101520963
3740.0,0.010149890396819572
3739.0,0.010283280051895272
3738.0,0.009972101229705377
3737.0,0.009439170005980158
3736.0,0.009039900317800775
3735.0,0.0087296108049002
3734.0,0.008685301823389224
3733.0,0.009217308196862062
3732.0,0.01023881228122181
3731.0,0.01117359295472431
3730.0,0.011530229790124524
3729.0,0.011530229790124524
3728.0,0.011664044143949504
3727.0,0.011842527443247208
3726.0,0.0119764380713403
3725.0,0.0119764380713403
3724.0,0.011887159731648111
3723.0,0.011797899741219142
3722.0,0.011708658092512314
3721.0,0.011574829993696856
3720.0,0.011441043121384498
3719.0,0.011351874764248926
3718.0,0.011396456654336085
3717.0,0.011396456654336085
3716.0,0.01117359295472431
3715.0,0.01086177578421088
3714.0,0.010639186223752484
3713.0,0.010639186223752484
3712.0,0.010906307389674463
3711.0,0.011441043121384498
3710.0,0.011887159731648111
3709.0,0.0119764380713403
3708.0,0.011887159731648111
3707.0,0.011887159731648111
3706.0,0.011842527443247208
3705.0,0.011797899741219142
3704.0,0.011708658092512314
3703.0,0.011753276624621556
3702.0,0.011842527443247208
3701.0,0.011931796607364653
3700.0,0.011842527443247208
3699.0,0.011708658092512314
3698.0,0.011842527443247208
3697.0,0.012199714248127602
3696.0,0.012512493866907004
3695.0,0.012512493866907004
3694.0,0.012333735073725371
3693.0,0.012065734767841452
3692.0,0.011753276624621556
3691.0,0.011307297450183107
3690.0,0.011039929609661936
3689.0,0.011084479487313281
3688.0,0.011351874764248926
3687.0,0.011441043121384498
3686.0,0.011530229790124524
3685.0,0.011931796607364653
3684.0,0.012378417874516323
3683.0,0.012467797270160563
3682.0,0.012065734767841452
3681.0,0.011574829993696856
3680.0,0.01117359295472431
3679.0,0.01077272626946324
3678.0,0.01037222925484893
3677.0,0.010327752376126709
3676.0,0.010950843561779777
3675.0,0.0119764380713403
3674.0,0.01215504982870197
3673.0,0.011441043121384498
3672.0,0.01117359295472431
3671.0,0.011797899741219142
3670.0,0.012512493866907004
3669.0,0.012870232340102872
3668.0,0.01260190086298274
3667.0,0.01215504982870197
3666.0,0.012199714248127602
3665.0,0.012557195064198723
3664.0,0.012870232340102872
3663.0,0.013004460275618523
3662.0,0.013004460275618523
3661.0,0.012780770091995297
3660.0,0.012333735073725371
3659.0,0.011842527443247208
3658.0,0.011530229790124524
3657.0,0.011664044143949504
3656.0,0.0119764380713403
3655.0,0.0119764380713403
3654.0,0.011485634166333858
3653.0,0.01086177578421088
3652.0,0.010416710688994968
3651.0,0.009972101229705377
3650.0,0.009616741093766423
3649.0,0.009838807101520963
3648.0,0.01046119667949763
3647.0,0.01086177578421088
3646.0,0.011129033935354915
3645.0,0.011485634166333858
3644.0,0.011931796607364653
3643.0,0.012333735073725371
3642.0,0.012512493866907004
3641.0,0.012467797270160563
3640.0,0.012467797270160563
3639.0,0.01260190086298274
3638.0,0.012825498912458322
3637.0,0.012959713020733288
3636.0,0.013004460275618523
3635.0,0.013093968619278806
3634.0,0.013273040668781544
3633.0,0.013273040668781544
3632.0,0.012959713020733288
3631.0,0.012557195064198723
3630.0,0.012333735073725371
3629.0,0.012691326268817527
3628.0,0.013407393177789162
3627.0,0.013765869865004277
3626.0,0.013586594534531482
3625.0,0.013631406429727155
3624.0,0.01372104409400876
3623.0,0.013407393177789162
3622.0,0.012870232340102872
3621.0,0.012467797270160563
3620.0,0.012289056869694281
3619.0,0.012244383261476699
3618.0,0.012021084124518078
3617.0,0.011530229790124524
3616.0,0.01117359295472431
3615.0,0.011262724711199823
3614.0,0.011664044143949504
3613.0,0.012110390002254778
3612.0,0.012378417874516323
3611.0,0.012557195064198723
3610.0,0.012870232340102872
3609.0,0.013362604389846044
3608.0,0.01381070026317599
3607.0,0.013990068146738865
3606.0,0.01385553528947936
3605.0,0.013586594534531482
3604.0,0.013452186585275916
3603.0,0.013496984613259544
3602.0,0.013586594534531482
3601.0,0.013631406429727155
3600.0,0.013676222949234651
3599.0,0.013676222949234651
3598.0,0.013676222949234651
3597.0,0.01372104409400876
3596.0,0.01381070026317599
3595.0,0.013990068146738865
3594.0,0.014169510141607944
3593.0,0.014304140310157809
3592.0,0.014304140310157809
3591.0,0.014169510141607944
3590.0,0.013945219230304673
3589.0,0.01372104409400876
3588.0,0.013676222949234651
3587.0,0.013900374944870508
3586.0,0.014124642691606404
3585.0,0.014079779876432497
3584.0,0.013990068146738865
3583.0,0.01403492169512921
3582.0,0.01403492169512921
3581.0,0.013990068146738865
3580.0,0.01403492169512921
3579.0,0.014304140310157809
3578.0,0.014753209197138295
3577.0,0.015247721884586563
3576.0,0.015517693597737248
3575.0,0.015517693597737248
3574.0,0.01538268676325183
3573.0,0.015292705517326866
3572.0,0.015157768594724175
3571.0,0.014843078722943437
3570.0,0.014259258949925524
3569.0,0.013362604389846044
3568.0,0.012512493866907004
3567.0,0.012199714248127602
3566.0,0.012557195064198723
3565.0,0.013138729709955221
3564.0,0.013541787262693505
3563.0,0.013945219230304673
3562.0,0.014304140310157809
3561.0,0.014663358264387139
3560.0,0.014843078722943437
3559.0,0.014977917890464765
3558.0,0.015022873584506602
3557.0,0.015112798935672522
3556.0,0.015157768594724175
3555.0,0.015112798935672522
3554.0,0.014932966849499074
3553.0,0.014663358264387139
3552.0,0.0144837121472845
3551.0,0.01452861671041239
3550.0,0.014618439768003144
3549.0,0.014663358264387139
3548.0,0.0144837121472845
3547.0,0.014259258949925524
3546.0,0.01403492169512921
3545.0,0.01403492169512921
3544.0,0.014169510141607944
3543.0,0.014259258949925524
3542.0,0.014349026309051105
3541.0,0.014573525916998342
3540.0,0.014977917890464765
3539.0,0.015427684378367834
3538.0,0.015742798294583915
3537.0,0.01578783323856614
3536.0,0.015607721475734415
3535.0,0.01538268676325183
3534.0,0.015202742910707112
3533.0,0.015202742910707112
3532.0,0.015202742910707112
3531.0,0.015247721884586563
3530.0,0.015202742910707112
3529.0,0.015157768594724175
3528.0,0.015067833932588037
3527.0,0.014977917890464765
3526.0,0.014932966849499074
3525.0,0.014932966849499074
3524.0,0.015067833932588037
3523.0,0.015247721884586563
3522.0,0.015337693809893471
3521.0,0.015337693809893471
3520.0,0.015337693809893471
3519.0,0.01538268676325183
3518.0,0.015562705203923999
3517.0,0.015742798294583915
3516.0,0.01596801972881945
3515.0,0.016193358021584725
3514.0,0.01628352608625061
3513.0,0.016148281008528276
3512.0,0.015877917138889863
3511.0,0.015607721475734415
3510.0,0.015562705203923999
3509.0,0.01578783323856614
3508.0,0.016103208673694303
3507.0,0.016373712875465518
3506.0,0.016509028184833463
3505.0,0.01646391839700767
3504.0,0.01628352608625061
3503.0,0.016058141016111804
3502.0,0.015877917138889863
3501.0,0.015832872853011715
3500.0,0.01578783323856614
3499.0,0.015742798294583915
3498.0,0.015742798294583915
3497.0,0.015832872853011715
3496.0,0.016058141016111804
3495.0,0.01632861713980338
3494.0,0.016554142658660398
3493.0,0.016644385668211692
3492.0,0.016644385668211692
3491.0,0.016644385668211692
3490.0,0.016599261819461697
3489.0,0.016599261819461697
3488.0,0.016644385668211692
3487.0,0.01677978535189717
3486.0,0.017005545341335804
3485.0,0.01727661233145472
3484.0,0.017547848615010242
3483.0,0.017774008325325275
3482.0,0.017864505196230507
3481.0,0.01781925440359733
3480.0,0.017547848615010242
3479.0,0.017141057687924732
3478.0,0.01677978535189717
3477.0,0.016554142658660398
3476.0,0.016644385668211692
3475.0,0.016960383953898095
3474.0,0.01727661233145472
3473.0,0.017502630802287644
3472.0,0.017547848615010242
3471.0,0.017502630802287644
3470.0,0.017412209298337533
3469.0,0.017321806616515723
3468.0,0.017141057687924732
3467.0,0.016960383953898095
3466.0,0.016824927962187042
3465.0,0.01677978535189717
3464.0,0.016824927962187042
3463.0,0.016870075265299933
3462.0,0.016870075265299933
3461.0,0.016734647433454652
3460.0,0.016554142658660398
3459.0,0.016373712875465518
3458.0,0.01628352608625061
3457.0,0.016373712875465518
3456.0,0.016644385668211692
3455.0,0.016960383953898095
3454.0,0.017231422748988034
3453.0,0.017321806616515723
3452.0,0.017231422748988034
3451.0,0.017050711425501408
3450.0,0.016824927962187042
3449.0,0.016689514205884493
3448.0,0.016689514205884493
3447.0,0.016824927962187042
3446.0,0.017005545341335804
3445.0,0.017095882207371904
3444.0,0.017141057687924732
3443.0,0.017186237868137555
3442.0,0.017231422748988034
3441.0,0.01727661233145472
3440.0,0.017321806616515723
3439.0,0.017412209298337533
3438.0,0.017638298366853045
3437.0,0.01800028587012159
3436.0,0.01831727262871463
3435.0,0.018634490921455527
3434.0,0.018770512579999288
3433.0,0.018770512579999288
3432.0,0.018634490921455527
3431.0,0.01845319495476394
3430.0,0.018271974638383703
3429.0,0.018226681372252695
3428.0,0.01831727262871463
3427.0,0.01840788278591865
3426.0,0.01840788278591865
3425.0,0.01831727262871463
3424.0,0.018136109008649592
3423.0,0.01800028587012159
3422.0,0.017955020928509757
3421.0,0.01809082990920774
3420.0,0.01831727262871463
3419.0,0.018543833477873584
3418.0,0.018815862601645694
3417.0,0.018906576854070378
3416.0,0.018815862601645694
3415.0,0.01858915983411169
3414.0,0.01831727262871463
3413.0,0.01809082990920774
3412.0,0.01800028587012159
3411.0,0.018136109008649592
3410.0,0.01845319495476394
3409.0,0.018770512579999288
3408.0,0.01899731005860028
3407.0,0.018951941086827073
3406.0,0.018725167293411005
3405.0,0.01840788278591865
3404.0,0.018136109008649592
3403.0,0.01800028587012159
3402.0,0.018045555530026514
3401.0,0.018226681372252695
3400.0,0.01845319495476394
3399.0,0.018634490921455527
3398.0,0.018725167293411005
3397.0,0.018770512579999288
3396.0,0.018770512579999288
3395.0,0.018725167293411005
3394.0,0.018679826740892747
3393.0,0.018634490921455527
3392.0,0.01858915983411169
3391.0,0.01858915983411169
3390.0,0.018679826740892747
3389.0,0.018770512579999288
3388.0,0.018815862601645694
3387.0,0.018725167293411005
3386.0,0.018498511851753108
3385.0,0.018271974638383703
3384.0,0.018045555530026514
3383.0,0.017909760704207134
3382.0,0.017909760704207134
3381.0,0.01809082990920774
3380.0,0.01840788278591865
3379.0,0.018770512579999288
3378.0,0.019042683770379876
3377.0,0.019360432556262852
3376.0,0.01958753839310856
3375.0,0.019769308608968306
3374.0,0.019814763052665052
3373.0,0.019678413991243593
3372.0,0.01954210772389997
3371.0,0.019451260640229506
3370.0,0.019451260640229506
3369.0,0.019360432556262852
3368.0,0.0192242260373785
3367.0,0.019133445417920836
3366.0,0.019133445417920836
3365.0,0.019133445417920836
3364.0,0.0190880622231564
3363.0,0.018906576854070378
3362.0,0.018770512579999288
3361.0,0.018679826740892747
3360.0,0.018634490921455527
3359.0,0.018679826740892747
3358.0,0.018770512579999288
3357.0,0.01899731005860028
3356.0,0.0192242260373785
3355.0,0.019315025636685412
3354.0,0.019315025636685412
3353.0,0.019315025636685412
3352.0,0.019315025636685412
3351.0,0.019315025636685412
3350.0,0.019315025636685412
3349.0,0.019315025636685412
3348.0,0.01940584422377989
3347.0,0.019632973815224997
3346.0,0.019814763052665052
3345.0,0.019860222254245663
3344.0,0.019860222254245663
3343.0,0.019860222254245663
3342.0,0.01990568621470623
3341.0,0.019996628416253603
3340.0,0.020087589665283012
3339.0,0.020178569969774962
3338.0,0.020178569969774962
3337.0,0.020087589665283012
3336.0,0.019860222254245663
3335.0,0.019678413991243593
3334.0,0.01954210772389997
3333.0,0.01954210772389997
3332.0,0.019632973815224997
3331.0,0.019814763052665052
3330.0,0.019996628416253603
3329.0,0.020178569969774962
3328.0,0.020178569969774962
3327.0,0.02004210665933459
3326.0,0.019814763052665052
3325.0,0.01958753839310856
3324.0,0.01958753839310856
3323.0,0.019814763052665052
3322.0,0.020178569969774962
3321.0,0.02036058777709271
3320.0,0.020315076172974234
3319.0,0.020087589665283012
3318.0,0.019996628416253603
3317.0,0.02004210665933459
3316.0,0.02026956933771462
3315.0,0.020542681902151694
3314.0,0.020724852408976924
3313.0,0.02081596632558158
3312.0,0.020861530453190058
3311.0,0.020861530453190058
3310.0,0.02081596632558158
3309.0,0.02081596632558158
3308.0,0.02081596632558158
3307.0,0.020861530453190058
3306.0,0.020861530453190058
3305.0,0.020724852408976924
3304.0,0.020497151212598652
3303.0,0.02026956933771462
3302.0,0.020087589665283012
3301.0,0.019996628416253603
3300.0,0.01995115493504329
3299.0,0.019860222254245663
3298.0,0.019769308608968306
3297.0,0.019678413991243593
3296.0,0.019678413991243593
3295.0,0.019723858922159776
3294.0,0.01990568621470623
3293.0,0.02022406727031445
3292.0,0.020633757603838898
3291.0,0.021043834782408455
3290.0,0.021363051615525652
3289.0,0.02159120737696063
3288.0,0.02168250325324883
3287.0,0.021728158389364705
3286.0,0.02168250325324883
3285.0,0.021499930688540836
3284.0,0.0211806132671577
3283.0,0.0209982515252789
3282.0,0.0209982515252789
3281.0,0.02122621566987748
3280.0,0.021545566634771474
3279.0,0.021728158389364705
3278.0,0.021636852916117055
3277.0,0.021271822861508305
3276.0,0.020724852408976924
3275.0,0.02026956933771462
3274.0,0.020087589665283012
3273.0,0.02022406727031445
3272.0,0.020633757603838898
3271.0,0.021043834782408455
3270.0,0.021363051615525652
3269.0,0.0214542995372613
3268.0,0.021363051615525652
3267.0,0.021271822861508305
3266.0,0.021271822861508305
3265.0,0.021317434843055594
3264.0,0.02140867317992523
3263.0,0.0214542995372613
3262.0,0.021545566634771474
3261.0,0.02168250325324883
3260.0,0.021819483062586187
3259.0,0.021956506090037076
3258.0,0.02204787879853809
3257.0,0.021956506090037076
3256.0,0.021773818325474092
3255.0,0.021545566634771474
3254.0,0.02122621566987748
3253.0,0.020952673052035298
3252.0,0.020770406977844713
3251.0,0.02067930261797568
3250.0,0.020770406977844713
3249.0,0.0209982515252789
3248.0,0.021317434843055594
3247.0,0.021636852916117055
3246.0,0.02168250325324883
3245.0,0.02140867317992523
3244.0,0.021043834782408455
3243.0,0.020861530453190058
3242.0,0.0209982515252789
3241.0,0.021317434843055594
3240.0,0.021636852916117055
3239.0,0.021910826943857264
3238.0,0.02200219004126036
3237.0,0.02200219004126036
3236.0,0.021819483062586187
3235.0,0.021773818325474092
3234.0,0.021865152601710403
3233.0,0.02200219004126036
3232.0,0.022093572362881675
3231.0,0.022093572362881675
3230.0,0.02200219004126036
3229.0,0.021956506090037076
3228.0,0.021956506090037076
3227.0,0.02200219004126036
3226.0,0.021956506090037076
3225.0,0.021910826943857264
3224.0,0.021910826943857264
3223.0,0.02200219004126036
3222.0,0.022139270735302752
3221.0,0.022139270735302752
3220.0,0.021956506090037076
3219.0,0.021819483062586187
3218.0,0.021910826943857264
3217.0,0.022322112326006227
3216.0,0.022688026603074007
3215.0,0.02277955336461468
3214.0,0.02259651912656535
3213.0,0.022230681908425698
3212.0,0.021819483062586187
3211.0,0.02159120737696063
3210.0,0.021545566634771474
3209.0,0.02168250325324883
3208.0,0.021865152601710403
3207.0,0.02204787879853809
3206.0,0.0221849739168134
3205.0,0.02227639471115217
3204.0,0.022322112326006227
3203.0,0.022413561996148967
3202.0,0.02245929405346514
3201.0,0.022413561996148967
3200.0,0.02227639471115217
3199.0,0.02204787879853809
3198.0,0.021910826943857264
3197.0,0.021956506090037076
3196.0,0.022139270735302752
3195.0,0.022413561996148967
3194.0,0.022688026603074007
3193.0,0.02277955336461468
3192.0,0.022733787572707387
3191.0,0.022733787572707387
3190.0,0.02277955336461468
3189.0,0.02277955336461468
3188.0,0.02259651912656535
3187.0,0.022230681908425698
3186.0,0.02204787879853809
3185.0,0.022093572362881675
3184.0,0.022322112326006227
3183.0,0.02245929405346514
3182.0,0.022413561996148967
3181.0,0.0221849739168134
3180.0,0.02204787879853809
3179.0,0.02200219004126036
3178.0,0.022139270735302752
3177.0,0.022367834754000393
3176.0,0.02255077261765881
3175.0,0.022642270454698687
3174.0,0.022642270454698687
3173.0,0.02259651912656535
3172.0,0.02245929405346514
3171.0,0.022367834754000393
3170.0,0.022367834754000393
3169.0,0.022413561996148967
3168.0,0.02245929405346514
3167.0,0.02259651912656535
3166.0,0.022688026603074007
3165.0,0.022733787572707387
3164.0,0.022642270454698687
3163.0,0.02255077261765881
3162.0,0.02259651912656535
3161.0,0.022871099419317753
3160.0,0.023100049017062307
3159.0,0.023191662661933732
3158.0,0.02314585342378117
3157.0,0.023054249440757957
3156.0,0.02296266477531872
3155.0,0.022871099419317753
3154.0,0.022688026603074007
3153.0,0.02259651912656535
3152.0,0.022505030926963654
3151.0,0.02259651912656535
3150.0,0.02282532397981263
3149.0,0.02314585342378117
3148.0,0.023283295636617574
3147.0,0.023237476732539397
3146.0,0.02291687968414724
3145.0,0.02255077261765881
3144.0,0.022322112326006227
3143.0,0.022413561996148967
3142.0,0.022642270454698687
3141.0,0.02296266477531872
3140.0,0.023191662661933732
3139.0,0.023329119375188556
3138.0,0.023329119375188556
3137.0,0.023329119375188556
3136.0,0.023283295636617574
3135.0,0.023283295636617574
3134.0,0.023191662661933732
3133.0,0.02300845469384938
3132.0,0.022733787572707387
3131.0,0.02245929405346514
3130.0,0.022367834754000393
3129.0,0.02245929405346514
3128.0,0.022688026603074007
3127.0,0.022871099419317753
3126.0,0.02300845469384938
3125.0,0.02314585342378117
3124.0,0.023237476732539397
3123.0,0.023329119375188556
3122.0,0.023374947949272418
3121.0,0.023374947949272418
3120.0,0.023283295636617574
3119.0,0.023191662661933732
3118.0,0.023100049017062307
3117.0,0.023100049017062307
3116.0,0.02314585342378117
3115.0,0.023100049017062307
3114.0,0.02296266477531872
3113.0,0.02282532397981263
3112.0,0.02277955336461468
3111.0,0.022871099419317753
3110.0,0.02296266477531872
3109.0,0.023054249440757957
3108.0,0.023100049017062307
3107.0,0.02314585342378117
3106.0,0.023100049017062307
3105.0,0.02300845469384938
3104.0,0.02296266477531872
3103.0,0.02291687968414724
3102.0,0.02291687968414724
3101.0,0.023054249440757957
3100.0,0.023283295636617574
3099.0,0.023466619608062178
3098.0,0.023604163388120325
3097.0,0.02355831062115543
3096.0,0.023283295636617574
3095.0,0.02291687968414724
3094.0,0.022642270454698687
3093.0,0.022505030926963654
3092.0,0.02245929405346514
3091.0,0.022505030926963654
3090.0,0.02259651912656535
3089.0,0.022733787572707387
3088.0,0.02277955336461468
3087.0,0.022871099419317753
3086.0,0.02300845469384938
3085.0,0.023191662661933732
3084.0,0.023466619608062178
3083.0,0.023741750742954926
3082.0,0.023925268380126097
3081.0,0.02406295751688936
3080.0,0.024200690320592466
3079.0,0.024338466818941473
3078.0,0.02438440203310499
3077.0,0.024292536462819925
3076.0,0.024108863598207186
3075.0,0.023833499868024743
3074.0,0.02351246269481
3073.0,0.023237476732539397
3072.0,0.023054249440757957
3071.0,0.023054249440757957
3070.0,0.023100049017062307
3069.0,0.02314585342378117
3068.0,0.023283295636617574
3067.0,0.023466619608062178
3066.0,0.023741750742954926
3065.0,0.023971159908874107
3064.0,0.024154774532432866
3063.0,0.024200690320592466
3062.0,0.024246610963712723
3061.0,0.024292536462819925
3060.0,0.02438440203310499
3059.0,0.024430342106337877
3058.0,0.024476287039668643
3057.0,0.024522236834125355
3056.0,0.024660115394541604
3055.0,0.024798037742147727
3054.0,0.024936003904763915
3053.0,0.02498200236711723
3052.0,0.024936003904763915
3051.0,0.02498200236711723
3050.0,0.025074013910237447
3049.0,0.02516604495145991
3048.0,0.02516604495145991
3047.0,0.02498200236711723
3046.0,0.02475205875931885
3045.0,0.024430342106337877
3044.0,0.024200690320592466
3043.0,0.024017056287453542
3042.0,0.023879381700184332
3041.0,0.023741750742954926
3040.0,0.02365002099672653
3039.0,0.02365002099672653
3038.0,0.023695883447997224
3037.0,0.023741750742954926
3036.0,0.023695883447997224
3035.0,0.023604163388120325
3034.0,0.02351246269481
3033.0,0.02342078135989012
3032.0,0.02342078135989012
3031.0,0.02355831062115543
3030.0,0.023833499868024743
3029.0,0.024154774532432866
3028.0,0.024568191490736968
3027.0,0.02516604495145991
3026.0,0.025856900097785074
3025.0,0.026502691267936695
3024.0,0.027149444152769986
3023.0,0.0277045713888604
3022.0,0.028214062120885508
3021.0,0.028538594975413334
3020.0,0.028677754757187035
3019.0,0.02863136320857662
3018.0,0.02863136320857662
3017.0,0.028677754757187035
3016.0,0.028677754757187035
3015.0,0.02858497661500481
3014.0,0.028445846553939003
3013.0,0.028214062120885508
3012.0,0.028075050815808744
3011.0,0.02798240132598462
3010.0,0.027797161620935595
3009.0,0.02751945012352408
3008.0,0.027195677663422346
3007.0,0.02682594731702781
3006.0,0.02664120011360227
3005.0,0.02664120011360227
3004.0,0.026733563891471412
3003.0,0.02682594731702781
3002.0,0.026872146400301444
3001.0,0.026872146400301444
3000.0,0.026872146400301444
2999.0,0.026872146400301444
2998.0,0.02696455931306696
2997.0,0.027056991894431892
2996.0,0.027149444152769986
2995.0,0.02710321556345563
2994.0,0.02691835039863255
2993.0,0.026687379547098322
2992.0,0.026502691267936695
2991.0,0.026410376572743033
2990.0,0.026502691267936695
2989.0,0.026595025589939425
2988.0,0.02664120011360227
2987.0,0.026595025589939425
2986.0,0.026595025589939425
2985.0,0.026502691267936695
2984.0,0.02636422658259252
2983.0,0.02617967564731627
2982.0,0.025995203102585407
2981.0,0.025902996205869
2980.0,0.025856900097785074
2979.0,0.025764722556973707
2978.0,0.02562649291857677
2977.0,0.025488307262671706
2976.0,0.025350165561278004
2975.0,0.025258095499050004
2974.0,0.02516604495145991
2973.0,0.02516604495145991
2972.0,0.025258095499050004
2971.0,0.02544225514642018
2970.0,0.02562649291857677
2969.0,0.025718641122169483
2968.0,0.025672564576383117
2967.0,0.02562649291857677
2966.0,0.02558042614771394
2965.0,0.02562649291857677
2964.0,0.02562649291857677
2963.0,0.025672564576383117
2962.0,0.025718641122169483
2961.0,0.025764722556973707
2960.0,0.025764722556973707
2959.0,0.02562649291857677
2958.0,0.02544225514642018
2957.0,0.025258095499050004
2956.0,0.02512002699306959
2955.0,0.025074013910237447
2954.0,0.025074013910237447
2953.0,0.025074013910237447
2952.0,0.02521206778644225
2951.0,0.025304128090317013
2950.0,0.02539620791296726
2949.0,0.02539620791296726
2948.0,0.025258095499050004
2947.0,0.025028005701930978
2946.0,0.024798037742147727
2945.0,0.024706084643793647
2944.0,0.024798037742147727
2943.0,0.02498200236711723
2942.0,0.02512002699306959
2941.0,0.02516604495145991
2940.0,0.02521206778644225
2939.0,0.025304128090317013
2938.0,0.02544225514642018
2937.0,0.025672564576383117
2936.0,0.025856900097785074
2935.0,0.025995203102585407
2934.0,0.026087429580295085
2933.0,0.02617967564731627
2932.0,0.02636422658259252
2931.0,0.026687379547098322
2930.0,0.027056991894431892
2929.0,0.027426919073445077
2928.0,0.0277045713888604
2927.0,0.028075050815808744
2926.0,0.028445846553939003
2925.0,0.028956208163971375
2924.0,0.029513651152349718
2923.0,0.030118356253500123
2922.0,0.03067729388779794
2921.0,0.031190286087141805
2920.0,0.03161045815293173
2919.0,0.03193753992355086
2918.0,0.032124554451966825
2917.0,0.032311649546687526
2916.0,0.03249882527715853
2915.0,0.03263926003405038
2914.0,0.03282657704446046
2913.0,0.032920265855503006
2912.0,0.032920265855503006
2911.0,0.032873418923587305
2910.0,0.032873418923587305
2909.0,0.032873418923587305
2908.0,0.0329671178412978
2907.0,0.033060836978886954
2906.0,0.033201453616638954
2905.0,0.03334211579824231
2904.0,0.03338901331806565
2903.0,0.03334211579824231
2902.0,0.0332483359486222
2901.0,0.033201453616638954
2900.0,0.033201453616638954
2899.0,0.033201453616638954
2898.0,0.033295223342125535
2897.0,0.03338901331806565
2896.0,0.03352973627071565
2895.0,0.03352973627071565
2894.0,0.033482823553208085
2893.0,0.03334211579824231
2892.0,0.033201453616638954
2891.0,0.03301397488206215
2890.0,0.032920265855503006
2889.0,0.032873418923587305
2888.0,0.032920265855503006
2887.0,0.033060836978886954
2886.0,0.033154576345083564
2885.0,0.03310770413286357
2884.0,0.03301397488206215
2883.0,0.032920265855503006
2882.0,0.03282657704446046
2881.0,0.03273290844021437
2880.0,0.032592443402527316
2879.0,0.03245202378113787
2878.0,0.03240522732811035
2877.0,0.03240522732811035
2876.0,0.03249882527715853
2875.0,0.032545631817259224
2874.0,0.03245202378113787
2873.0,0.03235843591698884
2872.0,0.032218091924200776
2871.0,0.03207779326948268
2870.0,0.03193753992355086
2869.0,0.03170388495374454
2868.0,0.03147035562516054
2867.0,0.03142366482450232
2866.0,0.031563752288295444
2865.0,0.03179733185715028
2864.0,0.032031037121307726
2863.0,0.032218091924200776
2862.0,0.032311649546687526
2861.0,0.03240522732811035
2860.0,0.03245202378113787
2859.0,0.03249882527715853
2858.0,0.03263926003405038
2857.0,0.03273290844021437
2856.0,0.032873418923587305
2855.0,0.03301397488206215
2854.0,0.03310770413286357
2853.0,0.0332483359486222
2852.0,0.03334211579824231
2851.0,0.03357665405630694
2850.0,0.0338113190438627
2849.0,0.034046110897937076
2848.0,0.034187046963396917
2847.0,0.03423403581731388
2846.0,0.03428102975577918
2845.0,0.03437503289075727
2844.0,0.034516075754861264
2843.0,0.03470420418834386
2842.0,0.03484535401307465
2841.0,0.03484535401307465
2840.0,0.03465716443937783
2839.0,0.03442204208947208
2838.0,0.03428102975577918
2837.0,0.03432802877989327
2836.0,0.034516075754861264
2835.0,0.03475124903287918
2834.0,0.03489241415094413
2833.0,0.03484535401307465
2832.0,0.03465716443937783
2831.0,0.03437503289075727
2830.0,0.03423403581731388
2829.0,0.03414006319292828
2828.0,0.03414006319292828
2827.0,0.03409308450480819
2826.0,0.03399914237121604
2825.0,0.03385826726096752
2824.0,0.0338113190438627
2823.0,0.033905220553829274
2822.0,0.03399914237121604
2821.0,0.034187046963396917
2820.0,0.03432802877989327
2819.0,0.03437503289075727
2818.0,0.03437503289075727
2817.0,0.03432802877989327
2816.0,0.03428102975577918
2815.0,0.03432802877989327
2814.0,0.03442204208947208
2813.0,0.03456310022373987
2812.0,0.03470420418834386
2811.0,0.03484535401307465
2810.0,0.03484535401307465
2809.0,0.03465716443937783
2808.0,0.03442204208947208
2807.0,0.034187046963396917
2806.0,0.03409308450480819
2805.0,0.03409308450480819
2804.0,0.03409308450480819
2803.0,0.034187046963396917
2802.0,0.03428102975577918
2801.0,0.03442204208947208
2800.0,0.034469056377139484
2799.0,0.03442204208947208
2798.0,0.03437503289075727
2797.0,0.034469056377139484
2796.0,0.03465716443937783
2795.0,0.03484535401307465
2794.0,0.03498654972775217
2793.0,0.0349394793888016
2792.0,0.03489241415094413
2791.0,0.03479829897408804
2790.0,0.03465716443937783
2789.0,0.034516075754861264
2788.0,0.03442204208947208
2787.0,0.034469056377139484
2786.0,0.034516075754861264
2785.0,0.03461012978487776
2784.0,0.03465716443937783
2783.0,0.03470420418834386
2782.0,0.03475124903287918
2781.0,0.03475124903287918
2780.0,0.03465716443937783
2779.0,0.03456310022373987
2778.0,0.034469056377139484
2777.0,0.03442204208947208
2776.0,0.034469056377139484
2775.0,0.034516075754861264
2774.0,0.034516075754861264
2773.0,0.03456310022373987
2772.0,0.03470420418834386
2771.0,0.03489241415094413
2770.0,0.03498654972775217
2769.0,0.03498654972775217
2768.0,0.0349394793888016
2767.0,0.03489241415094413
2766.0,0.03498654972775217
2765.0,0.03503362516890207
2764.0,0.03503362516890207
2763.0,0.03498654972775217
2762.0,0.03508070571335731
2761.0,0.03522197797762394
2760.0,0.035363296211498474
2759.0,0.03541041251009669
2758.0,0.03526907894637077
2757.0,0.03517488211661135
2756.0,0.03522197797762394
2755.0,0.035363296211498474
2754.0,0.03545753392086315
2753.0,0.03550466044490741
2752.0,0.03550466044490741
2751.0,0.03559892883726867
2750.0,0.035693217696063595
2749.0,0.03578752703018084
2748.0,0.03588185684851508
2747.0,0.03602339000339416
2746.0,0.036117771071222604
2745.0,0.03616496929785207
2744.0,0.03616496929785207
2743.0,0.0360705779734416
2742.0,0.03597620715996652
2741.0,0.03588185684851508
2740.0,0.03578752703018084
2739.0,0.035646070707806565
2738.0,0.03559892883726867
2737.0,0.035693217696063595
2736.0,0.03588185684851508
2735.0,0.0360705779734416
2734.0,0.03621217265444465
2733.0,0.03621217265444465
2732.0,0.036117771071222604
2731.0,0.0360705779734416
2730.0,0.03616496929785207
2729.0,0.03625938114211591
2728.0,0.03630659476198117
2727.0,0.03625938114211591
2726.0,0.03621217265444465
2725.0,0.03621217265444465
2724.0,0.03625938114211591
2723.0,0.03635381351515665
2722.0,0.03644826642590382
2721.0,0.03644826642590382
2720.0,0.036401037402758574
2719.0,0.03635381351515665
2718.0,0.03630659476198117
2717.0,0.03635381351515665
2716.0,0.03635381351515665
2715.0,0.03630659476198117
2714.0,0.03616496929785207
2713.0,0.03602339000339416
2712.0,0.03602339000339416
2711.0,0.03616496929785207
2710.0,0.036401037402758574
2709.0,0.03658998431977123
2708.0,0.036731748473764814
2707.0,0.03682628362474838
2706.0,0.03682628362474838
2705.0,0.036779013477011624
2704.0,0.036779013477011624
2703.0,0.03682628362474838
2702.0,0.0369681249461018
2701.0,0.03701541568300293
2700.0,0.037062711569998186
2699.0,0.03701541568300293
2698.0,0.0369681249461018
2697.0,0.0369681249461018
2696.0,0.037062711569998186
2695.0,0.0371573187987575
2694.0,0.03720463014276687
2693.0,0.0371100126082089
2692.0,0.0369681249461018
2691.0,0.036873558918095295
2690.0,0.03692083935817303
2689.0,0.03701541568300293
2688.0,0.0371573187987575
2687.0,0.037251946641359446
2686.0,0.037299268295658994
2685.0,0.037299268295658994
2684.0,0.037299268295658994
2683.0,0.03739392707587297
2682.0,0.03753595394209874
2681.0,0.03767802727041558
2680.0,0.03777276864991497
2679.0,0.03777276864991497
2678.0,0.03772539537668518
2677.0,0.03767802727041558
2676.0,0.03767802727041558
2675.0,0.03763066432997886
2674.0,0.03763066432997886
2673.0,0.03767802727041558
2672.0,0.03772539537668518
2671.0,0.03777276864991497
2670.0,0.03777276864991497
2669.0,0.03772539537668518
2668.0,0.03767802727041558
2667.0,0.03763066432997886
2666.0,0.03767802727041558
2665.0,0.03777276864991497
2664.0,0.03782014709123227
2663.0,0.03786753070176463
2662.0,0.03791491948264003
2661.0,0.03796231343498735
2660.0,0.03800971255993524
2659.0,0.03800971255993524
2658.0,0.03800971255993524
2657.0,0.038057116858612794
2656.0,0.038057116858612794
2655.0,0.03810452633214956
2654.0,0.038057116858612794
2653.0,0.038057116858612794
2652.0,0.03810452633214956
2651.0,0.03824678581321739
2650.0,0.03838909190871931
2649.0,0.03848398855105106
2648.0,0.038531444649213764
2647.0,0.03862637240519895
2646.0,0.038721320914956836
2645.0,0.038721320914956836
2644.0,0.038673844065289176
2643.0,0.03857890593355173
2642.0,0.038436537637930535
2641.0,0.038341651362284734
2640.0,0.038436537637930535
2639.0,0.03876880295533702
2638.0,0.03914884628031379
2637.0,0.03948165721929198
2636.0,0.03952922246570112
2635.0,0.03952922246570112
2634.0,0.03952922246570112
2633.0,0.03952922246570112
2632.0,0.03952922246570112
2631.0,0.03938654235209116
2630.0,0.03919637508823026
2629.0,0.038958783046687984
2628.0,0.038816290187564384
2627.0,0.03876880295533702
2626.0,0.038816290187564384
2625.0,0.038911280232103884
2624.0,0.038958783046687984
2623.0,0.038958783046687984
2622.0,0.038958783046687984
2621.0,0.038958783046687984
2620.0,0.03914884628031379
2619.0,0.03938654235209116
2618.0,0.03957679292217042
2617.0,0.03962436858984186
2616.0,0.03962436858984186
2615.0,0.03967194946985697
2614.0,0.039719535563357944
2613.0,0.039767126871487646
2612.0,0.03967194946985697
2611.0,0.03957679292217042
2610.0,0.03943409718180235
2609.0,0.03943409718180235
2608.0,0.03943409718180235
2607.0,0.03943409718180235
2606.0,0.03943409718180235
2605.0,0.03948165721929198
2604.0,0.03962436858984186
2603.0,0.03981472339538916
2602.0,0.0400527842915015
2601.0,0.040243327009005014
2600.0,0.04038628892895613
2599.0,0.04043395336207234
2598.0,0.040481623027001756
2597.0,0.040481623027001756
2596.0,0.040481623027001756
2595.0,0.04043395336207234
2594.0,0.04043395336207234
2593.0,0.04043395336207234
2592.0,0.040338629726504704
2591.0,0.0402909757535701
2590.0,0.0402909757535701
2589.0,0.0402909757535701
2588.0,0.0402909757535701
2587.0,0.04014804520039483
2586.0,0.04014804520039483
2585.0,0.040243327009005014
2584.0,0.040481623027001756
2583.0,0.04062466342415694
2582.0,0.04062466342415694
2581.0,0.040481623027001756
2580.0,0.04038628892895613
2579.0,0.040529297924893015
2578.0,0.04072004986906119
2577.0,0.040958607678906356
2576.0,0.04105406750606355
2575.0,0.041101805289228244
2574.0,0.041149548320321694
2573.0,0.041197296600497646
2572.0,0.041149548320321694
2571.0,0.04105406750606355
2570.0,0.04091088563260792
2569.0,0.04086316882962593
2568.0,0.040958607678906356
2567.0,0.04105406750606355
2566.0,0.041197296600497646
2565.0,0.04129280891271536
2564.0,0.04138834223512067
2563.0,0.041436116778032606
2562.0,0.04138834223512067
2561.0,0.04129280891271536
2560.0,0.041149548320321694
2559.0,0.041006334969674096
2558.0,0.041006334969674096
2557.0,0.04105406750606355
2556.0,0.041149548320321694
2555.0,0.04124505013091051
2554.0,0.041340572947066834
2553.0,0.041436116778032606
2552.0,0.041579471947481794
2551.0,0.04167506835594681
2550.0,0.0417706858116178
2549.0,0.0417706858116178
2548.0,0.04172287445230238
2547.0,0.041627267521392675
2546.0,0.04153168163305643
2545.0,0.04153168163305643
2544.0,0.041627267521392675
2543.0,0.04181850243505214
2542.0,0.04200982159316968
2541.0,0.04215336629184985
2540.0,0.04229695845116854
2539.0,0.04244059810252043
2538.0,0.04248848854552012
2537.0,0.04248848854552012
2536.0,0.04244059810252043
2535.0,0.042392712939904875
2534.0,0.04229695845116854
2533.0,0.04229695845116854
2532.0,0.04229695845116854
2531.0,0.042344833056508824
2530.0,0.042392712939904875
2529.0,0.042392712939904875
2528.0,0.04244059810252043
2527.0,0.04248848854552012
2526.0,0.04253638427006878
2525.0,0.04253638427006878
2524.0,0.04248848854552012
2523.0,0.04248848854552012
2522.0,0.04248848854552012
2521.0,0.042584285277331047
2520.0,0.04272802000705722
2519.0,0.04287180232318688
2518.0,0.04301563225723992
2517.0,0.04325545471730896
2516.0,0.04344740808260106
2515.0,0.04363944632667782
2514.0,0.04363944632667782
2513.0,0.043495409683302455
2512.0,0.043303435105349175
2511.0,0.04325545471730896
2510.0,0.043303435105349175
2509.0,0.043303435105349175
2508.0,0.04320747962950522
2507.0,0.0431115453499229
2506.0,0.0431115453499229
2505.0,0.043303435105349175
2504.0,0.0435434165901003
2503.0,0.0437835307566099
2502.0,0.0439276630048171
2501.0,0.04397571771932274
2500.0,0.04397571771932274
2499.0,0.04397571771932274
2498.0,0.04387961360698034
2497.0,0.0437835307566099
2496.0,0.04368746915880539
2495.0,0.04359142880416744
2494.0,0.043495409683302455
2493.0,0.04339941178682327
2492.0,0.043303435105349175
2491.0,0.04325545471730896
2490.0,0.043303435105349175
2489.0,0.04344740808260106
2488.0,0.04368746915880539
2487.0,0.04397571771932274
2486.0,0.044167989767578186
2485.0,0.04421607108308856
2484.0,0.044167989767578186
2483.0,0.044071843103049346
2482.0,0.04402377775167454
2481.0,0.044071843103049346
2480.0,0.044167989767578186
2479.0,0.044312249686494276
2478.0,0.04440844959427559
2477.0,0.04455278942230456
2476.0,0.04460091336073302
2475.0,0.04464904263234004
2474.0,0.04469717723830824
2473.0,0.044793462458058375
2472.0,0.044793462458058375
2471.0,0.04474531717982
2470.0,0.04460091336073302
2469.0,0.04450467081587295
2468.0,0.04440844959427559
2467.0,0.044312249686494276
2466.0,0.044312249686494276
2465.0,0.04440844959427559
2464.0,0.04455278942230456
2463.0,0.04464904263234004
2462.0,0.04464904263234004
2461.0,0.04464904263234004
2460.0,0.04469717723830824
2459.0,0.04488976902944808
2458.0,0.04503426894157925
2457.0,0.0451788169482068
2456.0,0.04522701031028298
2455.0,0.04527520902093718
2454.0,0.04522701031028298
2453.0,0.04513062893352182
2452.0,0.04508244626504121
2451.0,0.0451788169482068
2450.0,0.04537162249272897
2449.0,0.045564513671517703
2448.0,0.04570923829887308
2447.0,0.045660991397539874
2446.0,0.045564513671517703
2445.0,0.0454680573730859
2444.0,0.04541983725624266
2443.0,0.045516282844447975
2442.0,0.045660991397539874
2441.0,0.04575749056067524
2440.0,0.04580574818413763
2439.0,0.04575749056067524
2438.0,0.04575749056067524
2437.0,0.04575749056067524
2436.0,0.04585401117045196
2435.0,0.04599883231842972
2434.0,0.046143701775014145
2433.0,0.04624030826677128
2432.0,0.04633693625290869
2431.0,0.04638525830935958
2430.0,0.04638525830935958
2429.0,0.04624030826677128
2428.0,0.046143701775014145
2427.0,0.04609540658654021
2426.0,0.046143701775014145
2425.0,0.04633693625290869
2424.0,0.04653025674659861
2423.0,0.04672366333269573
2422.0,0.04677202844014605
2421.0,0.04672366333269573
2420.0,0.04662694927330402
2419.0,0.04657860031896477
2418.0,0.04657860031896477
2417.0,0.04662694927330402
2416.0,0.04662694927330402
2415.0,0.04662694927330402
2414.0,0.04667530361081473
2413.0,0.04677202844014605
2412.0,0.04682039893436585
2411.0,0.04682039893436585
2410.0,0.04667530361081473
2409.0,0.04653025674659861
2408.0,0.046481918555007384
2407.0,0.04657860031896477
2406.0,0.04682039893436585
2405.0,0.04701393480294458
2404.0,0.04711073508906982
2403.0,0.04715914332429838
2402.0,0.04720755695590784
2401.0,0.047352830241056854
2400.0,0.04754660357696672
2399.0,0.04774046340917959
2398.0,0.04778894189133087
2397.0,0.0478374257855374
2396.0,0.047885915093007325
2395.0,0.047885915093007325
2394.0,0.0478374257855374
2393.0,0.0478374257855374
2392.0,0.047885915093007325
2391.0,0.047885915093007325
2390.0,0.0478374257855374
2389.0,0.04774046340917959
2388.0,0.047691990337874746
2387.0,0.047691990337874746
2386.0,0.0478374257855374
2385.0,0.04803141550708934
2384.0,0.04832256265669943
2383.0,0.04866248120408234
2382.0,0.048954051864180226
2381.0,0.049294465226138895
2380.0,0.04973253198641148
2379.0,0.050171041064686284
2378.0,0.050463626623857394
2377.0,0.0506099933550872
2376.0,0.050707598587974356
2375.0,0.05085404758005607
2374.0,0.05095170768433621
2373.0,0.05100054597304693
2372.0,0.05129369109514803
2371.0,0.05207638016827354
2370.0,0.053203972728539606
2369.0,0.05389176956309405
2368.0,0.05340037498486727
2367.0,0.05207638016827354
2366.0,0.05095170768433621
2365.0,0.05100054597304693
2364.0,0.05217431555754937
2363.0,0.053646002773725554
2362.0,0.05448217792216048
2361.0,0.05403929642243144
2360.0,0.05217431555754937
2359.0,0.050073556332087765
2358.0,0.04958646063061889
2357.0,0.05134256785867963
2356.0,0.05389176956309405
2355.0,0.05561604235915585
2354.0,0.056159373598738904
2353.0,0.05606053552778367
2352.0,0.05551732784983132
2351.0,0.05443294655761144
2350.0,0.05340037498486727
2349.0,0.05325306496641513
2348.0,0.05374429280060267
2347.0,0.054186873412661596
2346.0,0.054186873412661596
2345.0,0.05423607688882637
2344.0,0.05462990550969615
2343.0,0.0549255115212699
2342.0,0.055122694036304765
2341.0,0.05551732784983132
2340.0,0.05606053552778367
2339.0,0.05655495097496965
2338.0,0.05680236993107379
2337.0,0.0567528748621382
2336.0,0.056159373598738904
2335.0,0.055122694036304765
2334.0,0.05413767551038262
2333.0,0.05389176956309405
2332.0,0.05433450056786593
2331.0,0.05482695382609992
2330.0,0.05482695382609992
2329.0,0.05453141486818014
2328.0,0.05443294655761144
2327.0,0.05462990550969615
2326.0,0.0549255115212699
2325.0,0.054876229877880656
2324.0,0.05448217792216048
2323.0,0.05389176956309405
2322.0,0.053449489430144714
2321.0,0.05325306496641513
2320.0,0.05330216275425803
2319.0,0.0534986094304124
2318.0,0.05369514500652506
2317.0,0.05399011523423525
2316.0,0.05423607688882637
2315.0,0.05453141486818014
2314.0,0.054876229877880656
2313.0,0.055270639696704205
2312.0,0.05566540802921782
2311.0,0.05581353871631256
2310.0,0.05571477931124735
2309.0,0.05551732784983132
2308.0,0.055270639696704205
2307.0,0.05502409158795207
2306.0,0.054728418492290265
2305.0,0.05433450056786593
2304.0,0.05394093961487645
2303.0,0.05369514500652506
2302.0,0.05369514500652506
2301.0,0.05389176956309405
2300.0,0.05399011523423525
2299.0,0.05403929642243144
2298.0,0.05394093961487645
2297.0,0.05379344615721715
2296.0,0.05374429280060267
2295.0,0.05369514500652506
2294.0,0.05354773498692689
2293.0,0.05340037498486727
2292.0,0.053203972728539606
2291.0,0.0531548860393769
2290.0,0.05330216275425803
2289.0,0.053449489430144714
2288.0,0.0534986094304124
2287.0,0.053351266093323746
2286.0,0.0531548860393769
2285.0,0.05286048235717078
2284.0,0.05261529831525902
2283.0,0.052419250695677544
2282.0,0.05232126006306337
2281.0,0.05237025261564554
2280.0,0.0525172634430815
2279.0,0.05271335532220167
2278.0,0.05281143447390635
2277.0,0.052762392129333646
2276.0,0.05266432405126009
2275.0,0.05261529831525902
2274.0,0.052762392129333646
2273.0,0.05290953578037816
2272.0,0.05305672930217464
2271.0,0.05310580489767336
2270.0,0.053203972728539606
2269.0,0.053351266093323746
2268.0,0.053646002773725554
2267.0,0.05379344615721715
2266.0,0.05389176956309405
2265.0,0.053842605077627725
2264.0,0.05379344615721715
2263.0,0.05374429280060267
2262.0,0.053646002773725554
2261.0,0.053596866100945384
2260.0,0.05354773498692689
2259.0,0.053449489430144714
2258.0,0.05340037498486727
2257.0,0.0534986094304124
2256.0,0.053596866100945384
2255.0,0.05369514500652506
2254.0,0.05379344615721715
2253.0,0.053842605077627725
2252.0,0.05394093961487645
2251.0,0.05394093961487645
2250.0,0.05394093961487645
2249.0,0.05403929642243144
2248.0,0.05433450056786593
2247.0,0.054679159207724926
2246.0,0.054876229877880656
2245.0,0.0549255115212699
2244.0,0.05477768336465916
2243.0,0.054679159207724926
2242.0,0.05453141486818014
2241.0,0.05443294655761144
2240.0,0.05438372077326825
2239.0,0.05443294655761144
2238.0,0.05458065739693696
2237.0,0.054728418492290265
2236.0,0.054679159207724926
2235.0,0.05453141486818014
2234.0,0.05433450056786593
2233.0,0.05428528594013993
2232.0,0.05428528594013993
2231.0,0.05443294655761144
2230.0,0.05458065739693696
2229.0,0.054679159207724926
2228.0,0.054679159207724926
2227.0,0.05462990550969615
2226.0,0.05462990550969615
2225.0,0.05477768336465916
2224.0,0.0549747987575373
2223.0,0.055122694036304765
2222.0,0.05522131887649295
2221.0,0.055270639696704205
2220.0,0.05522131887649295
2219.0,0.055172003656783764
2218.0,0.055122694036304765
2217.0,0.05522131887649295
2216.0,0.05541863577307371
2215.0,0.05551732784983132
2214.0,0.05561604235915585
2213.0,0.05561604235915585
2212.0,0.05561604235915585
2211.0,0.05566540802921782
2210.0,0.05571477931124735
2209.0,0.055764156206519866
2208.0,0.05586292684190197
2207.0,0.055912320584565744
2206.0,0.055961719945581745
2205.0,0.05601112492622806
2204.0,0.05610995175152733
2203.0,0.056159373598738904
2202.0,0.05620880107069848
2201.0,0.05630767289398331
2200.0,0.056406567231630955
2199.0,0.05630767289398331
2198.0,0.056159373598738904
2197.0,0.05601112492622806
2196.0,0.055961719945581745
2195.0,0.055961719945581745
2194.0,0.055961719945581745
2193.0,0.055961719945581745
2192.0,0.05606053552778367
2191.0,0.056159373598738904
2190.0,0.05630767289398331
2189.0,0.05655495097496965
2188.0,0.05680236993107379
2187.0,0.057000406633959555
2186.0,0.057198533682059516
2185.0,0.05724807957018618
2184.0,0.057198533682059516
2183.0,0.05709945885970602
2182.0,0.057000406633959555
2181.0,0.056950888991593285
2180.0,0.057000406633959555
2179.0,0.0571489934456626
2178.0,0.05729763111133224
2177.0,0.05744631966579017
2176.0,0.05744631966579017
2175.0,0.057396751157843484
2174.0,0.05729763111133224
2173.0,0.05734718830678798
2172.0,0.05754547365752294
2171.0,0.05769424710410598
2170.0,0.05779345772290467
2169.0,0.05779345772290467
2168.0,0.05779345772290467
2167.0,0.05779345772290467
2166.0,0.05779345772290467
2165.0,0.05784307153250956
2164.0,0.05799194697768684
2163.0,0.05809122563440061
2162.0,0.058190526991161784
2161.0,0.05824018618530458
2160.0,0.058190526991161784
2159.0,0.05814087347462649
2158.0,0.05809122563440061
2157.0,0.05809122563440061
2156.0,0.058190526991161784
2155.0,0.05824018618530458
2154.0,0.05824018618530458
2153.0,0.05814087347462649
2152.0,0.05804158346918653
2151.0,0.05799194697768684
2150.0,0.05809122563440061
2149.0,0.0583395216116076
2148.0,0.05858795962645047
2147.0,0.058737090681050264
2146.0,0.058737090681050264
2145.0,0.05863766428823891
2144.0,0.05863766428823891
2143.0,0.05863766428823891
2142.0,0.05868737463933793
2141.0,0.058737090681050264
2140.0,0.058786812414678646
2139.0,0.058737090681050264
2138.0,0.05868737463933793
2137.0,0.05868737463933793
2136.0,0.058786812414678646
2135.0,0.058936011780097886
2134.0,0.059035506507200575
2133.0,0.05923456436878238
2132.0,0.05948351506743288
2131.0,0.05968277842578207
2130.0,0.05973260855398799
2129.0,0.05963295401433477
2128.0,0.0595831353183347
2127.0,0.0595831353183347
2126.0,0.05973260855398799
2125.0,0.05983228596592505
2124.0,0.05988213325228142
2123.0,0.05988213325228142
2122.0,0.05988213325228142
2121.0,0.05993198626064755
2120.0,0.06003170944866376
2119.0,0.060131455540490375
2118.0,0.060231224546650086
2117.0,0.06028111764589528
2116.0,0.06038092104330195
2115.0,0.06048074738138154
2114.0,0.060530669156469985
2113.0,0.06058059667068294
2112.0,0.06063052992534024
2111.0,0.06063052992534024
2110.0,0.060530669156469985
2109.0,0.060530669156469985
2108.0,0.060530669156469985
2107.0,0.06063052992534024
2106.0,0.060730413661268745
2105.0,0.060880282351513104
2104.0,0.06098022355133348
2103.0,0.06108018775522828
2102.0,0.06118017497378969
2101.0,0.06123017721688262
2100.0,0.06123017721688262
2099.0,0.06123017721688262
2098.0,0.06123017721688262
2097.0,0.06118017497378969
2096.0,0.06108018775522828
2095.0,0.06103020277710969
2094.0,0.06098022355133348
2093.0,0.06108018775522828
2092.0,0.06133019897732073
2091.0,0.06153031163235467
2090.0,0.06163040254819374
2089.0,0.06163040254819374
2088.0,0.06163040254819374
2087.0,0.06153031163235467
2086.0,0.06148027482350815
2085.0,0.06148027482350815
2084.0,0.06163040254819374
2083.0,0.061780582187257016
2082.0,0.06193081377661436
2081.0,0.06198090252378963
2080.0,0.06203099704854709
2079.0,0.06208109735221967
2078.0,0.062131203436140536
2077.0,0.06218131530164395
2076.0,0.06218131530164395
2075.0,0.062131203436140536
2074.0,0.06218131530164395
2073.0,0.06223143295006417
2072.0,0.062281556382736136
2071.0,0.062381820606176586
2070.0,0.06258241852286206
2069.0,0.06288348923294618
2068.0,0.06313454102437754
2067.0,0.06328524178879635
2066.0,0.06323500239005853
2065.0,0.06318476880236723
2064.0,0.0630843190547461
2063.0,0.06313454102437754
2062.0,0.06318476880236723
2061.0,0.06323500239005853
2060.0,0.06323500239005853
2059.0,0.06323500239005853
2058.0,0.06313454102437754
2057.0,0.0630843190547461
2056.0,0.06313454102437754
2055.0,0.06333548699992453
2054.0,0.06353652599525317
2053.0,0.06358680028852026
2052.0,0.06358680028852026
2051.0,0.06348625752110681
2050.0,0.06343599486473406
2049.0,0.06338573802478864
2048.0,0.06333548699992453
2047.0,0.06333548699992453
2046.0,0.06343599486473406
2045.0,0.06363708040225546
2044.0,0.06378795567975115
2043.0,0.06383825908884244
2042.0,0.06393888339001164
2041.0,0.06403953101083348
2040.0,0.06419054619006714
2039.0,0.06429125215733666
2038.0,0.06429125215733666
2037.0,0.06434161389936577
2036.0,0.06439198148213077
2035.0,0.06444235490698613
2034.0,0.06439198148213077
2033.0,0.06434161389936577
2032.0,0.06429125215733666
2031.0,0.06434161389936577
2030.0,0.06439198148213077
2029.0,0.06449273417528723
2028.0,0.06454311928839007
2027.0,0.06464390705442691
2026.0,0.06469430971007495
2025.0,0.06474471821595262
2024.0,0.06479513257341862
2023.0,0.06494641076893504
2022.0,0.06504729218214189
2021.0,0.06509774167768612
2020.0,0.06509774167768612
2019.0,0.06509774167768612
2018.0,0.06514819703433927
2017.0,0.06524912533642091
2016.0,0.06529959828457499
2015.0,0.0653500770992892
2014.0,0.0654005617819271
2013.0,0.0654005617819271
2012.0,0.06550154875643233
2011.0,0.06565307326174441
2010.0,0.06575411897692884
2009.0,0.0658551882075229
2008.0,0.0658551882075229
2007.0,0.0658551882075229
2006.0,0.0658551882075229
2005.0,0.0658551882075229
2004.0,0.0659562809644747
2003.0,0.06605739725873905
2002.0,0.06615853710127872
2001.0,0.06625970050306473
2000.0,0.06636088747507496
1999.0,0.06641148980334699
1998.0,0.06636088747507496
1997.0,0.0663102910421054
1996.0,0.06615853710127872
1995.0,0.06600683616875758
1994.0,0.06590573164451952
1993.0,0.06590573164451952
1992.0,0.06600683616875758
1991.0,0.06615853710127872
1990.0,0.06636088747507496
1989.0,0.0665127121512945
1988.0,0.0666645899223488
1987.0,0.06676587128519196
1986.0,0.06681652082538614
1985.0,0.06676587128519196
1984.0,0.0666645899223488
1983.0,0.06661395809694559
1982.0,0.06656333217371957
1981.0,0.06656333217371957
1980.0,0.06656333217371957
1979.0,0.06661395809694559
1978.0,0.06676587128519196
1977.0,0.06686717627326577
1976.0,0.06701917807680191
1975.0,0.06712054217620067
1974.0,0.06712054217620067
1973.0,0.06706985716921054
1972.0,0.06701917807680191
1971.0,0.06706985716921054
1970.0,0.0671712330991534
1969.0,0.06727263269847072
1968.0,0.06737405597821788
1967.0,0.0675769736232612
1966.0,0.06767846801070698
1965.0,0.06777998612288094
1964.0,0.06788152797087754
1963.0,0.06798309356579857
1962.0,0.06813548650796819
1961.0,0.06823711151882228
1960.0,0.06823711151882228
1959.0,0.06823711151882228
1958.0,0.0681862960408608
1957.0,0.0681862960408608
1956.0,0.06828793294324442
1955.0,0.06844043290919477
1954.0,0.0685421293109949
1953.0,0.06859298644342648
1952.0,0.06864384953207203
1951.0,0.06879647454924775
1950.0,0.06894915322260897
1949.0,0.0692037370166998
1948.0,0.06950943469373039
1947.0,0.06966236426227002
1946.0,0.06966236426227002
1945.0,0.06961138175567827
1944.0,0.06956040523329987
1943.0,0.06971335275448043
1942.0,0.06996838504902692
1941.0,0.07012147634321675
1940.0,0.07022356719509815
1939.0,0.07037674848475972
1938.0,0.07063217075990047
1937.0,0.07083661679493547
1936.0,0.0709900145060387
1935.0,0.0709900145060387
1934.0,0.07088774334533943
1933.0,0.07073438174693436
1932.0,0.07068327324650436
1931.0,0.07078549626260622
1930.0,0.07093887591523451
1929.0,0.07119462910671581
1928.0,0.07139934015547578
1927.0,0.07155293679081787
1926.0,0.07155293679081787
1925.0,0.0713481533463054
1924.0,0.07114346641808922
1923.0,0.0709900145060387
1922.0,0.0710411591191702
1921.0,0.07114346641808922
1920.0,0.0713481533463054
1919.0,0.07150173187630915
1918.0,0.07155293679081787
1917.0,0.07160414774328627
1916.0,0.07160414774328627
1915.0,0.0716553647351379
1914.0,0.07175781684269089
1913.0,0.07170658776779781
1912.0,0.07155293679081787
1911.0,0.0713481533463054
1910.0,0.0713481533463054
1909.0,0.07150173187630915
1908.0,0.07170658776779781
1907.0,0.07175781684269089
1906.0,0.07175781684269089
1905.0,0.07170658776779781
1904.0,0.07160414774328627
1903.0,0.07150173187630915
1902.0,0.07145053299833615
1901.0,0.07150173187630915
1900.0,0.07160414774328627
1899.0,0.07160414774328627
1898.0,0.07160414774328627
1897.0,0.07170658776779781
1896.0,0.07191154033502922
1895.0,0.07206531825882068
1894.0,0.07216786713341827
1893.0,0.07216786713341827
1892.0,0.07211658966929302
1891.0,0.07211658966929302
1890.0,0.07211658966929302
1889.0,0.07227044022834539
1888.0,0.07237303755504598
1887.0,0.07247565912497134
1886.0,0.07262963696097646
1885.0,0.07273231918911849
1884.0,0.07283502570063005
1883.0,0.07278366940873537
1882.0,0.07283502570063005
1881.0,0.07293775650699996
1880.0,0.07309189829456408
1879.0,0.0732460948102629
1878.0,0.07340034609297241
1877.0,0.07350321072677968
1876.0,0.07360609973031784
1875.0,0.07365755337434488
1874.0,0.07365755337434488
1873.0,0.07365755337434488
1872.0,0.07360609973031784
1871.0,0.07360609973031784
1870.0,0.07360609973031784
1869.0,0.07381195089279391
1868.0,0.07422394616325367
1867.0,0.07453319930846214
1866.0,0.07473949048056472
1865.0,0.07494587968815725
1864.0,0.07504911108438939
1863.0,0.07515236702446293
1862.0,0.07520400420208784
1861.0,0.07525564752005143
1860.0,0.07525564752005143
1859.0,0.07510073598571654
1858.0,0.07504911108438939
1857.0,0.07504911108438939
1856.0,0.07515236702446293
1855.0,0.07510073598571654
1854.0,0.07499749231902242
1853.0,0.07499749231902242
1852.0,0.07499749231902242
1851.0,0.07504911108438939
1850.0,0.07515236702446293
1849.0,0.07515236702446293
1848.0,0.07515236702446293
1847.0,0.07525564752005143
1846.0,0.07551395626608493
1845.0,0.07577241873988227
1844.0,0.07587584681417514
1843.0,0.07566901529132153
1842.0,0.07546228222451012
1841.0,0.07546228222451012
1840.0,0.0756173227980268
1839.0,0.07566901529132153
1838.0,0.0756173227980268
1837.0,0.0756173227980268
1836.0,0.07566901529132153
1835.0,0.0756173227980268
1834.0,0.07556563645676939
1833.0,0.07556563645676939
1832.0,0.07551395626608493
1831.0,0.07546228222451012
1830.0,0.07546228222451012
1829.0,0.07551395626608493
1828.0,0.07551395626608493
1827.0,0.07551395626608493
1826.0,0.07556563645676939
1825.0,0.07572071393811841
1824.0,0.07587584681417514
1823.0,0.0759792995259323
1822.0,0.07608277688689435
1821.0,0.07618627890881036
1820.0,0.07618627890881036
1819.0,0.07618627890881036
1818.0,0.07623803917129979
1817.0,0.0763933569825408
1816.0,0.07654873036034848
1815.0,0.07654873036034848
1814.0,0.07644514193245056
1813.0,0.07634157820669385
1812.0,0.0763933569825408
1811.0,0.07649693305789551
1810.0,0.07670415934449615
1809.0,0.07701518429111709
1808.0,0.07737832847680104
1807.0,0.07753405470158659
1806.0,0.07748213975538865
1805.0,0.07748213975538865
1804.0,0.07748213975538865
1803.0,0.07743023101428781
1802.0,0.07748213975538865
1801.0,0.07768983678560404
1800.0,0.07794959783282618
1799.0,0.07805354577058976
1798.0,0.07800156869172903
1797.0,0.07800156869172903
1796.0,0.0781575185941421
1795.0,0.07831352451639795
1794.0,0.07841755960658348
1793.0,0.07852161962430992
1792.0,0.07872981449018734
1791.0,0.0788860261633193
1790.0,0.07893810920972144
1789.0,0.079094395835976
1788.0,0.07935499859321249
1787.0,0.0794592834975203
1786.0,0.0794592834975203
1785.0,0.0794592834975203
1784.0,0.07935499859321249
1783.0,0.079094395835976
1782.0,0.07883394936226118
1781.0,0.07872981449018734
1780.0,0.07878187880504961
1779.0,0.07893810920972144
1778.0,0.07899019850296574
1777.0,0.07893810920972144
1776.0,0.07872981449018734
1775.0,0.07862570458152551
1774.0,0.07852161962430992
1773.0,0.07841755960658348
1772.0,0.07852161962430992
1771.0,0.07878187880504961
1770.0,0.07904229404455076
1769.0,0.07951143534170213
1768.0,0.07992887570247587
1767.0,0.08008551934056851
1766.0,0.07998108397108505
1765.0,0.07987667370927598
1764.0,0.07992887570247587
1763.0,0.07998108397108505
1762.0,0.07998108397108505
1761.0,0.07998108397108505
1760.0,0.08003329851661278
1759.0,0.08013774644446192
1758.0,0.08029446545087904
1757.0,0.0805035121369384
1756.0,0.08060807322614072
1755.0,0.08071265949561734
1754.0,0.08081727095749947
1753.0,0.08086958613938555
1752.0,0.08076496207674921
1751.0,0.08055578953476306
1750.0,0.08045124103115198
1749.0,0.0805035121369384
1748.0,0.08081727095749947
1747.0,0.08113125661901543
1746.0,0.0812359689720008
1745.0,0.08118360963962057
1744.0,0.08118360963962057
1743.0,0.08134070657817682
1742.0,0.08155025759884227
1741.0,0.08170748724464438
1740.0,0.08186477383364066
1739.0,0.08196966321511989
1738.0,0.08191721535781271
1737.0,0.08207457793525874
1736.0,0.0823369756726251
1735.0,0.08228448344050654
1734.0,0.08223199755224364
1733.0,0.08223199755224364
1732.0,0.08212704480115218
1731.0,0.08249449044745338
1730.0,0.08312512146131668
1729.0,0.08344078069888616
1728.0,0.0833881548906541
1727.0,0.08317771540408803
1726.0,0.08296737783760655
1725.0,0.08275714209253371
1724.0,0.08270459905431071
1723.0,0.08265206237222844
1722.0,0.08254700807033655
1721.0,0.08249449044745338
1720.0,0.08254700807033655
1719.0,0.08244197917456386
1718.0,0.08223199755224364
1717.0,0.08254700807033655
1716.0,0.08301995267961781
1715.0,0.08333553545860273
1714.0,0.08354605145007499
1713.0,0.08370400543686918
1712.0,0.08365134772453975
1711.0,0.08344078069888616
1710.0,0.08328292240118751
1709.0,0.0830725338870073
1708.0,0.08286224724355584
1707.0,0.08270459905431071
1706.0,0.08270459905431071
1705.0,0.08286224724355584
1704.0,0.08301995267961781
1703.0,0.08333553545860273
1702.0,0.08375666953466032
1701.0,0.0839147001562972
1700.0,0.08375666953466032
1699.0,0.08317771540408803
1698.0,0.0830725338870073
1697.0,0.08402008585977572
1696.0,0.08507535179485148
1695.0,0.08507535179485148
1694.0,0.08423093401631587
1693.0,0.0838620168928248
1692.0,0.08407278830288423
1691.0,0.08396738981143059
1690.0,0.08370400543686918
1689.0,0.08370400543686918
1688.0,0.08407278830288423
1687.0,0.08465293767580806
1686.0,0.08475850269380558
1685.0,0.08428366205400617
1684.0,0.08407278830288423
1683.0,0.08407278830288423
1682.0,0.08402008585977572
1681.0,0.08449463824562353
1680.0,0.08502252755566908
1679.0,0.08523386307414738
1678.0,0.0854453014823664
1677.0,0.0856568428805593
1676.0,0.08586848736910624
1675.0,0.08597434830367123
1674.0,0.08586848736910624
1673.0,0.08549817717268593
1672.0,0.08533956941077814
1671.0,0.08533956941077814
1670.0,0.08560394787021397
1669.0,0.0861331881037608
1668.0,0.08639805027084257
1667.0,0.08639805027084257
1666.0,0.08639805027084257
1665.0,0.08634506491338012
1664.0,0.086239113587677
1663.0,0.08618614761628329
1662.0,0.08650404038287651
1661.0,0.0867160982395816
1660.0,0.0867160982395816
1659.0,0.08666307406737683
1658.0,0.08661005636824437
1657.0,0.08645104209348209
1656.0,0.08650404038287651
1655.0,0.08655704514060414
1654.0,0.08655704514060414
1653.0,0.08761850108119962
1652.0,0.08756536662442538
1651.0,0.08581556657675371
1650.0,0.08539243222891946
1649.0,0.08549817717268593
1648.0,0.08528671302637614
1647.0,0.0856568428805593
1646.0,0.0867691288864394
1645.0,0.08735289378168276
1644.0,0.0872466963286771
1643.0,0.08719360733870762
1642.0,0.08719360733870762
1641.0,0.08714052483764512
1640.0,0.08692825969074924
1639.0,0.0867160982395816
1638.0,0.0867160982395816
1637.0,0.08692825969074924
1636.0,0.08751223866767632
1635.0,0.08799062441302175
1634.0,0.08756536662442538
1633.0,0.08698131625203986
1632.0,0.08682216600953208
1631.0,0.0867160982395816
1630.0,0.08661005636824437
1629.0,0.08661005636824437
1628.0,0.0867691288864394
1627.0,0.08698131625203986
1626.0,0.08714052483764512
1625.0,0.08719360733870762
1624.0,0.0872466963286771
1623.0,0.0872466963286771
1622.0,0.08719360733870762
1621.0,0.08692825969074924
1620.0,0.0867691288864394
1619.0,0.0867691288864394
1618.0,0.0867160982395816
1617.0,0.0867160982395816
1616.0,0.0867160982395816
1615.0,0.08650404038287651
1614.0,0.08639805027084257
1613.0,0.08639805027084257
1612.0,0.086239113587677
1611.0,0.08576265223225898
1610.0,0.08539243222891946
1609.0,0.08523386307414738
1608.0,0.08507535179485148
1607.0,0.08512818245994969
1606.0,0.08555105930144569
1605.0,0.08618614761628329
1604.0,0.08719360733870762
1603.0,0.08873582900163002
1602.0,0.09065796163869155
1601.0,0.09264239186882706
1600.0,0.09436599867304518
1599.0,0.09566320779750503
1598.0,0.09636748391576244
1597.0,0.09653017149282994
1596.0,0.09631326826349751
1595.0,0.09598811640261173
1594.0,0.09571734235437201
1593.0,0.09533854208447545
1592.0,0.09490603167212863
1591.0,0.09447395156495153
1590.0,0.09409623378338305
1589.0,0.09382663635595145
1588.0,0.0935572061829677
1587.0,0.09344948089854999
1586.0,0.0935033402006471
1585.0,0.09371884422784693
1584.0,0.09404230090757282
1583.0,0.09468993788391455
1582.0,0.09528445472131919
1581.0,0.0955549589230904
1580.0,0.09533854208447545
1579.0,0.0950141189006366
1578.0,0.09474395125154866
1577.0,0.09441997176475758
1576.0,0.09441997176475758
1575.0,0.09447395156495153
1574.0,0.09431203228814788
1573.0,0.09431203228814788
1572.0,0.09431203228814788
1571.0,0.09404230090757282
1570.0,0.09382663635595145
1569.0,0.0937727369476411
1568.0,0.0935572061829677
1567.0,0.09344948089854999
1566.0,0.09339562827501968
1565.0,0.09323411045927221
1564.0,0.09312646527792956
1563.0,0.09328794305703592
1562.0,0.09366495819490939
1561.0,0.09361107884716913
1560.0,0.09258863922541383
1559.0,0.09253489323414388
1558.0,0.09382663635595145
1557.0,0.09334178232840018
1556.0,0.09328794305703592
1555.0,0.09388054245443844
1554.0,0.09415017335768128
1553.0,0.09388054245443844
1552.0,0.0935033402006471
1551.0,0.09334178232840018
1550.0,0.09344948089854999
1549.0,0.09366495819490939
1548.0,0.09382663635595145
1547.0,0.09382663635595145
1546.0,0.09366495819490939
1545.0,0.09339562827501968
1544.0,0.09334178232840018
1543.0,0.0935033402006471
1542.0,0.09344948089854999
1541.0,0.09318028453345462
1540.0,0.0935033402006471
1539.0,0.0937727369476411
1538.0,0.09312646527792956
1537.0,0.09296504751658308
1536.0,0.09323411045927221
1535.0,0.09339562827501968
1534.0,0.09339562827501968
1533.0,0.09361107884716913
1532.0,0.0937727369476411
1531.0,0.09366495819490939
1530.0,0.09344948089854999
1529.0,0.09323411045927221
1528.0,0.09312646527792956
1527.0,0.09312646527792956
1526.0,0.09301884677114591
1525.0,0.09274991711867164
1524.0,0.09253489323414388
1523.0,0.09242742120144909
1522.0,0.09253489323414388
1521.0,0.09296504751658308
1520.0,0.09301884677114591
1519.0,0.09264239186882706
1518.0,0.09226626300234453
1517.0,0.0919977988274463
1516.0,0.09205147838772776
1515.0,0.0922125568893839
1514.0,0.09226626300234453
1513.0,0.0922125568893839
1512.0,0.09189045960744768
1511.0,0.09135416109288674
1510.0,0.09076499663169257
1509.0,0.0900163050601559
1508.0,0.08937559511079884
1507.0,0.08969583193143116
1506.0,0.09044397075882471
1505.0,0.08948231448273347
1504.0,0.08836306687055773
1503.0,0.08783110394037297
1502.0,0.0872466963286771
1501.0,0.08634506491338012
1500.0,0.08523386307414738
1499.0,0.08423093401631587
1498.0,0.08359869639612438
1497.0,0.08412549714230844
1496.0,0.08687520961044104
1495.0,0.09146136782804049
1494.0,0.09691001300805646
1493.0,0.10231793820358015
1492.0,0.10723776538418317
1491.0,0.11114683301706374
1490.0,0.11379137583250243
1489.0,0.11475189221861393
1488.0,0.1141301390960936
1487.0,0.11266406960083297
1486.0,0.11114683301706374
1485.0,0.10974669484546551
1484.0,0.10851829616048003
1483.0,0.10740457717110186
1482.0,0.10640466618011679
1481.0,0.10557316203581202
1480.0,0.10479852522110678
1479.0,0.10391491457671487
1478.0,0.10297804393963661
1477.0,0.10198826120249849
1476.0,0.10132965703447017
1475.0,0.10083635852278117
1474.0,0.1005625457138224
1473.0,0.1005078038618683
1472.0,0.10067205012234592
1471.0,0.10034361969436434
1470.0,0.09963287134352972
1469.0,0.0990869322623309
1468.0,0.09875969792669093
1467.0,0.09837823590664274
1466.0,0.09805153492691598
1465.0,0.09761631556752848
1464.0,0.09701860020249709
1463.0,0.096150661903319
1462.0,0.09512223303659528
1461.0,0.09409623378338305
1460.0,0.09307265269104414
1459.0,0.0919441259012328
1458.0,0.09071147583774919
1457.0,0.09049745859458458
1456.0,0.09215885741705532
1455.0,0.09517630019905599
1454.0,0.09946901754724413
1453.0,0.10479852522110678
1452.0,0.11041819785037621
1451.0,0.11514801725400226
1450.0,0.11810202642698875
1449.0,0.11947222180119477
1448.0,0.1201016756699902
1447.0,0.1203880929341492
1446.0,0.12044539906102569
1445.0,0.1202162199095842
1444.0,0.11992991593593283
1443.0,0.11958660012208333
1442.0,0.11912926746757657
1441.0,0.11872949607064243
1440.0,0.11850122038501709
1439.0,0.1183871275216517
1438.0,0.11821604440661537
1437.0,0.11815903167507247
1436.0,0.11821604440661537
1435.0,0.11781711236973003
1434.0,0.11690664142431006
1433.0,0.11611154211151953
1432.0,0.11543118508166672
1431.0,0.1149782051377024
1430.0,0.11469533241103202
1429.0,0.11441264381034388
1428.0,0.11401718864502697
1427.0,0.11356568037106163
1426.0,0.1130019543289007
1425.0,0.11243895906999102
1424.0,0.11215773489264302
1423.0,0.11210151190312767
1422.0,0.11210151190312767
1421.0,0.11193288659256306
1420.0,0.11159583226295333
1419.0,0.11153968196461372
1418.0,0.11159583226295333
1417.0,0.11153968196461372
1416.0,0.1114835389250548
1415.0,0.11131515334030118
1414.0,0.11097857790477517
1413.0,0.11058623595729111
1412.0,0.11041819785037621
1411.0,0.11047420332880886
1410.0,0.11041819785037621
1409.0,0.11025022473596224
1408.0,0.11002636159600376
1407.0,0.1098585399354226
1406.0,0.1098585399354226
1405.0,0.10997041383658313
1404.0,0.11019424813191447
1403.0,0.11036219959333216
1402.0,0.11019424813191447
1401.0,0.1098585399354226
1400.0,0.10952309103982927
1399.0,0.10946720807225518
1398.0,0.10952309103982927
1397.0,0.10952309103982927
1396.0,0.10952309103982927
1395.0,0.10969078310005154
1394.0,0.1098585399354226
1393.0,0.10974669484546551
1392.0,0.10957898119908571
1391.0,0.10941133229451272
1390.0,0.10929960230112479
1389.0,0.10929960230112479
1388.0,0.10946720807225518
1387.0,0.10991447328367476
1386.0,0.11030620855581463
1385.0,0.11047420332880886
1384.0,0.11053021603049262
1383.0,0.1106422631110684
1382.0,0.11069829749368965
1381.0,0.11092250734993603
1380.0,0.11114683301706374
1379.0,0.1114835389250548
1378.0,0.11176432672943282
1377.0,0.11193288659256306
1376.0,0.1120452961911984
1375.0,0.11232644754555254
1374.0,0.11288929687511629
1373.0,0.11350927482751816
1372.0,0.11379137583250243
1371.0,0.1138478180292033
1370.0,0.11390426756225258
1369.0,0.1141301390960936
1368.0,0.11446916681190777
1367.0,0.11475189221861393
1366.0,0.11492161585077598
1365.0,0.11492161585077598
1364.0,0.1149782051377024
1363.0,0.11531789579397489
1362.0,0.11599807523121286
1361.0,0.1165657063169907
1360.0,0.11679296664760996
1359.0,0.11679296664760996
1358.0,0.1165657063169907
1357.0,0.11645212073195621
1356.0,0.11645212073195621
1355.0,0.116736140415026
1354.0,0.11713408027837091
1353.0,0.11741854644554883
1352.0,0.11758931562603192
1351.0,0.11770319906234805
1350.0,0.11781711236973003
1349.0,0.11793105556385153
1348.0,0.11804502866039956
1347.0,0.11815903167507247
1346.0,0.11821604440661537
1345.0,0.11821604440661537
1344.0,0.11821604440661537
1343.0,0.11815903167507247
1342.0,0.11810202642698875
1341.0,0.11810202642698875
1340.0,0.11821604440661537
1339.0,0.11861534322942724
1338.0,0.1190150095132465
1337.0,0.11924355548978971
1336.0,0.11930071078129845
1335.0,0.11935787359571504
1334.0,0.11947222180119477
1333.0,0.11964380058076385
1332.0,0.11987267778337518
1331.0,0.1201016756699902
1330.0,0.12033079436794658
1329.0,0.12067469921519258
1328.0,0.12107626603243293
1327.0,0.12147820449879343
1326.0,0.12188051530283239
1325.0,0.12211057462851604
1324.0,0.12222565000860186
1323.0,0.12222565000860186
1322.0,0.12228319913502328
1321.0,0.12239832027072817
1320.0,0.12251347193039863
1319.0,0.12262865413022594
1318.0,0.12268625668776156
1317.0,0.12280148472821018
1316.0,0.12297438413275108
1315.0,0.1233203895807995
1314.0,0.12372441132212098
1313.0,0.12424442074194553
1312.0,0.12470717462899183
1311.0,0.1251124891538875
1310.0,0.12546020292898974
1309.0,0.12569216687196105
1308.0,0.12598229613781387
1307.0,0.12621453918179926
1306.0,0.1263307072932056
1305.0,0.12638880300353272
1304.0,0.12650501774383094
1303.0,0.1267375405612734
1302.0,0.12697018793895576
1301.0,0.12731939284807026
1300.0,0.12761061158217912
1299.0,0.12784372725170723
1298.0,0.12796033202671375
1297.0,0.1280769681176266
1296.0,0.12819363554127072
1295.0,0.12836869546244634
1294.0,0.12854382597704617
1293.0,0.12866061890013913
1292.0,0.12877744324029283
1291.0,0.12895273869450063
1290.0,0.12918657608440243
1289.0,0.1294790499872358
1288.0,0.12983027886355947
1287.0,0.13006458935314003
1286.0,0.1302990263261221
1285.0,0.1304749371427727
1284.0,0.1306509192409071
1283.0,0.1308269726783169
1282.0,0.13100309751286465
1281.0,0.1311792938024825
1280.0,0.13141433344123432
1279.0,0.13170831198214428
1278.0,0.1320613491092153
1277.0,0.13235576609690147
1276.0,0.13259144347720886
1275.0,0.13276828548110586
1274.0,0.13282724882135022
1273.0,0.13294519952329842
1272.0,0.13306318226836056
1271.0,0.13318119707395182
1270.0,0.13329924395750092
1269.0,0.13335827943396006
1268.0,0.13347637446715632
1267.0,0.13365357725039817
1266.0,0.1337717526203528
1265.0,0.13388996015562338
1264.0,0.13394907599072514
1263.0,0.13394907599072514
1262.0,0.13394907599072514
1261.0,0.13394907599072514
1260.0,0.13394907599072514
1259.0,0.13406733180681396
1258.0,0.1341264717921853
1257.0,0.13424477592854833
1256.0,0.13442229258007088
1255.0,0.134659094375416
1254.0,0.13483678049391368
1253.0,0.13501453934020602
1252.0,0.13519237097385295
1251.0,0.1352516643703412
1250.0,0.1352516643703412
1249.0,0.13531096586314884
1248.0,0.13537027545448765
1247.0,0.13554825284181704
1246.0,0.13572630319562085
1245.0,0.13578566953867033
1244.0,0.13584504399797437
1243.0,0.13584504399797437
1242.0,0.13584504399797437
1241.0,0.13584504399797437
1240.0,0.13590442657575252
1239.0,0.1360232160956132
1238.0,0.13620146131949973
1237.0,0.13632033212410222
1236.0,0.1363797797296844
1235.0,0.1363797797296844
1234.0,0.1363797797296844
1233.0,0.1363797797296844
1232.0,0.13632033212410222
1231.0,0.13626089265478303
1230.0,0.13620146131949973
1229.0,0.136142038116027
1228.0,0.13620146131949973
1227.0,0.1363797797296844
1226.0,0.13649869935854997
1225.0,0.13655817138629134
1224.0,0.13661765155921235
1223.0,0.13673663634951905
1222.0,0.13685565374733244
1221.0,0.13697470377052956
1220.0,0.1369151746796402
1219.0,0.13685565374733244
1218.0,0.1367961409713705
1217.0,0.1367961409713705
1216.0,0.13697470377052956
1215.0,0.13709378643700187
1214.0,0.1370342410222376
1213.0,0.1367961409713705
1212.0,0.13649869935854997
1211.0,0.13632033212410222
1210.0,0.13626089265478303
1209.0,0.13632033212410222
1208.0,0.13649869935854997
1207.0,0.13661765155921235
1206.0,0.13661765155921235
1205.0,0.13649869935854997
1204.0,0.13643923547375736
1203.0,0.13655817138629134
1202.0,0.13661765155921235
1201.0,0.13673663634951905
1200.0,0.13685565374733244
1199.0,0.1370342410222376
1198.0,0.13721290176465573
1197.0,0.13751083309410284
1196.0,0.13774932540207496
1195.0,0.13798794874978348
1194.0,0.1381073096085541
1193.0,0.1380476250785483
1192.0,0.13792828062000573
1191.0,0.13792828062000573
1190.0,0.13798794874978348
1189.0,0.1381073096085541
1188.0,0.13834612978608907
1187.0,0.13864483980673992
1186.0,0.1388839558386048
1185.0,0.13912320359670227
1184.0,0.1394224487555844
1183.0,0.1397219002477652
1182.0,0.1402014525194344
1181.0,0.14086170270546927
1180.0,0.1415229581866595
1179.0,0.14206473528057106
1178.0,0.14230574221345038
1177.0,0.14224547794055775
1176.0,0.14218522202899342
1175.0,0.14218522202899342
1174.0,0.14212497447643746
1173.0,0.14212497447643746
1172.0,0.14200450443907608
1171.0,0.1419442819496357
1170.0,0.14170347546611461
1169.0,0.1413425159091921
1168.0,0.1410419452819942
1167.0,0.1408016384661226
1166.0,0.14068153490288382
1165.0,0.1407415825326932
1164.0,0.1409217752530305
1163.0,0.14110204276799654
1162.0,0.14110204276799654
1161.0,0.1409217752530305
1160.0,0.14068153490288382
1159.0,0.14062149557439896
1158.0,0.1407415825326932
1157.0,0.14116214857141451
1156.0,0.14176366457048695
1155.0,0.14248658522331015
1154.0,0.1432711096171173
1153.0,0.14393604666690019
1152.0,0.14442027749828212
1151.0,0.14472319616990825
1150.0,0.14472319616990825
1149.0,0.14454141961396383
1148.0,0.14423862766005224
1147.0,0.14405705376768396
1146.0,0.14393604666690019
1145.0,0.1438755557576996
1144.0,0.14381507327283027
1143.0,0.14369413356670102
1142.0,0.14339193156306385
1141.0,0.14315032127482774
1140.0,0.14315032127482774
1139.0,0.14333151638846497
1138.0,0.14351278713136928
1137.0,0.14363367634075197
1136.0,0.14363367634075197
1135.0,0.14351278713136928
1134.0,0.14333151638846497
1133.0,0.14321071124668383
1132.0,0.1430899396992138
1131.0,0.14302956651750764
1130.0,0.14296920172737604
1129.0,0.14290884532648618
1128.0,0.14284849731250704
1127.0,0.1427881576831076
1126.0,0.1427278264359586
1125.0,0.14260718907909875
1124.0,0.14260718907909875
1123.0,0.14260718907909875
1122.0,0.14266750356873148
1121.0,0.1427278264359586
1120.0,0.1427881576831076
1119.0,0.1427881576831076
1118.0,0.1427278264359586
1117.0,0.14266750356873148
1116.0,0.1427278264359586
1115.0,0.14296920172737604
1114.0,0.1432711096171173
1113.0,0.14351278713136928
1112.0,0.14357322752975565
1111.0,0.14345235514325205
1110.0,0.14321071124668383
1109.0,0.14290884532648618
1108.0,0.1427881576831076
1107.0,0.14284849731250704
1106.0,0.14290884532648618
1105.0,0.14284849731250704
1104.0,0.14266750356873148
1103.0,0.14248658522331015
1102.0,0.1425468829647336
1101.0,0.14284849731250704
1100.0,0.1430899396992138
1099.0,0.1432711096171173
1098.0,0.1432711096171173
1097.0,0.14321071124668383
1096.0,0.14321071124668383
1095.0,0.14315032127482774
1094.0,0.14302956651750764
1093.0,0.14290884532648618
1092.0,0.1427881576831076
1091.0,0.1427278264359586
1090.0,0.14260718907909875
1089.0,0.14242629585250421
1088.0,0.1423660148499919
1087.0,0.14248658522331015
1086.0,0.14266750356873148
1085.0,0.1427278264359586
1084.0,0.1427881576831076
1083.0,0.14284849731250704
1082.0,0.14296920172737604
1081.0,0.14315032127482774
1080.0,0.14333151638846497
1079.0,0.14345235514325205
1078.0,0.14357322752975565
1077.0,0.14369413356670102
1076.0,0.1438755557576996
1075.0,0.14405705376768396
1074.0,0.14429916916456276
1073.0,0.14466259553045968
1072.0,0.1450869776921444
1071.0,0.14545106418704923
1070.0,0.14581545616639335
1069.0,0.14618015414323682
1068.0,0.1465451586319333
1067.0,0.14697138528701026
1066.0,0.14739803066176504
1065.0,0.1477030341730745
1064.0,0.14813039927023364
1063.0,0.14843591773651155
1062.0,0.14855818532794496
1061.0,0.14849704722945534
1060.0,0.14831368455757254
1059.0,0.14813039927023364
1058.0,0.14800825203784274
1057.0,0.14782509557969692
1056.0,0.1477030341730745
1055.0,0.14764201633217278
1054.0,0.1475810070629986
1053.0,0.14739803066176504
1052.0,0.1472760892087941
1051.0,0.1472151313194523
1050.0,0.1472760892087941
1049.0,0.14739803066176504
1048.0,0.14752000636314366
1047.0,0.1475810070629986
1046.0,0.14745901423020125
1045.0,0.1472760892087941
1044.0,0.14703230897118158
1043.0,0.14684956355215717
1042.0,0.14672777597931685
1041.0,0.1465451586319333
1040.0,0.14624096692523136
1039.0,0.14581545616639335
1038.0,0.14526898278605782
1037.0,0.1447838052666366
1036.0,0.14435971910985468
1035.0,0.14423862766005224
1034.0,0.14442027749828212
1033.0,0.14502632627358292
1032.0,0.14618015414323682
1031.0,0.14764201633217278
1030.0,0.1493537648169334
1029.0,0.15125681810431635
1028.0,0.15323004646278116
1027.0,0.15496400648658493
1026.0,0.1562690348879079
1025.0,0.15707887924001773
1024.0,0.15757799664235028
1023.0,0.15789023655938994
1022.0,0.15807768832054925
1021.0,0.15814019022493886
1020.0,0.15801519540988607
1019.0,0.15776531365276036
1018.0,0.15745316350498495
1017.0,0.15726598105173029
1016.0,0.15726598105173029
1015.0,0.157390760389438
1014.0,0.157390760389438
1013.0,0.15720360482441986
1012.0,0.15701652987778258
1011.0,0.15682953548010214
1010.0,0.1567049172634929
1009.0,0.1565803347950816
1008.0,0.1565803347950816
1007.0,0.1567049172634929
1006.0,0.15695418946543072
1005.0,0.15720360482441986
1004.0,0.15745316350498495
1003.0,0.15776531365276036
1002.0,0.15801519540988607
1001.0,0.15814019022493886
1000.0,0.15814019022493886
999.0,0.15801519540988607
998.0,0.15789023655938994
997.0,0.15782777061438424
996.0,0.15789023655938994
995.0,0.15795271149036205
994.0,0.15789023655938994
993.0,0.1576404266693252
992.0,0.15726598105173029
991.0,0.15701652987778258
990.0,0.15695418946543072
989.0,0.15695418946543072
988.0,0.15707887924001773
987.0,0.15701652987778258
986.0,0.15689185800039307
985.0,0.15676722190199066
984.0,0.15689185800039307
983.0,0.15726598105173029
982.0,0.1577028656719348
981.0,0.15801519540988607
980.0,0.15826522102525642
979.0,0.15845283474344662
978.0,0.15870311250971825
977.0,0.15895353459069628
976.0,0.15914144595812063
975.0,0.15914144595812063
974.0,0.1590787998012282
973.0,0.1590787998012282
972.0,0.1590787998012282
971.0,0.15926676538819318
970.0,0.15945481236316117
969.0,0.15970566838856382
968.0,0.159956669396506
967.0,0.1602706247936121
966.0,0.16064767110457878
965.0,0.16115090926274478
964.0,0.16165473122400909
963.0,0.16196991701467978
962.0,0.16209605540705763
961.0,0.16222223044626682
960.0,0.16234844215360744
959.0,0.16247469055039865
958.0,0.1624115617644888
957.0,0.16228533171508874
956.0,0.16228533171508874
955.0,0.16228533171508874
954.0,0.16209605540705763
953.0,0.16165473122400909
952.0,0.16115090926274478
951.0,0.16102504504453208
950.0,0.16133977401105848
949.0,0.1619068615544017
948.0,0.1624115617644888
947.0,0.1626009756579776
946.0,0.16266413198498508
945.0,0.16272729749769965
944.0,0.16291684917681404
943.0,0.16310648362356628
942.0,0.16329620091026875
941.0,0.16342272515935097
940.0,0.16361258067358908
939.0,0.16367588429324842
938.0,0.16354928627984533
937.0,0.16323295260579473
936.0,0.16304326294044946
935.0,0.16304326294044946
934.0,0.16310648362356628
933.0,0.16310648362356628
932.0,0.16298005145909156
931.0,0.1627904721987936
930.0,0.16266413198498508
929.0,0.16247469055039865
928.0,0.16228533171508874
927.0,0.16203298163134527
926.0,0.16178077809237412
925.0,0.16159172150581314
924.0,0.16152872092807113
923.0,0.16146572948813143
922.0,0.16133977401105848
921.0,0.16127680996862814
920.0,0.16127680996862814
919.0,0.1614027471833437
918.0,0.16152872092807113
917.0,0.16146572948813143
916.0,0.16127680996862814
915.0,0.16108797259400132
914.0,0.16108797259400132
913.0,0.16146572948813143
912.0,0.16228533171508874
911.0,0.163359458427226
910.0,0.1644362483309032
909.0,0.16545214231905137
908.0,0.16634300310712757
907.0,0.16742722515382025
906.0,0.16870625562299035
905.0,0.1699248335702499
904.0,0.17082492608291244
903.0,0.1714045436282976
902.0,0.17159792150840691
901.0,0.17166239994099564
900.0,0.17166239994099564
899.0,0.17166239994099564
898.0,0.17179138553205453
897.0,0.17204947169736973
896.0,0.17230771132555445
895.0,0.17224313702138327
894.0,0.17172688794793012
893.0,0.17108243838331405
892.0,0.17069622716897515
891.0,0.17069622716897515
890.0,0.17076057185861093
889.0,0.1706318920111798
888.0,0.1704389437006073
887.0,0.17024608107502504
886.0,0.17018181256112253
885.0,0.17024608107502504
884.0,0.17037464664195068
883.0,0.17031035910102887
882.0,0.16998906406388214
881.0,0.16953964996903292
880.0,0.16928305056310244
879.0,0.16941133131485575
878.0,0.16973219906635828
877.0,0.16986061257465734
876.0,0.16973219906635828
875.0,0.16947548590274142
874.0,0.1693471862025755
873.0,0.16947548590274142
872.0,0.16986061257465734
871.0,0.17031035910102887
870.0,0.17056756638240134
869.0,0.1704389437006073
868.0,0.1699248335702499
867.0,0.16928305056310244
866.0,0.16870625562299035
865.0,0.1685141607513425
864.0,0.1686422145579325
863.0,0.16883436609055757
862.0,0.16902660267734948
861.0,0.16909070045355667
860.0,0.16909070045355667
859.0,0.16902660267734948
858.0,0.16889843549864048
857.0,0.16889843549864048
856.0,0.16889843549864048
855.0,0.16889843549864048
854.0,0.1686422145579325
853.0,0.16825816635436186
852.0,0.16800232276410365
851.0,0.16793838540927308
850.0,0.16806626953325465
849.0,0.16838614469090118
848.0,0.16883436609055757
847.0,0.16921892439363884
846.0,0.16947548590274142
845.0,0.16966800654803826
844.0,0.16979640107429583
843.0,0.1699248335702499
842.0,0.1699248335702499
841.0,0.17005330405836405
840.0,0.1705032502798176
839.0,0.1713401034646802
838.0,0.17230771132555445
837.0,0.173212761183708
836.0,0.17386038206408516
835.0,0.1739900222088997
834.0,0.17353645090719882
833.0,0.17276000049435458
832.0,0.1721140172101443
831.0,0.1718558926962137
830.0,0.17192040944325404
829.0,0.17198493577602325
828.0,0.17192040944325404
827.0,0.17159792150840691
826.0,0.17095366314681737
825.0,0.17031035910102887
824.0,0.1701175535565067
823.0,0.1704389437006073
822.0,0.17082492608291244
821.0,0.17088928984470542
820.0,0.1705032502798176
819.0,0.1699248335702499
818.0,0.16928305056310244
817.0,0.16909070045355667
816.0,0.16928305056310244
815.0,0.16966800654803826
814.0,0.16986061257465734
813.0,0.16979640107429583
812.0,0.16953964996903292
811.0,0.16928305056310244
810.0,0.16896251435997467
809.0,0.1685141607513425
808.0,0.16819419132560887
807.0,0.16806626953325465
806.0,0.16819419132560887
805.0,0.1683221508085333
804.0,0.16838614469090118
803.0,0.16800232276410365
802.0,0.16698045292346864
801.0,0.1657700971483227
800.0,0.16481693015095633
799.0,0.16437283379010226
798.0,0.16399254087446846
797.0,0.16361258067358908
796.0,0.16329620091026875
795.0,0.16354928627984533
794.0,0.16418264570652719
793.0,0.16475346000368907
792.0,0.1646899991309374
791.0,0.16405589990615188
790.0,0.16298005145909156
789.0,0.16196991701467978
788.0,0.16121385505340546
787.0,0.16064767110457878
786.0,0.1600822243213189
785.0,0.159517512786558
784.0,0.15926676538819318
783.0,0.15920410115290617
782.0,0.15895353459069628
781.0,0.15851539066460685
780.0,0.15782777061438424
779.0,0.15707887924001773
778.0,0.1562068016740874
777.0,0.15546069787099204
776.0,0.15496400648658493
775.0,0.1548399223480541
774.0,0.15477789357098626
773.0,0.15477789357098626
772.0,0.15521228117215347
771.0,0.15633127702085625
770.0,0.15795271149036205
769.0,0.15970566838856382
768.0,0.16171775008531153
767.0,0.16418264570652719
766.0,0.16698045292346864
765.0,0.16966800654803826
764.0,0.1721785723171978
763.0,0.17470373556903995
762.0,0.1775703762206431
761.0,0.18078520011761579
760.0,0.1842894602110372
759.0,0.1879561020697733
758.0,0.19192413190869306
757.0,0.19599694527038736
756.0,0.19976421067264605
755.0,0.20252471246266568
754.0,0.20432849405397824
753.0,0.20565139610391725
752.0,0.20711825461460287
751.0,0.2090818047854217
750.0,0.21119550695535172
749.0,0.21339052735134012
748.0,0.2158107946190393
747.0,0.2183882175068499
746.0,0.22069217241641415
745.0,0.22235572230351508
744.0,0.22337144657984997
743.0,0.22380748525292793
742.0,0.22358941119265774
741.0,0.22279074185431513
740.0,0.2216316566441261
739.0,0.21989880853208832
738.0,0.21759904750347014
737.0,0.21481257997063818
736.0,0.2119731159041962
735.0,0.2090818047854217
734.0,0.20586064423222616
733.0,0.20252471246266568
732.0,0.19962664510865036
731.0,0.19729467292564795
730.0,0.19511125537760865
729.0,0.19253262431572216
728.0,0.189767482004916
727.0,0.18701983396051958
726.0,0.18415670933673334
725.0,0.18104868835982724
724.0,0.17802818235795725
723.0,0.1751585282462993
722.0,0.1721785723171978
721.0,0.16889843549864048
720.0,0.16545214231905137
719.0,0.16228533171508874
718.0,0.15932943866659088
717.0,0.1562690348879079
716.0,0.15255073750082726
715.0,0.1478861391502384
714.0,0.14212497447643746
713.0,0.13537027545448765
712.0,0.1280186461566306
711.0,0.1207320431753871
710.0,0.11424311893073247
709.0,0.10957898119908571
708.0,0.10740457717110186
707.0,0.1082953237608173
706.0,0.11249522576462212
705.0,0.12027350336042275
704.0,0.13182595914036166
703.0,0.14691047014813452
702.0,0.16545214231905137
701.0,0.1872871332346313
700.0,0.2126103786478899
699.0,0.24101245313238073
698.0,0.2710783536271406
697.0,0.2999889376778877
696.0,0.324863495532006
695.0,0.34303981725715094
694.0,0.3531063758322548
693.0,0.3547742884645839
692.0,0.3502758140704776
691.0,0.3423705686110481
690.0,0.3333884315809701
689.0,0.32513885926218844
688.0,0.31875876262441283
687.0,0.3140792078054646
686.0,0.3099812192113047
685.0,0.3048687022959742
684.0,0.2987775157434429
683.0,0.2922595457262287
682.0,0.2860057323393561
681.0,0.28058584029740663
680.0,0.2761340355564963
679.0,0.272296116314646
678.0,0.2689756201843121
677.0,0.26640153903866093
676.0,0.26464066699828925
675.0,0.2635238179723034
674.0,0.26288690569403883
673.0,0.2626483041962855
672.0,0.26288690569403883
671.0,0.263046046216854
670.0,0.2626483041962855
669.0,0.261774551857495
668.0,0.259321574772545
667.0,0.25539412458576116
666.0,0.2525105077413272
665.0,0.25026368443093894
664.0,0.24848994972995864
663.0,0.24779784682347894
662.0,0.24756739073852607
661.0,0.24695343837347083
660.0,0.24580461181016156
659.0,0.24473510858775338
658.0,0.2439727870265589
657.0,0.2429077798810675
656.0,0.24108810760202637
655.0,0.2389747482886273
654.0,0.23717144681090963
653.0,0.23627259623430175
652.0,0.23657200643706267
651.0,0.23709647150094293
650.0,0.23694655970038525
649.0,0.23589862352377122
648.0,0.2347040703019434
647.0,0.2341080235699846
646.0,0.23381030668984004
645.0,0.23358715288760057
644.0,0.23373590934800448
643.0,0.23395913961861092
642.0,0.23373590934800448
641.0,0.23291837863667775
640.0,0.2326956825467268
639.0,0.23395913961861092
638.0,0.23649713453240295
637.0,0.23957751657678794
636.0,0.24222450898807435
635.0,0.24321180123188202
634.0,0.24108810760202637
633.0,0.23597339230796277
632.0,0.2304749798289496
631.0,0.22716507276098175
630.0,0.22687207596666514
629.0,0.22855951336008817
628.0,0.23091821288178105
627.0,0.2326214758858196
626.0,0.2326956825467268
625.0,0.23143589048642665
624.0,0.23003219867055757
623.0,0.22936887222219338
622.0,0.22900079483605928
621.0,0.22848601002033342
620.0,0.22819212100089437
619.0,0.2286330291422194
618.0,0.2296635589048508
617.0,0.23054882059796222
616.0,0.23077041826340627
615.0,0.2301797422364078
614.0,0.22885365118501477
613.0,0.2267988576436557
612.0,0.22475374025976347
611.0,0.22337144657984997
610.0,0.22300841514359493
609.0,0.22366209037982476
608.0,0.2254100497352054
607.0,0.2278984307229881
606.0,0.2304749798289496
605.0,0.2321023839819094
604.0,0.2321023839819094
603.0,0.2299584456803314
602.0,0.22592119924748122
601.0,0.22155931642876725
600.0,0.2193946941610303
