cm-1,A
4000.0,0.01077272626946324
3999.0,0.01086177578421088
3998.0,0.010995384301463185
3997.0,0.011084479487313281
3996.0,0.011262724711199823
3995.0,0.011396456654336085
3994.0,0.011485634166333858
3993.0,0.011441043121384498
3992.0,0.011351874764248926
3991.0,0.011218156546359825
3990.0,0.01117359295472431
3989.0,0.011129033935354915
3988.0,0.011129033935354915
3987.0,0.01117359295472431
3986.0,0.01117359295472431
3985.0,0.01117359295472431
3984.0,0.01117359295472431
3983.0,0.01117359295472431
3982.0,0.01117359295472431
3981.0,0.011129033935354915
3980.0,0.011084479487313281
3979.0,0.011039929609661936
3978.0,0.011039929609661936
3977.0,0.010995384301463185
3976.0,0.010906307389674463
3975.0,0.01086177578421088
3974.0,0.01086177578421088
3973.0,0.010906307389674463
3972.0,0.011039929609661936
3971.0,0.011129033935354915
3970.0,0.01117359295472431
3969.0,0.011218156546359825
3968.0,0.011307297450183107
3967.0,0.011351874764248926
3966.0,0.011441043121384498
3965.0,0.011441043121384498
3964.0,0.011441043121384498
3963.0,0.011351874764248926
3962.0,0.011218156546359825
3961.0,0.011129033935354915
3960.0,0.011084479487313281
3959.0,0.011084479487313281
3958.0,0.011084479487313281
3957.0,0.011039929609661936
3956.0,0.010995384301463185
3955.0,0.01086177578421088
3954.0,0.01077272626946324
3953.0,0.010728208358306901
3952.0,0.01077272626946324
3951.0,0.010817248744452446
3950.0,0.010817248744452446
3949.0,0.01077272626946324
3948.0,0.010683695010048622
3947.0,0.010639186223752484
3946.0,0.010639186223752484
3945.0,0.01077272626946324
3944.0,0.010950843561779777
3943.0,0.011084479487313281
3942.0,0.011039929609661936
3941.0,0.010950843561779777
3940.0,0.010950843561779777
3939.0,0.011039929609661936
3938.0,0.011129033935354915
3937.0,0.01117359295472431
3936.0,0.01117359295472431
3935.0,0.01117359295472431
3934.0,0.01117359295472431
3933.0,0.01117359295472431
3932.0,0.011084479487313281
3931.0,0.01086177578421088
3930.0,0.010683695010048622
3929.0,0.010594681998483901
3928.0,0.010683695010048622
3927.0,0.01086177578421088
3926.0,0.011084479487313281
3925.0,0.011218156546359825
3924.0,0.01117359295472431
3923.0,0.011084479487313281
3922.0,0.011039929609661936
3921.0,0.010995384301463185
3920.0,0.010950843561779777
3919.0,0.010906307389674463
3918.0,0.01086177578421088
3917.0,0.010906307389674463
3916.0,0.010950843561779777
3915.0,0.011084479487313281
3914.0,0.011262724711199823
3913.0,0.011441043121384498
3912.0,0.011530229790124524
3911.0,0.011530229790124524
3910.0,0.011441043121384498
3909.0,0.011218156546359825
3908.0,0.01086177578421088
3907.0,0.01046119667949763
3906.0,0.010105436281226954
3905.0,0.009883233932095559
3904.0,0.009838807101520963
3903.0,0.009883233932095559
3902.0,0.009972101229705377
3901.0,0.010194349063173958
3900.0,0.01046119667949763
3899.0,0.010594681998483901
3898.0,0.010639186223752484
3897.0,0.010683695010048622
3896.0,0.010728208358306901
3895.0,0.010728208358306901
3894.0,0.01077272626946324
3893.0,0.010995384301463185
3892.0,0.011262724711199823
3891.0,0.011218156546359825
3890.0,0.01086177578421088
3889.0,0.010550182333308289
3888.0,0.010550182333308289
3887.0,0.010728208358306901
3886.0,0.010950843561779777
3885.0,0.010817248744452446
3884.0,0.01046119667949763
3883.0,0.010283280051895272
3882.0,0.01046119667949763
3881.0,0.01077272626946324
3880.0,0.010817248744452446
3879.0,0.010550182333308289
3878.0,0.01037222925484893
3877.0,0.010505687227290839
3876.0,0.01077272626946324
3875.0,0.010906307389674463
3874.0,0.010728208358306901
3873.0,0.010283280051895272
3872.0,0.009972101229705377
3871.0,0.010105436281226954
3870.0,0.010283280051895272
3869.0,0.010194349063173958
3868.0,0.009972101229705377
3867.0,0.01001654169860089
3866.0,0.010283280051895272
3865.0,0.010639186223752484
3864.0,0.010906307389674463
3863.0,0.011039929609661936
3862.0,0.011039929609661936
3861.0,0.011039929609661936
3860.0,0.010950843561779777
3859.0,0.01077272626946324
3858.0,0.01037222925484893
3857.0,0.00974996707218323
3856.0,0.009172949432521227
3855.0,0.009039900317800775
3854.0,0.009616741093766423
3853.0,0.009972101229705377
3852.0,0.009838807101520963
3851.0,0.010060986715464404
3850.0,0.01077272626946324
3849.0,0.011351874764248926
3848.0,0.011485634166333858
3847.0,0.011307297450183107
3846.0,0.011084479487313281
3845.0,0.010817248744452446
3844.0,0.010550182333308289
3843.0,0.010283280051895272
3842.0,0.01001654169860089
3841.0,0.01001654169860089
3840.0,0.01023881228122181
3839.0,0.010550182333308289
3838.0,0.010550182333308289
3837.0,0.01037222925484893
3836.0,0.01023881228122181
3835.0,0.01037222925484893
3834.0,0.010728208358306901
3833.0,0.011129033935354915
3832.0,0.011351874764248926
3831.0,0.011396456654336085
3830.0,0.011262724711199823
3829.0,0.01117359295472431
3828.0,0.011262724711199823
3827.0,0.011307297450183107
3826.0,0.011084479487313281
3825.0,0.010550182333308289
3824.0,0.009972101229705377
3823.0,0.009705553871561357
3822.0,0.009927665307847056
3821.0,0.010194349063173958
3820.0,0.010060986715464404
3819.0,0.009838807101520963
3818.0,0.010149890396819572
3817.0,0.010817248744452446
3816.0,0.011351874764248926
3815.0,0.011441043121384498
3814.0,0.011396456654336085
3813.0,0.011530229790124524
3812.0,0.011664044143949504
3811.0,0.011619434777991433
3810.0,0.011396456654336085
3809.0,0.011262724711199823
3808.0,0.011351874764248926
3807.0,0.011396456654336085
3806.0,0.011129033935354915
3805.0,0.010683695010048622
3804.0,0.010505687227290839
3803.0,0.010728208358306901
3802.0,0.011129033935354915
3801.0,0.01117359295472431
3800.0,0.01086177578421088
3799.0,0.01077272626946324
3798.0,0.011129033935354915
3797.0,0.011619434777991433
3796.0,0.011887159731648111
3795.0,0.011931796607364653
3794.0,0.012021084124518078
3793.0,0.01215504982870197
3792.0,0.012289056869694281
3791.0,0.012333735073725371
3790.0,0.012244383261476699
3789.0,0.012065734767841452
3788.0,0.011887159731648111
3787.0,0.011753276624621556
3786.0,0.011753276624621556
3785.0,0.011708658092512314
3784.0,0.011530229790124524
3783.0,0.011307297450183107
3782.0,0.011218156546359825
3781.0,0.011351874764248926
3780.0,0.011664044143949504
3779.0,0.011887159731648111
3778.0,0.011887159731648111
3777.0,0.011931796607364653
3776.0,0.012021084124518078
3775.0,0.012199714248127602
3774.0,0.012199714248127602
3773.0,0.01215504982870197
3772.0,0.012065734767841452
3771.0,0.012021084124518078
3770.0,0.011842527443247208
3769.0,0.011530229790124524
3768.0,0.011262724711199823
3767.0,0.011307297450183107
3766.0,0.011530229790124524
3765.0,0.011619434777991433
3764.0,0.011530229790124524
3763.0,0.011441043121384498
3762.0,0.011441043121384498
3761.0,0.011530229790124524
3760.0,0.011530229790124524
3759.0,0.011396456654336085
3758.0,0.011129033935354915
3757.0,0.01086177578421088
3756.0,0.010639186223752484
3755.0,0.010505687227290839
3754.0,0.010327752376126709
3753.0,0.01023881228122181
3752.0,0.01037222925484893
3751.0,0.010639186223752484
3750.0,0.010550182333308289
3749.0,0.01023881228122181
3748.0,0.009972101229705377
3747.0,0.010060986715464404
3746.0,0.010416710688994968
3745.0,0.010950843561779777
3744.0,0.010995384301463185
3743.0,0.010639186223752484
3742.0,0.010594681998483901
3741.0,0.01086177578421088
3740.0,0.010817248744452446
3739.0,0.010327752376126709
3738.0,0.009794384815193347
3737.0,0.009616741093766423
3736.0,0.009705553871561357
3735.0,0.009705553871561357
3734.0,0.009572341514736404
3733.0,0.00966114521239847
3732.0,0.01001654169860089
3731.0,0.010416710688994968
3730.0,0.010728208358306901
3729.0,0.010906307389674463
3728.0,0.010950843561779777
3727.0,0.010950843561779777
3726.0,0.01086177578421088
3725.0,0.010639186223752484
3724.0,0.01046119667949763
3723.0,0.010416710688994968
3722.0,0.01046119667949763
3721.0,0.010639186223752484
3720.0,0.01086177578421088
3719.0,0.011084479487313281
3718.0,0.011218156546359825
3717.0,0.011129033935354915
3716.0,0.01077272626946324
3715.0,0.010149890396819572
3714.0,0.009483555971770974
3713.0,0.009128595198514056
3712.0,0.009172949432521227
3711.0,0.009483555971770974
3710.0,0.009794384815193347
3709.0,0.010105436281226954
3708.0,0.010416710688994968
3707.0,0.010683695010048622
3706.0,0.01077272626946324
3705.0,0.01077272626946324
3704.0,0.010683695010048622
3703.0,0.010594681998483901
3702.0,0.010505687227290839
3701.0,0.01037222925484893
3700.0,0.010149890396819572
3699.0,0.010060986715464404
3698.0,0.010105436281226954
3697.0,0.010060986715464404
3696.0,0.009838807101520963
3695.0,0.00939478857608056
3694.0,0.008862564879688284
3693.0,0.008330992620051436
3692.0,0.007888512213050314
3691.0,0.007800070204414977
3690.0,0.008065450281052211
3689.0,0.008375265465994541
3688.0,0.00850811108984062
3687.0,0.008685301823389224
3686.0,0.009039900317800775
3685.0,0.009483555971770974
3684.0,0.00974996707218323
3683.0,0.009838807101520963
3682.0,0.00974996707218323
3681.0,0.009572341514736404
3680.0,0.009217308196862062
3679.0,0.008685301823389224
3678.0,0.008153946355103248
3677.0,0.008109696063975047
3676.0,0.008463824699968647
3675.0,0.008375265465994541
3674.0,0.007755855953228474
3673.0,0.007490664932224611
3672.0,0.007800070204414977
3671.0,0.008419542825660153
3670.0,0.009039900317800775
3669.0,0.009172949432521227
3668.0,0.00908424549391551
3667.0,0.009261671492462709
3666.0,0.009572341514736404
3665.0,0.009838807101520963
3664.0,0.009927665307847056
3663.0,0.009927665307847056
3662.0,0.009883233932095559
3661.0,0.00974996707218323
3660.0,0.009527946474380489
3659.0,0.00939478857608056
3658.0,0.009483555971770974
3657.0,0.009794384815193347
3656.0,0.01001654169860089
3655.0,0.009927665307847056
3654.0,0.00966114521239847
3653.0,0.009350411681145587
3652.0,0.008995559669244813
3651.0,0.008906891951112605
3650.0,0.009306039320248427
3649.0,0.009794384815193347
3648.0,0.009972101229705377
3647.0,0.010149890396819572
3646.0,0.010550182333308289
3645.0,0.011084479487313281
3644.0,0.011619434777991433
3643.0,0.012021084124518078
3642.0,0.012289056869694281
3641.0,0.012423105273012602
3640.0,0.012557195064198723
3639.0,0.01264661126420652
3638.0,0.012691326268817527
3637.0,0.01264661126420652
3636.0,0.01260190086298274
3635.0,0.012557195064198723
3634.0,0.012333735073725371
3633.0,0.011842527443247208
3632.0,0.011307297450183107
3631.0,0.010995384301463185
3630.0,0.011351874764248926
3629.0,0.012021084124518078
3628.0,0.012199714248127602
3627.0,0.012199714248127602
3626.0,0.012557195064198723
3625.0,0.013138729709955221
3624.0,0.013407393177789162
3623.0,0.013317820220494436
3622.0,0.013004460275618523
3621.0,0.012736045877764557
3620.0,0.01264661126420652
3619.0,0.01264661126420652
3618.0,0.01260190086298274
3617.0,0.012557195064198723
3616.0,0.01264661126420652
3615.0,0.012736045877764557
3614.0,0.012780770091995297
3613.0,0.012691326268817527
3612.0,0.012512493866907004
3611.0,0.012512493866907004
3610.0,0.012780770091995297
3609.0,0.013273040668781544
3608.0,0.01372104409400876
3607.0,0.013900374944870508
3606.0,0.013900374944870508
3605.0,0.013900374944870508
3604.0,0.013900374944870508
3603.0,0.013900374944870508
3602.0,0.013900374944870508
3601.0,0.013900374944870508
3600.0,0.01381070026317599
3599.0,0.013676222949234651
3598.0,0.013631406429727155
3597.0,0.013631406429727155
3596.0,0.013765869865004277
3595.0,0.013990068146738865
3594.0,0.014079779876432497
3593.0,0.01403492169512921
3592.0,0.013945219230304673
3591.0,0.013765869865004277
3590.0,0.013541787262693505
3589.0,0.013317820220494436
3588.0,0.013317820220494436
3587.0,0.013407393177789162
3586.0,0.013496984613259544
3585.0,0.01372104409400876
3584.0,0.014079779876432497
3583.0,0.014393916947563534
3582.0,0.014573525916998342
3581.0,0.014708281407112
3580.0,0.014843078722943437
3579.0,0.015022873584506602
3578.0,0.015202742910707112
3577.0,0.015337693809893471
3576.0,0.015427684378367834
3575.0,0.015427684378367834
3574.0,0.015427684378367834
3573.0,0.015337693809893471
3572.0,0.015112798935672522
3571.0,0.014843078722943437
3570.0,0.01452861671041239
3569.0,0.014393916947563534
3568.0,0.01452861671041239
3567.0,0.014663358264387139
3566.0,0.014618439768003144
3565.0,0.014573525916998342
3564.0,0.014753209197138295
3563.0,0.015112798935672522
3562.0,0.015517693597737248
3561.0,0.01578783323856614
3560.0,0.016013078034810446
3559.0,0.016103208673694303
3558.0,0.016148281008528276
3557.0,0.016193358021584725
3556.0,0.016238439713835096
3555.0,0.016238439713835096
3554.0,0.01632861713980338
3553.0,0.01646391839700767
3552.0,0.016554142658660398
3551.0,0.01646391839700767
3550.0,0.016373712875465518
3549.0,0.01628352608625061
3548.0,0.016373712875465518
3547.0,0.01646391839700767
3546.0,0.016509028184833463
3545.0,0.016418813294209356
3544.0,0.01628352608625061
3543.0,0.01632861713980338
3542.0,0.016509028184833463
3541.0,0.016734647433454652
3540.0,0.016870075265299933
3539.0,0.016870075265299933
3538.0,0.016824927962187042
3537.0,0.016644385668211692
3536.0,0.016509028184833463
3535.0,0.016418813294209356
3534.0,0.016418813294209356
3533.0,0.016418813294209356
3532.0,0.016418813294209356
3531.0,0.016373712875465518
3530.0,0.01628352608625061
3529.0,0.016238439713835096
3528.0,0.016238439713835096
3527.0,0.01628352608625061
3526.0,0.016373712875465518
3525.0,0.016373712875465518
3524.0,0.01632861713980338
3523.0,0.01628352608625061
3522.0,0.01628352608625061
3521.0,0.016418813294209356
3520.0,0.016644385668211692
3519.0,0.016870075265299933
3518.0,0.017005545341335804
3517.0,0.017005545341335804
3516.0,0.016915227262211507
3515.0,0.016870075265299933
3514.0,0.016870075265299933
3513.0,0.016870075265299933
3512.0,0.016870075265299933
3511.0,0.016960383953898095
3510.0,0.017050711425501408
3509.0,0.017141057687924732
3508.0,0.017141057687924732
3507.0,0.017050711425501408
3506.0,0.016960383953898095
3505.0,0.016824927962187042
3504.0,0.016734647433454652
3503.0,0.016689514205884493
3502.0,0.016644385668211692
3501.0,0.016644385668211692
3500.0,0.016734647433454652
3499.0,0.016870075265299933
3498.0,0.016960383953898095
3497.0,0.017005545341335804
3496.0,0.016960383953898095
3495.0,0.016870075265299933
3494.0,0.01677978535189717
3493.0,0.016689514205884493
3492.0,0.016734647433454652
3491.0,0.01677978535189717
3490.0,0.016915227262211507
3489.0,0.017005545341335804
3488.0,0.017005545341335804
3487.0,0.016915227262211507
3486.0,0.016824927962187042
3485.0,0.016824927962187042
3484.0,0.016915227262211507
3483.0,0.017005545341335804
3482.0,0.017095882207371904
3481.0,0.017095882207371904
3480.0,0.017005545341335804
3479.0,0.016960383953898095
3478.0,0.017050711425501408
3477.0,0.017186237868137555
3476.0,0.01727661233145472
3475.0,0.017231422748988034
3474.0,0.017005545341335804
3473.0,0.01677978535189717
3472.0,0.016644385668211692
3471.0,0.016644385668211692
3470.0,0.016734647433454652
3469.0,0.01677978535189717
3468.0,0.016870075265299933
3467.0,0.016960383953898095
3466.0,0.017005545341335804
3465.0,0.017050711425501408
3464.0,0.017141057687924732
3463.0,0.017186237868137555
3462.0,0.017186237868137555
3461.0,0.017231422748988034
3460.0,0.017321806616515723
3459.0,0.017502630802287644
3458.0,0.01768353030793479
3457.0,0.017864505196230507
3456.0,0.017909760704207134
3455.0,0.017864505196230507
3454.0,0.01781925440359733
3453.0,0.01781925440359733
3452.0,0.017955020928509757
3451.0,0.018136109008649592
3450.0,0.01831727262871463
3449.0,0.018362575344230914
3448.0,0.01831727262871463
3447.0,0.018226681372252695
3446.0,0.018136109008649592
3445.0,0.018181392829336396
3444.0,0.01831727262871463
3443.0,0.018543833477873584
3442.0,0.018815862601645694
3441.0,0.01899731005860028
3440.0,0.019133445417920836
3439.0,0.0192242260373785
3438.0,0.019178833355664393
3437.0,0.019042683770379876
3436.0,0.01899731005860028
3435.0,0.01899731005860028
3434.0,0.0190880622231564
3433.0,0.0192242260373785
3432.0,0.019315025636685412
3431.0,0.019360432556262852
3430.0,0.019360432556262852
3429.0,0.01940584422377989
3428.0,0.01940584422377989
3427.0,0.019360432556262852
3426.0,0.019269623464054586
3425.0,0.0192242260373785
3424.0,0.019178833355664393
3423.0,0.019178833355664393
3422.0,0.0192242260373785
3421.0,0.0192242260373785
3420.0,0.0192242260373785
3419.0,0.019178833355664393
3418.0,0.0190880622231564
3417.0,0.019042683770379876
3416.0,0.01899731005860028
3415.0,0.018951941086827073
3414.0,0.018861217359339655
3413.0,0.018770512579999288
3412.0,0.018679826740892747
3411.0,0.018634490921455527
3410.0,0.01858915983411169
3409.0,0.018634490921455527
3408.0,0.018634490921455527
3407.0,0.018634490921455527
3406.0,0.01858915983411169
3405.0,0.018498511851753108
3404.0,0.018362575344230914
3403.0,0.018181392829336396
3402.0,0.01809082990920774
3401.0,0.018045555530026514
3400.0,0.01809082990920774
3399.0,0.018226681372252695
3398.0,0.018271974638383703
3397.0,0.018226681372252695
3396.0,0.018045555530026514
3395.0,0.017864505196230507
3394.0,0.01768353030793479
3393.0,0.017638298366853045
3392.0,0.017638298366853045
3391.0,0.01759307113620534
3390.0,0.017547848615010242
3389.0,0.017547848615010242
3388.0,0.01759307113620534
3387.0,0.017638298366853045
3386.0,0.01768353030793479
3385.0,0.017774008325325275
3384.0,0.017955020928509757
3383.0,0.01809082990920774
3382.0,0.018226681372252695
3381.0,0.018226681372252695
3380.0,0.01809082990920774
3379.0,0.017955020928509757
3378.0,0.017774008325325275
3377.0,0.017638298366853045
3376.0,0.017547848615010242
3375.0,0.017547848615010242
3374.0,0.01759307113620534
3373.0,0.017728766960431575
3372.0,0.017864505196230507
3371.0,0.017909760704207134
3370.0,0.017909760704207134
3369.0,0.017864505196230507
3368.0,0.017864505196230507
3367.0,0.017909760704207134
3366.0,0.017909760704207134
3365.0,0.017864505196230507
3364.0,0.01781925440359733
3363.0,0.017864505196230507
3362.0,0.017955020928509757
3361.0,0.01800028587012159
3360.0,0.018045555530026514
3359.0,0.01800028587012159
3358.0,0.017955020928509757
3357.0,0.017955020928509757
3356.0,0.017909760704207134
3355.0,0.017909760704207134
3354.0,0.017864505196230507
3353.0,0.01781925440359733
3352.0,0.017728766960431575
3351.0,0.01768353030793479
3350.0,0.017638298366853045
3349.0,0.017638298366853045
3348.0,0.017638298366853045
3347.0,0.01768353030793479
3346.0,0.01768353030793479
3345.0,0.01768353030793479
3344.0,0.017728766960431575
3343.0,0.01781925440359733
3342.0,0.017864505196230507
3341.0,0.017909760704207134
3340.0,0.017909760704207134
3339.0,0.017955020928509757
3338.0,0.018045555530026514
3337.0,0.018136109008649592
3336.0,0.018181392829336396
3335.0,0.018181392829336396
3334.0,0.018181392829336396
3333.0,0.018136109008649592
3332.0,0.018136109008649592
3331.0,0.018136109008649592
3330.0,0.018181392829336396
3329.0,0.018181392829336396
3328.0,0.018136109008649592
3327.0,0.018045555530026514
3326.0,0.017909760704207134
3325.0,0.017864505196230507
3324.0,0.017864505196230507
3323.0,0.017955020928509757
3322.0,0.01809082990920774
3321.0,0.018226681372252695
3320.0,0.018362575344230914
3319.0,0.018362575344230914
3318.0,0.01831727262871463
3317.0,0.018181392829336396
3316.0,0.01800028587012159
3315.0,0.017909760704207134
3314.0,0.017864505196230507
3313.0,0.017955020928509757
3312.0,0.01809082990920774
3311.0,0.018226681372252695
3310.0,0.018226681372252695
3309.0,0.018136109008649592
3308.0,0.017909760704207134
3307.0,0.01768353030793479
3306.0,0.017547848615010242
3305.0,0.017547848615010242
3304.0,0.01759307113620534
3303.0,0.01768353030793479
3302.0,0.017728766960431575
3301.0,0.01768353030793479
3300.0,0.017638298366853045
3299.0,0.017638298366853045
3298.0,0.01768353030793479
3297.0,0.01781925440359733
3296.0,0.017909760704207134
3295.0,0.017955020928509757
3294.0,0.01800028587012159
3293.0,0.018045555530026514
3292.0,0.01809082990920774
3291.0,0.018136109008649592
3290.0,0.01809082990920774
3289.0,0.018045555530026514
3288.0,0.017955020928509757
3287.0,0.017909760704207134
3286.0,0.017909760704207134
3285.0,0.01800028587012159
3284.0,0.018045555530026514
3283.0,0.018045555530026514
3282.0,0.018045555530026514
3281.0,0.01809082990920774
3280.0,0.01809082990920774
3279.0,0.01809082990920774
3278.0,0.018045555530026514
3277.0,0.017955020928509757
3276.0,0.017955020928509757
3275.0,0.017955020928509757
3274.0,0.01800028587012159
3273.0,0.01800028587012159
3272.0,0.018045555530026514
3271.0,0.01809082990920774
3270.0,0.018045555530026514
3269.0,0.01800028587012159
3268.0,0.017864505196230507
3267.0,0.01781925440359733
3266.0,0.01781925440359733
3265.0,0.017909760704207134
3264.0,0.01800028587012159
3263.0,0.018045555530026514
3262.0,0.01800028587012159
3261.0,0.017909760704207134
3260.0,0.017864505196230507
3259.0,0.01781925440359733
3258.0,0.017774008325325275
3257.0,0.017728766960431575
3256.0,0.017774008325325275
3255.0,0.01781925440359733
3254.0,0.017909760704207134
3253.0,0.017909760704207134
3252.0,0.017864505196230507
3251.0,0.017728766960431575
3250.0,0.017638298366853045
3249.0,0.017638298366853045
3248.0,0.01768353030793479
3247.0,0.017728766960431575
3246.0,0.01768353030793479
3245.0,0.01768353030793479
3244.0,0.017638298366853045
3243.0,0.017728766960431575
3242.0,0.01781925440359733
3241.0,0.017864505196230507
3240.0,0.01781925440359733
3239.0,0.017774008325325275
3238.0,0.01768353030793479
3237.0,0.017638298366853045
3236.0,0.01759307113620534
3235.0,0.01759307113620534
3234.0,0.01759307113620534
3233.0,0.017638298366853045
3232.0,0.017728766960431575
3231.0,0.017774008325325275
3230.0,0.017774008325325275
3229.0,0.017728766960431575
3228.0,0.017638298366853045
3227.0,0.017638298366853045
3226.0,0.017638298366853045
3225.0,0.017728766960431575
3224.0,0.01781925440359733
3223.0,0.01781925440359733
3222.0,0.017728766960431575
3221.0,0.017638298366853045
3220.0,0.01759307113620534
3219.0,0.017638298366853045
3218.0,0.01781925440359733
3217.0,0.017955020928509757
3216.0,0.01800028587012159
3215.0,0.017864505196230507
3214.0,0.017638298366853045
3213.0,0.017457417697056554
3212.0,0.017367005605150476
3211.0,0.017412209298337533
3210.0,0.017457417697056554
3209.0,0.017457417697056554
3208.0,0.017412209298337533
3207.0,0.017412209298337533
3206.0,0.017502630802287644
3205.0,0.01759307113620534
3204.0,0.017638298366853045
3203.0,0.017728766960431575
3202.0,0.01781925440359733
3201.0,0.017909760704207134
3200.0,0.017909760704207134
3199.0,0.017864505196230507
3198.0,0.017774008325325275
3197.0,0.01768353030793479
3196.0,0.017638298366853045
3195.0,0.01759307113620534
3194.0,0.017547848615010242
3193.0,0.017457417697056554
3192.0,0.017412209298337533
3191.0,0.017412209298337533
3190.0,0.017367005605150476
3189.0,0.017412209298337533
3188.0,0.017457417697056554
3187.0,0.017547848615010242
3186.0,0.01759307113620534
3185.0,0.01759307113620534
3184.0,0.01759307113620534
3183.0,0.01759307113620534
3182.0,0.017547848615010242
3181.0,0.017457417697056554
3180.0,0.017367005605150476
3179.0,0.017231422748988034
3178.0,0.017186237868137555
3177.0,0.017186237868137555
3176.0,0.01727661233145472
3175.0,0.017367005605150476
3174.0,0.017457417697056554
3173.0,0.017547848615010242
3172.0,0.01759307113620534
3171.0,0.017547848615010242
3170.0,0.017457417697056554
3169.0,0.017367005605150476
3168.0,0.017321806616515723
3167.0,0.01727661233145472
3166.0,0.01727661233145472
3165.0,0.01727661233145472
3164.0,0.01727661233145472
3163.0,0.017321806616515723
3162.0,0.017367005605150476
3161.0,0.017367005605150476
3160.0,0.017367005605150476
3159.0,0.017321806616515723
3158.0,0.017367005605150476
3157.0,0.017412209298337533
3156.0,0.017502630802287644
3155.0,0.017547848615010242
3154.0,0.017502630802287644
3153.0,0.017367005605150476
3152.0,0.017231422748988034
3151.0,0.017186237868137555
3150.0,0.017186237868137555
3149.0,0.01727661233145472
3148.0,0.017367005605150476
3147.0,0.017367005605150476
3146.0,0.017321806616515723
3145.0,0.017186237868137555
3144.0,0.017095882207371904
3143.0,0.017005545341335804
3142.0,0.017005545341335804
3141.0,0.017095882207371904
3140.0,0.017186237868137555
3139.0,0.017321806616515723
3138.0,0.017367005605150476
3137.0,0.017321806616515723
3136.0,0.01727661233145472
3135.0,0.017321806616515723
3134.0,0.017457417697056554
3133.0,0.01759307113620534
3132.0,0.01768353030793479
3131.0,0.017638298366853045
3130.0,0.01759307113620534
3129.0,0.017502630802287644
3128.0,0.017457417697056554
3127.0,0.017412209298337533
3126.0,0.017412209298337533
3125.0,0.017412209298337533
3124.0,0.017457417697056554
3123.0,0.017547848615010242
3122.0,0.01759307113620534
3121.0,0.01759307113620534
3120.0,0.01759307113620534
3119.0,0.017547848615010242
3118.0,0.01759307113620534
3117.0,0.017638298366853045
3116.0,0.01768353030793479
3115.0,0.01768353030793479
3114.0,0.017638298366853045
3113.0,0.01768353030793479
3112.0,0.01781925440359733
3111.0,0.01800028587012159
3110.0,0.018181392829336396
3109.0,0.01831727262871463
3108.0,0.01840788278591865
3107.0,0.018498511851753108
3106.0,0.018543833477873584
3105.0,0.01858915983411169
3104.0,0.01858915983411169
3103.0,0.01858915983411169
3102.0,0.018543833477873584
3101.0,0.018498511851753108
3100.0,0.01840788278591865
3099.0,0.01831727262871463
3098.0,0.018271974638383703
3097.0,0.018226681372252695
3096.0,0.018226681372252695
3095.0,0.018271974638383703
3094.0,0.018271974638383703
3093.0,0.018271974638383703
3092.0,0.01831727262871463
3091.0,0.018362575344230914
3090.0,0.01840788278591865
3089.0,0.01845319495476394
3088.0,0.018498511851753108
3087.0,0.018498511851753108
3086.0,0.018543833477873584
3085.0,0.018543833477873584
3084.0,0.018543833477873584
3083.0,0.018543833477873584
3082.0,0.018543833477873584
3081.0,0.01858915983411169
3080.0,0.018679826740892747
3079.0,0.018815862601645694
3078.0,0.018951941086827073
3077.0,0.0190880622231564
3076.0,0.019133445417920836
3075.0,0.019178833355664393
3074.0,0.019133445417920836
3073.0,0.019042683770379876
3072.0,0.018951941086827073
3071.0,0.018906576854070378
3070.0,0.018906576854070378
3069.0,0.018951941086827073
3068.0,0.018951941086827073
3067.0,0.018906576854070378
3066.0,0.018815862601645694
3065.0,0.018770512579999288
3064.0,0.018815862601645694
3063.0,0.018906576854070378
3062.0,0.01899731005860028
3061.0,0.019042683770379876
3060.0,0.0190880622231564
3059.0,0.019133445417920836
3058.0,0.019178833355664393
3057.0,0.0192242260373785
3056.0,0.019315025636685412
3055.0,0.019360432556262852
3054.0,0.019360432556262852
3053.0,0.019269623464054586
3052.0,0.0190880622231564
3051.0,0.018861217359339655
3050.0,0.018634490921455527
3049.0,0.018362575344230914
3048.0,0.01809082990920774
3047.0,0.01781925440359733
3046.0,0.017547848615010242
3045.0,0.01727661233145472
3044.0,0.017095882207371904
3043.0,0.016915227262211507
3042.0,0.016824927962187042
3041.0,0.01677978535189717
3040.0,0.016644385668211692
3039.0,0.01646391839700767
3038.0,0.01628352608625061
3037.0,0.016148281008528276
3036.0,0.016058141016111804
3035.0,0.015922966097169144
3034.0,0.01578783323856614
3033.0,0.015607721475734415
3032.0,0.01547268665620738
3031.0,0.015337693809893471
3030.0,0.015157768594724175
3029.0,0.014932966849499074
3028.0,0.014663358264387139
3027.0,0.014438812226654996
3026.0,0.014349026309051105
3025.0,0.014349026309051105
3024.0,0.014349026309051105
3023.0,0.014214382227394795
3022.0,0.01403492169512921
3021.0,0.01381070026317599
3020.0,0.013541787262693505
3019.0,0.013362604389846044
3018.0,0.01322826573375524
3017.0,0.013093968619278806
3016.0,0.013004460275618523
3015.0,0.012870232340102872
3014.0,0.01264661126420652
3013.0,0.012378417874516323
3012.0,0.012110390002254778
3011.0,0.011797899741219142
3010.0,0.011530229790124524
3009.0,0.011218156546359825
3008.0,0.010950843561779777
3007.0,0.010728208358306901
3006.0,0.010550182333308289
3005.0,0.010327752376126709
3004.0,0.010149890396819572
3003.0,0.009883233932095559
3002.0,0.009616741093766423
3001.0,0.009350411681145587
3000.0,0.009128595198514056
2999.0,0.008951223547323472
2998.0,0.008818242332126802
2997.0,0.008773924307505121
2996.0,0.0087296108049002
2995.0,0.008685301823389224
2994.0,0.008596697419959609
2993.0,0.008286724286910463
2992.0,0.007711646202907652
2991.0,0.007093181776687496
2990.0,0.006607862550997545
2989.0,0.006475596832934416
2988.0,0.006607862550997545
2987.0,0.006916639301937977
2986.0,0.007269796045857202
2985.0,0.0075790439479759275
2984.0,0.007932739972333236
2983.0,0.008286724286910463
2982.0,0.008552401996197112
2981.0,0.008818242332126802
2980.0,0.008995559669244813
2979.0,0.009217308196862062
2978.0,0.009439170005980158
2977.0,0.00974996707218323
2976.0,0.010060986715464404
2975.0,0.010327752376126709
2974.0,0.010594681998483901
2973.0,0.010817248744452446
2972.0,0.01117359295472431
2971.0,0.011619434777991433
2970.0,0.01215504982870197
2969.0,0.012736045877764557
2968.0,0.013317820220494436
2967.0,0.013945219230304673
2966.0,0.014663358264387139
2965.0,0.01538268676325183
2964.0,0.016013078034810446
2963.0,0.016509028184833463
2962.0,0.016915227262211507
2961.0,0.017231422748988034
2960.0,0.017547848615010242
2959.0,0.017728766960431575
2958.0,0.017864505196230507
2957.0,0.01800028587012159
2956.0,0.018136109008649592
2955.0,0.018226681372252695
2954.0,0.01831727262871463
2953.0,0.01831727262871463
2952.0,0.01831727262871463
2951.0,0.018226681372252695
2950.0,0.018045555530026514
2949.0,0.017774008325325275
2948.0,0.017412209298337533
2947.0,0.017050711425501408
2946.0,0.016644385668211692
2945.0,0.016193358021584725
2944.0,0.01578783323856614
2943.0,0.015427684378367834
2942.0,0.015112798935672522
2941.0,0.014888020460646079
2940.0,0.014573525916998342
2939.0,0.014214382227394795
2938.0,0.01381070026317599
2937.0,0.013407393177789162
2936.0,0.013138729709955221
2935.0,0.012959713020733288
2934.0,0.012825498912458322
2933.0,0.012691326268817527
2932.0,0.012512493866907004
2931.0,0.012333735073725371
2930.0,0.01215504982870197
2929.0,0.0119764380713403
2928.0,0.011842527443247208
2927.0,0.011664044143949504
2926.0,0.011485634166333858
2925.0,0.011262724711199823
2924.0,0.011129033935354915
2923.0,0.010995384301463185
2922.0,0.010906307389674463
2921.0,0.010906307389674463
2920.0,0.010950843561779777
2919.0,0.010950843561779777
2918.0,0.010950843561779777
2917.0,0.010817248744452446
2916.0,0.010683695010048622
2915.0,0.01046119667949763
2914.0,0.01023881228122181
2913.0,0.010060986715464404
2912.0,0.009927665307847056
2911.0,0.009883233932095559
2910.0,0.009927665307847056
2909.0,0.010060986715464404
2908.0,0.010149890396819572
2907.0,0.01023881228122181
2906.0,0.01023881228122181
2905.0,0.010149890396819572
2904.0,0.009927665307847056
2903.0,0.009527946474380489
2902.0,0.009261671492462709
2901.0,0.009261671492462709
2900.0,0.009572341514736404
2899.0,0.010060986715464404
2898.0,0.010505687227290839
2897.0,0.010817248744452446
2896.0,0.011039929609661936
2895.0,0.011262724711199823
2894.0,0.011441043121384498
2893.0,0.011619434777991433
2892.0,0.011797899741219142
2891.0,0.011931796607364653
2890.0,0.012021084124518078
2889.0,0.012065734767841452
2888.0,0.012021084124518078
2887.0,0.011931796607364653
2886.0,0.011842527443247208
2885.0,0.011842527443247208
2884.0,0.011931796607364653
2883.0,0.01215504982870197
2882.0,0.012423105273012602
2881.0,0.012691326268817527
2880.0,0.012914970375878188
2879.0,0.013093968619278806
2878.0,0.013138729709955221
2877.0,0.01318349541446362
2876.0,0.01318349541446362
2875.0,0.01322826573375524
2874.0,0.013273040668781544
2873.0,0.013362604389846044
2872.0,0.013496984613259544
2871.0,0.013631406429727155
2870.0,0.013765869865004277
2869.0,0.01381070026317599
2868.0,0.01381070026317599
2867.0,0.01385553528947936
2866.0,0.013945219230304673
2865.0,0.014124642691606404
2864.0,0.014349026309051105
2863.0,0.014573525916998342
2862.0,0.014798141635428141
2861.0,0.014977917890464765
2860.0,0.015157768594724175
2859.0,0.015292705517326866
2858.0,0.01547268665620738
2857.0,0.015607721475734415
2856.0,0.015742798294583915
2855.0,0.015922966097169144
2854.0,0.016148281008528276
2853.0,0.01628352608625061
2852.0,0.016418813294209356
2851.0,0.016418813294209356
2850.0,0.016373712875465518
2849.0,0.01632861713980338
2848.0,0.01632861713980338
2847.0,0.016373712875465518
2846.0,0.016418813294209356
2845.0,0.016509028184833463
2844.0,0.016554142658660398
2843.0,0.016554142658660398
2842.0,0.016599261819461697
2841.0,0.016599261819461697
2840.0,0.016599261819461697
2839.0,0.016554142658660398
2838.0,0.016509028184833463
2837.0,0.016509028184833463
2836.0,0.016554142658660398
2835.0,0.016554142658660398
2834.0,0.016554142658660398
2833.0,0.016599261819461697
2832.0,0.016644385668211692
2831.0,0.01677978535189717
2830.0,0.016824927962187042
2829.0,0.01677978535189717
2828.0,0.016644385668211692
2827.0,0.016509028184833463
2826.0,0.016373712875465518
2825.0,0.01632861713980338
2824.0,0.016373712875465518
2823.0,0.016509028184833463
2822.0,0.016644385668211692
2821.0,0.016734647433454652
2820.0,0.016824927962187042
2819.0,0.016824927962187042
2818.0,0.016824927962187042
2817.0,0.016734647433454652
2816.0,0.016644385668211692
2815.0,0.016554142658660398
2814.0,0.016509028184833463
2813.0,0.016509028184833463
2812.0,0.01646391839700767
2811.0,0.016509028184833463
2810.0,0.016599261819461697
2809.0,0.016734647433454652
2808.0,0.016870075265299933
2807.0,0.016960383953898095
2806.0,0.016960383953898095
2805.0,0.016915227262211507
2804.0,0.016824927962187042
2803.0,0.016734647433454652
2802.0,0.016689514205884493
2801.0,0.01677978535189717
2800.0,0.016824927962187042
2799.0,0.016915227262211507
2798.0,0.016915227262211507
2797.0,0.016915227262211507
2796.0,0.016915227262211507
2795.0,0.016870075265299933
2794.0,0.016824927962187042
2793.0,0.016689514205884493
2792.0,0.016599261819461697
2791.0,0.016509028184833463
2790.0,0.016509028184833463
2789.0,0.016509028184833463
2788.0,0.016554142658660398
2787.0,0.016599261819461697
2786.0,0.016644385668211692
2785.0,0.016689514205884493
2784.0,0.016734647433454652
2783.0,0.01677978535189717
2782.0,0.01677978535189717
2781.0,0.016734647433454652
2780.0,0.016734647433454652
2779.0,0.01677978535189717
2778.0,0.01677978535189717
2777.0,0.01677978535189717
2776.0,0.016734647433454652
2775.0,0.016644385668211692
2774.0,0.016509028184833463
2773.0,0.016418813294209356
2772.0,0.016373712875465518
2771.0,0.016418813294209356
2770.0,0.016509028184833463
2769.0,0.016599261819461697
2768.0,0.016644385668211692
2767.0,0.016689514205884493
2766.0,0.016689514205884493
2765.0,0.016599261819461697
2764.0,0.016554142658660398
2763.0,0.01646391839700767
2762.0,0.016418813294209356
2761.0,0.016373712875465518
2760.0,0.01632861713980338
2759.0,0.016373712875465518
2758.0,0.016509028184833463
2757.0,0.016689514205884493
2756.0,0.016734647433454652
2755.0,0.016689514205884493
2754.0,0.016599261819461697
2753.0,0.016554142658660398
2752.0,0.016599261819461697
2751.0,0.016689514205884493
2750.0,0.016734647433454652
2749.0,0.016689514205884493
2748.0,0.016554142658660398
2747.0,0.01646391839700767
2746.0,0.016373712875465518
2745.0,0.01632861713980338
2744.0,0.01628352608625061
2743.0,0.01628352608625061
2742.0,0.01628352608625061
2741.0,0.016238439713835096
2740.0,0.016193358021584725
2739.0,0.016148281008528276
2738.0,0.016193358021584725
2737.0,0.016193358021584725
2736.0,0.016193358021584725
2735.0,0.016193358021584725
2734.0,0.016238439713835096
2733.0,0.01628352608625061
2732.0,0.01632861713980338
2731.0,0.016373712875465518
2730.0,0.016418813294209356
2729.0,0.01646391839700767
2728.0,0.01646391839700767
2727.0,0.01646391839700767
2726.0,0.016373712875465518
2725.0,0.01628352608625061
2724.0,0.016193358021584725
2723.0,0.016148281008528276
2722.0,0.016103208673694303
2721.0,0.016058141016111804
2720.0,0.016013078034810446
2719.0,0.016013078034810446
2718.0,0.016013078034810446
2717.0,0.016013078034810446
2716.0,0.01596801972881945
2715.0,0.015922966097169144
2714.0,0.01596801972881945
2713.0,0.016058141016111804
2712.0,0.016148281008528276
2711.0,0.016193358021584725
2710.0,0.016193358021584725
2709.0,0.016193358021584725
2708.0,0.016193358021584725
2707.0,0.016193358021584725
2706.0,0.016148281008528276
2705.0,0.016148281008528276
2704.0,0.016193358021584725
2703.0,0.016238439713835096
2702.0,0.016238439713835096
2701.0,0.016238439713835096
2700.0,0.016193358021584725
2699.0,0.016148281008528276
2698.0,0.016148281008528276
2697.0,0.016103208673694303
2696.0,0.016058141016111804
2695.0,0.015922966097169144
2694.0,0.015832872853011715
2693.0,0.015742798294583915
2692.0,0.015742798294583915
2691.0,0.01578783323856614
2690.0,0.01578783323856614
2689.0,0.015742798294583915
2688.0,0.015697768020096703
2687.0,0.015742798294583915
2686.0,0.015832872853011715
2685.0,0.015877917138889863
2684.0,0.015877917138889863
2683.0,0.015877917138889863
2682.0,0.015922966097169144
2681.0,0.015922966097169144
2680.0,0.015922966097169144
2679.0,0.015832872853011715
2678.0,0.015697768020096703
2677.0,0.015607721475734415
2676.0,0.015562705203923999
2675.0,0.015607721475734415
2674.0,0.015607721475734415
2673.0,0.015607721475734415
2672.0,0.015562705203923999
2671.0,0.015427684378367834
2670.0,0.01538268676325183
2669.0,0.015427684378367834
2668.0,0.015517693597737248
2667.0,0.015562705203923999
2666.0,0.015607721475734415
2665.0,0.015652742414136167
2664.0,0.01578783323856614
2663.0,0.015877917138889863
2662.0,0.015922966097169144
2661.0,0.015877917138889863
2660.0,0.01578783323856614
2659.0,0.015742798294583915
2658.0,0.015697768020096703
2657.0,0.015652742414136167
2656.0,0.015652742414136167
2655.0,0.015652742414136167
2654.0,0.015607721475734415
2653.0,0.015607721475734415
2652.0,0.015607721475734415
2651.0,0.015607721475734415
2650.0,0.015562705203923999
2649.0,0.015562705203923999
2648.0,0.015562705203923999
2647.0,0.015562705203923999
2646.0,0.015562705203923999
2645.0,0.015562705203923999
2644.0,0.015517693597737248
2643.0,0.01547268665620738
2642.0,0.01547268665620738
2641.0,0.01547268665620738
2640.0,0.015517693597737248
2639.0,0.015607721475734415
2638.0,0.015652742414136167
2637.0,0.015652742414136167
2636.0,0.015652742414136167
2635.0,0.015697768020096703
2634.0,0.01578783323856614
2633.0,0.015877917138889863
2632.0,0.01596801972881945
2631.0,0.01596801972881945
2630.0,0.01596801972881945
2629.0,0.015922966097169144
2628.0,0.015877917138889863
2627.0,0.015877917138889863
2626.0,0.015877917138889863
2625.0,0.015877917138889863
2624.0,0.015877917138889863
2623.0,0.015832872853011715
2622.0,0.015697768020096703
2621.0,0.015562705203923999
2620.0,0.015517693597737248
2619.0,0.015517693597737248
2618.0,0.015562705203923999
2617.0,0.015652742414136167
2616.0,0.015607721475734415
2615.0,0.015517693597737248
2614.0,0.015427684378367834
2613.0,0.015337693809893471
2612.0,0.015292705517326866
2611.0,0.015292705517326866
2610.0,0.015292705517326866
2609.0,0.015292705517326866
2608.0,0.015337693809893471
2607.0,0.015337693809893471
2606.0,0.01538268676325183
2605.0,0.01538268676325183
2604.0,0.015427684378367834
2603.0,0.015517693597737248
2602.0,0.015517693597737248
2601.0,0.015517693597737248
2600.0,0.015517693597737248
2599.0,0.01547268665620738
2598.0,0.015427684378367834
2597.0,0.01547268665620738
2596.0,0.015517693597737248
2595.0,0.015517693597737248
2594.0,0.015517693597737248
2593.0,0.01547268665620738
2592.0,0.01547268665620738
2591.0,0.01547268665620738
2590.0,0.015427684378367834
2589.0,0.01538268676325183
2588.0,0.015337693809893471
2587.0,0.01538268676325183
2586.0,0.01547268665620738
2585.0,0.015517693597737248
2584.0,0.015562705203923999
2583.0,0.015562705203923999
2582.0,0.015652742414136167
2581.0,0.015697768020096703
2580.0,0.015742798294583915
2579.0,0.015742798294583915
2578.0,0.015742798294583915
2577.0,0.01578783323856614
2576.0,0.015832872853011715
2575.0,0.015877917138889863
2574.0,0.015922966097169144
2573.0,0.015922966097169144
2572.0,0.015832872853011715
2571.0,0.015697768020096703
2570.0,0.015607721475734415
2569.0,0.015562705203923999
2568.0,0.015562705203923999
2567.0,0.015607721475734415
2566.0,0.015697768020096703
2565.0,0.01578783323856614
2564.0,0.01578783323856614
2563.0,0.01578783323856614
2562.0,0.015742798294583915
2561.0,0.015697768020096703
2560.0,0.015652742414136167
2559.0,0.015607721475734415
2558.0,0.015562705203923999
2557.0,0.015562705203923999
2556.0,0.015607721475734415
2555.0,0.015607721475734415
2554.0,0.015562705203923999
2553.0,0.015517693597737248
2552.0,0.01547268665620738
2551.0,0.01547268665620738
2550.0,0.01547268665620738
2549.0,0.015517693597737248
2548.0,0.015562705203923999
2547.0,0.015562705203923999
2546.0,0.015562705203923999
2545.0,0.015517693597737248
2544.0,0.015517693597737248
2543.0,0.015517693597737248
2542.0,0.015607721475734415
2541.0,0.015652742414136167
2540.0,0.015652742414136167
2539.0,0.015607721475734415
2538.0,0.015517693597737248
2537.0,0.015427684378367834
2536.0,0.01538268676325183
2535.0,0.01538268676325183
2534.0,0.01538268676325183
2533.0,0.01538268676325183
2532.0,0.015337693809893471
2531.0,0.015337693809893471
2530.0,0.015337693809893471
2529.0,0.015337693809893471
2528.0,0.015292705517326866
2527.0,0.015292705517326866
2526.0,0.015337693809893471
2525.0,0.01538268676325183
2524.0,0.015427684378367834
2523.0,0.01547268665620738
2522.0,0.01547268665620738
2521.0,0.015427684378367834
2520.0,0.015337693809893471
2519.0,0.015247721884586563
2518.0,0.015202742910707112
2517.0,0.015202742910707112
2516.0,0.015202742910707112
2515.0,0.015247721884586563
2514.0,0.015292705517326866
2513.0,0.015292705517326866
2512.0,0.015292705517326866
2511.0,0.015202742910707112
2510.0,0.015157768594724175
2509.0,0.015157768594724175
2508.0,0.015202742910707112
2507.0,0.015292705517326866
2506.0,0.015337693809893471
2505.0,0.015337693809893471
2504.0,0.015292705517326866
2503.0,0.015202742910707112
2502.0,0.015157768594724175
2501.0,0.015157768594724175
2500.0,0.015202742910707112
2499.0,0.015202742910707112
2498.0,0.015157768594724175
2497.0,0.015067833932588037
2496.0,0.015022873584506602
2495.0,0.014977917890464765
2494.0,0.014977917890464765
2493.0,0.014977917890464765
2492.0,0.014977917890464765
2491.0,0.014977917890464765
2490.0,0.014977917890464765
2489.0,0.014977917890464765
2488.0,0.014977917890464765
2487.0,0.014932966849499074
2486.0,0.014888020460646079
2485.0,0.014798141635428141
2484.0,0.014798141635428141
2483.0,0.014843078722943437
2482.0,0.014843078722943437
2481.0,0.014753209197138295
2480.0,0.014618439768003144
2479.0,0.0144837121472845
2478.0,0.014438812226654996
2477.0,0.01452861671041239
2476.0,0.014618439768003144
2475.0,0.014663358264387139
2474.0,0.014618439768003144
2473.0,0.0144837121472845
2472.0,0.014393916947563534
2471.0,0.014304140310157809
2470.0,0.014259258949925524
2469.0,0.014259258949925524
2468.0,0.014304140310157809
2467.0,0.014349026309051105
2466.0,0.014304140310157809
2465.0,0.014304140310157809
2464.0,0.014259258949925524
2463.0,0.014259258949925524
2462.0,0.014259258949925524
2461.0,0.014214382227394795
2460.0,0.014169510141607944
2459.0,0.014124642691606404
2458.0,0.01403492169512921
2457.0,0.013945219230304673
2456.0,0.013900374944870508
2455.0,0.013945219230304673
2454.0,0.01403492169512921
2453.0,0.014124642691606404
2452.0,0.014169510141607944
2451.0,0.014124642691606404
2450.0,0.014079779876432497
2449.0,0.01403492169512921
2448.0,0.013990068146738865
2447.0,0.01403492169512921
2446.0,0.01403492169512921
2445.0,0.01403492169512921
2444.0,0.014079779876432497
2443.0,0.014214382227394795
2442.0,0.014304140310157809
2441.0,0.014349026309051105
2440.0,0.014259258949925524
2439.0,0.014079779876432497
2438.0,0.013945219230304673
2437.0,0.013900374944870508
2436.0,0.013990068146738865
2435.0,0.014079779876432497
2434.0,0.014214382227394795
2433.0,0.014259258949925524
2432.0,0.014349026309051105
2431.0,0.014349026309051105
2430.0,0.014259258949925524
2429.0,0.014214382227394795
2428.0,0.014169510141607944
2427.0,0.014124642691606404
2426.0,0.014124642691606404
2425.0,0.014079779876432497
2424.0,0.013990068146738865
2423.0,0.013945219230304673
2422.0,0.013945219230304673
2421.0,0.01403492169512921
2420.0,0.014214382227394795
2419.0,0.014393916947563534
2418.0,0.01452861671041239
2417.0,0.014573525916998342
2416.0,0.01452861671041239
2415.0,0.014438812226654996
2414.0,0.014304140310157809
2413.0,0.014169510141607944
2412.0,0.014079779876432497
2411.0,0.014079779876432497
2410.0,0.014079779876432497
2409.0,0.014169510141607944
2408.0,0.014259258949925524
2407.0,0.014304140310157809
2406.0,0.014393916947563534
2405.0,0.014393916947563534
2404.0,0.014438812226654996
2403.0,0.014438812226654996
2402.0,0.014438812226654996
2401.0,0.014438812226654996
2400.0,0.014438812226654996
2399.0,0.014438812226654996
2398.0,0.014438812226654996
2397.0,0.014438812226654996
2396.0,0.0144837121472845
2395.0,0.0144837121472845
2394.0,0.014438812226654996
2393.0,0.014393916947563534
2392.0,0.014438812226654996
2391.0,0.0144837121472845
2390.0,0.01452861671041239
2389.0,0.0144837121472845
2388.0,0.014304140310157809
2387.0,0.01403492169512921
2386.0,0.013631406429727155
2385.0,0.01322826573375524
2384.0,0.012780770091995297
2383.0,0.012289056869694281
2382.0,0.011753276624621556
2381.0,0.01117359295472431
2380.0,0.010505687227290839
2379.0,0.009838807101520963
2378.0,0.009217308196862062
2377.0,0.008906891951112605
2376.0,0.008995559669244813
2375.0,0.009439170005980158
2374.0,0.009972101229705377
2373.0,0.01023881228122181
2372.0,0.01023881228122181
2371.0,0.009972101229705377
2370.0,0.009572341514736404
2369.0,0.009039900317800775
2368.0,0.0087296108049002
2367.0,0.0087296108049002
2366.0,0.008818242332126802
2365.0,0.008862564879688284
2364.0,0.008906891951112605
2363.0,0.008818242332126802
2362.0,0.008286724286910463
2361.0,0.008286724286910463
2360.0,0.00850811108984062
2359.0,0.009883233932095559
2358.0,0.009039900317800775
2357.0,0.017728766960431575
2356.0,0.01858915983411169
2355.0,0.016554142658660398
2354.0,0.01596801972881945
2353.0,0.015022873584506602
2352.0,0.014753209197138295
2351.0,0.0144837121472845
2350.0,0.014304140310157809
2349.0,0.013990068146738865
2348.0,0.01381070026317599
2347.0,0.013945219230304673
2346.0,0.014438812226654996
2345.0,0.014888020460646079
2344.0,0.014977917890464765
2343.0,0.014753209197138295
2342.0,0.014618439768003144
2341.0,0.014663358264387139
2340.0,0.014753209197138295
2339.0,0.014393916947563534
2338.0,0.014304140310157809
2337.0,0.01381070026317599
2336.0,0.014977917890464765
2335.0,0.007800070204414977
2334.0,0.006079041198713275
2333.0,0.006431517210272464
2332.0,0.005814871797682919
2331.0,0.00625524344553785
2330.0,0.006431517210272464
2329.0,0.007004901568658406
2328.0,0.007313960837872058
2327.0,0.0074464821678643656
2326.0,0.007534852191956709
2325.0,0.007667440952535687
2324.0,0.008286724286910463
2323.0,0.008818242332126802
2322.0,0.008995559669244813
2321.0,0.008773924307505121
2320.0,0.00850811108984062
2319.0,0.008596697419959609
2318.0,0.008640997362049818
2317.0,0.008773924307505121
2316.0,0.008640997362049818
2315.0,0.008685301823389224
2314.0,0.008685301823389224
2313.0,0.008862564879688284
2312.0,0.008951223547323472
2311.0,0.009128595198514056
2310.0,0.009261671492462709
2309.0,0.009439170005980158
2308.0,0.009439170005980158
2307.0,0.009483555971770974
2306.0,0.009439170005980158
2305.0,0.009483555971770974
2304.0,0.009616741093766423
2303.0,0.009883233932095559
2302.0,0.010105436281226954
2301.0,0.01037222925484893
2300.0,0.010505687227290839
2299.0,0.010683695010048622
2298.0,0.010906307389674463
2297.0,0.01117359295472431
2296.0,0.011351874764248926
2295.0,0.011530229790124524
2294.0,0.011664044143949504
2293.0,0.011797899741219142
2292.0,0.0119764380713403
2291.0,0.01215504982870197
2290.0,0.012289056869694281
2289.0,0.012289056869694281
2288.0,0.012333735073725371
2287.0,0.012467797270160563
2286.0,0.01264661126420652
2285.0,0.012736045877764557
2284.0,0.012780770091995297
2283.0,0.012691326268817527
2282.0,0.01264661126420652
2281.0,0.01264661126420652
2280.0,0.012691326268817527
2279.0,0.012736045877764557
2278.0,0.012825498912458322
2277.0,0.012870232340102872
2276.0,0.012870232340102872
2275.0,0.012870232340102872
2274.0,0.012870232340102872
2273.0,0.012780770091995297
2272.0,0.01264661126420652
2271.0,0.012512493866907004
2270.0,0.012378417874516323
2269.0,0.012244383261476699
2268.0,0.01215504982870197
2267.0,0.012199714248127602
2266.0,0.012244383261476699
2265.0,0.012289056869694281
2264.0,0.012333735073725371
2263.0,0.012333735073725371
2262.0,0.012378417874516323
2261.0,0.012467797270160563
2260.0,0.012512493866907004
2259.0,0.012512493866907004
2258.0,0.012467797270160563
2257.0,0.012378417874516323
2256.0,0.012333735073725371
2255.0,0.012333735073725371
2254.0,0.012289056869694281
2253.0,0.012289056869694281
2252.0,0.012333735073725371
2251.0,0.012423105273012602
2250.0,0.012467797270160563
2249.0,0.012423105273012602
2248.0,0.012378417874516323
2247.0,0.012289056869694281
2246.0,0.012289056869694281
2245.0,0.012378417874516323
2244.0,0.012467797270160563
2243.0,0.012512493866907004
2242.0,0.012512493866907004
2241.0,0.012467797270160563
2240.0,0.012467797270160563
2239.0,0.012467797270160563
2238.0,0.012512493866907004
2237.0,0.012467797270160563
2236.0,0.012423105273012602
2235.0,0.012333735073725371
2234.0,0.012199714248127602
2233.0,0.012110390002254778
2232.0,0.012065734767841452
2231.0,0.012065734767841452
2230.0,0.012110390002254778
2229.0,0.01215504982870197
2228.0,0.01215504982870197
2227.0,0.012110390002254778
2226.0,0.012110390002254778
2225.0,0.012065734767841452
2224.0,0.012065734767841452
2223.0,0.012065734767841452
2222.0,0.012021084124518078
2221.0,0.0119764380713403
2220.0,0.011931796607364653
2219.0,0.011887159731648111
2218.0,0.011842527443247208
2217.0,0.011842527443247208
2216.0,0.011842527443247208
2215.0,0.011842527443247208
2214.0,0.011887159731648111
2213.0,0.011887159731648111
2212.0,0.011887159731648111
2211.0,0.011887159731648111
2210.0,0.011842527443247208
2209.0,0.011797899741219142
2208.0,0.011797899741219142
2207.0,0.011797899741219142
2206.0,0.011842527443247208
2205.0,0.011887159731648111
2204.0,0.011887159731648111
2203.0,0.011887159731648111
2202.0,0.011797899741219142
2201.0,0.011753276624621556
2200.0,0.011708658092512314
2199.0,0.011664044143949504
2198.0,0.011619434777991433
2197.0,0.011574829993696856
2196.0,0.011530229790124524
2195.0,0.011574829993696856
2194.0,0.011574829993696856
2193.0,0.011619434777991433
2192.0,0.011619434777991433
2191.0,0.011574829993696856
2190.0,0.011574829993696856
2189.0,0.011530229790124524
2188.0,0.011530229790124524
2187.0,0.011441043121384498
2186.0,0.011351874764248926
2185.0,0.011262724711199823
2184.0,0.011218156546359825
2183.0,0.011307297450183107
2182.0,0.011441043121384498
2181.0,0.011530229790124524
2180.0,0.011530229790124524
2179.0,0.011530229790124524
2178.0,0.011441043121384498
2177.0,0.011307297450183107
2176.0,0.011218156546359825
2175.0,0.011218156546359825
2174.0,0.011262724711199823
2173.0,0.011307297450183107
2172.0,0.011307297450183107
2171.0,0.011307297450183107
2170.0,0.011351874764248926
2169.0,0.011396456654336085
2168.0,0.011396456654336085
2167.0,0.011396456654336085
2166.0,0.011396456654336085
2165.0,0.011441043121384498
2164.0,0.011530229790124524
2163.0,0.011574829993696856
2162.0,0.011619434777991433
2161.0,0.011574829993696856
2160.0,0.011485634166333858
2159.0,0.011441043121384498
2158.0,0.011441043121384498
2157.0,0.011485634166333858
2156.0,0.011574829993696856
2155.0,0.011574829993696856
2154.0,0.011574829993696856
2153.0,0.011574829993696856
2152.0,0.011574829993696856
2151.0,0.011574829993696856
2150.0,0.011530229790124524
2149.0,0.011485634166333858
2148.0,0.011485634166333858
2147.0,0.011441043121384498
2146.0,0.011396456654336085
2145.0,0.011351874764248926
2144.0,0.011307297450183107
2143.0,0.011307297450183107
2142.0,0.011262724711199823
2141.0,0.011262724711199823
2140.0,0.011262724711199823
2139.0,0.011218156546359825
2138.0,0.01117359295472431
2137.0,0.011129033935354915
2136.0,0.011129033935354915
2135.0,0.01117359295472431
2134.0,0.011218156546359825
2133.0,0.011262724711199823
2132.0,0.011307297450183107
2131.0,0.011307297450183107
2130.0,0.011218156546359825
2129.0,0.01117359295472431
2128.0,0.011084479487313281
2127.0,0.011084479487313281
2126.0,0.011039929609661936
2125.0,0.011084479487313281
2124.0,0.011084479487313281
2123.0,0.011039929609661936
2122.0,0.010950843561779777
2121.0,0.01086177578421088
2120.0,0.01077272626946324
2119.0,0.010817248744452446
2118.0,0.010906307389674463
2117.0,0.011039929609661936
2116.0,0.011129033935354915
2115.0,0.01117359295472431
2114.0,0.01117359295472431
2113.0,0.011084479487313281
2112.0,0.011084479487313281
2111.0,0.011039929609661936
2110.0,0.011039929609661936
2109.0,0.010950843561779777
2108.0,0.01086177578421088
2107.0,0.01077272626946324
2106.0,0.010728208358306901
2105.0,0.010728208358306901
2104.0,0.010817248744452446
2103.0,0.010906307389674463
2102.0,0.010906307389674463
2101.0,0.010906307389674463
2100.0,0.01086177578421088
2099.0,0.010817248744452446
2098.0,0.01077272626946324
2097.0,0.010728208358306901
2096.0,0.010683695010048622
2095.0,0.010683695010048622
2094.0,0.010683695010048622
2093.0,0.010683695010048622
2092.0,0.010683695010048622
2091.0,0.010683695010048622
2090.0,0.010683695010048622
2089.0,0.010728208358306901
2088.0,0.010683695010048622
2087.0,0.010639186223752484
2086.0,0.010505687227290839
2085.0,0.01037222925484893
2084.0,0.010327752376126709
2083.0,0.010327752376126709
2082.0,0.010327752376126709
2081.0,0.010327752376126709
2080.0,0.010283280051895272
2079.0,0.010194349063173958
2078.0,0.010105436281226954
2077.0,0.010060986715464404
2076.0,0.01001654169860089
2075.0,0.009972101229705377
2074.0,0.009883233932095559
2073.0,0.00974996707218323
2072.0,0.00966114521239847
2071.0,0.009572341514736404
2070.0,0.009483555971770974
2069.0,0.009439170005980158
2068.0,0.00939478857608056
2067.0,0.009439170005980158
2066.0,0.009483555971770974
2065.0,0.009483555971770974
2064.0,0.00939478857608056
2063.0,0.009306039320248427
2062.0,0.009261671492462709
2061.0,0.009261671492462709
2060.0,0.009306039320248427
2059.0,0.009261671492462709
2058.0,0.009172949432521227
2057.0,0.009039900317800775
2056.0,0.008951223547323472
2055.0,0.008862564879688284
2054.0,0.008862564879688284
2053.0,0.008906891951112605
2052.0,0.008951223547323472
2051.0,0.008951223547323472
2050.0,0.008951223547323472
2049.0,0.008951223547323472
2048.0,0.008906891951112605
2047.0,0.008862564879688284
2046.0,0.008818242332126802
2045.0,0.008685301823389224
2044.0,0.008552401996197112
2043.0,0.00850811108984062
2042.0,0.008463824699968647
2041.0,0.008463824699968647
2040.0,0.008419542825660153
2039.0,0.008419542825660153
2038.0,0.008419542825660153
2037.0,0.00850811108984062
2036.0,0.00850811108984062
2035.0,0.008463824699968647
2034.0,0.008330992620051436
2033.0,0.008286724286910463
2032.0,0.008286724286910463
2031.0,0.008286724286910463
2030.0,0.008286724286910463
2029.0,0.008198201155356077
2028.0,0.008109696063975047
2027.0,0.008021209005416363
2026.0,0.007976972236149349
2025.0,0.007976972236149349
2024.0,0.007976972236149349
2023.0,0.008021209005416363
2022.0,0.008021209005416363
2021.0,0.008021209005416363
2020.0,0.007932739972333236
2019.0,0.007932739972333236
2018.0,0.007932739972333236
2017.0,0.007932739972333236
2016.0,0.007932739972333236
2015.0,0.007888512213050314
2014.0,0.007844288957383316
2013.0,0.007800070204414977
2012.0,0.007844288957383316
2011.0,0.007844288957383316
2010.0,0.007800070204414977
2009.0,0.007711646202907652
2008.0,0.007667440952535687
2007.0,0.00762324020119709
2006.0,0.007711646202907652
2005.0,0.007755855953228474
2004.0,0.007888512213050314
2003.0,0.007932739972333236
2002.0,0.007976972236149349
2001.0,0.007976972236149349
2000.0,0.008021209005416363
1999.0,0.008109696063975047
1998.0,0.008109696063975047
1997.0,0.008109696063975047
1996.0,0.008021209005416363
1995.0,0.007976972236149349
1994.0,0.007976972236149349
1993.0,0.008109696063975047
1992.0,0.008242460465651913
1991.0,0.008330992620051436
1990.0,0.008330992620051436
1989.0,0.008286724286910463
1988.0,0.008242460465651913
1987.0,0.008242460465651913
1986.0,0.008198201155356077
1985.0,0.008153946355103248
1984.0,0.008109696063975047
1983.0,0.008109696063975047
1982.0,0.008109696063975047
1981.0,0.008109696063975047
1980.0,0.008109696063975047
1979.0,0.008153946355103248
1978.0,0.008286724286910463
1977.0,0.008330992620051436
1976.0,0.008375265465994541
1975.0,0.008330992620051436
1974.0,0.008330992620051436
1973.0,0.008286724286910463
1972.0,0.008286724286910463
1971.0,0.008286724286910463
1970.0,0.008286724286910463
1969.0,0.008286724286910463
1968.0,0.008375265465994541
1967.0,0.00850811108984062
1966.0,0.008552401996197112
1965.0,0.008596697419959609
1964.0,0.008596697419959609
1963.0,0.008685301823389224
1962.0,0.008818242332126802
1961.0,0.008906891951112605
1960.0,0.008951223547323472
1959.0,0.009039900317800775
1958.0,0.009039900317800775
1957.0,0.00908424549391551
1956.0,0.00908424549391551
1955.0,0.009128595198514056
1954.0,0.009128595198514056
1953.0,0.009039900317800775
1952.0,0.008951223547323472
1951.0,0.008906891951112605
1950.0,0.008906891951112605
1949.0,0.008995559669244813
1948.0,0.009039900317800775
1947.0,0.009039900317800775
1946.0,0.008951223547323472
1945.0,0.008818242332126802
1944.0,0.008685301823389224
1943.0,0.008640997362049818
1942.0,0.008552401996197112
1941.0,0.008419542825660153
1940.0,0.008198201155356077
1939.0,0.008065450281052211
1938.0,0.007888512213050314
1937.0,0.007667440952535687
1936.0,0.007490664932224611
1935.0,0.007358130121602358
1934.0,0.007225635744644521
1933.0,0.007093181776687496
1932.0,0.00696076819309055
1931.0,0.006828394969235152
1930.0,0.006740168563263094
1929.0,0.006651960076740071
1928.0,0.006519680930003435
1927.0,0.006431517210272464
1926.0,0.006299305179649828
1925.0,0.00625524344553785
1924.0,0.00625524344553785
1923.0,0.00625524344553785
1922.0,0.006167133386013823
1921.0,0.005990966876386672
1920.0,0.005858888873877532
1919.0,0.005814871797682919
1918.0,0.005726851026829571
1917.0,0.005550862985963967
1916.0,0.00537494623139545
1915.0,0.005199100705396198
1914.0,0.005111204635089406
1913.0,0.005023326350308999
1912.0,0.004979393875242044
1911.0,0.004979393875242044
1910.0,0.00489154225525934
1909.0,0.004759798137184523
1908.0,0.004628093971837721
1907.0,0.0044964297349936455
1906.0,0.004408675747646695
1905.0,0.004277078004534696
1904.0,0.004145520125434121
1903.0,0.00401400208620073
1902.0,0.0038825238627120395
1901.0,0.0038387066319929275
1900.0,0.0037510854308679953
1899.0,0.0036634819042162814
1898.0,0.003619686766589858
1897.0,0.0035321097382827737
1896.0,0.0034445503666347133
1895.0,0.0033570086445275926
1894.0,0.0032694845648473247
1893.0,0.0030944893043338695
1892.0,0.0029632891174733444
1891.0,0.0028321285541661467
1890.0,0.0027884171674950053
1889.0,0.0027447101798967477
1888.0,0.0027447101798967477
1887.0,0.002701007590486082
1886.0,0.002701007590486082
1885.0,0.002613615602686581
1884.0,0.002569926202528716
1883.0,0.0025262411970197185
1882.0,0.002482560585275184
1881.0,0.002395212539545666
1880.0,0.0023078820582733695
1879.0,0.0022205691343961664
1878.0,0.0021769192542746563
1877.0,0.002089632653256679
1876.0,0.0019587356365717845
1875.0,0.0018714928717336043
1874.0,0.0017842676290416026
1873.0,0.0017842676290416026
1872.0,0.0017842676290416026
1871.0,0.0018278780605593958
1870.0,0.0017842676290416026
1869.0,0.0016534626036355249
1868.0,0.0015226969634936083
1867.0,0.0013919706849057079
1866.0,0.001348404001626502
1865.0,0.001304841688344327
1864.0,0.0012177301682640973
1863.0,0.0012177301682640973
1862.0,0.0011741809597138886
1861.0,0.0012177301682640973
1860.0,0.0012177301682640973
1859.0,0.0012612837441823288
1858.0,0.001304841688344327
1857.0,0.0012612837441823288
1856.0,0.0011306361176557367
1855.0,0.0010435595295137379
1854.0,0.0009565003968372565
1853.0,0.000869458712629001
1852.0,0.0007824344698965646
1851.0,0.0007389288868995258
1850.0,0.0007389288868995258
1849.0,0.0006954276616513155
1848.0,0.0006519307932786322
1847.0,0.0006954276616513155
1846.0,0.0008259444115150671
1845.0,0.0009565003968372565
1844.0,0.0010000277816797354
1843.0,0.0009565003968372565
1842.0,0.0009565003968372565
1841.0,0.0009565003968372565
1840.0,0.0010000277816797354
1839.0,0.0010435595295137379
1838.0,0.0010870956412141197
1837.0,0.0011741809597138886
1836.0,0.0012177301682640973
1835.0,0.0012177301682640973
1834.0,0.0011741809597138886
1833.0,0.0011306361176557367
1832.0,0.0010870956412141197
1831.0,0.0011306361176557367
1830.0,0.0011741809597138886
1829.0,0.0011306361176557367
1828.0,0.0011306361176557367
1827.0,0.001304841688344327
1826.0,0.0014791171649619628
1825.0,0.0014791171649619628
1824.0,0.001348404001626502
1823.0,0.0012612837441823288
1822.0,0.0011306361176557367
1821.0,0.0010000277816797354
1820.0,0.000869458712629001
1819.0,0.0007824344698965646
1818.0,0.0007389288868995258
1817.0,0.0006954276616513155
1816.0,0.0006084382809090627
1815.0,0.000521466320689834
1814.0,0.00043451177401765406
1813.0,0.00026065489343207737
1812.0,8.686758342868472e-05
1811.0,-8.685021164911433e-05
1810.0,-0.00021709297223004853
1809.0,-0.0003472966853634851
1808.0,-0.0003906892499099257
1807.0,-0.00043407747931878404
1806.0,-0.0005208409361854294
1805.0,-0.0006943158663546001
1804.0,-0.0008243766056055257
1803.0,-0.0008243766056055257
1802.0,-0.0008243766056055257
1801.0,-0.0008677215312267172
1800.0,-0.001041057986093552
1799.0,-0.00121432528617893
1798.0,-0.001344230411601366
1797.0,-0.001474096691732818
1796.0,-0.0015173768235041685
1795.0,-0.0015606526425728795
1794.0,-0.0015173768235041685
1793.0,-0.0015173768235041685
1792.0,-0.001474096691732818
1791.0,-0.001474096691732818
1790.0,-0.001474096691732818
1789.0,-0.0015173768235041685
1788.0,-0.0015606526425728795
1787.0,-0.0015173768235041685
1786.0,-0.0015173768235041685
1785.0,-0.0016039241497978196
1784.0,-0.001733712809000476
1783.0,-0.001776967077439462
1782.0,-0.0018202170383281313
1781.0,-0.0019499410842680476
1780.0,-0.0020364022595291686
1779.0,-0.0020364022595291686
1778.0,-0.0019067040408846658
1777.0,-0.0018202170383281313
1776.0,-0.001776967077439462
1775.0,-0.0016471913460383014
1774.0,-0.001474096691732818
1773.0,-0.0013875234866409514
1772.0,-0.001344230411601366
1771.0,-0.00121432528617893
1770.0,-0.0009543984064577238
1769.0,-0.0006509536295951079
1768.0,-0.00043407747931878404
1767.0,-0.00017368305846510168
1766.0,0.0
1765.0,0.0001303078917322953
1764.0,0.0003910410285830057
1763.0,0.000869458712629001
1762.0,0.0014791171649619628
1761.0,0.0018714928717336043
1760.0,0.0022642234021015284
1759.0,0.0029195645282691363
1758.0,0.0038387066319929275
1757.0,0.004803708402820517
1756.0,0.005682847330363394
1755.0,0.006607862550997545
1754.0,0.00762324020119709
1753.0,0.008773924307505121
1752.0,0.010505687227290839
1751.0,0.013004460275618523
1750.0,0.01596801972881945
1749.0,0.0190880622231564
1748.0,0.02255077261765881
1747.0,0.026410376572743033
1746.0,0.03058408764601861
1745.0,0.03541041251009669
1744.0,0.041197296600497646
1743.0,0.047691990337874746
1742.0,0.05448217792216048
1741.0,0.06243196139961715
1740.0,0.07242434530888953
1739.0,0.08259953204474924
1738.0,0.09012318200960712
1737.0,0.09523037409340485
1736.0,0.10138450258381404
1735.0,0.11390426756225258
1734.0,0.1325325121409484
1733.0,0.14733705565543076
1732.0,0.15645578805436489
1731.0,0.16500739626697003
1730.0,0.1752235375244544
1729.0,0.18601892436352818
1728.0,0.19592875111433883
1727.0,0.2049546295788751
1726.0,0.21424320003735708
1725.0,0.22475374025976347
1724.0,0.2364222755333547
1723.0,0.24764419584649922
1722.0,0.25586354759875274
1721.0,0.2604276555499081
1720.0,0.2638426247268679
1719.0,0.2712405248321257
1718.0,0.28617357561947543
1717.0,0.30189945437661003
1716.0,0.3105135516357522
1715.0,0.3137213219327988
1714.0,0.3140792078054646
1713.0,0.31104653736258214
1712.0,0.3048687022959742
1711.0,0.2971388294270707
1710.0,0.2886990400838343
1709.0,0.2789316982028409
1708.0,0.26736503246080434
1707.0,0.2546909400591719
1706.0,0.2420728168866706
1705.0,0.23003219867055757
1704.0,0.21831641549264935
1703.0,0.20683847075444928
1702.0,0.19511125537760865
1701.0,0.18342730397389695
1700.0,0.17314805217935603
1699.0,0.16500739626697003
1698.0,0.15795271149036205
1697.0,0.1509493094304879
1696.0,0.14393604666690019
1695.0,0.13751083309410284
1694.0,0.1320613491092153
1693.0,0.12714475529518965
1692.0,0.12234075588839133
1691.0,0.11776015198117662
1690.0,0.11367851344052027
1689.0,0.11030620855581463
1688.0,0.10707101764479421
1687.0,0.10363915453068362
1686.0,0.10023419805561384
1685.0,0.09832376867362447
1684.0,0.09799710864927058
1683.0,0.09663866374468144
1682.0,0.09441997176475758
1681.0,0.0919977988274463
1680.0,0.08942895151874142
1679.0,0.0867160982395816
1678.0,0.08407278830288423
1677.0,0.08165507103772507
1676.0,0.07966792846041071
1675.0,0.07805354577058976
1674.0,0.07623803917129979
1673.0,0.07417242537525759
1672.0,0.0720140529005715
1671.0,0.07012147634321675
1670.0,0.06879647454924775
1669.0,0.06772922410050963
1668.0,0.06636088747507496
1667.0,0.06464390705442691
1666.0,0.06278310913729457
1665.0,0.060880282351513104
1664.0,0.059135024033278416
1663.0,0.05779345772290467
1662.0,0.05670338543334519
1661.0,0.055566682299785564
1660.0,0.05438372077326825
1659.0,0.0531548860393769
1658.0,0.0518316382728683
1657.0,0.050317309204795935
1656.0,0.04871106272232795
1655.0,0.04720755695590784
1654.0,0.04696554274964315
1653.0,0.04774046340917959
1652.0,0.04715914332429838
1651.0,0.04609540658654021
1650.0,0.04513062893352182
1649.0,0.044071843103049346
1648.0,0.0433514207947967
1647.0,0.04320747962950522
1646.0,0.043063586155803746
1645.0,0.042584285277331047
1644.0,0.041914151478914974
1643.0,0.041149548320321694
1642.0,0.04043395336207234
1641.0,0.03981472339538916
1640.0,0.03910132267333921
1639.0,0.038341651362284734
1638.0,0.037583306554248797
1637.0,0.037251946641359446
1636.0,0.037346595106788616
1635.0,0.037251946641359446
1634.0,0.03682628362474838
1633.0,0.036401037402758574
1632.0,0.03583468937826462
1631.0,0.03512779136222477
1630.0,0.034469056377139484
1629.0,0.033952178923546183
1628.0,0.03352973627071565
1627.0,0.03310770413286357
1626.0,0.03273290844021437
1625.0,0.03240522732811035
1624.0,0.032311649546687526
1623.0,0.032218091924200776
1622.0,0.032124554451966825
1621.0,0.03193753992355086
1620.0,0.03175060589208267
1619.0,0.03170388495374454
1618.0,0.032311649546687526
1617.0,0.03367050483612166
1616.0,0.03479829897408804
1615.0,0.03517488211661135
1614.0,0.03508070571335731
1613.0,0.03475124903287918
1612.0,0.03428102975577918
1611.0,0.03371743783253667
1610.0,0.03301397488206215
1609.0,0.032218091924200776
1608.0,0.03133029827960798
1607.0,0.030397735151460825
1606.0,0.029513651152349718
1605.0,0.02872415126189476
1604.0,0.028075050815808744
1603.0,0.02747318213414429
1602.0,0.026872146400301444
1601.0,0.026271941311972746
1600.0,0.025718641122169483
1599.0,0.02512002699306959
1598.0,0.024568191490736968
1597.0,0.024154774532432866
1596.0,0.023787622882622816
1595.0,0.02351246269481
1594.0,0.023283295636617574
1593.0,0.023100049017062307
1592.0,0.02296266477531872
1591.0,0.022871099419317753
1590.0,0.022871099419317753
1589.0,0.02291687968414724
1588.0,0.023100049017062307
1587.0,0.02342078135989012
1586.0,0.024108863598207186
1585.0,0.025304128090317013
1584.0,0.027056991894431892
1583.0,0.02932775731028059
1582.0,0.03184406285002961
1581.0,0.03423403581731388
1580.0,0.03597620715996652
1579.0,0.03701541568300293
1578.0,0.03720463014276687
1577.0,0.03658998431977123
1576.0,0.03522197797762394
1575.0,0.033482823553208085
1574.0,0.03179733185715028
1573.0,0.03025802323714588
1572.0,0.02872415126189476
1571.0,0.027195677663422346
1570.0,0.025856900097785074
1569.0,0.02475205875931885
1568.0,0.023833499868024743
1567.0,0.02314585342378117
1566.0,0.022505030926963654
1565.0,0.021819483062586187
1564.0,0.021089422824428272
1563.0,0.020406104151069693
1562.0,0.019678413991243593
1561.0,0.018861217359339655
1560.0,0.018498511851753108
1559.0,0.0190880622231564
1558.0,0.01899731005860028
1557.0,0.018679826740892747
1556.0,0.018679826740892747
1555.0,0.01858915983411169
1554.0,0.018271974638383703
1553.0,0.01781925440359733
1552.0,0.017457417697056554
1551.0,0.017141057687924732
1550.0,0.016915227262211507
1549.0,0.016644385668211692
1548.0,0.01628352608625061
1547.0,0.015922966097169144
1546.0,0.015652742414136167
1545.0,0.015427684378367834
1544.0,0.015292705517326866
1543.0,0.015112798935672522
1542.0,0.014888020460646079
1541.0,0.014843078722943437
1540.0,0.014843078722943437
1539.0,0.01452861671041239
1538.0,0.014349026309051105
1537.0,0.014349026309051105
1536.0,0.014304140310157809
1535.0,0.014214382227394795
1534.0,0.014304140310157809
1533.0,0.01452861671041239
1532.0,0.014573525916998342
1531.0,0.014618439768003144
1530.0,0.014573525916998342
1529.0,0.0144837121472845
1528.0,0.014438812226654996
1527.0,0.014438812226654996
1526.0,0.014393916947563534
1525.0,0.014169510141607944
1524.0,0.01381070026317599
1523.0,0.013496984613259544
1522.0,0.013407393177789162
1521.0,0.013273040668781544
1520.0,0.012914970375878188
1519.0,0.01260190086298274
1518.0,0.012467797270160563
1517.0,0.012423105273012602
1516.0,0.012333735073725371
1515.0,0.012333735073725371
1514.0,0.012512493866907004
1513.0,0.012959713020733288
1512.0,0.013676222949234651
1511.0,0.014573525916998342
1510.0,0.01578783323856614
1509.0,0.01781925440359733
1508.0,0.022688026603074007
1507.0,0.030770520137356927
1506.0,0.0360705779734416
1505.0,0.036542739883292485
1504.0,0.03475124903287918
1503.0,0.03179733185715028
1502.0,0.028167720075074953
1501.0,0.024292536462819925
1500.0,0.020633757603838898
1499.0,0.017457417697056554
1498.0,0.014798141635428141
1497.0,0.012780770091995297
1496.0,0.011307297450183107
1495.0,0.010149890396819572
1494.0,0.009350411681145587
1493.0,0.0087296108049002
1492.0,0.008286724286910463
1491.0,0.007976972236149349
1490.0,0.007800070204414977
1489.0,0.007800070204414977
1488.0,0.007844288957383316
1487.0,0.007800070204414977
1486.0,0.007711646202907652
1485.0,0.007755855953228474
1484.0,0.007844288957383316
1483.0,0.007932739972333236
1482.0,0.008153946355103248
1481.0,0.008419542825660153
1480.0,0.008685301823389224
1479.0,0.008862564879688284
1478.0,0.00908424549391551
1477.0,0.009439170005980158
1476.0,0.009794384815193347
1475.0,0.01001654169860089
1474.0,0.010283280051895272
1473.0,0.010906307389674463
1472.0,0.011574829993696856
1471.0,0.012021084124518078
1470.0,0.012423105273012602
1469.0,0.012914970375878188
1468.0,0.013586594534531482
1467.0,0.01452861671041239
1466.0,0.016148281008528276
1465.0,0.018543833477873584
1464.0,0.020907099361673565
1463.0,0.022733787572707387
1462.0,0.024108863598207186
1461.0,0.025350165561278004
1460.0,0.026733563891471412
1459.0,0.028538594975413334
1458.0,0.031657169041054534
1457.0,0.03541041251009669
1456.0,0.037583306554248797
1455.0,0.03810452633214956
1454.0,0.038199360808321536
1453.0,0.038151940981675736
1452.0,0.03791491948264003
1451.0,0.03753595394209874
1450.0,0.0371100126082089
1449.0,0.03692083935817303
1448.0,0.03692083935817303
1447.0,0.03682628362474838
1446.0,0.03668448861388862
1445.0,0.03649550058570927
1444.0,0.03625938114211591
1443.0,0.03597620715996652
1442.0,0.03559892883726867
1441.0,0.03512779136222477
1440.0,0.03442204208947208
1439.0,0.033482823553208085
1438.0,0.032311649546687526
1437.0,0.030863766403287585
1436.0,0.029095501846216454
1435.0,0.027149444152769986
1434.0,0.025074013910237447
1433.0,0.02277955336461468
1432.0,0.02036058777709271
1431.0,0.017955020928509757
1430.0,0.015697768020096703
1429.0,0.01381070026317599
1428.0,0.012378417874516323
1427.0,0.011262724711199823
1426.0,0.010416710688994968
1425.0,0.00974996707218323
1424.0,0.00939478857608056
1423.0,0.009439170005980158
1422.0,0.009705553871561357
1421.0,0.010505687227290839
1420.0,0.012423105273012602
1419.0,0.015877917138889863
1418.0,0.020315076172974234
1417.0,0.025258095499050004
1416.0,0.031190286087141805
1415.0,0.038531444649213764
1414.0,0.04754660357696672
1413.0,0.0583891978463662
1412.0,0.0702746216219956
1411.0,0.08107890990866418
1410.0,0.08884239126002336
1409.0,0.09264239186882706
1408.0,0.09237369515673355
1407.0,0.0884695376928375
1406.0,0.08191721535781271
1405.0,0.07437854520917098
1404.0,0.06732334137759932
1403.0,0.061380218497318895
1402.0,0.056456022846545606
1401.0,0.05222329153526162
1400.0,0.04832256265669943
1399.0,0.04474531717982
1398.0,0.041627267521392675
1397.0,0.038673844065289176
1396.0,0.03555179208333925
1395.0,0.03240522732811035
1394.0,0.029932203450862893
1393.0,0.028306761050139073
1392.0,0.027149444152769986
1391.0,0.026087429580295085
1390.0,0.024936003904763915
1389.0,0.023787622882622816
1388.0,0.022733787572707387
1387.0,0.021773818325474092
1386.0,0.021043834782408455
1385.0,0.020633757603838898
1384.0,0.02058821736556471
1383.0,0.020907099361673565
1382.0,0.021636852916117055
1381.0,0.02277955336461468
1380.0,0.024292536462819925
1379.0,0.02617967564731627
1378.0,0.02812138297373412
1377.0,0.030118356253500123
1376.0,0.03240522732811035
1375.0,0.03512779136222477
1374.0,0.038057116858612794
1373.0,0.04043395336207234
1372.0,0.041914151478914974
1371.0,0.042584285277331047
1370.0,0.04253638427006878
1369.0,0.041627267521392675
1368.0,0.039767126871487646
1367.0,0.0371100126082089
1366.0,0.033905220553829274
1365.0,0.030444315779156517
1364.0,0.026687379547098322
1363.0,0.02282532397981263
1362.0,0.019315025636685412
1361.0,0.016599261819461697
1360.0,0.014618439768003144
1359.0,0.013049212141483357
1358.0,0.011842527443247208
1357.0,0.010995384301463185
1356.0,0.010505687227290839
1355.0,0.01023881228122181
1354.0,0.010194349063173958
1353.0,0.01037222925484893
1352.0,0.01077272626946324
1351.0,0.011441043121384498
1350.0,0.012423105273012602
1349.0,0.013676222949234651
1348.0,0.015157768594724175
1347.0,0.016870075265299933
1346.0,0.018770512579999288
1345.0,0.020861530453190058
1344.0,0.02291687968414724
1343.0,0.024798037742147727
1342.0,0.026456531467510258
1341.0,0.0277045713888604
1340.0,0.02826040911222183
1339.0,0.027889771597169544
1338.0,0.026456531467510258
1337.0,0.024338466818941473
1336.0,0.021865152601710403
1335.0,0.01940584422377989
1334.0,0.017186237868137555
1333.0,0.015427684378367834
1332.0,0.014169510141607944
1331.0,0.013452186585275916
1330.0,0.01322826573375524
1329.0,0.013407393177789162
1328.0,0.013900374944870508
1327.0,0.014663358264387139
1326.0,0.015742798294583915
1325.0,0.017050711425501408
1324.0,0.01858915983411169
1323.0,0.020178569969774962
1322.0,0.021865152601710403
1321.0,0.02351246269481
1320.0,0.025258095499050004
1319.0,0.027010773144651168
1318.0,0.028816959143838528
1317.0,0.030537492025363155
1316.0,0.03226486821611996
1315.0,0.03399914237121604
1314.0,0.03592902944204468
1313.0,0.038057116858612794
1312.0,0.04038628892895613
1311.0,0.042775942156833
1310.0,0.04522701031028298
1309.0,0.04774046340917959
1308.0,0.050317309204795935
1307.0,0.05286048235717078
1306.0,0.05531996611868961
1305.0,0.057743849580535134
1304.0,0.06038092104330195
1303.0,0.06333548699992453
1302.0,0.06686717627326577
1301.0,0.0709900145060387
1300.0,0.07572071393811841
1299.0,0.08102656950704579
1298.0,0.0867160982395816
1297.0,0.09269615116603047
1296.0,0.09892328427374508
1295.0,0.10507502264045665
1294.0,0.11109074073646874
1293.0,0.11702034596270106
1292.0,0.12280148472821018
1291.0,0.12836869546244634
1290.0,0.13365357725039817
1289.0,0.1387643813659596
1288.0,0.14369413356670102
1287.0,0.14819148577176255
1286.0,0.15224231160766877
1285.0,0.15589576930248672
1284.0,0.15920410115290617
1283.0,0.16215913834447737
1282.0,0.1646899991309374
1281.0,0.16685288808721488
1280.0,0.16870625562299035
1279.0,0.17037464664195068
1278.0,0.1718558926962137
1277.0,0.17347169365934856
1276.0,0.1754186237665174
1275.0,0.17770112873763355
1274.0,0.180587688790675
1273.0,0.18455508375564977
1272.0,0.189767482004916
1271.0,0.19599694527038736
1270.0,0.20294030530002893
1269.0,0.21056031543282083
1268.0,0.21881927906273835
1267.0,0.22723835285596783
1266.0,0.23567439437401605
1265.0,0.24389662841489446
1264.0,0.25188953250501633
1263.0,0.25916379294268843
1262.0,0.26560025747943294
1261.0,0.2712405248321257
1260.0,0.2761340355564963
1259.0,0.27967528258255836
1258.0,0.2819137052169085
1257.0,0.283495836226783
1256.0,0.28483264215154214
1255.0,0.28625752159091755
1254.0,0.28785558578511417
1253.0,0.2899673009342465
1252.0,0.2928558116575548
1251.0,0.2962788400729801
1250.0,0.3001622741327543
1249.0,0.3046058917088901
1248.0,0.3097152974873705
1247.0,0.3148855309534606
1246.0,0.32002730572258153
1245.0,0.3250470519514348
1244.0,0.3298469548078198
1243.0,0.33395026151948404
1242.0,0.3372421683184259
1241.0,0.3400837999301498
1240.0,0.3423705686110481
1239.0,0.3432312207339834
1238.0,0.34246611244201386
1237.0,0.3402739047622083
1236.0,0.33686468504224587
1235.0,0.3318005158013382
1234.0,0.3252306859845737
1233.0,0.31758413832264143
1232.0,0.30927245612963317
1231.0,0.3001622741327543
1230.0,0.29039087892735127
1229.0,0.28058584029740663
1228.0,0.27083521030723
1227.0,0.26098175411651914
1226.0,0.2510371387438386
1225.0,0.2412394560900204
1224.0,0.23180603836692848
1223.0,0.22242819530859004
1222.0,0.21324857785443885
1221.0,0.20446755728984556
1220.0,0.1960651501361581
1219.0,0.1879561020697733
1218.0,0.18032448000570733
1217.0,0.173212761183708
1216.0,0.1666616110606025
1215.0,0.1605219526258017
1214.0,0.15471587365200845
1213.0,0.14923127307111983
1212.0,0.1441175699639643
1211.0,0.13930272594796111
1210.0,0.134659094375416
1209.0,0.13035765534840538
1208.0,0.12627261935332057
1207.0,0.12234075588839133
1206.0,0.11855827805860697
1205.0,0.11492161585077598
1204.0,0.11142740314240007
1203.0,0.10807246577932506
1202.0,0.1047432468551055
1201.0,0.10160395406999112
1200.0,0.09859617317474823
1199.0,0.09560907998763835
1198.0,0.09274991711867164
1197.0,0.08990945440593179
1196.0,0.08714052483764512
1195.0,0.08438913733853282
1194.0,0.08170748724464438
1193.0,0.079094395835976
1192.0,0.07660053384128362
1191.0,0.07432700607875953
1190.0,0.07216786713341827
1189.0,0.0702746216219956
1188.0,0.06864384953207203
1187.0,0.06727263269847072
1186.0,0.06625970050306473
1185.0,0.0655520510510299
1184.0,0.06529959828457499
1183.0,0.06550154875643233
1182.0,0.06610796423578891
1181.0,0.06706985716921054
1180.0,0.068389593637038
1179.0,0.06981534770138009
1178.0,0.07114346641808922
1177.0,0.07232173586200852
1176.0,0.07309189829456408
1175.0,0.07340034609297241
1174.0,0.07309189829456408
1173.0,0.07211658966929302
1172.0,0.07047889936889606
1171.0,0.06813548650796819
1170.0,0.06519865825346338
1169.0,0.061880730805688344
1168.0,0.05848856736559682
1167.0,0.05522131887649295
1166.0,0.05227227303668425
1165.0,0.04968383607539972
1164.0,0.04754660357696672
1163.0,0.04580574818413763
1162.0,0.04440844959427559
1161.0,0.0433514207947967
1160.0,0.042584285277331047
1159.0,0.04210551278710151
1158.0,0.04196198390166317
1157.0,0.042201225070002124
1156.0,0.04291974034210022
1155.0,0.04411991377462465
1154.0,0.04575749056067524
1153.0,0.04778894189133087
1152.0,0.05026854768429301
1151.0,0.05310580489767336
1150.0,0.056406567231630955
1149.0,0.0601813371786204
1148.0,0.06434161389936577
1147.0,0.06884736147670667
1146.0,0.07370901311513656
1145.0,0.07883394936226118
1144.0,0.08407278830288423
1143.0,0.0892689019566193
1142.0,0.09431203228814788
1141.0,0.09919606518963042
1140.0,0.1038045895457893
1139.0,0.10812816955441629
1138.0,0.11210151190312767
1137.0,0.11582793047608719
1136.0,0.11935787359571504
1135.0,0.12262865413022594
1134.0,0.12569216687196105
1133.0,0.1287190271420271
1132.0,0.13194363817695853
1131.0,0.13537027545448765
1130.0,0.13912320359670227
1129.0,0.14339193156306385
1128.0,0.14831368455757254
1127.0,0.15391041964201602
1126.0,0.1600822243213189
1125.0,0.16691666582165698
1124.0,0.17418455501479646
1123.0,0.1815101777957866
1122.0,0.188357978546849
1121.0,0.1946350925335547
1120.0,0.20010831534313467
1119.0,0.2043980201058202
1118.0,0.20711825461460287
1117.0,0.2083093509798819
1116.0,0.20795868928791772
1115.0,0.20600019901552957
1114.0,0.20294030530002893
1113.0,0.19962664510865036
1112.0,0.19702114466473808
1111.0,0.19565608152013425
1110.0,0.19613336571501572
1109.0,0.1987335295103798
1108.0,0.20356444118982564
1107.0,0.2102078322693246
1106.0,0.21831641549264935
1105.0,0.22753159694671954
1104.0,0.2376215706880358
1103.0,0.24818221226312076
1102.0,0.2587695889745292
1101.0,0.2692984557181548
1100.0,0.2795925991968915
1099.0,0.28903688100472436
1098.0,0.2975694635544748
1097.0,0.30504399775018176
1096.0,0.3113132757158765
1095.0,0.31614279459965355
1094.0,0.31939257100821217
1093.0,0.3212995650016959
1092.0,0.3221194184884095
1091.0,0.3214816209598861
1090.0,0.3195738291418546
1089.0,0.31713320433767533
1088.0,0.3140792078054646
1087.0,0.3103360349842297
1086.0,0.30574588797472146
1085.0,0.30068269897861777
1084.0,0.29516339378859624
1083.0,0.28903688100472436
1082.0,0.28207997416300645
1081.0,0.2744967311406845
1080.0,0.2663213443229122
1079.0,0.2573534100612638
1078.0,0.24772101453988138
1077.0,0.2379219126653609
1076.0,0.22826557461323072
1075.0,0.2186036948032093
1074.0,0.2092223986623063
1073.0,0.20038379551850105
1072.0,0.1921268679966679
1071.0,0.18415670933673334
1070.0,0.17619984625012197
1069.0,0.16825816635436186
1068.0,0.1605219526258017
1067.0,0.1532918545439932
1066.0,0.14709324120304634
1065.0,0.14218522202899342
1064.0,0.13822670328130693
1063.0,0.13454067733803532
1062.0,0.1308856730206247
1061.0,0.12714475529518965
1060.0,0.12343578601615435
1059.0,0.1201016756699902
1058.0,0.1175323851046286
1057.0,0.11622503864474187
1056.0,0.11605480496572018
1055.0,0.1165657063169907
1054.0,0.11758931562603192
1053.0,0.11907213473291511
1052.0,0.12107626603243293
1051.0,0.12349349573411894
1050.0,0.126156466776564
1049.0,0.1290696416513042
1048.0,0.132179091954427
1047.0,0.13531096586314884
1046.0,0.13822670328130693
1045.0,0.14086170270546927
1044.0,0.14315032127482774
1043.0,0.14484442282300614
1042.0,0.14599776687301103
1041.0,0.1466060225493342
1040.0,0.14666689499766483
1039.0,0.14624096692523136
1038.0,0.14545106418704923
1037.0,0.14466259553045968
1036.0,0.14393604666690019
1035.0,0.14315032127482774
1034.0,0.14218522202899342
1033.0,0.1410419452819942
1032.0,0.1397219002477652
1031.0,0.13798794874978348
1030.0,0.13578566953867033
1029.0,0.13347637446715632
1028.0,0.13159069668503998
1027.0,0.1304749371427727
1026.0,0.13053358991913355
1025.0,0.13200248965504868
1024.0,0.1354889189416082
1023.0,0.14170347546611461
1022.0,0.1514414278762366
1021.0,0.16513442009996204
1020.0,0.18190613085336405
1019.0,0.19976421067264605
1018.0,0.2159535841918867
1017.0,0.2274582673590566
1016.0,0.23195418589758332
1015.0,0.22848601002033342
1014.0,0.21831641549264935
1013.0,0.20446755728984556
1012.0,0.18990195931885712
1011.0,0.176525770829699
1010.0,0.16494389827988365
1009.0,0.15527437202677397
1008.0,0.1471541819850033
1007.0,0.14014147951900724
1006.0,0.1341264717921853
1005.0,0.1290696416513042
1004.0,0.124996646399959
1003.0,0.12153565465853111
1002.0,0.11855827805860697
1001.0,0.11582793047608719
1000.0,0.1133401021387972
999.0,0.11097857790477517
998.0,0.10885296955122903
997.0,0.10695988804288215
996.0,0.10518567091669917
995.0,0.10352889952072264
994.0,0.10204318999304807
993.0,0.10078158214862709
992.0,0.09974214156222239
991.0,0.09892328427374508
990.0,0.09821485469640057
989.0,0.0975619438013351
988.0,0.09701860020249709
987.0,0.0964759355287379
986.0,0.09598811640261173
985.0,0.0955549589230904
984.0,0.09528445472131919
983.0,0.09512223303659528
982.0,0.09506817260434741
981.0,0.09506817260434741
980.0,0.09512223303659528
979.0,0.09512223303659528
978.0,0.0950141189006366
977.0,0.09496007192378841
976.0,0.09496007192378841
975.0,0.09490603167212863
974.0,0.09468993788391455
973.0,0.09431203228814788
972.0,0.09382663635595145
971.0,0.09312646527792956
970.0,0.0922125568893839
969.0,0.09124698081546634
968.0,0.09012318200960712
967.0,0.08889568219596411
966.0,0.08756536662442538
965.0,0.086239113587677
964.0,0.08502252755566908
963.0,0.08380934001946239
962.0,0.08249449044745338
961.0,0.08113125661901543
960.0,0.07977228854307139
959.0,0.07846958649875768
958.0,0.07727454200674
957.0,0.07623803917129979
956.0,0.07530729697981409
955.0,0.07437854520917098
954.0,0.0734517753643813
953.0,0.07262963696097646
952.0,0.0718090519612431
951.0,0.07109230975604719
950.0,0.07042782092345012
949.0,0.06981534770138009
948.0,0.06930561233546473
947.0,0.06864384953207203
946.0,0.06798309356579857
945.0,0.06742477650170953
944.0,0.06696850489759454
943.0,0.06656333217371957
942.0,0.06620911585658007
941.0,0.06590573164451952
940.0,0.06565307326174441
939.0,0.0653500770992892
938.0,0.06489597884855036
937.0,0.06444235490698613
936.0,0.06403953101083348
935.0,0.06363708040225546
934.0,0.06333548699992453
933.0,0.06303410289212974
932.0,0.06278310913729457
931.0,0.06253226035662252
930.0,0.06223143295006417
929.0,0.061830653609679764
928.0,0.06143024377893891
927.0,0.06103020277710969
926.0,0.06058059667068294
925.0,0.060081579630943294
924.0,0.0595831353183347
923.0,0.059135024033278416
922.0,0.05863766428823891
921.0,0.058190526991161784
920.0,0.05779345772290467
919.0,0.05744631966579017
918.0,0.05709945885970602
917.0,0.05685187064143715
916.0,0.0567528748621382
915.0,0.05690137699451481
914.0,0.05724807957018618
913.0,0.05794231615860479
912.0,0.0588862729628985
911.0,0.060081579630943294
910.0,0.06143024377893891
909.0,0.0630843190547461
908.0,0.06499684854634524
907.0,0.0671712330991534
906.0,0.06950943469373039
905.0,0.0720140529005715
904.0,0.07463633264589853
903.0,0.0772226580712021
902.0,0.07961575782164254
901.0,0.08170748724464438
900.0,0.08344078069888616
899.0,0.08470571697731355
898.0,0.08555105930144569
897.0,0.08618614761628329
896.0,0.08661005636824437
895.0,0.08682216600953208
894.0,0.0867691288864394
893.0,0.08655704514060414
892.0,0.08645104209348209
891.0,0.08650404038287651
890.0,0.08682216600953208
889.0,0.08740600224789441
888.0,0.08830984124613894
887.0,0.08932224525729482
886.0,0.09049745859458458
885.0,0.0919441259012328
884.0,0.09371884422784693
883.0,0.09604229147682952
882.0,0.09903237608087578
881.0,0.10270287794050348
880.0,0.10718217569042365
879.0,0.11232644754555254
878.0,0.11804502866039956
877.0,0.12412880927263426
876.0,0.13024040521758962
875.0,0.13572630319562085
874.0,0.14002155835797914
873.0,0.14260718907909875
872.0,0.1430899396992138
871.0,0.1413425159091921
870.0,0.1374512304752069
869.0,0.132179091954427
868.0,0.1263307072932056
867.0,0.1203880929341492
866.0,0.11475189221861393
865.0,0.10969078310005154
864.0,0.10507502264045665
863.0,0.10105553313349058
862.0,0.09761631556752848
861.0,0.09506817260434741
860.0,0.09334178232840018
859.0,0.09215885741705532
858.0,0.09146136782804049
857.0,0.09097914578884403
856.0,0.09071147583774919
855.0,0.09039048950983108
854.0,0.09012318200960712
853.0,0.08996287644694911
852.0,0.09012318200960712
851.0,0.09039048950983108
850.0,0.0905509530187334
849.0,0.09049745859458458
848.0,0.09033701484598189
847.0,0.09017663034908807
846.0,0.0900697402471693
845.0,0.09012318200960712
844.0,0.09028354676565531
843.0,0.09044397075882471
842.0,0.09049745859458458
841.0,0.09049745859458458
840.0,0.09033701484598189
839.0,0.08996287644694911
838.0,0.08937559511079884
837.0,0.08857603462370545
836.0,0.08756536662442538
835.0,0.08634506491338012
834.0,0.08491689834879956
833.0,0.0833881548906541
832.0,0.08181233864107451
831.0,0.08034671768963575
830.0,0.07904229404455076
829.0,0.07789763319239285
828.0,0.07685964397479927
827.0,0.07592757008963713
826.0,0.07504911108438939
825.0,0.07427547306393745
824.0,0.07355465218161061
823.0,0.07293775650699996
822.0,0.07232173586200852
821.0,0.0718090519612431
820.0,0.0713481533463054
819.0,0.0710411591191702
818.0,0.07093887591523451
817.0,0.07088774334533943
816.0,0.07083661679493547
815.0,0.07058107428570715
814.0,0.07022356719509815
813.0,0.06996838504902692
812.0,0.06996838504902692
811.0,0.07012147634321675
810.0,0.07032568205141221
809.0,0.07037674848475972
808.0,0.0702746216219956
807.0,0.07001940948448526
806.0,0.06976434723371505
805.0,0.06966236426227002
804.0,0.06950943469373039
803.0,0.0691018855898955
802.0,0.06844043290919477
801.0,0.06788152797087754
800.0,0.0678307540792078
799.0,0.06869471857832687
798.0,0.07083661679493547
797.0,0.07422394616325367
796.0,0.07846958649875768
795.0,0.08265206237222844
794.0,0.08576265223225898
793.0,0.08714052483764512
792.0,0.08650404038287651
791.0,0.08417821237960132
790.0,0.08086958613938555
789.0,0.0772226580712021
788.0,0.07350321072677968
787.0,0.06986635415888243
786.0,0.06646209802829528
785.0,0.06338573802478864
784.0,0.06078036414518184
783.0,0.05848856736559682
782.0,0.056456022846545606
781.0,0.05462990550969615
780.0,0.05295859474477971
779.0,0.05134256785867963
778.0,0.049927370249842395
777.0,0.0486139051197072
776.0,0.04730440041308315
775.0,0.046047116768076934
774.0,0.04474531717982
773.0,0.0435434165901003
772.0,0.04229695845116854
771.0,0.040958607678906356
770.0,0.03957679292217042
769.0,0.03829421599749461
768.0,0.03701541568300293
767.0,0.035740369803151095
766.0,0.03442204208947208
765.0,0.033154576345083564
764.0,0.03193753992355086
763.0,0.030770520137356927
762.0,0.029560137048236124
761.0,0.028445846553939003
760.0,0.027334407733889066
759.0,0.02636422658259252
758.0,0.02558042614771394
757.0,0.024936003904763915
756.0,0.024200690320592466
755.0,0.023237476732539397
754.0,0.022367834754000393
753.0,0.021773818325474092
752.0,0.02159120737696063
751.0,0.0214542995372613
750.0,0.02122621566987748
749.0,0.0209982515252789
748.0,0.020907099361673565
747.0,0.021271822861508305
746.0,0.022322112326006227
745.0,0.024476287039668643
744.0,0.028075050815808744
743.0,0.03334211579824231
742.0,0.04062466342415694
741.0,0.050414848673348
740.0,0.0627329277885873
739.0,0.07732643214144574
738.0,0.09344948089854999
737.0,0.11053021603049262
736.0,0.1281352979118051
735.0,0.1461193498754576
734.0,0.1644362483309032
733.0,0.18349356295364294
732.0,0.20356444118982564
731.0,0.2243895519936392
730.0,0.24626377782498987
729.0,0.2695407399542311
728.0,0.2939653392856494
727.0,0.318306607995436
726.0,0.34017884194429504
725.0,0.3570411205902093
724.0,0.36643055744590813
723.0,0.3662286539174444
722.0,0.3565473235138126
721.0,0.3392293564723028
720.0,0.31686286851699297
719.0,0.2922595457262287
718.0,0.26825011647273667
717.0,0.24680008580058388
716.0,0.22833904065111255
715.0,0.2128939069634299
714.0,0.20038379551850105
713.0,0.19064232978889417
712.0,0.1831623690979649
711.0,0.17704775945251838
710.0,0.1714689933548985
709.0,0.166151950468852
708.0,0.16102504504453208
707.0,0.1562690348879079
706.0,0.15193410459600853
705.0,0.14819148577176255
704.0,0.1447838052666366
703.0,0.14110204276799654
702.0,0.1367961409713705
701.0,0.132179091954427
700.0,0.12743585690934855
699.0,0.12268625668776156
698.0,0.11804502866039956
697.0,0.1137349409702435
696.0,0.11008231656379408
695.0,0.10695988804288215
694.0,0.10402526764093545
693.0,0.10105553313349058
692.0,0.09843270997155007
691.0,0.09653017149282994
690.0,0.09539263618455207
689.0,0.09463593123310776
688.0,0.09393445524476318
687.0,0.09323411045927221
686.0,0.09280368972839836
685.0,0.09274991711867164
684.0,0.09280368972839836
683.0,0.09285746899685954
682.0,0.09280368972839836
681.0,0.09296504751658308
680.0,0.09318028453345462
679.0,0.09301884677114591
678.0,0.09183679994445204
677.0,0.08964244272712252
676.0,0.08682216600953208
675.0,0.08396738981143059
674.0,0.08165507103772507
673.0,0.07977228854307139
672.0,0.07794959783282618
671.0,0.07608277688689435
670.0,0.07510073598571654
669.0,0.07494587968815725
668.0,0.07473949048056472
667.0,0.07381195089279391
666.0,0.07145053299833615
665.0,0.06884736147670667
664.0,0.06742477650170953
663.0,0.06676587128519196
662.0,0.06575411897692884
661.0,0.06439198148213077
660.0,0.06343599486473406
659.0,0.06318476880236723
658.0,0.06313454102437754
657.0,0.06243196139961715
656.0,0.060880282351513104
655.0,0.05868737463933793
654.0,0.05670338543334519
653.0,0.05531996611868961
652.0,0.05458065739693696
651.0,0.05453141486818014
650.0,0.05502409158795207
649.0,0.055912320584565744
648.0,0.0571489934456626
647.0,0.05843887976392925
646.0,0.05938391766259232
645.0,0.0595831353183347
644.0,0.05908526241971446
643.0,0.05814087347462649
642.0,0.05724807957018618
641.0,0.05670338543334519
640.0,0.05650548409389744
639.0,0.05660442349104544
638.0,0.05729763111133224
637.0,0.059035506507200575
636.0,0.06253226035662252
635.0,0.06742477650170953
634.0,0.07175781684269089
633.0,0.07329750581735506
632.0,0.07186029312488018
631.0,0.06915280831750303
630.0,0.0666645899223488
629.0,0.06469430971007495
628.0,0.06303410289212974
627.0,0.061830653609679764
626.0,0.061380218497318895
625.0,0.06118017497378969
624.0,0.06093025007657582
623.0,0.060730413661268745
622.0,0.06108018775522828
621.0,0.06198090252378963
620.0,0.06283329628496737
619.0,0.06318476880236723
618.0,0.06268275223750575
617.0,0.061580354206806964
616.0,0.06063052992534024
615.0,0.060530669156469985
614.0,0.06118017497378969
613.0,0.061380218497318895
612.0,0.060081579630943294
611.0,0.05764465029232335
610.0,0.05561604235915585
609.0,0.05522131887649295
608.0,0.05610995175152733
607.0,0.057198533682059516
606.0,0.05754547365752294
605.0,0.05729763111133224
604.0,0.0571489934456626
603.0,0.05734718830678798
602.0,0.057049929922901255
601.0,0.05507339001378431
600.0,0.05163594401163074
